
Integration time [ms]:   0,040
Averaging Nr. [scans]: 11
Smoothing Nr. [pixels]: 0
Data measured with spectrometer [name]: 7318044SP
Wave   ;Sample   ;Dark     ;Reference
[nm]   ;[counts] ;[counts] ;[counts] 

186,757;   24,711;   31,551;    1,318
187,357;   56,005;   22,551;    0,955
187,958;   31,832;   15,460;   -1,591
188,558;   83,599;    8,915;   -1,227
189,159;   51,764;    6,733;   -4,500
189,759;   11,992;    7,278;   -3,591
190,360;   20,505;    2,824;   -2,136
190,960;   58,302;    2,915;   -4,136
191,560;   67,847;    3,189;   -6,591
192,161;  323,817;    4,372;   -3,500
192,761;  156,063;    4,010;   -3,227
193,361;   96,351;    1,556;   -3,773
193,962;  145,546;    2,010;   -2,682
194,562;   63,919;    1,189;   -3,955
195,162;   99,169;   -2,448;   -2,227
195,762;  251,644;   -3,176;   -0,045
196,362;  195,316;    1,370;   -2,500
196,963;   64,711;    2,006;   -0,864
197,563;  134,246;    1,551;   -0,955
198,163;   72,013;    0,096;   -0,682
198,763;   88,958;    1,733;   -0,500
199,363;  183,138;    3,096;   -0,500
199,963;  141,294;    0,369;    0,409
200,563;  126,192;    2,823;   -1,409
201,163;  105,940;    3,277;   -0,227
201,763;  183,888;    3,732;    0,318
202,363;  126,131;    1,459;    1,500
202,963;  223,822;    1,459;    1,045
203,563;  322,103;    0,277;    0,500
204,162;  177,054;    2,096;   -1,864
204,762;  167,508;    0,550;    0,591
205,362;  126,750;    3,004;    1,955
205,962;  211,566;    3,096;    1,955
206,562;  211,779;    1,823;    2,318
207,161;  183,682;   -0,087;    0,318
207,761;  347,722;    1,277;    2,409
208,361;  224,348;   -0,268;    1,409
208,960;  314,885;    0,459;    1,500
209,560;  372,631;    1,277;    1,591
210,160;  363,574;    0,550;    1,864
210,759;  310,048;    4,186;    1,227
211,359;  317,153;    1,459;    1,045
211,958;  573,424;    1,277;    2,045
212,558;  646,270;    1,732;    1,864
213,157;  486,680;    1,822;    1,500
213,757;  904,307;    3,822;   -0,227
214,356;  612,718;    1,277;   -0,409
214,956;  917,378;    3,095;    0,409
215,555;  558,815;    2,095;    2,136
216,154;  502,848;   -2,723;   -0,591
216,754;  501,100;    0,277;    0,773
217,353;  620,572;   -0,268;   -1,045
217,952;  463,184;   -0,178;    0,318
218,552;  705,013;    1,368;   -0,773
219,151;  587,446;    0,277;    0,955
219,750;  572,260;    0,004;   -0,227
220,349;  624,578;   -0,451;    1,045
220,948;  746,725;   -1,360;    1,136
221,548;  695,859;    0,913;    1,227
222,147;  800,385;   -0,087;   -0,409
222,746; 1072,330;   -0,451;   -0,955
223,345;  921,019;    0,731;    0,500
223,944;  910,421;   -0,451;    0,773
224,543; 1025,011;    1,004;   -1,409
225,142; 1146,651;    0,094;    0,136
225,741; 1016,188;   -0,814;    1,045
226,340; 1010,275;   -0,451;   -0,955
226,939; 1386,001;   -0,996;   -0,136
227,538; 1194,918;   -0,360;   -0,773
228,137; 1391,882;   -0,814;    0,864
228,735; 1406,326;   -0,541;    1,227
229,334; 1181,032;   -0,905;   -0,227
229,933; 1535,030;    0,459;    0,591
230,532; 1620,358;    1,186;   -0,409
231,131; 1696,580;    1,732;    0,318
231,729; 1653,614;   -2,450;   -2,318
232,328; 1609,276;   -0,723;   -1,500
232,927; 1579,119;    1,004;   -0,500
233,525; 1636,142;    3,640;    0,045
234,124; 1806,324;    2,368;   -1,591
234,723; 1732,318;    0,913;   -1,045
235,321; 1811,544;    2,277;    0,136
235,920; 1960,988;    1,186;   -1,227
236,518; 2190,305;    3,459;    0,318
237,117; 2172,836;    0,004;   -0,227
237,715; 2272,373;    0,640;   -0,500
238,314; 2351,572;   -0,087;   -2,318
238,912; 2540,333;   -0,723;   -1,409
239,510; 2474,381;    0,459;   -1,227
240,109; 2656,705;    0,004;    3,773
240,707; 2638,997;   -0,996;    1,227
241,305; 2862,741;    0,550;    0,136
241,904; 3054,195;   -0,178;   -2,045
242,502; 3115,227;   -0,632;   -0,227
243,100; 3068,170;   -0,087;   -0,955
243,698; 3272,434;    0,732;    1,682
244,297; 3432,043;   -0,632;    0,682
244,895; 3393,432;   -0,269;   -2,318
245,493; 3722,413;    2,186;   -0,591
246,091; 3712,882;    1,368;   -1,318
246,689; 3726,053;    1,004;    0,591
247,287; 3912,736;    0,822;   -1,136
247,885; 4180,857;   -1,451;    1,227
248,483; 4278,874;    1,822;   -0,500
249,081; 4430,569;    0,185;    1,591
249,679; 4621,379;   -0,178;    1,682
250,277; 4868,146;   -1,723;    0,864
250,875; 4884,999;   -1,087;   -1,045
251,473; 4913,516;   -1,178;    0,500
252,071; 5131,510;    1,459;    1,045
252,669; 5300,057;   -1,814;    0,318
253,267; 5508,144;   -0,087;    0,773
253,864; 5483,918;   -0,360;    0,682
254,462; 5500,552;    1,640;    1,591
255,060; 5421,681;   -0,269;    1,318
255,658; 5702,512;    0,822;   -0,136
256,255; 6116,180;    0,186;   -2,045
256,853; 6011,947;   -0,269;    1,409
257,451; 6035,483;    0,822;    1,864
258,048; 6378,612;    1,822;    1,864
258,646; 6101,178;    1,731;   -1,045
259,243; 6320,129;   -0,087;    2,227
259,841; 6362,398;   -0,814;    0,318
260,438; 6262,924;   -0,087;    0,864
261,036; 6901,269;   -1,905;    1,409
261,633; 6844,170;   -0,087;    2,227
262,231; 6624,605;    2,731;   -0,045
262,828; 6715,923;   -0,905;    1,136
263,425; 6796,954;    0,913;   -0,591
264,023; 7057,590;    0,186;    0,045
264,620; 6680,975;   -0,360;   -0,318
265,217; 7029,432;   -2,087;    3,136
265,815; 7078,548;   -1,905;    2,136
266,412; 6959,816;    0,731;    0,136
267,009; 7003,472;   -1,451;    0,773
267,606; 6975,451;    0,822;   -0,955
268,203; 6913,345;   -0,269;   -0,591
268,801; 7200,990;    1,731;    0,591
269,398; 7448,922;   -0,360;    2,500
269,995; 7427,923;    0,277;    1,591
270,592; 7233,612;   -0,632;   -0,500
271,189; 7428,501;    0,186;    0,409
271,786; 7531,271;   -0,632;    1,227
272,383; 7414,563;   -1,087;    0,227
272,980; 7551,823;    0,277;    0,318
273,577; 7979,121;    0,004;    1,227
274,174; 7581,197;    0,822;    2,591
274,771; 7604,512;   -0,814;   -0,773
275,367; 7788,384;    2,277;    1,409
275,964; 7766,032;    0,731;   -0,500
276,561; 7833,453;    1,549;   -1,045
277,158; 8027,106;    0,095;   -1,773
277,755; 8195,842;    2,185;    0,409
278,351; 7637,804;   -0,451;   -1,500
278,948; 7960,888;   -0,815;    0,045
279,545; 7975,522;   -1,360;    2,318
280,141; 8616,077;   -1,723;   -2,045
280,738; 8511,764;   -0,451;   -0,136
281,334; 8744,104;   -1,633;    0,591
281,931; 8221,873;   -0,087;   -1,318
282,528; 8381,763;    0,822;   -0,500
283,124; 9054,734;   -1,087;   -0,500
283,721; 8959,467;   -0,451;    1,409
284,317; 8810,042;    0,185;    2,500
284,913; 9398,000;   -1,360;    0,591
285,510; 9630,909;    0,640;   -0,318
286,106; 9688,829;   -2,269;   -0,955
286,703; 9304,550;   -0,360;    1,955
287,299; 9538,216;   -1,451;   -0,591
287,895; 9765,736;    0,822;   -1,045
288,491;10381,558;    0,186;    2,136
289,088;10183,529;   -2,360;    2,409
289,684;10306,512;   -1,723;    1,500
290,280;10329,227;    0,368;    0,682
290,876;10472,112;    1,822;    5,500
291,472;10382,140;    1,276;    2,227
292,068;10551,577;    1,367;    0,227
292,665;10304,943;    2,095;    0,773
293,261; 9983,159;    0,276;    2,136
293,857;10399,842;    2,913;    2,136
294,453;10368,474;    3,550;    0,955
295,049;10310,779;   -0,268;    1,955
295,644;10402,496;    0,095;    0,136
296,240;10367,828;   -0,905;   -0,136
296,836;10432,868;   -0,995;    0,318
297,432;10720,530;    1,096;   -0,500
298,028;10825,052;    0,732;    0,773
298,624;11277,173;    1,459;    1,864
299,220;11513,862;    2,368;    0,591
299,815;11197,693;    1,005;   -0,409
300,411;11053,052;    0,914;    1,773
301,007;11076,112;    1,368;    0,227
301,602;11127,037;   -0,541;   -2,318
302,198;11333,642;    0,732;   -0,773
302,794;11672,160;    1,187;   -0,500
303,389;11795,646;   -1,177;    1,045
303,985;11927,644;    0,550;    1,409
304,580;11903,968;    1,459;    1,591
305,176;11908,291;   -3,086;    0,136
305,771;11786,056;   -1,268;   -1,227
306,367;11688,824;    4,095;    0,136
306,962;12007,128;    0,641;    1,500
307,558;11702,879;   -0,450;    0,136
308,153;11650,302;    1,095;   -1,136
308,748;11894,659;   -0,814;    1,682
309,344;11885,585;   -0,632;   -1,318
309,939;12015,251;   -1,905;   -1,318
310,534;12229,145;   -0,086;   -1,682
311,130;12150,646;    0,459;   -2,500
311,725;11887,549;    1,004;   -0,500
312,320;12170,297;    2,459;    0,045
312,915;12050,883;    1,459;   -1,045
313,510;12125,139;    1,550;   -0,500
314,105;12587,336;    1,096;    1,409
314,700;11921,329;   -3,086;   -1,045
315,295;11538,059;   -0,904;    0,045
315,890;11144,289;    1,277;    0,864
316,485;11471,752;   -0,359;   -0,318
317,080;11521,240;   -3,086;    1,591
317,675;12075,126;    2,005;   -0,682
318,270;11478,695;    5,550;    3,318
318,865;11468,685;    3,278;    3,045
319,460;11281,913;   -0,904;    0,591
320,055;11504,101;   -0,541;   -1,227
320,650;11171,833;   -1,995;   -0,591
321,244;11233,245;   -0,177;   -1,409
321,839;12173,179;   -1,541;   -0,227
322,434;12065,207;   -1,086;   -1,591
323,029;11686,964;    1,732;    1,591
323,623;11521,477;    1,550;    0,773
324,218;11350,617;    2,368;    1,409
324,812;11263,171;    1,096;    1,591
325,407;11103,276;   -0,814;    2,045
326,002;11025,809;    0,277;   -0,409
326,596;11344,479;    0,914;    1,318
327,191;11557,756;    0,823;   -1,045
327,785;11161,934;   -0,813;   -0,227
328,379;11410,336;    1,368;    0,136
328,974;11209,278;    0,914;   -3,955
329,568;11447,033;    0,186;   -2,409
330,163;11295,837;    2,096;    1,045
330,757;11642,477;    2,459;    1,591
331,351;11039,576;    0,459;    0,682
331,945;11375,422;    0,914;    1,409
332,540;10990,496;   -1,723;   -0,591
333,134;11202,828;   -1,086;    0,773
333,728;11493,190;    0,005;    0,318
334,322;11814,985;   -1,177;   -0,864
334,916;11113,365;    0,277;    0,955
335,510;11492,044;   -0,450;   -0,136
336,105;11750,393;   -1,086;    1,591
336,699;11517,891;   -1,086;    0,591
337,293;11484,401;   -1,723;    0,318
337,887;11647,331;   -2,723;    1,955
338,481;11800,519;    0,459;    0,591
339,074;11978,536;   -0,359;    2,682
339,668;11808,631;   -1,632;    1,227
340,262;12126,781;    1,732;    3,227
340,856;11636,346;    1,822;   -0,682
341,450;10972,952;    1,004;    1,864
342,044;11914,219;    1,459;    0,136
342,637;11702,887;    0,913;   -2,136
343,231;11608,096;   -2,360;    0,682
343,825;11590,608;   -1,086;   -0,591
344,419;11535,213;   -1,995;    0,500
345,012;11375,697;    2,459;    4,045
345,606;11400,145;    4,641;    1,591
346,199;11242,587;   -1,813;   -0,227
346,793;10765,046;    1,914;    2,045
347,386;10977,308;   -0,813;   -1,136
347,980;10986,590;   -0,268;   -0,045
348,573;10752,842;    2,278;    0,409
349,167;10452,254;    5,278;    4,773
349,760;10790,218;    2,914;    2,682
350,354;10778,210;   -0,813;    1,136
350,947;10549,466;    1,096;    1,682
351,540;10179,115;   -0,358;   -1,409
352,134;10140,343;    1,096;    1,136
352,727;10217,628;   -0,086;    1,136
353,320;10008,520;    0,005;    0,591
353,913; 9824,345;   -1,995;    1,864
354,507;10025,943;    0,823;   -1,227
355,100; 9988,789;    0,460;    0,864
355,693; 9253,671;    2,005;    2,409
356,286; 9317,787;    0,823;    2,773
356,879; 9649,057;   -0,722;    1,227
357,472; 9224,850;   -0,904;    1,500
358,065; 9445,557;   -0,722;    2,500
358,658; 9329,320;   -0,540;    2,318
359,251; 8993,341;   -1,631;   -0,591
359,844; 8475,616;   -1,904;   -1,136
360,437; 8629,685;   -2,995;    0,045
361,030; 8874,398;    1,369;   -0,682
361,623; 8438,783;    2,824;    0,318
362,215; 8512,013;   -0,086;    2,045
362,808; 8349,713;   -2,358;   -1,682
363,401; 8513,574;   -2,449;    0,136
363,994; 8253,627;   -0,631;   -1,500
364,586; 8163,900;    0,824;   -1,500
365,179; 8358,834;   -0,449;   -1,136
365,772; 7836,973;   -1,995;    2,045
366,364; 8188,337;    1,915;   -3,227
366,957; 8359,761;    2,279;   -0,045
367,549; 8353,486;    2,188;   -0,864
368,142; 8000,404;    1,825;   -1,500
368,734; 8169,001;    0,734;   -2,136
369,327; 8126,436;    1,643;   -0,500
369,919; 8051,872;   -1,538;    0,409
370,512; 7843,127;   -1,083;   -0,500
371,104; 7624,639;   -0,901;    1,591
371,696; 7769,687;    1,191;   -0,955
372,289; 7855,261;    0,373;    1,136
372,881; 8014,397;   -2,080;    1,318
373,473; 7948,415;   -2,170;    1,136
374,066; 7747,033;   -0,169;    0,500
374,658; 7574,625;    0,378;    1,136
375,250; 7928,970;    0,653;   -1,409
375,842; 7774,373;    0,473;   -0,045
376,434; 7667,836;   -0,435;   -0,409
377,026; 8240,482;    0,204;   -2,500
377,618; 8119,005;   -0,158;   -0,682
378,210; 7932,562;   -0,338;   -1,955
378,802; 7793,213;    0,754;   -0,591
379,394; 7774,863;    1,846;    0,682
379,986; 8368,976;    1,393;   -0,955
380,578; 8457,374;   -0,153;    0,773
381,170; 7799,069;   -0,972;    0,045
381,762; 7747,249;    0,755;    1,409
382,354; 7954,171;   -0,065;   -1,318
382,945; 8041,521;   -2,976;    0,318
383,537; 8183,686;   -2,705;   -1,955
384,129; 8184,942;   -2,160;   -1,136
384,721; 8388,692;   -0,252;    0,955
385,312; 8321,410;   -0,161;   -0,955
385,904; 8427,151;   -2,706;    1,591
386,496; 7751,973;   -0,979;    1,045
387,087; 7925,875;    1,022;    2,500
387,679; 7933,569;   -1,160;    0,045
388,270; 8076,871;    2,840;    2,045
388,862; 8208,438;    1,295;   -0,318
389,453; 8101,514;   -0,887;    1,045
390,045; 8391,207;   -0,705;   -2,682
390,636; 8333,161;    0,204;   -0,591
391,227; 8170,520;   -0,523;   -0,045
391,819; 8251,063;    0,204;    0,773
392,410; 8358,919;    1,022;    0,045
393,001; 8285,157;   -0,979;   -1,591
393,593; 8581,440;    1,930;   -0,045
394,184; 8460,269;    1,385;   -0,409
394,775; 8375,950;    1,839;    2,136
395,366; 8539,354;    1,385;    0,773
395,957; 8590,701;    0,113;    0,136
396,548; 8887,249;   -0,342;    2,682
397,139; 9202,372;   -2,433;    0,591
397,730; 8908,572;   -1,888;    0,955
398,321; 8965,189;   -1,252;    0,955
398,912; 8994,853;   -0,615;    0,136
399,503; 9037,229;   -3,524;   -1,409
400,094; 8487,796;    0,294;    1,682
400,685; 8354,635;   -0,433;    0,045
401,276; 8449,642;    0,930;   -0,955
401,867; 8762,479;   -0,888;    0,773
402,458; 8830,769;   -2,251;   -2,318
403,048; 8791,825;    1,112;    0,591
403,639; 8382,498;    0,840;    0,864
404,230; 8634,426;    2,476;    0,318
404,821; 8562,593;   -0,615;    0,045
405,411; 8656,180;    1,203;   -2,591
406,002; 8264,971;   -1,252;   -1,136
406,592; 8112,144;    2,294;    0,045
407,183; 8434,890;    0,566;   -1,500
407,774; 8338,083;    3,475;   -0,136
408,364; 8629,226;    0,930;    0,409
408,954; 8223,491;    0,384;    1,227
409,545; 8248,277;    1,021;    1,045
410,135; 7764,118;    1,293;    0,500
410,726; 7927,771;    1,838;    0,318
411,316; 8300,084;    0,111;    0,773
411,906; 7914,078;   -0,253;   -0,409
412,497; 7375,994;   -1,070;   -0,045
413,087; 8018,082;   -1,980;   -0,227
413,677; 8336,805;   -0,707;    3,864
414,267; 8134,638;    0,656;    1,409
414,857; 8119,428;   -2,980;    4,227
415,448; 8413,714;    0,839;    0,500
416,038; 8046,619;    0,020;   -0,591
416,628; 7994,773;   -0,889;    0,409
417,218; 7443,796;    0,565;    3,318
417,808; 7663,950;    0,202;   -0,409
418,398; 8096,358;    0,020;    2,682
418,988; 8080,741;    2,020;    0,591
419,578; 8315,198;   -0,707;    1,409
420,168; 8601,553;   -1,343;   -0,955
420,757; 8191,566;   -1,343;   -1,500
421,347; 7783,792;    0,111;   -0,227
421,937; 7906,612;    2,292;    1,409
422,527; 7871,658;    0,838;   -0,773
423,116; 7646,018;   -0,253;   -0,045
423,706; 7922,212;   -1,889;    0,318
424,296; 7874,191;    1,384;    0,682
424,885; 8235,646;   -0,071;   -3,045
425,475; 8487,168;    1,474;   -2,864
426,065; 8348,908;   -0,980;   -0,318
426,654; 7977,045;   -0,435;   -0,318
427,244; 8079,062;    0,020;    1,409
427,833; 7499,079;    1,383;   -0,500
428,423; 7907,077;   -0,526;    1,136
429,012; 8576,453;   -0,344;   -1,136
429,601; 8034,452;   -1,344;    0,136
430,191; 8238,484;    1,292;    4,318
430,780; 7851,337;   -0,344;   -0,409
431,369; 7788,099;    0,746;   -0,045
431,959; 8312,186;   -1,254;    0,500
432,548; 8039,797;   -1,163;   -0,045
433,137; 8128,924;   -1,254;   -1,318
433,726; 8626,283;    0,292;    0,500
434,315; 7955,163;   -0,526;    2,409
434,905; 8018,164;   -1,254;    1,409
435,494; 7847,078;    0,746;    0,955
436,083; 8198,938;   -0,981;   -0,955
436,672; 8056,702;    0,110;    0,500
437,261; 7611,809;    0,292;   -1,955
437,850; 7689,579;    1,383;    0,682
438,439; 7642,845;    3,291;    1,955
439,027; 7461,566;    3,655;    1,773
439,616; 7687,811;    2,927;    1,227
440,205; 7482,394;    0,200;   -2,136
440,794; 7454,318;    2,109;   -0,045
441,383; 7609,821;   -1,346;   -0,591
441,971; 7389,960;   -2,436;    0,591
442,560; 7190,884;    0,563;   -1,773
443,149; 6894,986;    0,379;   -1,318
443,737; 6990,993;   -0,074;   -2,318
444,326; 7168,097;    0,018;    0,318
444,915; 7125,260;   -1,982;    0,864
445,503; 7413,326;   -2,891;   -0,318
446,092; 6762,138;    0,382;    2,136
446,680; 7164,205;    0,382;    0,318
447,269; 7228,266;   -0,346;   -0,318
447,857; 6942,478;    0,018;   -1,773
448,445; 6947,494;    0,563;    1,318
449,034; 7108,919;   -1,528;   -1,136
449,622; 7111,930;   -1,073;    3,500
450,210; 6539,657;    2,017;    2,227
450,799; 6934,913;    0,290;   -0,591
451,387; 6776,213;    1,381;   -0,591
451,975; 6451,187;    2,654;    0,864
452,563; 6507,054;    3,472;    2,318
453,151; 6449,906;   -0,528;   -1,227
453,739; 6335,123;   -1,347;    0,136
454,328; 6201,589;    2,381;   -2,136
454,916; 5967,791;    2,562;   -0,136
455,504; 6054,758;    1,017;    1,227
456,092; 6129,018;    0,017;   -1,591
456,679; 6005,834;    1,472;    0,682
457,267; 6135,591;    4,017;    1,045
457,855; 6088,138;    1,017;    1,409
458,443; 5784,664;   -0,165;    1,682
459,031; 5960,597;    0,108;    2,409
459,619; 6229,607;   -1,801;    2,864
460,206; 6185,009;    0,835;    2,045
460,794; 6244,918;   -2,983;   -0,227
461,382; 6431,723;   -0,529;   -0,864
461,970; 6052,019;    1,198;    1,864
462,557; 6064,032;   -0,711;   -0,682
463,145; 6189,154;   -3,165;   -1,682
463,732; 6271,129;    2,016;   -1,045
464,320; 6118,234;   -0,075;   -3,045
464,907; 5883,923;    2,743;   -0,773
465,495; 5727,487;    0,743;   -1,227
466,082; 5810,327;   -1,984;   -0,045
466,670; 5626,824;   -2,529;    1,227
467,257; 5947,020;   -1,711;    2,045
467,844; 6076,604;   -0,075;    0,045
468,432; 6029,862;    0,834;    3,500
469,019; 5633,942;    0,925;   -1,773
469,606; 5928,830;    0,470;    3,682
470,193; 5775,085;   -1,439;    0,227
470,780; 5477,745;   -2,075;    0,864
471,368; 5609,969;   -1,257;   -0,773
471,955; 5413,783;    1,379;   -0,682
472,542; 5119,728;    0,652;   -1,136
473,129; 5205,813;   -0,166;    0,136
473,716; 4967,341;    1,470;    0,591
474,303; 5012,544;    0,652;   -0,864
474,890; 5155,438;   -1,439;   -0,500
475,477; 5182,178;   -1,621;    0,409
476,064; 5020,484;    1,106;   -1,591
476,650; 4869,755;    0,288;    0,318
477,237; 4693,664;   -0,258;    0,955
477,824; 4763,125;   -1,076;    0,864
478,411; 4612,355;   -1,894;   -0,318
478,997; 4676,780;    0,560;   -0,773
479,584; 4634,608;    1,196;   -0,409
480,171; 5081,391;   -0,440;   -0,773
480,757; 4847,801;    2,651;    0,773
481,344; 4875,742;    0,469;    0,409
481,931; 4428,563;    1,105;    1,045
482,517; 5016,386;   -1,258;    0,318
483,104; 5239,756;    1,106;    2,864
483,690; 5262,334;   -1,804;    0,045
484,276; 5267,509;   -0,895;    0,227
484,863; 5139,826;    2,469;    1,136
485,449; 5308,972;   -0,077;    0,318
486,035; 5223,229;   -1,986;   -0,136
486,622; 5494,553;   -0,895;    0,045
487,208; 5376,485;    1,378;    1,500
487,794; 5248,083;    0,741;    0,318
488,380; 5335,532;    0,105;   -1,409
488,967; 5387,216;   -1,168;   -0,409
489,553; 5413,354;   -1,895;   -1,409
490,139; 5573,977;    1,559;    0,773
490,725; 5255,121;    0,741;   -0,227
491,311; 5045,034;    3,287;    3,045
491,897; 4697,339;   -0,986;    1,500
492,483; 4794,730;    0,105;    1,227
493,069; 5168,711;    3,923;    0,864
493,655; 4968,673;    1,650;    0,682
494,241; 4960,677;    1,377;   -0,955
494,826; 5271,616;    0,287;   -1,045
495,412; 4999,104;    2,559;   -0,682
495,998; 5252,734;   -0,805;   -0,318
496,584; 5362,630;    0,377;    1,045
497,169; 5468,531;    1,014;   -0,682
497,755; 5553,877;    0,650;    1,227
498,341; 6256,338;    0,559;    0,318
498,926; 6123,928;    1,832;    1,955
499,512; 6337,978;    1,286;    2,955
500,097; 6486,437;    0,195;   -0,318
500,683; 6698,765;   -0,350;    2,136
501,268; 7229,092;   -0,169;   -0,955
501,854; 7259,913;   -0,169;    1,227
502,439; 7399,845;   -0,624;   -1,773
503,024; 7773,327;    0,195;    0,500
503,610; 8058,784;   -0,078;   -0,682
504,195; 8272,115;    0,558;    1,955
504,780; 8654,317;    2,922;    1,227
505,366; 8805,799;    3,013;    2,864
505,951; 8804,711;    0,740;    1,045
506,536; 9063,500;   -3,260;   -3,682
507,121; 9256,407;    0,285;   -0,318
507,706; 9952,984;    2,376;    1,045
508,291;10543,813;    2,649;    1,136
508,876;10296,064;   -0,988;    2,591
509,461;10039,478;   -0,169;   -0,773
510,046;10636,106;    0,194;    0,318
510,631;11098,472;   -0,351;   -0,773
511,216;10943,677;    2,467;   -0,500
511,801;11539,134;   -0,442;    2,591
512,386;11998,432;    0,740;    0,500
512,971;12090,273;   -2,988;    0,955
513,555;11846,584;   -0,897;   -1,500
514,140;12812,783;   -0,442;   -3,136
514,725;12942,359;   -0,715;   -1,136
515,309;13224,660;   -0,533;    0,318
515,894;12806,343;   -0,624;   -2,227
516,479;13380,357;   -0,624;   -0,955
517,063;13334,899;    0,376;    1,227
517,648;13563,941;    1,012;   -1,136
518,232;13306,219;   -0,261;   -1,409
518,817;13695,752;   -0,079;    1,682
519,401;14080,746;    2,194;    0,591
519,985;13640,389;    1,103;    1,136
520,570;13592,522;    0,830;   -1,955
521,154;13955,181;    2,102;    0,591
521,738;14164,477;   -2,352;    2,409
522,323;14774,663;   -0,170;    1,682
522,907;14556,866;    0,466;   -0,136
523,491;14321,079;    0,557;    0,955
524,075;14370,339;    2,284;    0,591
524,659;14518,194;    1,466;    0,591
525,243;14002,451;    1,739;    0,409
525,827;14290,589;    0,648;   -0,045
526,411;15208,103;   -1,989;   -0,136
526,995;15423,083;   -0,352;    1,409
527,579;15021,201;   -0,443;   -1,045
528,163;15400,768;    0,375;   -1,500
528,747;15312,170;    2,466;   -0,773
529,331;15663,151;   -0,080;   -1,409
529,915;15916,732;    1,738;    0,955
530,499;15883,789;   -0,807;    1,227
531,082;15599,998;   -0,534;    1,591
531,666;15019,894;    1,374;    0,773
532,250;15738,339;    1,284;    2,682
532,833;16130,717;    0,920;    2,773
533,417;15961,226;   -1,807;    0,864
534,001;15944,097;    1,647;   -0,318
534,584;16712,534;    0,374;    0,500
535,168;16572,150;    0,465;    1,409
535,751;16673,575;    0,647;    0,045
536,334;16077,125;   -0,898;   -0,409
536,918;16633,400;    0,011;    1,591
537,501;16809,275;   -0,899;    1,318
538,085;16806,803;   -0,444;    1,045
538,668;17011,245;    0,829;    2,409
539,251;17348,323;    1,829;    3,773
539,834;17329,281;    0,101;    0,773
540,418;17334,338;   -1,990;    4,318
541,001;17459,401;   -0,990;    1,773
541,584;17394,045;    2,101;    2,227
542,167;17141,323;    1,374;    2,955
542,750;17283,724;    1,919;   -0,773
543,333;16878,403;    0,555;    2,136
543,916;17654,295;    0,192;    2,500
544,499;18372,367;   -1,354;    0,227
545,082;18373,910;    1,374;    3,591
545,665;18526,132;    1,919;    1,500
546,248;18898,948;    1,010;   -0,318
546,830;18483,861;   -0,445;    1,955
547,413;18922,980;    1,010;   -0,773
547,996;19479,265;    0,555;    0,500
548,579;19266,138;    0,919;    0,955
549,161;19056,227;    1,828;    2,682
549,744;18876,645;   -0,809;    0,409
550,326;19311,575;   -0,809;   -1,136
550,909;19191,507;    2,737;    0,591
551,492;19558,421;   -0,263;    0,227
552,074;19346,717;   -0,173;   -1,318
552,657;19933,511;    2,373;    0,045
553,239;19643,292;   -0,173;   -0,773
553,821;19518,717;   -1,082;    1,045
554,404;19030,558;    1,282;    1,136
554,986;19450,776;    0,464;    1,045
555,568;20119,465;    1,191;   -0,955
556,151;19303,634;    1,191;   -0,227
556,733;19456,177;   -0,264;   -0,864
557,315;19955,606;    0,100;    0,500
557,897;19777,257;    0,554;   -0,500
558,479;19925,767;   -1,991;    1,318
559,061;20086,356;   -0,719;   -0,864
559,643;20475,902;   -0,264;    0,045
560,225;20851,644;    1,645;    2,864
560,807;20824,902;    0,918;    0,318
561,389;20272,113;    0,554;    2,318
561,971;21104,424;    0,463;    2,136
562,553;20868,673;   -1,628;    1,591
563,135;21070,494;   -0,537;    1,136
563,717;20668,995;    3,372;    1,136
564,298;21414,043;    3,645;   -0,045
564,880;21143,373;    0,645;   -1,409
565,462;21370,464;    0,645;    1,318
566,043;22556,422;   -0,446;    2,318
566,625;22118,957;    1,918;    1,227
567,207;21986,238;    1,099;    1,682
567,788;23259,654;   -1,264;    1,500
568,370;24126,611;    1,917;   -0,500
568,951;24012,421;    0,190;    0,227
569,533;24977,759;   -0,628;   -0,500
570,114;25478,096;   -0,446;    0,682
570,695;26053,053;   -0,174;   -1,318
571,277;26631,725;   -0,265;   -1,682
571,858;27477,563;    2,008;   -1,136
572,439;28458,392;    1,554;   -1,045
573,021;28677,621;    2,099;   -2,773
573,602;29232,757;   -1,265;    0,318
574,183;30252,406;   -2,083;    2,227
574,764;30437,886;   -1,629;    0,409
575,345;31095,911;    0,917;   -0,136
575,926;31747,829;   -0,356;    0,136
576,507;31690,746;    1,099;   -0,227
577,088;32917,440;    3,099;    1,682
577,669;32939,698;    0,735;    1,955
578,250;33809,951;    0,644;   -1,045
578,831;34570,004;   -1,356;   -2,227
579,412;34885,048;   -0,810;    0,955
579,993;35724,864;    1,008;    0,227
580,573;35985,545;   -0,629;   -0,955
581,154;35046,287;    0,735;   -0,591
581,735;35961,562;    0,644;    0,773
582,315;35503,926;   -0,629;    2,136
582,896;35701,522;   -0,174;    1,227
583,477;35087,685;    0,189;    1,227
584,057;35247,194;    0,553;    0,955
584,638;35539,774;    2,553;    2,318
585,218;35594,810;   -0,538;    2,682
585,799;35779,577;    0,281;   -0,227
586,379;35596,985;    0,372;    1,591
586,959;34196,655;    0,735;    0,318
587,540;33370,507;   -0,629;    2,227
588,120;32894,018;    1,007;   -0,045
588,700;31883,809;    2,553;    2,136
589,281;32262,205;    0,462;   -0,955
589,861;32255,757;    0,099;   -1,682
590,441;32037,317;    2,371;   -2,682
591,021;30842,672;   -0,265;   -2,591
591,601;31045,763;   -0,537;    0,500
592,181;31027,119;   -0,719;   -0,773
592,761;30301,429;    0,007;    1,409
593,341;30181,520;   -0,901;    0,045
593,921;30130,133;   -0,265;    1,591
594,501;30068,144;   -0,538;    1,318
595,081;29896,146;    0,917;   -0,318
595,661;30313,592;   -1,447;    0,955
596,240;30854,161;   -0,537;    0,136
596,820;30557,358;    0,372;    1,955
597,400;30703,594;    2,008;    0,773
597,980;30875,928;    2,008;    1,045
598,559;30868,835;    2,735;   -0,227
599,139;30549,444;   -0,174;   -1,227
599,718;30518,808;   -0,174;   -0,409
600,298;30749,233;    0,735;    0,682
600,877;30977,142;    2,917;    1,409
601,457;31264,430;    2,281;    1,136
602,036;31141,389;    0,190;    2,045
602,616;31423,736;    0,644;    1,682
603,195;31807,874;   -0,355;    3,500
603,774;31293,449;   -0,901;    2,045
604,354;31154,345;    0,826;   -0,500
604,933;30628,095;    0,463;    1,864
605,512;30725,797;    3,554;    0,591
606,091;30744,675;   -0,537;    3,773
606,671;31573,770;    0,281;    0,773
607,250;30652,518;    1,644;    3,136
607,829;30889,730;    2,372;    3,227
608,408;30718,165;    1,190;    2,591
608,987;29699,656;    1,281;    3,409
609,566;30004,693;   -1,265;   -2,500
610,145;30137,665;   -1,082;    0,682
610,723;30557,468;    4,372;    6,864
611,302;29769,016;   -0,446;    1,682
611,881;29278,373;    5,008;   11,227
612,460;30161,189;    1,645;    3,955
613,039;30514,466;   -0,082;    2,045
613,617;29202,352;    1,736;    4,773
614,196;29405,223;    1,099;    1,227
614,775;29782,320;    1,009;    2,409
615,353;29677,989;    0,736;    0,864
615,932;29352,805;    0,100;    2,409
616,510;29948,128;    0,554;    0,591
617,089;29491,439;    7,100;   17,591
617,667;29218,542;    2,372;    6,136
618,246;29057,813;   -1,537;    1,318
618,824;29218,549;   -3,355;   -0,955
619,402;28754,014;   -2,900;   -1,773
619,981;29285,149;   -0,173;   -1,045
620,559;29015,930;    0,009;    1,682
621,137;28527,868;   -0,718;    1,864
621,715;28543,763;   -1,173;   -0,682
622,293;28457,733;   -0,537;   -0,773
622,871;28917,515;   -0,718;    0,500
623,450;28469,818;    0,373;   -0,864
624,028;28336,862;    0,191;   -0,955
624,606;28011,689;   -1,718;    1,682
625,183;28399,234;   -1,536;   -1,136
625,761;27952,588;    1,009;    1,136
626,339;28311,162;    1,373;    2,591
626,917;28675,184;   -0,172;   -0,045
627,495;28700,977;   -0,354;    1,318
628,073;28081,398;   -0,263;    2,864
628,650;27778,163;    0,100;    2,136
629,228;28242,809;    0,373;    4,409
629,806;27593,366;    2,282;    1,136
630,383;27867,698;    1,464;   -0,318
630,961;27611,309;    2,555;   -0,955
631,539;27382,825;    2,464;    0,227
632,116;26802,309;   11,373;   15,409
632,694;27344,446;    2,555;    6,500
633,271;27685,597;    0,828;    2,682
633,848;27555,744;    1,828;    2,045
634,426;27592,457;   -1,081;    1,773
635,003;26661,771;    1,101;   -0,409
635,580;26997,819;    1,192;    3,682
636,158;27592,172;    3,737;    1,227
636,735;27520,267;    0,555;   -0,500
637,312;27645,763;   -0,809;   -0,682
637,889;27743,462;   -4,354;   -0,682
638,466;27147,392;   -3,990;   -0,409
639,043;27214,574;    2,101;   -1,136
639,620;27571,257;   -2,262;   -0,955
640,197;27921,970;    1,100;    1,682
640,774;28013,496;   -0,172;    1,136
641,351;28463,386;    0,737;    1,136
641,928;27830,730;   -0,627;    1,409
642,505;27476,074;    0,828;   -0,500
643,082;27592,146;   -1,718;    1,227
643,658;26488,672;   -0,718;    1,500
644,235;27294,926;    1,191;    2,500
644,812;27660,088;    1,918;    0,773
645,388;27393,796;   -0,991;    1,409
645,965;27486,413;   -0,809;    1,682
646,542;27571,666;   -1,445;   -0,227
647,118;27561,011;    1,009;   -0,955
647,695;27904,173;   -0,263;    1,136
648,271;27750,790;   -0,536;    0,500
648,848;28076,044;    0,736;    2,227
649,424;27927,934;    0,827;    1,318
650,000;27715,914;   -0,354;   -1,045
650,577;27497,077;   -0,627;   -0,955
651,153;27988,239;   -1,809;    0,955
651,729;29021,856;    1,191;    0,864
652,305;29871,382;    0,645;    2,773
652,881;35942,181;   -0,082;    1,136
653,458;43413,162;    1,100;    0,227
654,034;46909,052;    0,282;    1,591
654,610;48170,578;    0,554;    0,773
655,186;49514,104;    0,645;    3,045
655,762;49171,267;   -0,991;    0,409
656,338;49199,429;    0,100;    0,136
656,913;50191,773;   -0,082;    0,409
657,489;49445,027;    0,827;   -0,318
658,065;49433,462;   -0,173;   -1,591
658,641;50074,261;   -0,900;   -0,864
659,217;49270,242;   -0,991;    0,409
659,792;48656,404;    0,645;   -0,409
660,368;48850,112;   -2,173;   -0,682
660,944;47936,911;   -2,082;    1,227
661,519;41787,073;   -0,628;    0,409
662,095;35224,690;   -1,719;    0,591
662,670;30831,035;    1,281;   -0,136
663,246;29916,106;    1,009;   -0,409
663,821;29319,905;    0,281;    1,682
664,396;28854,068;    0,009;    1,864
664,972;29078,139;    0,009;   -0,500
665,547;29352,756;    1,372;    0,136
666,122;29474,192;   -1,082;    0,318
666,698;29751,263;   -0,173;    0,318
667,273;29025,244;   -0,173;    0,136
667,848;29956,134;    2,372;    1,500
668,423;29774,478;    2,190;    2,318
668,998;30323,004;    2,827;   -0,682
669,573;30903,894;   -3,264;   -1,500
670,148;30764,147;   -1,446;   -0,682
670,723;30503,310;   -1,810;    0,318
671,298;30884,472;    2,372;    1,045
671,873;31050,635;   -0,082;   -0,136
672,448;30960,525;    0,645;    0,136
673,023;31280,414;   -1,992;   -0,227
673,597;31671,213;    0,827;    2,318
674,172;31444,376;   -0,355;    0,318
674,747;30875,266;    0,372;   -1,045
675,321;30685,792;   -0,628;    3,318
675,896;30262,681;    0,645;    1,045
676,471;31344,299;    2,645;    1,591
677,045;31058,279;   -1,264;    0,682
677,620;31181,078;    0,190;    1,136
678,194;31468,968;   -2,628;    1,136
678,769;30978,676;   -1,083;   -0,318
679,343;31236,838;   -0,628;    1,773
679,917;31123,183;   -1,446;    1,955
680,492;31206,709;    0,826;    3,227
681,066;31387,235;    3,372;    0,409
681,640;31453,761;    1,463;   -0,318
682,214;32303,833;    0,735;    0,500
682,788;31852,086;   -1,356;   -0,773
683,363;31818,067;   -1,810;    1,682
683,937;31507,138;   -1,719;   -0,318
684,511;32257,210;    0,463;   -0,591
685,085;31973,372;   -1,356;    0,318
685,659;31670,171;   -2,538;    0,864
686,232;31982,243;   -0,356;   -0,318
686,806;31664,860;   -0,901;    0,409
687,380;32292,841;   -0,174;    0,591
687,954;32527,821;   -1,174;    1,136
688,528;32250,802;   -0,719;    1,955
689,101;33000,146;   -3,992;    1,045
689,675;32560,491;   -0,356;   -0,136
690,249;31971,926;   -0,719;    0,409
690,822;32281,088;    0,280;    0,318
691,396;32402,978;   -0,265;    1,227
691,969;31813,777;    1,280;    0,136
692,543;32258,667;   -0,447;   -1,955
693,116;31907,648;   -0,265;   -1,409
693,690;31777,628;    0,099;    0,500
694,263;32293,063;   -1,083;    2,955
694,836;32391,862;    1,371;    3,591
695,410;31055,843;   -0,265;    1,773
695,983;31432,460;    0,189;    0,591
696,556;31406,713;   -0,447;   -1,045
697,129;31778,694;   -0,356;    1,409
697,703;31520,584;   -1,629;    1,955
698,276;31401,019;    1,462;   -0,773
698,849;31221,454;    1,280;    1,409
699,422;31566,162;   -1,083;    0,591
699,995;31275,052;    0,007;    0,136
700,568;31803,942;   -0,629;    3,045
701,140;31778,832;   -2,811;    1,682
701,713;31554,176;   -0,174;    2,409
702,286;31292,339;   -0,538;    0,864
702,859;31198,228;   -0,902;   -0,591
703,432;30309,754;    0,825;    0,682
704,004;30824,008;    0,462;    0,318
704,577;30660,079;   -0,629;    0,136
705,150;31238,969;    0,189;    2,500
705,722;31008,132;   -0,356;   -3,227
706,295;30791,385;   -0,175;   -0,591
706,867;30695,639;   -0,175;    1,955
707,440;30939,801;   -1,720;   -0,409
708,012;31224,873;    0,462;    0,591
708,584;31178,853;    2,462;    0,227
709,157;31343,925;    1,825;   -0,591
709,729;30958,087;    2,280;    2,045
710,301;31820,795;    0,734;    0,045
710,874;31843,231;   -1,447;   -0,227
711,446;30736,302;    0,371;    0,864
712,018;30574,556;    0,098;    0,500
712,590;30326,082;   -1,993;    1,682
713,162;30888,608;    0,825;    1,318
713,734;31172,225;    1,825;   -2,045
714,306;31024,751;   -1,902;   -0,409
714,878;29663,005;    0,825;    0,864
715,450;30517,531;    0,643;    0,864
716,022;30688,148;    1,552;    1,318
716,593;30808,128;    0,189;    0,591
717,165;30828,927;   -3,175;   -1,227
717,737;30544,635;    0,280;    0,409
718,309;30119,889;    0,280;   -0,045
718,880;30051,506;   -0,539;   -1,409
719,452;30296,032;   -0,175;   -1,591
720,024;29927,649;    0,734;   -0,591
720,595;30453,630;   -2,902;    0,955
721,167;30008,065;    0,370;   -2,045
721,738;29531,409;   -0,812;   -1,045
722,309;29516,754;   -0,993;   -1,227
722,881;29318,916;   -1,357;    0,773
723,452;29973,988;   -2,630;    2,864
724,023;30086,605;   -0,721;    2,682
724,595;29812,313;    0,007;    0,682
725,166;29582,475;    0,007;   -0,409
725,737;29299,819;    1,734;    0,227
726,308;29346,436;   -0,266;    0,318
726,879;29789,781;   -1,630;    1,227
727,450;29682,580;    0,552;   -0,045
728,021;29611,197;    3,097;    0,682
728,592;29364,177;    0,734;    0,500
729,163;29768,794;    0,643;   -0,136
729,734;29823,412;    0,188;   -0,227
730,305;30164,938;    1,734;    0,136
730,876;30489,373;    0,188;    2,955
731,447;30291,899;    2,188;    2,682
732,017;30425,425;    1,097;    1,864
732,588;29827,770;    0,734;    1,227
733,159;30002,659;    0,643;   -1,045
733,729;29849,276;    0,006;    0,409
734,300;29112,621;    0,915;    0,864
734,870;29524,965;    3,461;    0,591
735,441;30108,673;    0,370;   -0,591
736,011;29820,381;    0,643;   -1,591
736,582;29831,362;   -0,812;    0,045
737,152;29284,888;   -1,721;   -2,045
737,722;29683,414;   -0,267;   -0,682
738,293;29353,395;   -1,358;    1,318
738,863;29220,830;    2,461;    2,318
739,433;29072,720;    5,279;    0,318
740,003;29675,337;   -0,994;   -0,682
740,573;29073,135;    2,097;   -1,591
741,143;29047,389;   -1,085;    0,318
741,713;29816,733;    1,188;   -0,500
742,283;29501,805;    0,915;    1,591
742,853;29274,695;    1,915;    1,591
743,423;28633,675;    1,733;    0,045
743,993;28819,838;   -0,358;    1,500
744,563;28219,182;    0,097;   -0,864
745,133;28129,254;   -0,812;   -0,864
745,702;28800,325;   -0,267;    1,773
746,272;28024,942;   -0,176;    0,591
746,842;27764,378;   -1,358;   -0,591
747,411;28221,449;   -0,267;   -0,318
747,981;28422,521;    0,097;    0,500
748,551;28424,320;    2,278;   -1,045
749,120;28292,755;    0,642;   -0,227
749,690;28646,645;   -0,631;    2,409
750,259;29065,262;    1,369;    2,955
750,828;28996,606;    1,551;   -1,955
751,398;29262,223;    1,278;   -0,045
751,967;28767,204;    2,187;    0,409
752,536;28923,003;   -0,813;   -0,227
753,105;29330,983;    0,096;    0,227
753,675;29180,782;    0,096;    1,773
754,244;29101,217;   -0,904;    3,591
754,813;29115,653;    0,551;    1,227
755,382;28736,542;    0,460;    0,955
755,951;29345,523;    1,551;    3,682
756,520;28829,777;   -0,085;    1,864
757,089;29386,848;    0,278;    0,500
757,658;29599,920;    1,733;    1,227
758,227;29602,537;    1,096;    0,318
758,795;29974,699;    1,187;    1,136
759,364;30166,316;   -0,086;   -0,591
759,933;29097,752;   -1,176;   -0,045
760,501;28587,187;    0,733;   -1,318
761,070;29095,622;   -2,813;   -1,409
761,639;29792,148;   -1,904;    1,318
762,207;29181,311;    1,551;   -0,955
762,776;29121,019;    0,369;    0,864
763,344;29073,545;   -0,995;    0,591
763,913;28082,707;   -0,722;    1,409
764,481;28856,506;    1,005;   -0,136
765,049;28617,941;   -1,358;    1,409
765,618;28450,831;   -0,086;    0,318
766,186;28538,176;    0,278;    0,136
766,754;28738,793;    0,005;    1,864
767,322;27659,773;   -1,995;    0,409
767,890;27765,663;   -0,722;   -1,773
768,459;28167,826;   -2,177;   -0,318
769,027;28368,715;    1,641;    3,409
769,595;27268,241;    3,278;    2,591
770,163;27680,586;    3,823;    2,955
770,730;27393,294;    0,732;   -0,136
771,298;27215,184;    0,187;   -1,409
771,866;27289,346;   -1,541;    4,955
772,434;27633,599;   -0,631;   -1,864
773,002;27842,035;    0,005;    0,682
773,569;27483,561;    0,914;    1,682
774,137;27354,723;   -0,268;   -0,045
774,705;28096,613;    0,278;   -0,136
775,272;27574,139;    0,641;    0,682
775,840;27260,211;   -0,177;    2,682
776,407;26851,464;    0,277;    1,955
776,975;26455,899;   -0,632;    0,318
777,542;27437,789;   -1,086;   -0,045
778,110;27222,406;   -1,268;   -0,045
778,677;26890,932;   -2,359;   -0,864
779,244;26604,913;    2,186;    1,045
779,812;26797,167;    1,823;    0,864
780,379;26653,511;    0,005;    1,136
780,946;26932,946;    1,005;   -0,773
781,513;27224,745;   -1,450;    0,318
782,080;26573,907;   -0,086;    2,864
782,647;27331,615;   -0,268;    3,045
783,214;26927,687;   -0,177;    3,864
783,781;26532,486;   -0,723;   -0,682
784,348;26394,285;   -0,632;    1,500
784,915;26820,356;   -3,177;    0,318
785,482;26586,792;    1,368;    2,591
786,049;27057,227;    0,186;   -0,591
786,615;27126,026;    0,277;   -0,955
787,182;26862,188;    0,186;   -0,682
787,749;26504,078;   -2,814;    1,409
788,315;25844,513;   -1,632;   -0,409
788,882;26184,312;    1,550;   -1,227
789,448;26922,293;    1,732;   -0,955
790,015;26942,001;    1,095;    3,227
790,581;26456,345;    1,459;    0,227
791,148;26369,508;    0,641;    1,045
791,714;26595,216;   -0,541;    3,136
792,280;26242,833;    0,186;    1,591
792,847;25752,177;    0,550;    2,500
793,413;26312,521;   -0,269;   -0,318
793,979;25843,866;    3,459;   -1,318
794,545;26009,755;    4,459;    2,682
795,111;25343,645;    2,186;    1,318
795,678;25498,444;    0,731;   -1,682
796,244;25146,061;    3,368;    0,136
796,810;25715,133;    1,731;    0,773
797,375;25395,568;    0,549;   -2,136
797,941;25455,912;   -0,541;    0,591
798,507;25596,257;   -0,451;   -0,955
799,073;25069,964;   -0,360;    0,591
799,639;25142,854;   -2,632;    3,136
800,205;25185,017;    0,095;    2,682
800,770;24693,543;    0,640;    1,773
801,336;24822,342;    1,368;   -0,955
801,901;24523,686;    4,549;    3,136
802,467;25112,849;   -0,542;    2,045
803,033;24375,102;   -0,087;    0,864
803,598;24641,992;    1,913;   -1,045
804,163;24699,518;    1,095;   -0,318
804,729;24592,044;   -0,178;    1,136
805,294;24995,479;    0,822;    2,227
805,859;24780,733;    0,731;   -0,409
806,425;24244,622;    1,186;    2,682
806,990;23910,785;    2,186;    4,318
807,555;24385,129;   -1,451;    2,591
808,120;24292,110;    0,822;   -0,409
808,685;24306,182;    0,185;   -2,500
809,250;23769,980;    0,004;   -0,500
809,815;24115,416;    1,913;    0,682
810,380;24688,033;   -0,269;    1,591
810,945;25298,013;   -1,087;    2,045
811,510;24404,812;    2,094;    1,591
812,075;24099,884;   -0,633;   -1,409
812,640;24143,228;    2,003;    1,409
813,204;24178,754;    0,822;   -0,227
813,769;24670,371;    2,094;   -0,045
814,334;24019,534;    0,458;    0,864
814,898;24056,333;    0,367;    0,591
815,463;23925,313;    1,276;   -0,773
816,027;23901,658;   -0,724;   -2,318
816,592;23920,729;    0,640;   -2,045
817,156;23484,983;    2,094;    1,136
817,721;23373,054;    4,276;    2,318
818,285;23301,944;    2,912;    1,500
818,849;23965,470;   -1,451;    1,682
819,414;23820,542;   -0,269;    2,955
819,978;23415,523;   -1,269;    1,773
820,542;24021,049;    2,003;    0,500
821,106;23691,939;   -0,815;    0,682
821,670;23802,010;   -0,815;    2,591
822,234;23504,082;   -0,270;    1,409
822,798;22850,153;    0,003;    0,500
823,362;22792,316;   -0,633;    4,227
823,926;22088,297;    0,094;    1,136
824,490;22339,004;   -0,997;   -0,682
825,054;22825,622;   -0,088;   -1,136
825,618;22448,693;   -1,542;   -1,500
826,181;22414,674;    0,458;   -1,318
826,745;22318,109;    1,367;   -1,045
827,309;22662,635;    1,185;    1,318
827,872;21982,889;    1,367;    0,955
828,436;23033,415;    1,185;   -0,773
828,999;23007,123;   -0,997;    1,227
829,563;21791,740;   -0,179;    1,136
830,126;21660,539;   -0,179;   -0,591
830,690;21657,065;   -1,997;    2,864
831,253;21169,955;   -0,543;    2,227
831,816;21318,299;   -1,906;    0,500
832,380;21198,461;    0,185;    0,864
832,943;21428,624;   -1,361;   -0,500
833,506;20861,332;    2,639;   -1,227
834,069;21726,313;    3,912;   -0,955
834,632;21737,839;    1,730;    1,318
835,195;21636,092;    1,003;    0,955
835,758;20767,527;   -0,997;    1,955
836,321;20695,872;    0,730;   -1,045
836,884;20796,125;   -0,725;   -0,955
837,447;20807,651;   -2,816;    1,773
838,010;21095,541;    0,366;    3,227
838,573;21374,431;   -1,179;    0,773
839,135;21299,593;   -1,361;   -0,955
839,698;20783,028;    1,275;    0,409
840,261;20274,009;    1,003;   -0,227
840,823;20095,626;   -0,543;    0,864
841,386;20412,061;   -0,452;   -2,409
841,948;20273,588;   -1,361;    1,773
842,511;19962,750;    0,912;    1,682
843,073;20150,276;    1,912;    0,227
843,636;19915,711;   -0,361;   -0,227
844,198;19922,419;    0,911;    0,591
844,760;19991,673;    1,093;    1,955
845,322;19645,835;    0,548;    1,136
845,885;20135,816;    0,730;    0,591
846,447;20560,069;   -1,998;    0,227
847,009;20107,868;    1,911;   -0,682
847,571;20413,304;    0,820;   -2,045
848,133;20536,284;   -1,089;   -1,864
848,695;20368,810;   -0,543;    1,409
849,257;19911,155;   -1,089;   -1,682
849,819;20077,954;   -0,998;   -0,409
850,381;20074,843;   -0,725;   -0,864
850,942;20516,915;    1,093;   -0,591
851,504;20485,896;    1,184;    0,227
852,066;20477,422;    1,275;   -1,591
852,628;19960,584;   -0,180;    1,955
853,189;19514,474;    1,638;    2,682
853,751;19621,091;   -0,907;    1,409
854,312;19477,799;   -0,453;   -1,682
854,874;19981,871;   -2,089;   -0,773
855,435;20517,579;   -0,907;   -1,682
855,997;20611,378;   -1,816;   -0,136
856,558;19929,085;    0,366;    1,773
857,119;20047,884;    0,820;    2,864
857,681;19736,774;    0,002;    0,318
858,242;19780,118;    1,911;   -2,136
858,803;20225,190;    0,456;   -0,773
859,364;20787,262;    0,184;   -4,773
859,925;20079,060;   -2,453;   -0,955
860,486;19967,405;   -0,453;   -0,955
861,047;19682,386;   -0,544;   -1,227
861,608;19472,366;   -1,089;   -0,773
862,169;19560,983;    0,638;   -0,045
862,730;19345,418;    0,456;    1,409
863,291;19623,490;   -0,635;   -0,500
863,852;19979,107;   -0,635;    1,955
864,412;19384,724;   -0,271;   -0,864
864,973;17936,432;   -0,089;    0,500
865,534;17866,867;   -1,726;    0,227
866,094;19370,575;    1,820;    0,227
866,655;19012,556;    1,274;    3,318
867,215;19322,173;    0,274;    0,136
867,776;19150,154;    0,547;   -0,136
868,336;19225,862;   -1,453;    0,136
868,897;18715,842;    2,638;    1,682
869,457;18433,732;    1,365;    0,318
870,017;18678,713;    0,547;   -1,227
870,578;19210,057;   -0,817;    0,773
871,138;18914,038;   -2,089;   -0,955
871,698;18440,473;   -0,817;   -1,318
872,258;18337,545;   -0,453;   -2,864
872,818;18684,616;    2,729;    0,045
873,378;18671,233;    0,638;    1,045
873,938;18153,487;    0,547;    0,500
874,498;18467,195;    0,274;   -1,955
875,058;18404,266;    2,183;    1,773
875,618;18273,792;    1,910;   -2,682
876,177;18185,046;    1,274;    0,136
876,737;17779,845;   -0,090;    1,955
877,297;17806,189;    0,183;    1,955
877,856;17822,897;   -0,362;    0,318
878,416;17756,332;    1,183;   -0,136
878,976;17994,767;   -1,817;    0,409
879,535;18157,657;    0,092;    3,136
880,095;17869,183;   -0,544;    0,045
880,654;18000,346;   -1,090;    1,318
881,213;18131,327;    2,456;    1,500
881,773;17755,671;    2,637;    2,682
882,332;18160,106;    3,365;    5,136
882,891;17942,996;    3,092;    2,136
883,451;18417,068;   -1,272;    1,682
884,010;17783,957;   -2,908;   -0,409
884,569;17901,847;   -0,999;   -0,045
885,128;18074,373;    2,819;   -1,864
885,687;18173,172;    4,455;    0,682
886,246;17848,789;    1,455;    2,136
886,805;17602,043;    2,455;    2,045
887,364;17905,841;   -0,999;   -0,500
887,922;18321,913;   -1,181;    0,045
888,481;17823,166;   -1,545;    0,591
889,040;18153,420;    1,183;    2,136
889,599;18845,491;    2,455;    1,409
890,157;18865,927;    1,455;    2,409
890,716;18525,635;   -0,090;    0,227
891,274;18336,070;    0,092;   -1,136
891,833;18841,869;    1,546;    0,864
892,391;18709,486;   -0,454;    0,500
892,950;18754,557;    1,819;   -0,773
893,508;19140,174;    0,455;   -0,409
894,067;18404,428;    0,637;    0,136
894,625;18351,772;   -0,636;   -1,500
895,183;18616,298;   -0,363;   -0,682
895,741;18441,915;    1,728;   -1,773
896,299;18243,805;   -0,545;   -2,409
896,858;18486,604;    0,819;   -1,591
897,416;18587,948;    2,728;   -1,318
897,974;18280,293;    1,819;    0,318
898,532;18459,092;    6,091;    2,682
899,089;18325,527;    2,091;   -0,682
899,647;18424,598;   -1,454;    1,318
900,205;18119,397;    1,182;    1,045
900,763;18283,560;   -0,454;    0,227
901,321;18273,268;    2,364;   -1,409
901,878;17668,067;   -1,000;   -0,773
902,436;17578,502;   -1,363;    1,318
902,994;17971,483;    4,728;    3,682
903,551;17392,827;    0,728;    0,409
904,109;17781,717;    0,182;   -1,409
904,666;17314,697;    2,455;    1,045
905,224;17157,314;    0,182;   -0,409
905,781;16882,113;    0,727;   -0,318
906,338;16944,821;   -1,363;    1,045
906,895;16906,711;    0,637;    2,045
907,453;16874,601;    1,727;    1,136
908,010;16867,945;   -0,909;    0,409
908,567;16507,198;    1,273;    0,591
909,124;15967,452;    0,364;   -1,500
909,681;16023,523;   -2,909;    0,682
910,238;16171,777;    0,636;   -1,318
910,795;16546,485;   -0,273;   -1,136
911,352;16080,121;   -2,909;   -2,682
911,909;15461,212;   -1,364;   -0,864
912,466;16020,485;   -3,182;    1,500
913,022;15551,030;   -1,636;    0,500
913,579;15927,485;   -0,909;    2,045
914,136;15567,212;    1,636;    0,955
914,692;15924,485;    0,091;   -1,227
915,249;15536,485;    1,455;    0,409
915,806;15763,303;    0,182;    1,955
916,362;15480,939;    1,909;    1,864
916,918;15062,303;    2,000;    1,045
917,475;15057,485;   -1,182;    0,955
918,031;15080,303;    3,364;   -0,045
918,587;14501,303;   -0,909;   -0,318
919,144;14727,030;   -2,273;    0,227
919,700;15047,394;    1,727;    0,773
920,256;14625,212;    0,727;    0,045
920,812;14242,576;   -0,727;   -1,045
921,368;14215,212;   -1,727;   -1,045
921,924;13809,485;    0,182;   -0,136
922,480;13419,303;   -0,545;    1,227
923,036;14066,394;    1,273;    1,955
923,592;13959,758;    0,455;    0,318
924,148;13889,030;    0,455;   -0,955
924,704;13185,121;   -1,364;   -0,409
925,259;13421,667;   -0,273;    0,591
925,815;13220,030;    1,455;    0,500
926,371;12692,758;    2,909;    1,409
926,926;12583,030;    2,091;    0,591
927,482;12213,485;   -1,364;    0,773
928,037;12070,121;    0,909;    2,045
928,593;12379,939;    1,636;    1,045
929,148;12201,939;   -1,818;   -1,500
929,704;11665,212;   -1,455;   -0,500
930,259;11883,030;    0,091;   -0,136
930,814;10915,212;   -0,818;    1,955
931,369;10538,394;    1,091;   -0,773
931,925;10406,939;   -0,091;    0,136
932,480;10321,848;   -2,818;   -2,591
933,035;10205,667;    0,545;   -0,318
933,590; 9939,030;    0,364;   -1,773
934,145; 9543,485;   -1,364;   -0,318
934,700; 9882,121;    0,455;   -0,591
935,255; 9682,121;   -0,091;    0,045
935,809; 8916,667;    3,182;    0,864
936,364; 7993,576;   -0,455;   -0,136
936,919; 7948,121;    0,455;   -1,773
937,474; 7823,303;    1,455;    0,136
938,028; 7592,848;   -1,636;    1,136
938,583; 7049,939;    1,818;    4,682
939,138; 7297,030;    2,091;    2,136
939,692; 6698,758;    1,636;   -1,136
940,247; 6402,030;   -0,727;   -1,045
940,801; 5914,485;   -0,636;    0,227
941,355; 5791,576;   -0,364;    2,591
941,910; 5426,303;   -0,273;   -2,136
942,464; 5547,485;   -0,818;   -0,318
943,018; 5330,030;    1,000;   -0,227
943,572; 5281,212;    2,545;   -0,682
944,126; 4660,848;    0,091;   -0,409
944,681; 4553,485;    3,091;    0,227
945,235; 4511,939;    1,000;   -0,591
945,789; 4454,848;    0,364;   -1,864
946,342; 4567,939;    0,455;   -0,591
946,896; 4356,030;   -2,273;    0,955
947,450; 4101,848;    1,545;   -0,227
948,004; 4292,030;    1,727;   -0,045
948,558; 4309,121;    0,273;   -0,864
949,111; 4233,121;   -0,273;   -0,318
949,665; 4264,212;    1,636;   -0,682
950,219; 4145,030;   -0,091;   -1,045
950,772; 4207,394;   -1,909;    1,864
951,326; 4099,485;    0,545;   -0,955
951,879; 4212,212;    0,727;   -2,318
952,433; 4235,303;    0,000;    2,227
952,986; 4057,485;    2,909;    0,682
953,539; 4029,758;   -0,273;    0,591
954,093; 3937,758;    0,545;   -1,318
954,646; 4084,758;    0,909;    1,318
955,199; 3888,030;    0,000;   -0,500
955,752; 3772,939;   -0,455;    1,773
956,305; 3729,485;   -0,091;    2,955
956,858; 3906,030;    0,818;   -0,318
957,411; 4075,485;   -0,545;    2,136
957,964; 3901,758;    1,364;    2,136
958,517; 3898,212;   -1,545;    3,136
959,070; 3707,030;   -0,455;    1,955
959,623; 3781,394;    1,091;    1,500
960,176; 3552,667;    1,727;    2,045
960,728; 3531,394;   -2,727;    0,773
961,281; 3581,030;    0,545;    0,500
961,834; 3643,667;   -0,909;    0,864
962,386; 3538,030;    1,727;    1,045
962,939; 3457,848;    0,364;   -0,318
963,491; 3610,758;    0,455;    1,136
964,043; 3476,758;    1,182;    2,409
964,596; 3608,030;   -1,000;    2,227
965,148; 3459,121;   -1,000;    1,773
965,700; 3361,667;    1,091;   -0,227
966,253; 3511,758;   -0,636;    0,318
966,805; 3326,758;   -2,273;    0,773
967,357; 3389,394;    1,091;   -1,500
967,909; 3352,576;    0,455;   -1,227
968,461; 3471,030;    0,545;    3,136
969,013; 3397,394;   -0,182;   -0,864
969,565; 3477,758;   -0,455;   -1,136
970,117; 3496,212;   -0,364;    1,045
970,669; 3356,667;    0,182;   -0,136
971,220; 3227,758;   -0,455;   -1,500
971,772; 3147,394;   -0,636;   -0,318
972,324; 3258,485;    0,091;   -0,500
972,876; 3213,667;    0,818;   -0,045
973,427; 3360,667;    1,909;   -1,045
973,979; 3316,030;   -0,727;   -2,500
974,530; 3371,485;    1,818;    1,318
975,082; 3368,576;   -0,545;    1,682
975,633; 3247,576;    1,091;    1,682
976,184; 3373,848;    0,909;    0,773
976,736; 3168,303;    0,091;    0,227
977,287; 2973,121;   -0,909;   -0,500
977,838; 3147,939;    0,909;   -0,318
978,389; 3230,485;   -1,000;   -0,500
978,940; 3098,212;    0,545;   -0,409
979,491; 3126,576;    0,091;   -0,500
980,042; 3091,212;    0,182;    3,045
980,593; 3146,030;   -2,545;    0,227
981,144; 3182,121;    2,545;   -0,500
981,695; 3123,212;    1,455;    1,500
982,246; 3081,939;   -0,273;    1,045
982,797; 3262,030;   -1,727;    0,682
983,347; 3367,030;    0,364;    0,591
983,898; 3553,303;    3,091;    0,409
984,449; 3365,758;    2,182;    0,773
984,999; 3278,212;    1,455;   -1,136
985,550; 3031,121;    0,182;   -0,318
986,100; 3055,212;   -0,455;   -0,318
986,651; 3100,758;   -0,818;    0,045
987,201; 3078,576;   -1,000;   -0,591
987,751; 3166,667;    0,818;    2,864
988,302; 3166,939;    2,636;    1,500
988,852; 3200,758;    0,455;   -1,136
989,402; 3214,121;    0,091;    0,682
989,952; 3121,848;   -2,182;    0,864
990,502; 3234,848;   -0,091;    0,682
991,052; 3170,394;   -0,727;    0,045
991,602; 3055,939;   -2,909;    1,318
992,152; 3069,576;    0,455;    0,682
992,702; 3035,758;    1,364;   -0,045
993,252; 2962,212;   -3,000;   -0,500
993,802; 3031,667;   -0,273;    1,318
994,352; 3288,848;   -1,545;    1,136
994,901; 3374,939;   -0,182;    3,227
995,451; 3288,758;   -0,182;    0,318
996,000; 3373,485;    1,636;    0,318
996,550; 3083,939;    2,273;    0,227
997,100; 3080,848;    1,273;   -0,045
997,649; 3365,667;    2,182;    0,955
998,198; 2991,303;    1,727;   -1,500
998,748; 3214,848;    1,091;   -2,318
999,297; 3111,848;   -0,818;   -0,409
999,846; 3154,303;    1,000;   -0,773
1000,395; 3224,212;   -0,818;    0,500
1000,945; 3178,121;    1,818;   -0,773
1001,494; 3257,030;    2,364;    0,682
1002,043; 3243,212;    4,636;    0,864
1002,592; 3073,212;   -1,091;    1,955
1003,141; 3239,030;   -0,455;   -0,682
1003,690; 3088,758;    1,727;    0,500
1004,238; 3182,030;    1,455;   -0,045
1004,787; 2787,485;    1,364;    1,227
1005,336; 3034,303;    0,364;    0,682
1005,885; 3192,394;    1,364;   -2,773
1006,433; 3358,303;    0,545;    0,955
1006,982; 3374,939;    0,455;    1,682
1007,531; 3287,485;   -1,818;   -0,227
1008,079; 3251,303;   -2,273;    0,500
1008,627; 3364,848;   -1,455;    0,409
1009,176; 3102,394;    0,000;   -1,955
1009,724; 3164,303;    1,091;    0,864
1010,273; 3228,848;    1,273;    0,500
1010,821; 3334,848;    0,091;    1,409
1011,369; 3049,667;   -1,364;    1,318
1011,917; 3039,303;   -1,364;   -0,591
1012,465; 3322,758;    1,273;   -1,591
1013,013; 3423,394;    2,091;   -1,682
1013,561; 3295,848;    0,455;   -0,773
1014,109; 3359,939;   -1,909;    1,682
1014,657; 3245,212;    0,364;    0,591
1015,205; 3378,121;    1,636;   -0,955
1015,753; 3414,485;   -0,545;   -1,409
1016,301; 3436,121;   -2,636;    3,045
1016,848; 3420,485;   -1,273;    0,409
1017,396; 3495,758;    2,545;    0,045
1017,944; 3609,758;    1,182;    1,864
1018,491; 3364,939;    0,273;    1,409
1019,039; 3493,303;    0,455;    0,591
1019,586; 3421,485;   -1,364;    1,682
1020,134; 3542,121;    0,455;    1,500
1020,681; 3531,758;    0,182;   -1,136
1021,228; 3541,576;    2,909;   -2,227
1021,776; 3390,939;    1,182;   -1,136
1022,323; 3603,939;    0,455;    0,773
1022,870; 3529,576;   -1,000;   -0,045
1023,417; 3407,758;    2,636;    1,864
1023,964; 3559,485;    2,636;    1,227
1024,511; 3391,667;    1,000;    0,773
1025,058; 3193,758;    3,182;   -0,045
1025,605; 3247,576;   -2,273;    3,136
1026,152; 3494,758;    1,727;   -0,591
1026,699; 3205,576;    1,818;    1,318
1027,245; 3368,394;   -0,091;    0,318
1027,792; 3600,939;   -1,000;    1,409
1028,339; 3447,030;    2,364;   -0,045
1028,885; 3306,939;    1,000;   -0,227
1029,432; 3256,758;   -0,091;    0,227
1029,978; 3312,303;   -1,000;   -1,591
1030,525; 3196,576;    1,000;    0,409
1031,071; 3444,030;   -1,364;    1,136
1031,618; 3527,939;    0,364;    1,682
1032,164; 3319,121;   -0,091;    3,045
1032,710; 3379,121;    1,636;   -1,500
1033,256; 3281,394;   -0,636;   -0,136
1033,803; 3272,939;   -0,545;    1,500
1034,349; 2965,576;   -1,364;    0,136
1034,895; 3114,758;    0,000;   -0,318
1035,441; 3100,394;   -0,818;    0,318
1035,987; 3108,576;   -2,364;   -0,682
1036,533; 3113,303;   -1,455;   -0,955
1037,078; 3313,576;    1,455;    1,682
1037,624; 3119,939;    2,455;   -0,955
1038,170; 3171,939;    0,455;   -0,318
1038,716; 3056,485;    1,636;   -0,409
1039,261; 2965,667;   -2,273;   -0,773
1039,807; 2910,303;   -0,091;    3,409
1040,352; 2964,939;   -1,909;   -0,318
1040,898; 3026,121;   -1,545;   -0,682
1041,443; 2942,939;   -1,455;   -2,591
1041,989; 2937,576;    1,091;    1,591
1042,534; 2825,030;   -0,364;    2,591
1043,079; 2932,394;    2,909;    0,955
1043,625; 2731,394;    1,818;    0,500
1044,170; 2778,939;   -1,364;    1,045
1044,715; 3037,939;    2,455;    0,955
1045,260; 2840,576;    2,182;   -0,955
1045,805; 2890,758;    1,182;   -0,591
1046,350; 2822,212;    1,364;   -0,409
1046,895; 2768,848;    2,909;    1,591
1047,440; 2722,212;    5,364;    0,409
1047,985; 2618,758;    2,818;   -0,955
1048,530; 2542,758;    1,545;    1,227
1049,074; 2610,576;    0,000;    0,318
1049,619; 2587,667;   -1,364;    1,955
1050,164; 2375,939;    0,455;    0,227
1050,708; 2423,303;   -0,455;    0,045
1051,253; 2804,303;    1,273;   -2,227
1051,797; 2498,121;    0,818;   -1,318
1052,342; 2492,485;   -1,182;    1,045
1052,886; 2498,121;    0,364;   -1,409
1053,430; 2364,121;   -1,364;    0,136
1053,975; 2392,848;   -0,818;   -0,318
1054,519; 2370,939;   -0,727;    3,227
1055,063; 2394,303;    0,909;    1,318
1055,607; 2263,576;   -0,182;    0,227
1056,151; 2295,485;    2,909;    1,682
1056,695; 2197,030;    2,273;   -1,136
1057,239; 2277,121;   -1,727;   -0,682
1057,783; 2291,939;    0,818;   -1,500
1058,327; 2227,758;    0,000;    1,409
1058,871; 2453,939;   -0,545;    1,318
1059,415; 2164,212;   -0,818;   -0,045
1059,958; 2430,485;    1,455;    2,591
1060,502; 2154,758;   -1,000;   -0,773
1061,046; 2042,303;    0,364;   -0,955
1061,589; 2017,939;   -3,000;   -1,136
1062,133; 1887,030;   -1,273;    1,864
1062,676; 1833,939;    1,182;    0,864
1063,220; 1835,939;    1,091;    0,500
1063,763; 1872,848;    0,909;    1,136
1064,306; 1953,212;   -0,909;    1,864
1064,849; 1828,758;   -0,909;    0,591
1065,393; 1833,939;    2,000;   -1,500
1065,936; 1961,485;    0,182;   -0,409
1066,479; 1835,939;   -1,455;    1,318
1067,022; 1845,394;   -0,273;   -0,227
1067,565; 1735,667;   -0,091;   -1,318
1068,108; 1760,303;    0,727;   -0,591
1068,651; 1750,939;   -0,636;    1,409
1069,194; 1680,848;   -0,455;   -1,682
1069,736; 1685,030;   -1,273;    0,955
1070,279; 1670,848;   -1,364;   -0,500
1070,822; 1725,121;   -2,000;   -0,318
1071,364; 1811,394;   -0,364;    1,318
1071,907; 1619,848;   -0,727;    3,227
1072,450; 1514,758;    0,000;   -0,045
1072,992; 1504,848;   -0,273;    3,136
1073,535; 1658,303;    2,091;    2,136
1074,077; 1430,576;   -0,727;    2,045
1074,619; 1407,576;   -1,364;    0,591
1075,161; 1450,212;   -1,091;    1,500
1075,704; 1628,758;    1,545;    1,227
1076,246; 1402,939;   -0,182;    0,682
1076,788; 1351,303;   -0,364;    1,773
1077,330; 1428,030;    1,273;    2,136
1077,872; 1395,758;    0,909;    0,955
1078,414; 1627,576;    2,727;    0,773
1078,956; 1342,394;    1,273;   -0,227
1079,498; 1616,848;    1,636;    0,318
1080,040; 1311,212;    1,909;   -1,318
1080,581; 1251,121;    1,636;   -0,318
1081,123; 1163,576;    0,091;   -0,773
1081,665; 1225,485;   -1,182;   -0,955
1082,206; 1535,939;    1,364;   -0,500
1082,748; 1386,030;    0,727;    2,045
1083,289; 1253,030;   -2,000;    1,318
1083,831; 1153,667;   -0,545;    0,227
1084,372; 1205,848;    0,000;    0,591
1084,913; 1204,576;    1,091;    0,864
1085,455; 1159,758;   -1,909;   -2,045
1085,996; 1149,212;   -2,273;    0,136
1086,537; 1165,576;   -0,091;    0,864
1087,078; 1185,212;   -0,909;   -2,136
1087,619; 1236,758;   -1,273;    0,227
1088,160; 1145,394;    0,000;    1,318
1088,701; 1133,212;   -1,091;    0,682
1089,242; 1066,939;    1,364;   -2,227
1089,783; 1179,394;   -0,273;    1,409
1090,324; 1145,030;    0,455;    0,682
1090,865; 1012,939;    2,727;   -0,409
1091,405;  974,939;    0,727;    2,227
1091,946; 1009,485;    0,182;   -0,955
1092,487;  914,212;    0,818;   -1,409
1093,027; 1097,758;   -1,364;   -1,500
1093,568;  957,394;   -0,364;    1,227
1094,108; 1063,030;    0,273;    1,773
1094,649;  993,758;   -1,182;    0,136
1095,189;  928,303;   -0,636;   -0,682
1095,729;  875,394;   -0,091;    0,955
1096,269;  877,485;    0,727;   -0,955
1096,810; 1217,485;   -1,364;    0,500
1097,350; 1026,303;    1,364;   -0,773
1097,890;  925,121;    0,364;    1,227
1098,430; 1191,485;    2,364;    2,864
1098,970; 1064,121;    2,182;    1,682
1099,510;  917,394;    0,545;   -2,318
1100,050;  832,939;    1,000;   -1,591
1100,589;  800,121;   -0,727;   -0,318
1101,129;  944,303;    0,818;   -0,955
1101,669; 1108,848;    1,727;    2,136
1102,209;  917,576;   -0,091;    2,227
1102,748;  865,121;    0,000;    0,955
1103,288;  856,394;    1,273;   -1,227
1103,827;  893,939;    3,091;   -2,227
1104,367;  756,121;   -0,091;   -2,409
1104,906;  720,121;    1,364;   -1,136
1105,445;  794,030;    0,636;   -1,136
1105,985;  744,848;   -0,727;    1,500
1106,524;  797,394;   -1,727;   -0,682
1107,063;  756,303;   -2,727;    1,409
1107,602;  735,758;   -1,909;   -1,500
1108,141;  650,212;   -1,909;    1,500
1108,680;  760,212;   -3,455;   -0,591
1109,219;  690,848;   -0,909;   -0,500
1109,758;  702,848;    0,455;    0,682
1110,297;  664,121;    1,000;   -0,682
1110,836;  605,939;   -0,727;    0,955
1111,375;  785,939;   -2,545;    0,409
1111,913;  798,030;   -1,000;    0,773
1112,452;  731,576;   -0,273;    0,136
1112,991;  600,394;    1,091;    1,955
1113,529;  558,121;   -0,818;   -0,045
1114,068;  633,576;   -0,273;    2,955
1114,606;  531,848;   -0,364;   -0,955
1115,144;  704,303;   -1,273;    1,045
1115,683;  635,939;   -0,727;    0,318
1116,221;  684,121;   -0,455;   -0,864
1116,759;  589,848;    0,636;   -0,864
1117,297;  802,848;    0,000;    1,864
1117,836;  599,121;   -2,182;   -1,227
1118,374;  603,212;    0,182;   -0,682
1118,912;  550,667;    0,909;    2,682
1119,450;  536,576;    1,000;    0,864
1119,988;  586,576;    1,545;    2,136
1120,525; 1057,939;    5,091;    3,318
1121,063;  743,030;    1,182;    1,864
1121,601;  552,758;   -0,909;   -1,227
1122,139;  502,303;   -0,727;   -2,045
1122,676;  706,848;   -0,727;    2,773
1123,214;  643,303;   -1,182;    4,409
1123,751;  442,030;    1,727;    2,227
1124,289;  579,303;   -0,091;   -0,409
1124,826;  430,121;    1,727;    0,227
1125,364;  352,758;    1,727;   -0,955
1125,901;  560,212;    1,182;    1,227
1126,438;  690,212;    0,818;    0,955
1126,975;  400,303;   -0,727;   -0,773
1127,513;  476,030;    0,273;    2,136
1128,050;  358,758;    1,636;   -0,682
1128,587;  466,576;    2,000;   -0,227
1129,124;  510,030;    0,091;    1,318
1129,661;  371,121;    0,273;    0,227
1130,198;  549,394;    1,636;    0,773
1130,734;  500,939;    0,182;    1,409
1131,271;  349,939;   -0,909;    0,864
1131,808;  531,212;    2,909;    3,045
1132,345;  385,576;    1,545;    0,318
1132,881;  253,394;   -1,545;   -1,864
1133,418;  412,121;    0,727;   -1,136
1133,954;  336,576;    2,455;   -2,682
1134,491;  420,848;    1,364;   -0,773
1135,027;  310,394;    2,364;    0,864
1135,564;  413,939;    0,273;    2,955
1136,100;  394,758;    0,364;    2,136
1136,636;  265,212;   -1,273;   -1,045
1137,172;  384,121;    0,000;   -1,045
1137,708;  295,758;   -1,364;   -1,045
1138,245;  301,485;    1,273;   -1,227
1138,781;  235,667;    1,091;   -3,318
1139,317;  325,576;    1,273;   -1,409
1139,852;  314,121;    3,091;    0,136
1140,388;  432,758;   -1,182;   -0,409
1140,924;  309,667;   -1,091;   -2,227
1141,460;  240,121;   -1,636;    0,136
1141,996;  166,848;   -1,364;    2,682
1142,531;  221,576;    1,364;    3,318
1143,067;  446,485;    1,182;    1,045
1143,602;  513,758;   -0,091;   -0,318
1144,138;  345,121;   -2,636;    1,045
1144,673;  205,848;   -1,455;    1,409
1145,209;  283,121;   -1,909;   -0,318
1145,744;  190,030;   -0,727;    0,864
1146,279;  341,030;    1,818;   -0,136
1146,815;  242,667;    1,545;   -2,682
1147,350;  291,939;   -1,364;    0,045
1147,885;  200,030;   -0,818;   -1,318
1148,420;  198,576;   -2,273;    0,773
1148,955;  179,030;   -1,727;    1,864
1149,490;  198,303;   -0,909;   -1,591
1150,025;  192,394;    0,455;   -1,773
1150,560;  314,394;    1,091;   -0,955
1151,094;  281,667;    1,455;   -0,591
1151,629;  278,667;    1,636;    0,864
1152,164;  193,667;    1,364;    1,318
1152,698;  151,576;   -0,182;   -0,136
1153,233;  107,758;    0,091;   -0,682
1153,767;  165,303;   -3,000;   -2,318
1154,302;  205,939;   -1,455;    1,773
1154,836;  207,030;   -0,455;   -2,136
1155,371;  275,667;   -1,364;    3,682
1155,905;  227,394;   -0,636;    1,682
1156,439;  178,576;   -0,636;   -0,500
1156,973;  216,121;    0,364;    0,318
1157,507;  148,030;   -0,364;    0,682
1158,042;  183,485;   -0,727;    1,045
1158,576;  235,667;    0,182;    1,773
1159,110;  228,576;   -0,818;    2,409
1159,643;  198,394;    0,636;   -0,045
1160,177;  127,030;   -1,545;    1,500

