
Integration time [ms]:   0,040
Averaging Nr. [scans]: 11
Smoothing Nr. [pixels]: 0
Data measured with spectrometer [name]: 7318044SP
Wave   ;Sample   ;Dark     ;Reference
[nm]   ;[counts] ;[counts] ;[counts] 

186,757;   -1,485;   31,551;    1,318
187,357;   31,484;   22,551;    0,955
187,958;   14,214;   15,460;   -1,591
188,558;   44,860;    8,915;   -1,227
189,159;   17,511;    6,733;   -4,500
189,759;  -16,167;    7,278;   -3,591
190,360;  -14,229;    2,824;   -2,136
190,960;   19,271;    2,915;   -4,136
191,560;   27,502;    3,189;   -6,591
192,161;  250,769;    4,372;   -3,500
192,761;  107,748;    4,010;   -3,227
193,361;   42,063;    1,556;   -3,773
193,962;   77,098;    2,010;   -2,682
194,562;    4,826;    1,189;   -3,955
195,162;   29,346;   -2,448;   -2,227
195,762;  148,735;   -3,176;   -0,045
196,362;   98,117;    1,370;   -2,500
196,963;   -1,149;    2,006;   -0,864
197,563;   46,415;    1,551;   -0,955
198,163;   -1,415;    0,096;   -0,682
198,763;    7,464;    1,733;   -0,500
199,363;   57,821;    3,096;   -0,500
199,963;   37,476;    0,369;    0,409
200,563;   16,264;    2,823;   -1,409
201,163;   -1,284;    3,277;   -0,227
201,763;   44,216;    3,732;    0,318
202,363;   -0,917;    1,459;    1,500
202,963;   27,386;    1,459;    1,045
203,563;   92,501;    0,277;    0,500
204,162;   14,447;    2,096;   -1,864
204,762;    2,747;    0,550;    0,591
205,362;  -21,168;    3,004;    1,955
205,962;   16,252;    3,096;    1,955
206,562;   10,692;    1,823;    2,318
207,161;   -1,913;   -0,087;    0,318
207,761;   71,908;    1,277;    2,409
208,361;   12,374;   -0,268;    1,409
208,960;   27,804;    0,459;    1,500
209,560;   19,775;    1,277;    1,591
210,160;   27,829;    0,550;    1,864
210,759;    9,771;    4,186;    1,227
211,359;   -3,452;    1,459;    1,045
211,958;  103,947;    1,277;    2,045
212,558;  112,983;    1,732;    1,864
213,157;   41,556;    1,822;    1,500
213,757;  193,057;    3,822;   -0,227
214,356;   74,944;    1,277;   -0,409
214,956;  165,011;    3,095;    0,409
215,555;   42,011;    2,095;    2,136
216,154;    3,863;   -2,723;   -0,591
216,754;    6,027;    0,277;    0,773
217,353;   21,075;   -0,268;   -1,045
217,952;  -30,922;   -0,178;    0,318
218,552;   51,815;    1,368;   -0,773
219,151;    7,048;    0,277;    0,955
219,750;   -1,621;    0,004;   -0,227
220,349;  -10,264;   -0,451;    1,045
220,948;   56,136;   -1,360;    1,136
221,548;    1,033;    0,913;    1,227
222,147;    8,021;   -0,087;   -0,409
222,746;   87,654;   -0,451;   -0,955
223,345;   33,882;    0,731;    0,500
223,944;   29,312;   -0,451;    0,773
224,543;   33,102;    1,004;   -1,409
225,142;   18,940;    0,094;    0,136
225,741;   34,160;   -0,814;    1,045
226,340;   20,603;   -0,451;   -0,955
226,939;   66,548;   -0,996;   -0,136
227,538;   11,803;   -0,360;   -0,773
228,137;   83,987;   -0,814;    0,864
228,735;   53,978;   -0,541;    1,227
229,334;  -11,767;   -0,905;   -0,227
229,933;   73,045;    0,459;    0,591
230,532;   79,845;    1,186;   -0,409
231,131;  121,350;    1,732;    0,318
231,729;   53,636;   -2,450;   -2,318
232,328;    9,848;   -0,723;   -1,500
232,927;   32,081;    1,004;   -0,500
233,525;   18,496;    3,640;    0,045
234,124;   36,811;    2,368;   -1,591
234,723;    0,975;    0,913;   -1,045
235,321;  -12,185;    2,277;    0,136
235,920;    4,736;    1,186;   -1,227
236,518;   84,302;    3,459;    0,318
237,117;    8,645;    0,004;   -0,227
237,715;   17,208;    0,640;   -0,500
238,314;   35,690;   -0,087;   -2,318
238,912;   86,451;   -0,723;   -1,409
239,510;   43,414;    0,459;   -1,227
240,109;   97,950;    0,004;    3,773
240,707;   69,144;   -0,996;    1,227
241,305;   -3,122;    0,550;    0,136
241,904;   37,423;   -0,178;   -2,045
242,502;  107,178;   -0,632;   -0,227
243,100;   51,826;   -0,087;   -0,955
243,698;   -0,065;    0,732;    1,682
244,297;   28,060;   -0,632;    0,682
244,895;   19,887;   -0,269;   -2,318
245,493;   99,490;    2,186;   -0,591
246,091;  104,239;    1,368;   -1,318
246,689;   56,230;    1,004;    0,591
247,287;   48,278;    0,822;   -1,136
247,885;   29,006;   -1,451;    1,227
248,483;   12,145;    1,822;   -0,500
249,081;   54,146;    0,185;    1,591
249,679;   59,415;   -0,178;    1,682
250,277;   11,033;   -1,723;    0,864
250,875;   55,290;   -1,087;   -1,045
251,473;   16,142;   -1,178;    0,500
252,071;   65,236;    1,459;    1,045
252,669;   20,130;   -1,814;    0,318
253,267;   -2,106;   -0,087;    0,773
253,864;   18,642;   -0,360;    0,682
254,462;   73,251;    1,640;    1,591
255,060;   11,206;   -0,269;    1,318
255,658;    3,403;    0,822;   -0,136
256,255;   19,451;    0,186;   -2,045
256,853;   46,097;   -0,269;    1,409
257,451;   14,745;    0,822;    1,864
258,048;  193,154;    1,822;    1,864
258,646;   83,515;    1,731;   -1,045
259,243;  120,551;   -0,087;    2,227
259,841;   57,833;   -0,814;    0,318
260,438;    1,982;   -0,087;    0,864
261,036;   55,193;   -1,905;    1,409
261,633;    3,148;   -0,087;    2,227
262,231;  -13,319;    2,731;   -0,045
262,828;  -21,598;   -0,905;    1,136
263,425;   -3,591;    0,913;   -0,591
264,023;    2,115;    0,186;    0,045
264,620;   60,678;   -0,360;   -0,318
265,217;  100,775;   -2,087;    3,136
265,815;   14,764;   -1,905;    2,136
266,412;   45,521;    0,731;    0,136
267,009;   39,918;   -1,451;    0,773
267,606;   79,606;    0,822;   -0,955
268,203;   16,718;   -0,269;   -0,591
268,801;   18,700;    1,731;    0,591
269,398;   -9,115;   -0,360;    2,500
269,995;   37,493;    0,277;    1,591
270,592;   23,266;   -0,632;   -0,500
271,189;   -5,627;    0,186;    0,409
271,786;  -13,549;   -0,632;    1,227
272,383;   61,030;   -1,087;    0,227
272,980;   21,175;    0,277;    0,318
273,577;    0,066;    0,004;    1,227
274,174;   -0,319;    0,822;    2,591
274,771;   49,403;   -0,814;   -0,773
275,367;  210,966;    2,277;    1,409
275,964;   93,778;    0,731;   -0,500
276,561;   20,066;    1,549;   -1,045
277,158;  -16,676;    0,095;   -1,773
277,755;   81,146;    2,185;    0,409
278,351;   43,778;   -0,451;   -1,500
278,948;   59,739;   -0,815;    0,045
279,545;   43,027;   -1,360;    2,318
280,141;   83,072;   -1,723;   -2,045
280,738;   83,839;   -0,451;   -0,136
281,334;   23,339;   -1,633;    0,591
281,931;    9,061;   -0,087;   -1,318
282,528;   66,685;    0,822;   -0,500
283,124;   88,706;   -1,087;   -0,500
283,721;   81,388;   -0,451;    1,409
284,317;   34,864;    0,185;    2,500
284,913;   90,464;   -1,360;    0,591
285,510;  154,100;    0,640;   -0,318
286,106;   91,130;   -2,269;   -0,955
286,703;   40,588;   -0,360;    1,955
287,299;   18,378;   -1,451;   -0,591
287,895;   17,257;    0,822;   -1,045
288,491;   -3,024;    0,186;    2,136
289,088;   36,842;   -2,360;    2,409
289,684;   49,584;   -1,723;    1,500
290,280;  120,045;    0,368;    0,682
290,876;   82,363;    1,822;    5,500
291,472;   63,358;    1,276;    2,227
292,068;   68,967;    1,367;    0,227
292,665;   25,015;    2,095;    0,773
293,261;   -2,973;    0,276;    2,136
293,857;   46,299;    2,913;    2,136
294,453;   28,945;    3,550;    0,955
295,049;  111,874;   -0,268;    1,955
295,644;   56,005;    0,095;    0,136
296,240;    2,271;   -0,905;   -0,136
296,836;   41,980;   -0,995;    0,318
297,432;   77,849;    1,096;   -0,500
298,028;   77,734;    0,732;    0,773
298,624;   37,735;    1,459;    1,864
299,220;   34,619;    2,368;    0,591
299,815;   26,886;    1,005;   -0,409
300,411;   67,511;    0,914;    1,773
301,007;   84,525;    1,368;    0,227
301,602;   24,601;   -0,541;   -2,318
302,198;   85,798;    0,732;   -0,773
302,794;   28,831;    1,187;   -0,500
303,389;   -2,959;   -1,177;    1,045
303,985;   13,035;    0,550;    1,409
304,580;   88,550;    1,459;    1,591
305,176;   29,204;   -3,086;    0,136
305,771;  -29,226;   -1,268;   -1,227
306,367;  155,350;    4,095;    0,136
306,962;   52,510;    0,641;    1,500
307,558;   70,989;   -0,450;    0,136
308,153;   58,486;    1,095;   -1,136
308,748;    5,217;   -0,814;    1,682
309,344;  147,838;   -0,632;   -1,318
309,939;  124,789;   -1,905;   -1,318
310,534;   25,677;   -0,086;   -1,682
311,130;   20,838;    0,459;   -2,500
311,725;   10,729;    1,004;   -0,500
312,320;   31,404;    2,459;    0,045
312,915;   61,141;    1,459;   -1,045
313,510;  150,771;    1,550;   -0,500
314,105;   27,562;    1,096;    1,409
314,700;   -8,638;   -3,086;   -1,045
315,295;   17,368;   -0,904;    0,045
315,890;   -2,962;    1,277;    0,864
316,485;   40,383;   -0,359;   -0,318
317,080;    3,710;   -3,086;    1,591
317,675;  140,504;    2,005;   -0,682
318,270;  243,025;    5,550;    3,318
318,865;  165,471;    3,278;    3,045
319,460;  102,659;   -0,904;    0,591
320,055;   21,264;   -0,541;   -1,227
320,650;    9,367;   -1,995;   -0,591
321,244;   18,855;   -0,177;   -1,409
321,839;   11,480;   -1,541;   -0,227
322,434;   28,586;   -1,086;   -1,591
323,029;    3,559;    1,732;    1,591
323,623;   -1,511;    1,550;    0,773
324,218;   98,495;    2,368;    1,409
324,812;   59,204;    1,096;    1,591
325,407;   47,841;   -0,814;    2,045
326,002;  121,826;    0,277;   -0,409
326,596;   82,880;    0,914;    1,318
327,191;   15,144;    0,823;   -1,045
327,785;   29,607;   -0,813;   -0,227
328,379;    8,359;    1,368;    0,136
328,974;   18,847;    0,914;   -3,955
329,568;   51,247;    0,186;   -2,409
330,163;   92,337;    2,096;    1,045
330,757;   16,468;    2,459;    1,591
331,351;  -15,871;    0,459;    0,682
331,945;  -14,178;    0,914;    1,409
332,540;   37,592;   -1,723;   -0,591
333,134;   36,726;   -1,086;    0,773
333,728;   47,468;    0,005;    0,318
334,322;    1,192;   -1,177;   -0,864
334,916;    5,247;    0,277;    0,955
335,510;   67,871;   -0,450;   -0,136
336,105;   42,689;   -1,086;    1,591
336,699;   -5,471;   -1,086;    0,591
337,293;   30,377;   -1,723;    0,318
337,887;    4,619;   -2,723;    1,955
338,481;   57,435;    0,459;    0,591
339,074;  101,420;   -0,359;    2,682
339,668;   84,887;   -1,632;    1,227
340,262;  365,677;    1,732;    3,227
340,856;  143,032;    1,822;   -0,682
341,450;   16,081;    1,004;    1,864
342,044;   45,105;    1,459;    0,136
342,637;   92,314;    0,913;   -2,136
343,231;   41,084;   -2,360;    0,682
343,825;   28,429;   -1,086;   -0,591
344,419;   29,331;   -1,995;    0,500
345,012;  297,647;    2,459;    4,045
345,606;  172,649;    4,641;    1,591
346,199;   38,837;   -1,813;   -0,227
346,793;   90,667;    1,914;    2,045
347,386;   10,707;   -0,813;   -1,136
347,980;  -17,409;   -0,268;   -0,045
348,573;   15,867;    2,278;    0,409
349,167;  189,306;    5,278;    4,773
349,760;  103,176;    2,914;    2,682
350,354;   75,690;   -0,813;    1,136
350,947;   93,097;    1,096;    1,682
351,540;   48,930;   -0,358;   -1,409
352,134;   -5,609;    1,096;    1,136
352,727;    3,273;   -0,086;    1,136
353,320;    8,924;    0,005;    0,591
353,913;  -26,079;   -1,995;    1,864
354,507;   70,603;    0,823;   -1,227
355,100;    9,549;    0,460;    0,864
355,693;  246,575;    2,005;    2,409
356,286;  115,018;    0,823;    2,773
356,879;   36,830;   -0,722;    1,227
357,472;   40,255;   -0,904;    1,500
358,065;   44,076;   -0,722;    2,500
358,658;  -14,724;   -0,540;    2,318
359,251;  -11,706;   -1,631;   -0,591
359,844;   74,048;   -1,904;   -1,136
360,437;  101,806;   -2,995;    0,045
361,030;   22,533;    1,369;   -0,682
361,623;   31,866;    2,824;    0,318
362,215;  160,900;   -0,086;    2,045
362,808;   47,682;   -2,358;   -1,682
363,401;   21,669;   -2,449;    0,136
363,994;  146,099;   -0,631;   -1,500
364,586;   34,596;    0,824;   -1,500
365,179;   24,465;   -0,449;   -1,136
365,772;  -36,949;   -1,995;    2,045
366,364;   21,499;    1,915;   -3,227
366,957;   44,807;    2,279;   -0,045
367,549;   22,095;    2,188;   -0,864
368,142;   35,504;    1,825;   -1,500
368,734;    9,809;    0,734;   -2,136
369,327;  -18,546;    1,643;   -0,500
369,919;   -0,062;   -1,538;    0,409
370,512;    5,444;   -1,083;   -0,500
371,104;  211,627;   -0,901;    1,591
371,696;  225,913;    1,191;   -0,955
372,289;  123,397;    0,373;    1,136
372,881;   87,699;   -2,080;    1,318
373,473;    6,579;   -2,170;    1,136
374,066;   83,449;   -0,169;    0,500
374,658;   59,736;    0,378;    1,136
375,250;   -3,149;    0,653;   -1,409
375,842;   38,247;    0,473;   -0,045
376,434;   -3,644;   -0,435;   -0,409
377,026;  -32,066;    0,204;   -2,500
377,618;   13,918;   -0,158;   -0,682
378,210;  -49,289;   -0,338;   -1,955
378,802;  -62,770;    0,754;   -0,591
379,394;  315,707;    1,846;    0,682
379,986;   71,054;    1,393;   -0,955
380,578;  -21,235;   -0,153;    0,773
381,170;  241,046;   -0,972;    0,045
381,762;  147,221;    0,755;    1,409
382,354;  111,969;   -0,065;   -1,318
382,945;   16,505;   -2,976;    0,318
383,537;  -22,355;   -2,705;   -1,955
384,129;  -20,880;   -2,160;   -1,136
384,721;  105,060;   -0,252;    0,955
385,312;   40,267;   -0,161;   -0,955
385,904;  105,415;   -2,706;    1,591
386,496;   32,469;   -0,979;    1,045
387,087;  156,004;    1,022;    2,500
387,679;   92,831;   -1,160;    0,045
388,270;   61,803;    2,840;    2,045
388,862;   38,528;    1,295;   -0,318
389,453;   30,528;   -0,887;    1,045
390,045;   29,676;   -0,705;   -2,682
390,636;  -76,057;    0,204;   -0,591
391,227;   -7,748;   -0,523;   -0,045
391,819;  -31,684;    0,204;    0,773
392,410;  211,047;    1,022;    0,045
393,001;   23,999;   -0,979;   -1,591
393,593;   93,624;    1,930;   -0,045
394,184;  137,199;    1,385;   -0,409
394,775;   12,151;    1,839;    2,136
395,366;  -68,574;    1,385;    0,773
395,957;  108,007;    0,113;    0,136
396,548;   -0,120;   -0,342;    2,682
397,139;  110,062;   -2,433;    0,591
397,730;   33,920;   -1,888;    0,955
398,321;   52,048;   -1,252;    0,955
398,912;   -8,028;   -0,615;    0,136
399,503;  -12,286;   -3,524;   -1,409
400,094;   38,803;    0,294;    1,682
400,685;   23,317;   -0,433;    0,045
401,276;  -20,392;    0,930;   -0,955
401,867;  -38,583;   -0,888;    0,773
402,458;  -85,534;   -2,251;   -2,318
403,048;   53,663;    1,112;    0,591
403,639;    6,563;    0,840;    0,864
404,230;  108,987;    2,476;    0,318
404,821;  171,351;   -0,615;    0,045
405,411;   79,639;    1,203;   -2,591
406,002;   -6,285;   -1,252;   -1,136
406,592;  215,488;    2,294;    0,045
407,183;   77,367;    0,566;   -1,500
407,774;   52,943;    3,475;   -0,136
408,364;   12,191;    0,930;    0,409
408,954;  116,258;    0,384;    1,227
409,545;  125,139;    1,021;    1,045
410,135;   82,849;    1,293;    0,500
410,726;   32,247;    1,838;    0,318
411,316;  209,249;    0,111;    0,773
411,906;   51,574;   -0,253;   -0,409
412,497;   68,725;   -1,070;   -0,045
413,087;    9,537;   -1,980;   -0,227
413,677;  -60,993;   -0,707;    3,864
414,267;  -54,971;    0,656;    1,409
414,857;  -77,008;   -2,980;    4,227
415,448;  -79,475;    0,839;    0,500
416,038;  -49,305;    0,020;   -0,591
416,628;    4,162;   -0,889;    0,409
417,218;   53,074;    0,565;    3,318
417,808;  209,583;    0,202;   -0,409
418,398;   82,989;    0,020;    2,682
418,988;  -33,635;    2,020;    0,591
419,578;   65,392;   -0,707;    1,409
420,168;  -17,499;   -1,343;   -0,955
420,757;  136,285;   -1,343;   -1,500
421,347;   30,475;    0,111;   -0,227
421,937;   -0,610;    2,292;    1,409
422,527;  134,508;    0,838;   -0,773
423,116;  269,468;   -0,253;   -0,045
423,706;   -0,992;   -1,889;    0,318
424,296;  -41,647;    1,384;    0,682
424,885;   77,081;   -0,071;   -3,045
425,475;   58,399;    1,474;   -2,864
426,065;  -46,404;   -0,980;   -0,318
426,654;  -63,055;   -0,435;   -0,318
427,244;  190,287;    0,020;    1,409
427,833;  158,496;    1,383;   -0,500
428,423;   34,357;   -0,526;    1,136
429,012;   29,421;   -0,344;   -1,136
429,601;  152,855;   -1,344;    0,136
430,191;   46,015;    1,292;    4,318
430,780;  -40,749;   -0,344;   -0,409
431,369;  148,045;    0,746;   -0,045
431,959;   35,852;   -1,254;    0,500
432,548;  -15,542;   -1,163;   -0,045
433,137;  -86,069;   -1,254;   -1,318
433,726;  -21,697;    0,292;    0,500
434,315;    4,806;   -0,526;    2,409
434,905;  118,295;   -1,254;    1,409
435,494;  111,419;    0,746;    0,955
436,083;  -16,685;   -0,981;   -0,955
436,672;   72,788;    0,110;    0,500
437,261;   22,319;    0,292;   -1,955
437,850;  259,376;    1,383;    0,682
438,439;  305,135;    3,291;    1,955
439,027;  413,753;    3,655;    1,773
439,616;  334,877;    2,927;    1,227
440,205;  104,671;    0,200;   -2,136
440,794;   53,650;    2,109;   -0,045
441,383;  -11,792;   -1,346;   -0,591
441,971;  -47,556;   -2,436;    0,591
442,560;  -27,940;    0,563;   -1,773
443,149; -118,702;    0,379;   -1,318
443,737;  -74,033;   -0,074;   -2,318
444,326;  -37,276;    0,018;    0,318
444,915;    8,257;   -1,982;    0,864
445,503;    5,248;   -2,891;   -0,318
446,092;  267,866;    0,382;    2,136
446,680;  206,457;    0,382;    0,318
447,269;  105,960;   -0,346;   -0,318
447,857;   90,506;    0,018;   -1,773
448,445;   50,785;    0,563;    1,318
449,034;  -13,054;   -1,528;   -1,136
449,622;   -9,682;   -1,073;    3,500
450,210;  277,801;    2,017;    2,227
450,799;  193,592;    0,290;   -0,591
451,387;  143,971;    1,381;   -0,591
451,975;  134,325;    2,654;    0,864
452,563;  213,764;    3,472;    2,318
453,151;   39,483;   -0,528;   -1,227
453,739;   89,186;   -1,347;    0,136
454,328;  190,035;    2,381;   -2,136
454,916;  126,032;    2,562;   -0,136
455,504;  140,383;    1,017;    1,227
456,092;   15,571;    0,017;   -1,591
456,679;  -10,071;    1,472;    0,682
457,267;  408,474;    4,017;    1,045
457,855;   84,914;    1,017;    1,409
458,443;  -68,777;   -0,165;    1,682
459,031;   98,723;    0,108;    2,409
459,619;   49,117;   -1,801;    2,864
460,206;  -44,859;    0,835;    2,045
460,794;  -37,880;   -2,983;   -0,227
461,382;   18,063;   -0,529;   -0,864
461,970;   11,996;    1,198;    1,864
462,557;  -59,170;   -0,711;   -0,682
463,145;   63,242;   -3,165;   -1,682
463,732;  316,897;    2,016;   -1,045
464,320;   75,058;   -0,075;   -3,045
464,907;  215,942;    2,743;   -0,773
465,495;  132,983;    0,743;   -1,227
466,082;   51,427;   -1,984;   -0,045
466,670;   70,646;   -2,529;    1,227
467,257;  -33,627;   -1,711;    2,045
467,844;   72,125;   -0,075;    0,045
468,432;   44,013;    0,834;    3,500
469,019;   13,325;    0,925;   -1,773
469,606;   97,873;    0,470;    3,682
470,193;  129,259;   -1,439;    0,227
470,780;   79,507;   -2,075;    0,864
471,368;   10,250;   -1,257;   -0,773
471,955;  121,531;    1,379;   -0,682
472,542;   73,165;    0,652;   -1,136
473,129;  -46,538;   -0,166;    0,136
473,716;  -39,090;    1,470;    0,591
474,303;    5,474;    0,652;   -0,864
474,890;    4,844;   -1,439;   -0,500
475,477;  109,475;   -1,621;    0,409
476,064;   12,284;    1,106;   -1,591
476,650;  135,775;    0,288;    0,318
477,237;   45,320;   -0,258;    0,955
477,824;   17,590;   -1,076;    0,864
478,411;  -73,628;   -1,894;   -0,318
478,997;  -83,782;    0,560;   -0,773
479,584; -122,179;    1,196;   -0,409
480,171;   60,348;   -0,440;   -0,773
480,757;  126,264;    2,651;    0,773
481,344;   18,515;    0,469;    0,409
481,931;  -86,054;    1,105;    1,045
482,517;   47,909;   -1,258;    0,318
483,104;  129,333;    1,106;    2,864
483,690;   -2,367;   -1,804;    0,045
484,276;  -21,224;   -0,895;    0,227
484,863;  199,839;    2,469;    1,136
485,449;   38,122;   -0,077;    0,318
486,035;   -4,809;   -1,986;   -0,136
486,622;   85,727;   -0,895;    0,045
487,208;   -0,815;    1,378;    1,500
487,794;  -80,881;    0,741;    0,318
488,380;  -71,626;    0,105;   -1,409
488,967;  -81,271;   -1,168;   -0,409
489,553;  -56,565;   -1,895;   -1,409
490,139;   26,601;    1,559;    0,773
490,725;  -54,808;    0,741;   -0,227
491,311;    1,659;    3,287;    3,045
491,897;  -15,223;   -0,986;    1,500
492,483;   -3,844;    0,105;    1,227
493,069;  434,326;    3,923;    0,864
493,655;  134,805;    1,650;    0,682
494,241;   14,089;    1,377;   -0,955
494,826;    5,698;    0,287;   -1,045
495,412;   74,641;    2,559;   -0,682
495,998;  -12,077;   -0,805;   -0,318
496,584;   60,475;    0,377;    1,045
497,169;   59,996;    1,014;   -0,682
497,755;    3,290;    0,650;    1,227
498,341;  142,987;    0,559;    0,318
498,926;  255,645;    1,832;    1,955
499,512;   -9,694;    1,286;    2,955
500,097;   -1,821;    0,195;   -0,318
500,683;   16,888;   -0,350;    2,136
501,268;  -37,606;   -0,169;   -0,955
501,854;   -6,985;   -0,169;    1,227
502,439;  -21,366;   -0,624;   -1,773
503,024;   -4,855;    0,195;    0,500
503,610;   39,333;   -0,078;   -0,682
504,195;  -18,988;    0,558;    1,955
504,780;   66,430;    2,922;    1,227
505,366;  150,921;    3,013;    2,864
505,951;   90,828;    0,740;    1,045
506,536;    5,261;   -3,260;   -3,682
507,121;   56,822;    0,285;   -0,318
507,706;   10,849;    2,376;    1,045
508,291;  -36,890;    2,649;    1,136
508,876;  -38,174;   -0,988;    2,591
509,461;    1,998;   -0,169;   -0,773
510,046;   41,541;    0,194;    0,318
510,631;   54,749;   -0,351;   -0,773
511,216;  -26,611;    2,467;   -0,500
511,801;   27,073;   -0,442;    2,591
512,386;   49,516;    0,740;    0,500
512,971;   58,317;   -2,988;    0,955
513,555;   87,201;   -0,897;   -1,500
514,140;   47,207;   -0,442;   -3,136
514,725;  168,375;   -0,715;   -1,136
515,309;   82,047;   -0,533;    0,318
515,894;  -10,086;   -0,624;   -2,227
516,479;   21,187;   -0,624;   -0,955
517,063;   28,468;    0,376;    1,227
517,648;  -16,132;    1,012;   -1,136
518,232;  -44,197;   -0,261;   -1,409
518,817;   35,969;   -0,079;    1,682
519,401;  142,881;    2,194;    0,591
519,985;  122,627;    1,103;    1,136
520,570;   18,733;    0,830;   -1,955
521,154;  100,736;    2,102;    0,591
521,738;  244,355;   -2,352;    2,409
522,323;  117,227;   -0,170;    1,682
522,907;  141,476;    0,466;   -0,136
523,491;   85,321;    0,557;    0,955
524,075;   87,488;    2,284;    0,591
524,659;  330,367;    1,466;    0,591
525,243;  322,164;    1,739;    0,409
525,827;  320,737;    0,648;   -0,045
526,411;  397,276;   -1,989;   -0,136
526,995;  640,061;   -0,352;    1,409
527,579;  817,125;   -0,443;   -1,045
528,163;  860,668;    0,375;   -1,500
528,747; 1194,259;    2,466;   -0,773
529,331; 1283,155;   -0,080;   -1,409
529,915; 1224,537;    1,738;    0,955
530,499; 1592,140;   -0,807;    1,227
531,082; 1917,925;   -0,534;    1,591
531,666; 2159,756;    1,374;    0,773
532,250; 2527,880;    1,284;    2,682
532,833; 3014,950;    0,920;    2,773
533,417; 3207,638;   -1,807;    0,864
534,001; 3547,117;    1,647;   -0,318
534,584; 4270,614;    0,374;    0,500
535,168; 4572,232;    0,465;    1,409
535,751; 5137,071;    0,647;    0,045
536,334; 5136,880;   -0,898;   -0,409
536,918; 5926,432;    0,011;    1,591
537,501; 6392,105;   -0,899;    1,318
538,085; 6868,169;   -0,444;    1,045
538,668; 7364,517;    0,829;    2,409
539,251; 8057,593;    1,829;    3,773
539,834; 8479,738;    0,101;    0,773
540,418; 8888,390;   -1,990;    4,318
541,001; 9301,648;   -0,990;    1,773
541,584; 9592,951;    2,101;    2,227
542,167; 9695,096;    1,374;    2,955
542,750;10054,848;    1,919;   -0,773
543,333;10034,479;    0,555;    2,136
543,916;11001,312;    0,192;    2,500
544,499;11754,824;   -1,354;    0,227
545,082;12064,454;    1,374;    3,591
545,665;12437,960;    1,919;    1,500
546,248;12915,024;    1,010;   -0,318
546,830;12865,673;   -0,445;    1,955
547,413;13483,576;    1,010;   -0,773
547,996;14132,843;    0,555;    0,500
548,579;14076,510;    0,919;    0,955
549,161;14072,958;    1,828;    2,682
549,744;14039,262;   -0,809;    0,409
550,326;14664,916;   -0,809;   -1,136
550,909;14698,283;    2,737;    0,591
551,492;15160,862;   -0,263;    0,227
552,074;15125,480;   -0,173;   -1,318
552,657;15798,274;    2,373;    0,045
553,239;15707,320;   -0,173;   -0,773
553,821;15703,683;   -1,082;    1,045
554,404;15312,323;    1,282;    1,136
554,986;15754,341;    0,464;    1,045
555,568;16468,932;    1,191;   -0,955
556,151;15828,553;    1,191;   -0,227
556,733;16054,841;   -0,264;   -0,864
557,315;16575,678;    0,100;    0,500
557,897;16465,790;    0,554;   -0,500
558,479;16672,114;   -1,991;    1,318
559,061;16906,751;   -0,719;   -0,864
559,643;17257,136;   -0,264;    0,045
560,225;17674,744;    1,645;    2,864
560,807;17761,045;    0,918;    0,318
561,389;17304,248;    0,554;    2,318
561,971;18132,412;    0,463;    2,136
562,553;18026,430;   -1,628;    1,591
563,135;18190,436;   -0,537;    1,136
563,717;17847,030;    3,372;    1,136
564,298;18568,154;    3,645;   -0,045
564,880;18374,603;    0,645;   -1,409
565,462;18550,240;    0,645;    1,318
566,043;19760,336;   -0,446;    2,318
566,625;19395,327;    1,918;    1,227
567,207;19288,036;    1,099;    1,682
567,788;20421,900;   -1,264;    1,500
568,370;21311,731;    1,917;   -0,500
568,951;21208,203;    0,190;    0,227
569,533;22182,858;   -0,628;   -0,500
570,114;22677,906;   -0,446;    0,682
570,695;23205,352;   -0,174;   -1,318
571,277;23773,461;   -0,265;   -1,682
571,858;24572,313;    2,008;   -1,136
572,439;25494,615;    1,554;   -1,045
573,021;25698,586;    2,099;   -2,773
573,602;26288,649;   -1,265;    0,318
574,183;27249,644;   -2,083;    2,227
574,764;27449,219;   -1,629;    0,409
575,345;28098,319;    0,917;   -0,136
575,926;28722,274;   -0,356;    0,136
576,507;28701,368;    1,099;   -0,227
577,088;29893,880;    3,099;    1,682
577,669;29979,201;    0,735;    1,955
578,250;30868,553;    0,644;   -1,045
578,831;31537,647;   -1,356;   -2,227
579,412;31808,641;   -0,810;    0,955
579,993;32671,816;    1,008;    0,227
580,573;33045,132;   -0,629;   -0,955
581,154;32064,698;    0,735;   -0,591
581,735;33047,341;    0,644;    0,773
582,315;32595,795;   -0,629;    2,136
582,896;32782,128;   -0,174;    1,227
583,477;32214,529;    0,189;    1,227
584,057;32471,419;    0,553;    0,955
584,638;32799,544;    2,553;    2,318
585,218;32840,492;   -0,538;    2,682
585,799;33074,634;    0,281;   -0,227
586,379;33007,789;    0,372;    1,591
586,959;31664,528;    0,735;    0,318
587,540;30959,611;   -0,629;    2,227
588,120;30488,808;    1,007;   -0,045
588,700;29521,632;    2,553;    2,136
589,281;29932,247;    0,462;   -0,955
589,861;29873,516;    0,099;   -1,682
590,441;29651,356;    2,371;   -2,682
591,021;28659,989;   -0,265;   -2,591
591,601;28922,304;   -0,537;    0,500
592,181;28915,301;   -0,719;   -0,773
592,761;28216,878;    0,007;    1,409
593,341;28151,577;   -0,901;    0,045
593,921;28150,846;   -0,265;    1,591
594,501;28102,834;   -0,538;    1,318
595,081;27932,771;    0,917;   -0,318
595,661;28290,837;   -1,447;    0,955
596,240;28868,337;   -0,537;    0,136
596,820;28559,652;    0,372;    1,955
597,400;28767,389;    2,008;    0,773
597,980;29009,661;    2,008;    1,045
598,559;28997,089;    2,735;   -0,227
599,139;28686,871;   -0,174;   -1,227
599,718;28598,234;   -0,174;   -0,409
600,298;28836,577;    0,735;    0,682
600,877;29205,507;    2,917;    1,409
601,457;29480,640;    2,281;    1,136
602,036;29379,113;    0,190;    2,045
602,616;29654,289;    0,644;    1,682
603,195;30034,267;   -0,355;    3,500
603,774;29612,834;   -0,901;    2,045
604,354;29455,364;    0,826;   -0,500
604,933;28886,640;    0,463;    1,864
605,512;29061,267;    3,554;    0,591
606,091;29125,897;   -0,537;    3,773
606,671;29925,888;    0,281;    0,773
607,250;29098,997;    1,644;    3,136
607,829;29317,697;    2,372;    3,227
608,408;29167,846;    1,190;    2,591
608,987;28159,109;    1,281;    3,409
609,566;28497,392;   -1,265;   -2,500
610,145;28630,203;   -1,082;    0,682
610,723;29002,636;    4,372;    6,864
611,302;28268,663;   -0,446;    1,682
611,881;27794,736;    5,008;   11,227
612,460;28643,276;    1,645;    3,955
613,039;29017,854;   -0,082;    2,045
613,617;27757,858;    1,736;    4,773
614,196;27927,400;    1,099;    1,227
614,775;28313,802;    1,009;    2,409
615,353;28203,669;    0,736;    0,864
615,932;27983,117;    0,100;    2,409
616,510;28592,430;    0,554;    0,591
617,089;28106,475;    7,100;   17,591
617,667;27824,490;    2,372;    6,136
618,246;27761,323;   -1,537;    1,318
618,824;27890,508;   -3,355;   -0,955
619,402;27513,881;   -2,900;   -1,773
619,981;27979,944;   -0,173;   -1,045
620,559;27767,102;    0,009;    1,682
621,137;27277,669;   -0,718;    1,864
621,715;27335,647;   -1,173;   -0,682
622,293;27251,172;   -0,537;   -0,773
622,871;27694,132;   -0,718;    0,500
623,450;27234,650;    0,373;   -0,864
624,028;27173,762;    0,191;   -0,955
624,606;26846,968;   -1,718;    1,682
625,183;27225,353;   -1,536;   -1,136
625,761;26824,617;    1,009;    1,136
626,339;27159,162;    1,373;    2,591
626,917;27555,698;   -0,172;   -0,045
627,495;27577,941;   -0,354;    1,318
628,073;27026,110;   -0,263;    2,864
628,650;26681,477;    0,100;    2,136
629,228;27120,283;    0,373;    4,409
629,806;26512,677;    2,282;    1,136
630,383;26811,307;    1,464;   -0,318
630,961;26650,438;    2,555;   -0,955
631,539;26373,256;    2,464;    0,227
632,116;25769,801;   11,373;   15,409
632,694;26343,507;    2,555;    6,500
633,271;26623,249;    0,828;    2,682
633,848;26569,468;    1,828;    2,045
634,426;26514,397;   -1,081;    1,773
635,003;25628,945;    1,101;   -0,409
635,580;26018,727;    1,192;    3,682
636,158;26604,767;    3,737;    1,227
636,735;26571,555;    0,555;   -0,500
637,312;26746,389;   -0,809;   -0,682
637,889;26825,319;   -4,354;   -0,682
638,466;26255,400;   -3,990;   -0,409
639,043;26276,533;    2,101;   -1,136
639,620;26628,127;   -2,262;   -0,955
640,197;26933,882;    1,100;    1,682
640,774;27029,677;   -0,172;    1,136
641,351;27476,654;    0,737;    1,136
641,928;26902,904;   -0,627;    1,409
642,505;26553,426;    0,828;   -0,500
643,082;26657,949;   -1,718;    1,227
643,658;25678,835;   -0,718;    1,500
644,235;26465,812;    1,191;    2,500
644,812;26862,789;    1,918;    0,773
645,388;26544,494;   -0,991;    1,409
645,965;26634,289;   -0,809;    1,682
646,542;26713,084;   -1,445;   -0,227
647,118;26726,061;    1,009;   -0,955
647,695;26990,038;   -0,263;    1,136
648,271;26918,561;   -0,536;    0,500
648,848;27260,901;    0,736;    2,227
649,424;27110,151;    0,827;    1,318
650,000;26885,765;   -0,354;   -1,045
650,577;26661,651;   -0,627;   -0,955
651,153;27156,719;   -1,809;    0,955
651,729;28238,878;    1,191;    0,864
652,305;29086,764;    0,645;    2,773
652,881;34963,832;   -0,082;    1,136
653,458;42302,536;    1,100;    0,227
654,034;45708,786;    0,282;    1,591
654,610;46953,217;    0,554;    0,773
655,186;48197,194;    0,645;    3,045
655,762;47875,172;   -0,991;    0,409
656,338;47856,240;    0,100;    0,136
656,913;48924,398;   -0,082;    0,409
657,489;48127,648;    0,827;   -0,318
658,065;48034,080;   -0,173;   -1,591
658,641;48789,330;   -0,900;   -0,864
659,217;48125,488;   -0,991;    0,409
659,792;47548,829;    0,645;   -0,409
660,368;47692,897;   -2,173;   -0,682
660,944;46757,874;   -2,082;    1,227
661,519;40695,306;   -0,628;    0,409
662,095;34246,737;   -1,719;    0,591
662,670;29988,260;    1,281;   -0,136
663,246;29092,964;    1,009;   -0,409
663,821;28528,578;    0,281;    1,682
664,396;28049,555;    0,009;    1,864
664,972;28287,441;    0,009;   -0,500
665,547;28656,509;    1,372;    0,136
666,122;28692,213;   -1,082;    0,318
666,698;29004,463;   -0,173;    0,318
667,273;28337,440;   -0,173;    0,136
667,848;29192,053;    2,372;    1,500
668,423;29009,212;    2,190;    2,318
668,998;29576,189;    2,827;   -0,682
669,573;30153,985;   -3,264;   -1,500
670,148;29982,871;   -1,446;   -0,682
670,723;29729,302;   -1,810;    0,318
671,298;30177,916;    2,372;    1,045
671,873;30296,529;   -0,082;   -0,136
672,448;30179,870;    0,645;    0,136
673,023;30517,938;   -1,992;   -0,227
673,597;30905,369;    0,827;    2,318
674,172;30713,437;   -0,355;    0,318
674,747;30171,778;    0,372;   -1,045
675,321;29983,846;   -0,628;    3,318
675,896;29598,005;    0,645;    1,045
676,471;30641,800;    2,645;    1,591
677,045;30352,777;   -1,264;    0,682
677,620;30459,573;    0,190;    1,136
678,194;30713,550;   -2,628;    1,136
678,769;30277,163;   -1,083;   -0,318
679,343;30599,504;   -0,628;    1,773
679,917;30494,754;   -1,446;    1,955
680,492;30611,276;    0,826;    3,227
681,066;30731,071;    3,372;    0,409
681,640;30793,139;    1,463;   -0,318
682,214;31635,753;    0,735;    0,500
682,788;31152,275;   -1,356;   -0,773
683,363;31037,525;   -1,810;    1,682
683,937;30773,684;   -1,719;   -0,318
684,511;31525,570;    0,463;   -0,591
685,085;31230,183;   -1,356;    0,318
685,659;30991,888;   -2,538;    0,864
686,232;31328,774;   -0,356;   -0,318
686,806;30959,387;   -0,901;    0,409
687,380;31631,183;   -0,174;    0,591
687,954;31886,796;   -1,174;    1,136
688,528;31571,046;   -0,719;    1,955
689,101;32377,568;   -3,992;    1,045
689,675;31925,182;   -0,356;   -0,136
690,249;31281,432;   -0,719;    0,409
690,822;31551,863;    0,280;    0,318
691,396;31723,840;   -0,265;    1,227
691,969;31181,908;    1,280;    0,136
692,543;31614,340;   -0,447;   -1,955
693,116;31203,044;   -0,265;   -1,409
693,690;31083,021;    0,099;    0,500
694,263;31686,544;   -1,083;    2,955
694,836;31743,884;    1,371;    3,591
695,410;30386,861;   -0,265;    1,773
695,983;30864,748;    0,189;    0,591
696,556;30752,088;   -0,447;   -1,045
697,129;31183,974;   -0,356;    1,409
697,703;30837,042;   -1,629;    1,955
698,276;30764,474;    1,462;   -0,773
698,849;30582,815;    1,280;    1,409
699,422;30983,428;   -1,083;    0,591
699,995;30672,314;    0,007;    0,136
700,568;31219,746;   -0,629;    3,045
701,140;31220,450;   -2,811;    1,682
701,713;30907,609;   -0,174;    2,409
702,286;30700,404;   -0,538;    0,864
702,859;30577,563;   -0,902;   -0,591
703,432;29716,086;    0,825;    0,682
704,004;30205,063;    0,462;    0,318
704,577;30086,767;   -0,629;    0,136
705,150;30681,017;    0,189;    2,500
705,722;30484,812;   -0,356;   -3,227
706,295;30228,698;   -0,175;   -0,591
706,867;30095,221;   -0,175;    1,955
707,440;30264,652;   -1,720;   -0,409
708,012;30560,811;    0,462;    0,591
708,584;30541,152;    2,462;    0,227
709,157;30800,038;    1,825;   -0,591
709,729;30450,015;    2,280;    2,045
710,301;31278,447;    0,734;    0,045
710,874;31291,060;   -1,447;   -0,227
711,446;30145,765;    0,371;    0,864
712,018;29993,287;    0,098;    0,500
712,590;29755,355;   -1,993;    1,682
713,162;30322,059;    0,825;    1,318
713,734;30620,582;    1,825;   -2,045
714,306;30463,923;   -1,902;   -0,409
714,878;29119,718;    0,825;    0,864
715,450;29991,786;    0,643;    0,864
716,022;30218,399;    1,552;    1,318
716,593;30308,013;    0,189;    0,591
717,165;30233,990;   -3,175;   -1,227
717,737;29998,694;    0,280;    0,409
718,309;29624,944;    0,280;   -0,045
718,880;29533,194;   -0,539;   -1,409
719,452;29742,625;   -0,175;   -1,591
720,024;29378,057;    0,734;   -0,591
720,595;29945,670;   -2,902;    0,955
721,167;29480,829;    0,370;   -2,045
721,738;29042,624;   -0,812;   -1,045
722,309;29026,601;   -0,993;   -1,227
722,881;28787,215;   -1,357;    0,773
723,452;29412,374;   -2,630;    2,864
724,023;29559,260;   -0,721;    2,682
724,595;29341,146;    0,007;    0,682
725,166;29057,487;    0,007;   -0,409
725,737;28795,555;    1,734;    0,227
726,308;28769,623;   -0,266;    0,318
726,879;29234,782;   -1,630;    1,227
727,450;29146,577;    0,552;   -0,045
728,021;29128,554;    3,097;    0,682
728,592;28930,804;    0,734;    0,500
729,163;29302,872;    0,643;   -0,136
729,734;29319,394;    0,188;   -0,227
730,305;29657,280;    1,734;    0,136
730,876;30007,257;    0,188;    2,955
731,447;29756,325;    2,188;    2,682
732,017;29861,575;    1,097;    1,864
732,588;29324,916;    0,734;    1,227
733,159;29537,166;    0,643;   -1,045
733,729;29372,415;    0,006;    0,409
734,300;28633,211;    0,915;    0,864
734,870;29013,824;    3,461;    0,591
735,441;29586,074;    0,370;   -0,591
736,011;29360,778;    0,643;   -1,591
736,582;29313,301;   -0,812;    0,045
737,152;28719,641;   -1,721;   -2,045
737,722;29182,255;   -0,267;   -0,682
738,293;28913,323;   -1,358;    1,318
738,863;28806,300;    2,461;    2,318
739,433;28588,550;    5,279;    0,318
740,003;29202,436;   -0,994;   -0,682
740,573;28636,231;    2,097;   -1,591
741,143;28606,299;   -1,085;    0,318
741,713;29368,912;    1,188;   -0,500
742,283;29057,526;    0,915;    1,591
742,853;28792,503;    1,915;    1,591
743,423;28194,934;    1,733;    0,045
743,993;28392,275;   -0,358;    1,500
744,563;27725,343;    0,097;   -0,864
745,133;27690,684;   -0,812;   -0,864
745,702;28333,024;   -0,267;    1,773
746,272;27585,547;   -0,176;    0,591
746,842;27296,070;   -1,358;   -0,591
747,411;27720,319;   -0,267;   -0,318
747,981;27942,660;    0,097;    0,500
748,551;27970,273;    2,278;   -1,045
749,120;27848,796;    0,642;   -0,227
749,690;28280,228;   -0,631;    2,409
750,259;28549,659;    1,369;    2,955
750,828;28520,000;    1,551;   -1,955
751,398;28792,977;    1,278;   -0,045
751,967;28374,499;    2,187;    0,409
752,536;28564,931;   -0,813;   -0,227
753,105;28915,181;    0,096;    0,227
753,675;28720,612;    0,096;    1,773
754,244;28655,499;   -0,904;    3,591
754,813;28731,385;    0,551;    1,227
755,382;28304,907;    0,460;    0,955
755,951;28908,884;    1,551;    3,682
756,520;28448,770;   -0,085;    1,864
757,089;28972,384;    0,278;    0,500
757,658;29178,997;    1,733;    1,227
758,227;29193,702;    1,096;    0,318
758,795;29500,770;    1,187;    1,136
759,364;29645,838;   -0,086;   -0,591
759,933;28667,996;   -1,176;   -0,045
760,501;28174,519;    0,733;   -1,318
761,070;28678,314;   -2,813;   -1,409
761,639;29361,928;   -1,904;    1,318
762,207;28757,905;    1,551;   -0,955
762,776;28673,973;    0,369;    0,864
763,344;28639,950;   -0,995;    0,591
763,913;27708,381;   -0,722;    1,409
764,481;28442,540;    1,005;   -0,136
765,049;28207,154;   -1,358;    1,409
765,618;28081,403;   -0,086;    0,318
766,186;28080,199;    0,278;    0,136
766,754;28315,721;    0,005;    1,864
767,322;27323,153;   -1,995;    0,409
767,890;27367,766;   -0,722;   -1,773
768,459;27778,471;   -2,177;   -0,318
769,027;27969,266;    1,641;    3,409
769,595;26781,334;    3,278;    2,591
770,163;27289,402;    3,823;    2,955
770,730;27039,651;    0,732;   -0,136
771,298;26860,265;    0,187;   -1,409
771,866;26915,060;   -1,541;    4,955
772,434;27285,946;   -0,631;   -1,864
773,002;27410,923;    0,005;    0,682
773,569;27081,173;    0,914;    1,682
774,137;26915,150;   -0,268;   -0,045
774,705;27675,127;    0,278;   -0,136
775,272;27205,468;    0,641;    0,682
775,840;26900,081;   -0,177;    2,682
776,407;26461,331;    0,277;    1,955
776,975;26062,945;   -0,632;    0,318
777,542;27039,194;   -1,086;   -0,045
778,110;26849,717;   -1,268;   -0,045
778,677;26499,239;   -2,359;   -0,864
779,244;26239,216;    2,186;    1,045
779,812;26409,012;    1,823;    0,864
780,379;26240,171;    0,005;    1,136
780,946;26488,420;    1,005;   -0,773
781,513;26796,034;   -1,450;    0,318
782,080;26207,284;   -0,086;    2,864
782,647;26956,352;   -0,268;    3,045
783,214;26514,147;   -0,177;    3,864
783,781;26152,851;   -0,723;   -0,682
784,348;26004,919;   -0,632;    1,500
784,915;26451,533;   -3,177;    0,318
785,482;26289,691;    1,368;    2,591
786,049;26694,487;    0,186;   -0,591
786,615;26754,555;    0,277;   -0,955
787,182;26472,532;    0,186;   -0,682
787,749;26212,236;   -2,814;    1,409
788,315;25566,940;   -1,632;   -0,409
788,882;25860,736;    1,550;   -1,227
789,448;26529,622;    1,732;   -0,955
790,015;26505,872;    1,095;    3,227
790,581;26120,485;    1,459;    0,227
791,148;26020,007;    0,641;    1,045
791,714;26208,621;   -0,541;    3,136
792,280;25854,325;    0,186;    1,591
792,847;25395,848;    0,550;    2,500
793,413;25965,188;   -0,269;   -0,318
793,979;25503,256;    3,459;   -1,318
794,545;25626,688;    4,459;    2,682
795,111;24986,301;    2,186;    1,318
795,678;25220,551;    0,731;   -1,682
796,244;24835,983;    3,368;    0,136
796,810;25321,960;    1,731;    0,773
797,375;25038,755;    0,549;   -2,136
797,941;25097,096;   -0,541;    0,591
798,507;25240,255;   -0,451;   -0,955
799,073;24753,868;   -0,360;    0,591
799,639;24790,572;   -2,632;    3,136
800,205;24785,004;    0,095;    2,682
800,770;24367,981;    0,640;    1,773
801,336;24467,776;    1,368;   -0,955
801,901;24169,753;    4,549;    3,136
802,467;24711,640;   -0,542;    2,045
803,033;24040,344;   -0,087;    0,864
803,598;24278,957;    1,913;   -1,045
804,163;24218,025;    1,095;   -0,318
804,729;24252,457;   -0,178;    1,136
805,294;24701,707;    0,822;    2,227
805,859;24461,593;    0,731;   -0,409
806,425;23894,661;    1,186;    2,682
806,990;23538,638;    2,186;    4,318
807,555;24035,342;   -1,451;    2,591
808,120;23904,683;    0,822;   -0,409
808,685;23916,478;    0,185;   -2,500
809,250;23433,092;    0,004;   -0,500
809,815;23785,341;    1,913;    0,682
810,380;24349,500;   -0,269;    1,591
810,945;24894,659;   -1,087;    2,045
811,510;24010,091;    2,094;    1,591
812,075;23736,795;   -0,633;   -1,409
812,640;23830,408;    2,003;    1,409
813,204;23806,840;    0,822;   -0,227
813,769;24250,999;    2,094;   -0,045
814,334;23705,885;    0,458;    0,864
814,898;23738,862;    0,367;    0,591
815,463;23594,112;    1,276;   -0,773
816,027;23554,725;   -0,724;   -2,318
816,592;23619,702;    0,640;   -2,045
817,156;23196,134;    2,094;    1,136
817,721;23060,566;    4,276;    2,318
818,285;23008,270;    2,912;    1,500
818,849;23643,974;   -1,451;    1,682
819,414;23516,042;   -0,269;    2,955
819,978;23068,565;   -1,269;    1,773
820,542;23675,996;    2,003;    0,500
821,106;23407,428;   -0,815;    0,682
821,670;23495,678;   -0,815;    2,591
822,234;23188,018;   -0,270;    1,409
822,798;22533,450;    0,003;    0,500
823,362;22530,973;   -0,633;    4,227
823,926;21824,313;    0,094;    1,136
824,490;22046,654;   -0,997;   -0,682
825,054;22491,904;   -0,088;   -1,136
825,618;22140,699;   -1,542;   -1,500
826,181;22114,767;    0,458;   -1,318
826,745;22042,017;    1,367;   -1,045
827,309;22347,539;    1,185;    1,318
827,872;21709,516;    1,367;    0,955
828,436;22705,948;    1,185;   -0,773
828,999;22766,834;   -0,997;    1,227
829,563;21472,357;   -0,179;    1,136
830,126;21323,606;   -0,179;   -0,591
830,690;21375,583;   -1,997;    2,864
831,253;20901,288;   -0,543;    2,227
831,816;21059,174;   -1,906;    0,500
832,380;20941,242;    0,185;    0,864
832,943;21180,855;   -1,361;   -0,500
833,506;20610,741;    2,639;   -1,227
834,069;21401,082;    3,912;   -0,955
834,632;21445,150;    1,730;    1,318
835,195;21344,309;    1,003;    0,955
835,758;20521,104;   -0,997;    1,955
836,321;20448,990;    0,730;   -1,045
836,884;20530,877;   -0,725;   -0,955
837,447;20527,308;   -2,816;    1,773
838,010;20806,467;    0,366;    3,227
838,573;21092,717;   -1,179;    0,773
839,135;21052,512;   -1,361;   -0,955
839,698;20533,126;    1,275;    0,409
840,261;20021,012;    1,003;   -0,227
840,823;19832,352;   -0,543;    0,864
841,386;20116,693;   -0,452;   -2,409
841,948;20020,034;   -1,361;    1,773
842,511;19741,374;    0,912;    1,682
843,073;19902,806;    1,912;    0,227
843,636;19631,238;   -0,361;   -0,227
844,198;19615,669;    0,911;    0,591
844,760;19752,465;    1,093;    1,955
845,322;19393,078;    0,548;    1,136
845,885;19838,328;    0,730;    0,591
846,447;20222,668;   -1,998;    0,227
847,009;19834,009;    1,911;   -0,682
847,571;20148,077;    0,820;   -2,045
848,133;20300,781;   -1,089;   -1,864
848,695;20100,031;   -0,543;    1,409
849,257;19642,917;   -1,089;   -1,682
849,819;19818,440;   -0,998;   -0,409
850,381;19842,235;   -0,725;   -0,864
850,942;20237,758;    1,093;   -0,591
851,504;20263,189;    1,184;    0,227
852,066;20243,894;    1,275;   -1,591
852,628;19748,416;   -0,180;    1,955
853,189;19282,211;    1,638;    2,682
853,751;19382,279;   -0,907;    1,409
854,312;19191,438;   -0,453;   -1,682
854,874;19701,961;   -2,089;   -0,773
855,435;20256,938;   -0,907;   -1,682
855,997;20431,369;   -1,816;   -0,136
856,558;19673,983;    0,366;    1,773
857,119;19812,869;    0,820;    2,864
857,681;19468,119;    0,002;    0,318
858,242;19543,005;    1,911;   -2,136
858,803;19990,527;    0,456;   -0,773
859,364;20531,414;    0,184;   -4,773
859,925;19824,936;   -2,453;   -0,955
860,486;19698,822;   -0,453;   -0,955
861,047;19460,163;   -0,544;   -1,227
861,608;19275,322;   -1,089;   -0,773
862,169;19340,117;    0,638;   -0,045
862,730;19119,276;    0,456;    1,409
863,291;19409,889;   -0,635;   -0,500
863,852;19784,775;   -0,635;    1,955
864,412;19215,934;   -0,271;   -0,864
864,973;17723,184;   -0,089;    0,500
865,534;17608,252;   -1,726;    0,227
866,094;19167,411;    1,820;    0,227
866,655;18809,206;    1,274;    3,318
867,215;19073,456;    0,274;    0,136
867,776;18869,342;    0,547;   -0,136
868,336;19015,683;   -1,453;    0,136
868,897;18510,387;    2,638;    1,682
869,457;18223,637;    1,365;    0,318
870,017;18446,159;    0,547;   -1,227
870,578;18970,682;   -0,817;    0,773
871,138;18663,841;   -2,089;   -0,955
871,698;18191,182;   -0,817;   -1,318
872,258;18086,886;   -0,453;   -2,864
872,818;18477,227;    2,729;    0,045
873,378;18390,476;    0,638;    1,045
873,938;17905,272;    0,547;    0,500
874,498;18270,431;    0,274;   -1,955
875,058;18170,680;    2,183;    1,773
875,618;17997,294;    1,910;   -2,682
876,177;17932,180;    1,274;    0,136
876,737;17531,066;   -0,090;    1,955
877,297;17584,407;    0,183;    1,955
877,856;17576,838;   -0,362;    0,318
878,416;17542,543;    1,183;   -0,136
878,976;17746,338;   -1,817;    0,409
879,535;17877,679;    0,092;    3,136
880,095;17623,565;   -0,544;    0,045
880,654;17772,178;   -1,090;    1,318
881,213;17893,610;    2,456;    1,500
881,773;17518,041;    2,637;    2,682
882,332;17911,200;    3,365;    5,136
882,891;17721,541;    3,092;    2,136
883,451;18179,609;   -1,272;    1,682
884,010;17598,222;   -2,908;   -0,409
884,569;17711,018;   -0,999;   -0,045
885,128;17895,267;    2,819;   -1,864
885,687;17967,244;    4,455;    0,682
886,246;17678,040;    1,455;    2,136
886,805;17447,108;    2,455;    2,045
887,364;17718,448;   -0,999;   -0,500
887,922;18068,971;   -1,181;    0,045
888,481;17576,039;   -1,545;    0,591
889,040;17878,198;    1,183;    2,136
889,599;18550,811;    2,455;    1,409
890,157;18630,697;    1,455;    2,409
890,716;18346,129;   -0,090;    0,227
891,274;18143,924;    0,092;   -1,136
891,833;18576,265;    1,546;    0,864
892,391;18454,696;   -0,454;    0,500
892,950;18515,583;    1,819;   -0,773
893,508;18916,196;    0,455;   -0,409
894,067;18210,173;    0,637;    0,136
894,625;18102,423;   -0,636;   -1,500
895,183;18328,309;   -0,363;   -0,682
895,741;18202,832;    1,728;   -1,773
896,299;18049,263;   -0,545;   -2,409
896,858;18184,422;    0,819;   -1,591
897,416;18371,308;    2,728;   -1,318
897,974;18086,558;    1,819;    0,318
898,532;18276,171;    6,091;    2,682
899,089;18155,239;    2,091;   -0,682
899,647;18159,307;   -1,454;    1,318
900,205;17899,012;    1,182;    1,045
900,763;18059,170;   -0,454;    0,227
901,321;18058,602;    2,364;   -1,409
901,878;17467,216;   -1,000;   -0,773
902,436;17384,829;   -1,363;    1,318
902,994;17800,079;    4,728;    3,682
903,551;17200,329;    0,728;    0,409
904,109;17542,669;    0,182;   -1,409
904,666;17096,010;    2,455;    1,045
905,224;16933,532;    0,182;   -0,409
905,781;16688,419;    0,727;   -0,318
906,338;16764,032;   -1,363;    1,045
906,895;16705,282;    0,637;    2,045
907,453;16651,532;    1,727;    1,136
908,010;16661,781;   -0,909;    0,409
908,567;16318,577;    1,273;    0,591
909,124;15813,917;    0,364;   -1,500
909,681;15877,349;   -2,909;    0,682
910,238;15993,235;    0,636;   -1,318
910,795;16298,576;   -0,273;   -1,136
911,352;15897,303;   -2,909;   -2,682
911,909;15311,121;   -1,364;   -0,864
912,466;15857,212;   -3,182;    1,500
913,022;15352,758;   -1,636;    0,500
913,579;15696,576;   -0,909;    2,045
914,136;15382,576;    1,636;    0,955
914,692;15767,212;    0,091;   -1,227
915,249;15379,758;    1,455;    0,409
915,806;15600,848;    0,182;    1,955
916,362;15319,212;    1,909;    1,864
916,918;14904,030;    2,000;    1,045
917,475;14860,848;   -1,182;    0,955
918,031;14884,758;    3,364;   -0,045
918,587;14323,303;   -0,909;   -0,318
919,144;14510,121;   -2,273;    0,227
919,700;14880,212;    1,727;    0,773
920,256;14463,667;    0,727;    0,045
920,812;14055,758;   -0,727;   -1,045
921,368;14063,758;   -1,727;   -1,045
921,924;13685,939;    0,182;   -0,136
922,480;13291,576;   -0,545;    1,227
923,036;13916,576;    1,273;    1,955
923,592;13859,939;    0,455;    0,318
924,148;13757,030;    0,455;   -0,955
924,704;13030,758;   -1,364;   -0,409
925,259;13281,121;   -0,273;    0,591
925,815;13019,121;    1,455;    0,500
926,371;12502,121;    2,909;    1,409
926,926;12379,667;    2,091;    0,591
927,482;12033,758;   -1,364;    0,773
928,037;11889,212;    0,909;    2,045
928,593;12219,848;    1,636;    1,045
929,148;12031,848;   -1,818;   -1,500
929,704;11492,212;   -1,455;   -0,500
930,259;11708,394;    0,091;   -0,136
930,814;10775,394;   -0,818;    1,955
931,369;10431,212;    1,091;   -0,773
931,925;10256,758;   -0,091;    0,136
932,480;10190,212;   -2,818;   -2,591
933,035;10059,576;    0,545;   -0,318
933,590; 9822,212;    0,364;   -1,773
934,145; 9406,667;   -1,364;   -0,318
934,700; 9751,121;    0,455;   -0,591
935,255; 9552,212;   -0,091;    0,045
935,809; 8804,848;    3,182;    0,864
936,364; 7896,485;   -0,455;   -0,136
936,919; 7867,394;    0,455;   -1,773
937,474; 7709,394;    1,455;    0,136
938,028; 7474,758;   -1,636;    1,136
938,583; 6963,394;    1,818;    4,682
939,138; 7211,939;    2,091;    2,136
939,692; 6623,758;    1,636;   -1,136
940,247; 6323,212;   -0,727;   -1,045
940,801; 5842,394;   -0,636;    0,227
941,355; 5725,576;   -0,364;    2,591
941,910; 5335,939;   -0,273;   -2,136
942,464; 5490,758;   -0,818;   -0,318
943,018; 5249,394;    1,000;   -0,227
943,572; 5203,667;    2,545;   -0,682
944,126; 4603,121;    0,091;   -0,409
944,681; 4499,303;    3,091;    0,227
945,235; 4477,394;    1,000;   -0,591
945,789; 4401,758;    0,364;   -1,864
946,342; 4476,576;    0,455;   -0,591
946,896; 4284,212;   -2,273;    0,955
947,450; 4042,576;    1,545;   -0,227
948,004; 4264,758;    1,727;   -0,045
948,558; 4252,394;    0,273;   -0,864
949,111; 4183,667;   -0,273;   -0,318
949,665; 4217,576;    1,636;   -0,682
950,219; 4086,303;   -0,091;   -1,045
950,772; 4151,939;   -1,909;    1,864
951,326; 4057,576;    0,545;   -0,955
951,879; 4177,758;    0,727;   -2,318
952,433; 4194,212;    0,000;    2,227
952,986; 4014,758;    2,909;    0,682
953,539; 3985,848;   -0,273;    0,591
954,093; 3888,576;    0,545;   -1,318
954,646; 4049,394;    0,909;    1,318
955,199; 3850,667;    0,000;   -0,500
955,752; 3704,758;   -0,455;    1,773
956,305; 3675,394;   -0,091;    2,955
956,858; 3860,939;    0,818;   -0,318
957,411; 4033,394;   -0,545;    2,136
957,964; 3853,758;    1,364;    2,136
958,517; 3831,394;   -1,545;    3,136
959,070; 3663,212;   -0,455;    1,955
959,623; 3745,667;    1,091;    1,500
960,176; 3484,121;    1,727;    2,045
960,728; 3488,303;   -2,727;    0,773
961,281; 3523,303;    0,545;    0,500
961,834; 3590,394;   -0,909;    0,864
962,386; 3497,939;    1,727;    1,045
962,939; 3398,303;    0,364;   -0,318
963,491; 3570,485;    0,455;    1,136
964,043; 3431,121;    1,182;    2,409
964,596; 3566,212;   -1,000;    2,227
965,148; 3404,121;   -1,000;    1,773
965,700; 3304,667;    1,091;   -0,227
966,253; 3478,030;   -0,636;    0,318
966,805; 3297,121;   -2,273;    0,773
967,357; 3336,576;    1,091;   -1,500
967,909; 3301,576;    0,455;   -1,227
968,461; 3428,212;    0,545;    3,136
969,013; 3347,394;   -0,182;   -0,864
969,565; 3411,212;   -0,455;   -1,136
970,117; 3468,939;   -0,364;    1,045
970,669; 3298,667;    0,182;   -0,136
971,220; 3166,485;   -0,455;   -1,500
971,772; 3095,303;   -0,636;   -0,318
972,324; 3230,212;    0,091;   -0,500
972,876; 3183,576;    0,818;   -0,045
973,427; 3307,848;    1,909;   -1,045
973,979; 3273,121;   -0,727;   -2,500
974,530; 3326,848;    1,818;    1,318
975,082; 3342,758;   -0,545;    1,682
975,633; 3229,939;    1,091;    1,682
976,184; 3365,576;    0,909;    0,773
976,736; 3133,758;    0,091;    0,227
977,287; 2931,485;   -0,909;   -0,500
977,838; 3110,485;    0,909;   -0,318
978,389; 3180,576;   -1,000;   -0,500
978,940; 3043,303;    0,545;   -0,409
979,491; 3084,303;    0,091;   -0,500
980,042; 3059,121;    0,182;    3,045
980,593; 3102,121;   -2,545;    0,227
981,144; 3133,576;    2,545;   -0,500
981,695; 3095,121;    1,455;    1,500
982,246; 3075,667;   -0,273;    1,045
982,797; 3234,121;   -1,727;    0,682
983,347; 3333,121;    0,364;    0,591
983,898; 3492,303;    3,091;    0,409
984,449; 3314,485;    2,182;    0,773
984,999; 3253,212;    1,455;   -1,136
985,550; 3011,303;    0,182;   -0,318
986,100; 3013,576;   -0,455;   -0,318
986,651; 3057,212;   -0,818;    0,045
987,201; 3030,394;   -1,000;   -0,591
987,751; 3124,576;    0,818;    2,864
988,302; 3117,394;    2,636;    1,500
988,852; 3143,848;    0,455;   -1,136
989,402; 3168,667;    0,091;    0,682
989,952; 3087,030;   -2,182;    0,864
990,502; 3206,212;   -0,091;    0,682
991,052; 3169,212;   -0,727;    0,045
991,602; 3023,758;   -2,909;    1,318
992,152; 3015,303;    0,455;    0,682
992,702; 2996,394;    1,364;   -0,045
993,252; 2921,939;   -3,000;   -0,500
993,802; 3021,848;   -0,273;    1,318
994,352; 3252,485;   -1,545;    1,136
994,901; 3334,485;   -0,182;    3,227
995,451; 3254,212;   -0,182;    0,318
996,000; 3314,576;    1,636;    0,318
996,550; 3023,394;    2,273;    0,227
997,100; 3023,667;    1,273;   -0,045
997,649; 3327,394;    2,182;    0,955
998,198; 2953,485;    1,727;   -1,500
998,748; 3169,758;    1,091;   -2,318
999,297; 3070,303;   -0,818;   -0,409
999,846; 3105,212;    1,000;   -0,773
1000,395; 3169,212;   -0,818;    0,500
1000,945; 3119,030;    1,818;   -0,773
1001,494; 3221,576;    2,364;    0,682
1002,043; 3202,030;    4,636;    0,864
1002,592; 3037,394;   -1,091;    1,955
1003,141; 3199,576;   -0,455;   -0,682
1003,690; 3060,121;    1,727;    0,500
1004,238; 3143,758;    1,455;   -0,045
1004,787; 2768,667;    1,364;    1,227
1005,336; 3005,848;    0,364;    0,682
1005,885; 3148,939;    1,364;   -2,773
1006,433; 3291,485;    0,545;    0,955
1006,982; 3345,758;    0,455;    1,682
1007,531; 3266,212;   -1,818;   -0,227
1008,079; 3212,939;   -2,273;    0,500
1008,627; 3350,758;   -1,455;    0,409
1009,176; 3084,394;    0,000;   -1,955
1009,724; 3124,121;    1,091;    0,864
1010,273; 3170,667;    1,273;    0,500
1010,821; 3280,848;    0,091;    1,409
1011,369; 3026,667;   -1,364;    1,318
1011,917; 2995,939;   -1,364;   -0,591
1012,465; 3284,394;    1,273;   -1,591
1013,013; 3391,121;    2,091;   -1,682
1013,561; 3269,758;    0,455;   -0,773
1014,109; 3331,667;   -1,909;    1,682
1014,657; 3193,848;    0,364;    0,591
1015,205; 3307,848;    1,636;   -0,955
1015,753; 3343,848;   -0,545;   -1,409
1016,301; 3397,758;   -2,636;    3,045
1016,848; 3404,576;   -1,273;    0,409
1017,396; 3458,667;    2,545;    0,045
1017,944; 3586,485;    1,182;    1,864
1018,491; 3315,030;    0,273;    1,409
1019,039; 3477,485;    0,455;    0,591
1019,586; 3390,121;   -1,364;    1,682
1020,134; 3483,030;    0,455;    1,500
1020,681; 3505,758;    0,182;   -1,136
1021,228; 3512,576;    2,909;   -2,227
1021,776; 3335,576;    1,182;   -1,136
1022,323; 3567,212;    0,455;    0,773
1022,870; 3496,030;   -1,000;   -0,045
1023,417; 3389,939;    2,636;    1,864
1023,964; 3541,303;    2,636;    1,227
1024,511; 3365,212;    1,000;    0,773
1025,058; 3141,848;    3,182;   -0,045
1025,605; 3211,303;   -2,273;    3,136
1026,152; 3450,848;    1,727;   -0,591
1026,699; 3157,394;    1,818;    1,318
1027,245; 3329,394;   -0,091;    0,318
1027,792; 3537,030;   -1,000;    1,409
1028,339; 3407,758;    2,364;   -0,045
1028,885; 3249,848;    1,000;   -0,227
1029,432; 3196,394;   -0,091;    0,227
1029,978; 3270,576;   -1,000;   -1,591
1030,525; 3162,303;    1,000;    0,409
1031,071; 3399,212;   -1,364;    1,136
1031,618; 3498,030;    0,364;    1,682
1032,164; 3290,667;   -0,091;    3,045
1032,710; 3341,848;    1,636;   -1,500
1033,256; 3240,758;   -0,636;   -0,136
1033,803; 3238,939;   -0,545;    1,500
1034,349; 2947,303;   -1,364;    0,136
1034,895; 3093,485;    0,000;   -0,318
1035,441; 3093,212;   -0,818;    0,318
1035,987; 3090,758;   -2,364;   -0,682
1036,533; 3076,030;   -1,455;   -0,955
1037,078; 3296,848;    1,455;    1,682
1037,624; 3089,667;    2,455;   -0,955
1038,170; 3131,485;    0,455;   -0,318
1038,716; 3027,848;    1,636;   -0,409
1039,261; 2941,121;   -2,273;   -0,773
1039,807; 2865,121;   -0,091;    3,409
1040,352; 2945,667;   -1,909;   -0,318
1040,898; 2986,394;   -1,545;   -0,682
1041,443; 2896,576;   -1,455;   -2,591
1041,989; 2916,394;    1,091;    1,591
1042,534; 2775,303;   -0,364;    2,591
1043,079; 2881,576;    2,909;    0,955
1043,625; 2702,121;    1,818;    0,500
1044,170; 2729,212;   -1,364;    1,045
1044,715; 2993,303;    2,455;    0,955
1045,260; 2812,758;    2,182;   -0,955
1045,805; 2852,758;    1,182;   -0,591
1046,350; 2768,576;    1,364;   -0,409
1046,895; 2744,121;    2,909;    1,591
1047,440; 2698,394;    5,364;    0,409
1047,985; 2582,485;    2,818;   -0,955
1048,530; 2503,303;    1,545;    1,227
1049,074; 2578,758;    0,000;    0,318
1049,619; 2541,667;   -1,364;    1,955
1050,164; 2329,939;    0,455;    0,227
1050,708; 2378,121;   -0,455;    0,045
1051,253; 2773,212;    1,273;   -2,227
1051,797; 2462,758;    0,818;   -1,318
1052,342; 2458,939;   -1,182;    1,045
1052,886; 2468,939;    0,364;   -1,409
1053,430; 2356,212;   -1,364;    0,136
1053,975; 2374,303;   -0,818;   -0,318
1054,519; 2351,667;   -0,727;    3,227
1055,063; 2360,303;    0,909;    1,318
1055,607; 2221,485;   -0,182;    0,227
1056,151; 2262,303;    2,909;    1,682
1056,695; 2184,848;    2,273;   -1,136
1057,239; 2250,030;   -1,727;   -0,682
1057,783; 2263,848;    0,818;   -1,500
1058,327; 2203,939;    0,000;    1,409
1058,871; 2433,121;   -0,545;    1,318
1059,415; 2133,394;   -0,818;   -0,045
1059,958; 2407,394;    1,455;    2,591
1060,502; 2136,576;   -1,000;   -0,773
1061,046; 2030,667;    0,364;   -0,955
1061,589; 1991,121;   -3,000;   -1,136
1062,133; 1884,030;   -1,273;    1,864
1062,676; 1825,758;    1,182;    0,864
1063,220; 1816,576;    1,091;    0,500
1063,763; 1842,667;    0,909;    1,136
1064,306; 1934,303;   -0,909;    1,864
1064,849; 1809,030;   -0,909;    0,591
1065,393; 1806,848;    2,000;   -1,500
1065,936; 1927,667;    0,182;   -0,409
1066,479; 1812,758;   -1,455;    1,318
1067,022; 1832,667;   -0,273;   -0,227
1067,565; 1711,758;   -0,091;   -1,318
1068,108; 1756,485;    0,727;   -0,591
1068,651; 1731,394;   -0,636;    1,409
1069,194; 1665,758;   -0,455;   -1,682
1069,736; 1657,667;   -1,273;    0,955
1070,279; 1640,485;   -1,364;   -0,500
1070,822; 1688,121;   -2,000;   -0,318
1071,364; 1781,667;   -0,364;    1,318
1071,907; 1607,303;   -0,727;    3,227
1072,450; 1484,667;    0,000;   -0,045
1072,992; 1498,121;   -0,273;    3,136
1073,535; 1641,394;    2,091;    2,136
1074,077; 1418,121;   -0,727;    2,045
1074,619; 1384,030;   -1,364;    0,591
1075,161; 1423,394;   -1,091;    1,500
1075,704; 1617,212;    1,545;    1,227
1076,246; 1406,485;   -0,182;    0,682
1076,788; 1324,848;   -0,364;    1,773
1077,330; 1402,303;    1,273;    2,136
1077,872; 1383,030;    0,909;    0,955
1078,414; 1603,848;    2,727;    0,773
1078,956; 1325,303;    1,273;   -0,227
1079,498; 1616,030;    1,636;    0,318
1080,040; 1305,576;    1,909;   -1,318
1080,581; 1244,758;    1,636;   -0,318
1081,123; 1148,303;    0,091;   -0,773
1081,665; 1207,121;   -1,182;   -0,955
1082,206; 1513,394;    1,364;   -0,500
1082,748; 1362,576;    0,727;    2,045
1083,289; 1246,848;   -2,000;    1,318
1083,831; 1142,758;   -0,545;    0,227
1084,372; 1182,121;    0,000;    0,591
1084,913; 1186,939;    1,091;    0,864
1085,455; 1149,030;   -1,909;   -2,045
1085,996; 1123,667;   -2,273;    0,136
1086,537; 1140,212;   -0,091;    0,864
1087,078; 1175,485;   -0,909;   -2,136
1087,619; 1221,303;   -1,273;    0,227
1088,160; 1134,394;    0,000;    1,318
1088,701; 1123,303;   -1,091;    0,682
1089,242; 1046,030;    1,364;   -2,227
1089,783; 1171,485;   -0,273;    1,409
1090,324; 1137,121;    0,455;    0,682
1090,865;  990,485;    2,727;   -0,409
1091,405;  954,939;    0,727;    2,227
1091,946;  992,485;    0,182;   -0,955
1092,487;  912,212;    0,818;   -1,409
1093,027; 1095,848;   -1,364;   -1,500
1093,568;  943,939;   -0,364;    1,227
1094,108; 1053,667;    0,273;    1,773
1094,649;  984,758;   -1,182;    0,136
1095,189;  918,394;   -0,636;   -0,682
1095,729;  866,030;   -0,091;    0,955
1096,269;  860,121;    0,727;   -0,955
1096,810; 1199,303;   -1,364;    0,500
1097,350; 1026,212;    1,364;   -0,773
1097,890;  919,667;    0,364;    1,227
1098,430; 1175,939;    2,364;    2,864
1098,970; 1056,667;    2,182;    1,682
1099,510;  894,303;    0,545;   -2,318
1100,050;  824,303;    1,000;   -1,591
1100,589;  802,667;   -0,727;   -0,318
1101,129;  930,303;    0,818;   -0,955
1101,669; 1091,576;    1,727;    2,136
1102,209;  895,303;   -0,091;    2,227
1102,748;  844,121;    0,000;    0,955
1103,288;  837,030;    1,273;   -1,227
1103,827;  881,576;    3,091;   -2,227
1104,367;  740,212;   -0,091;   -2,409
1104,906;  708,121;    1,364;   -1,136
1105,445;  788,394;    0,636;   -1,136
1105,985;  738,576;   -0,727;    1,500
1106,524;  787,303;   -1,727;   -0,682
1107,063;  748,485;   -2,727;    1,409
1107,602;  724,758;   -1,909;   -1,500
1108,141;  648,394;   -1,909;    1,500
1108,680;  754,758;   -3,455;   -0,591
1109,219;  683,030;   -0,909;   -0,500
1109,758;  678,394;    0,455;    0,682
1110,297;  650,212;    1,000;   -0,682
1110,836;  590,758;   -0,727;    0,955
1111,375;  771,939;   -2,545;    0,409
1111,913;  783,758;   -1,000;    0,773
1112,452;  718,030;   -0,273;    0,136
1112,991;  593,394;    1,091;    1,955
1113,529;  550,848;   -0,818;   -0,045
1114,068;  618,758;   -0,273;    2,955
1114,606;  516,576;   -0,364;   -0,955
1115,144;  699,758;   -1,273;    1,045
1115,683;  630,667;   -0,727;    0,318
1116,221;  668,848;   -0,455;   -0,864
1116,759;  580,848;    0,636;   -0,864
1117,297;  803,121;    0,000;    1,864
1117,836;  584,121;   -2,182;   -1,227
1118,374;  592,485;    0,182;   -0,682
1118,912;  536,485;    0,909;    2,682
1119,450;  521,121;    1,000;    0,864
1119,988;  583,485;    1,545;    2,136
1120,525; 1042,303;    5,091;    3,318
1121,063;  741,848;    1,182;    1,864
1121,601;  552,030;   -0,909;   -1,227
1122,139;  502,394;   -0,727;   -2,045
1122,676;  706,576;   -0,727;    2,773
1123,214;  626,576;   -1,182;    4,409
1123,751;  424,576;    1,727;    2,227
1124,289;  576,212;   -0,091;   -0,409
1124,826;  434,848;    1,727;    0,227
1125,364;  354,303;    1,727;   -0,955
1125,901;  552,485;    1,182;    1,227
1126,438;  681,667;    0,818;    0,955
1126,975;  389,939;   -0,727;   -0,773
1127,513;  455,121;    0,273;    2,136
1128,050;  350,848;    1,636;   -0,682
1128,587;  467,303;    2,000;   -0,227
1129,124;  515,939;    0,091;    1,318
1129,661;  367,121;    0,273;    0,227
1130,198;  554,303;    1,636;    0,773
1130,734;  494,030;    0,182;    1,409
1131,271;  335,121;   -0,909;    0,864
1131,808;  515,485;    2,909;    3,045
1132,345;  384,394;    1,545;    0,318
1132,881;  242,394;   -1,545;   -1,864
1133,418;  404,667;    0,727;   -1,136
1133,954;  334,030;    2,455;   -2,682
1134,491;  420,030;    1,364;   -0,773
1135,027;  307,212;    2,364;    0,864
1135,564;  399,121;    0,273;    2,955
1136,100;  385,121;    0,364;    2,136
1136,636;  265,485;   -1,273;   -1,045
1137,172;  367,939;    0,000;   -1,045
1137,708;  285,758;   -1,364;   -1,045
1138,245;  290,394;    1,273;   -1,227
1138,781;  229,212;    1,091;   -3,318
1139,317;  315,030;    1,273;   -1,409
1139,852;  295,939;    3,091;    0,136
1140,388;  428,121;   -1,182;   -0,409
1140,924;  310,121;   -1,091;   -2,227
1141,460;  238,303;   -1,636;    0,136
1141,996;  161,121;   -1,364;    2,682
1142,531;  217,576;    1,364;    3,318
1143,067;  449,939;    1,182;    1,045
1143,602;  513,758;   -0,091;   -0,318
1144,138;  341,758;   -2,636;    1,045
1144,673;  194,030;   -1,455;    1,409
1145,209;  272,939;   -1,909;   -0,318
1145,744;  192,303;   -0,727;    0,864
1146,279;  342,848;    1,818;   -0,136
1146,815;  239,030;    1,545;   -2,682
1147,350;  290,667;   -1,364;    0,045
1147,885;  187,485;   -0,818;   -1,318
1148,420;  183,848;   -2,273;    0,773
1148,955;  166,121;   -1,727;    1,864
1149,490;  201,939;   -0,909;   -1,591
1150,025;  185,667;    0,455;   -1,773
1150,560;  301,030;    1,091;   -0,955
1151,094;  269,303;    1,455;   -0,591
1151,629;  272,121;    1,636;    0,864
1152,164;  191,939;    1,364;    1,318
1152,698;  146,848;   -0,182;   -0,136
1153,233;  111,212;    0,091;   -0,682
1153,767;  162,394;   -3,000;   -2,318
1154,302;  213,303;   -1,455;    1,773
1154,836;  209,303;   -0,455;   -2,136
1155,371;  268,212;   -1,364;    3,682
1155,905;  209,303;   -0,636;    1,682
1156,439;  177,939;   -0,636;   -0,500
1156,973;  216,030;    0,364;    0,318
1157,507;  137,667;   -0,364;    0,682
1158,042;  173,576;   -0,727;    1,045
1158,576;  235,121;    0,182;    1,773
1159,110;  224,758;   -0,818;    2,409
1159,643;  183,758;    0,636;   -0,045
1160,177;  114,576;   -1,545;    1,500

