
Integration time [ms]:   0,040
Averaging Nr. [scans]: 11
Smoothing Nr. [pixels]: 0
Data measured with spectrometer [name]: 7318044SP
Wave   ;Sample   ;Dark     ;Reference
[nm]   ;[counts] ;[counts] ;[counts] 

186,757;   25,089;   31,551;    1,318
187,357;   65,473;   22,551;    0,955
187,958;   35,845;   15,460;   -1,591
188,558;   83,340;    8,915;   -1,227
189,159;   48,778;    6,733;   -4,500
189,759;   13,006;    7,278;   -3,591
190,360;   14,608;    2,824;   -2,136
190,960;   60,495;    2,915;   -4,136
191,560;   86,856;    3,189;   -6,591
192,161;  357,185;    4,372;   -3,500
192,761;  174,880;    4,010;   -3,227
193,361;  109,259;    1,556;   -3,773
193,962;  173,729;    2,010;   -2,682
194,562;   86,654;    1,189;   -3,955
195,162;  129,998;   -2,448;   -2,227
195,762;  313,111;   -3,176;   -0,045
196,362;  255,693;    1,370;   -2,500
196,963;  103,815;    2,006;   -0,864
197,563;  185,442;    1,551;   -0,955
198,163;  125,573;    0,096;   -0,682
198,763;  136,882;    1,733;   -0,500
199,363;  261,334;    3,096;   -0,500
199,963;  213,036;    0,369;    0,409
200,563;  181,208;    2,823;   -1,409
201,163;  158,866;    3,277;   -0,227
201,763;  266,085;    3,732;    0,318
202,363;  196,601;    1,459;    1,500
202,963;  318,475;    1,459;    1,045
203,563;  445,847;    0,277;    0,500
204,162;  271,162;    2,096;   -1,864
204,762;  264,708;    0,550;    0,591
205,362;  226,676;    3,004;    1,955
205,962;  331,855;    3,096;    1,955
206,562;  332,251;    1,823;    2,318
207,161;  290,336;   -0,087;    0,318
207,761;  466,830;    1,277;    2,409
208,361;  334,274;   -0,268;    1,409
208,960;  439,538;    0,459;    1,500
209,560;  522,103;    1,277;    1,591
210,160;  497,318;    0,550;    1,864
210,759;  456,519;    4,186;    1,227
211,359;  473,353;    1,459;    1,045
211,958;  750,623;    1,277;    2,045
212,558;  841,469;    1,732;    1,864
213,157;  669,242;    1,822;    1,500
213,757; 1148,416;    3,822;   -0,227
214,356;  833,008;    1,277;   -0,409
214,956; 1179,849;    3,095;    0,409
215,555;  790,924;    2,095;    2,136
216,154;  728,503;   -2,723;   -0,591
216,754;  734,664;    0,277;    0,773
217,353;  876,407;   -0,268;   -1,045
217,952;  714,385;   -0,178;    0,318
218,552;  974,941;    1,368;   -0,773
219,151;  856,829;    0,277;    0,955
219,750;  860,189;    0,004;   -0,227
220,349; 1013,414;   -0,451;    1,045
220,948; 1073,199;   -1,360;    1,136
221,548; 1101,695;    0,913;    1,227
222,147; 1211,585;   -0,087;   -0,409
222,746; 1500,440;   -0,451;   -0,955
223,345; 1383,311;    0,731;    0,500
223,944; 1387,712;   -0,451;    0,773
224,543; 1580,302;    1,004;   -1,409
225,142; 1689,398;    0,094;    0,136
225,741; 1583,662;   -0,814;    1,045
226,340; 1612,749;   -0,451;   -0,955
226,939; 2068,473;   -0,996;   -0,136
227,538; 2047,209;   -0,360;   -0,773
228,137; 2201,719;   -0,814;    0,864
228,735; 2384,072;   -0,541;    1,227
229,334; 2107,232;   -0,905;   -0,227
229,933; 2489,685;    0,459;    0,591
230,532; 2588,467;    1,186;   -0,409
231,131; 2632,689;    1,732;    0,318
231,729; 2796,177;   -2,450;   -2,318
232,328; 2926,112;   -0,723;   -1,500
232,927; 3006,500;    1,004;   -0,500
233,525; 3137,070;    3,640;    0,045
234,124; 3373,069;    2,368;   -1,591
234,723; 3392,154;    0,913;   -1,045
235,321; 3541,017;    2,277;    0,136
235,920; 3799,006;    1,186;   -1,227
236,518; 4057,596;    3,459;    0,318
237,117; 4262,036;    0,004;   -0,227
237,715; 4439,391;    0,640;   -0,500
238,314; 4480,317;   -0,087;   -2,318
238,912; 4592,987;   -0,723;   -1,409
239,510; 4641,126;    0,459;   -1,227
240,109; 4819,631;    0,004;    3,773
240,707; 4858,014;   -0,996;    1,227
241,305; 5248,486;    0,550;    0,136
241,904; 5493,758;   -0,178;   -2,045
242,502; 5463,517;   -0,632;   -0,227
243,100; 5413,279;   -0,087;   -0,955
243,698; 5686,816;    0,732;    1,682
244,297; 5859,879;   -0,632;    0,682
244,895; 5692,268;   -0,269;   -2,318
245,493; 6080,795;    2,186;   -0,591
246,091; 6087,082;    1,368;   -1,318
246,689; 6082,526;    1,004;    0,591
247,287; 6258,391;    0,822;   -1,136
247,885; 6543,694;   -1,451;    1,227
248,483; 6663,074;    1,822;   -0,500
249,081; 6808,497;    0,185;    1,591
249,679; 6996,852;   -0,178;    1,682
250,277; 7254,529;   -1,723;    0,864
250,875; 7258,108;   -1,087;   -1,045
251,473; 7278,535;   -1,178;    0,500
252,071; 7484,256;    1,459;    1,045
252,669; 7643,167;   -1,814;    0,318
253,267; 7921,527;   -0,087;    0,773
253,864; 7915,391;   -0,360;    0,682
254,462; 7769,662;    1,640;    1,591
255,060; 7710,245;   -0,269;    1,318
255,658; 8061,258;    0,822;   -0,136
256,255; 8504,199;    0,186;   -2,045
256,853; 8356,330;   -0,269;    1,409
257,451; 8382,501;    0,822;    1,864
258,048; 8668,266;    1,822;    1,864
258,646; 8383,742;    1,731;   -1,045
259,243; 8613,148;   -0,087;    2,227
259,841; 8682,780;   -0,814;    0,318
260,438; 8524,489;   -0,087;    0,864
261,036; 9294,833;   -1,905;    1,409
261,633; 9180,734;   -0,087;    2,227
262,231; 8915,169;    2,731;   -0,045
262,828; 8995,395;   -0,905;    1,136
263,425; 9065,245;    0,913;   -0,591
264,023; 9367,063;    0,186;    0,045
264,620; 8923,266;   -0,360;   -0,318
265,217; 9255,359;   -2,087;    3,136
265,815; 9338,840;   -1,905;    2,136
266,412; 9152,108;    0,731;    0,136
267,009; 9202,581;   -1,451;    0,773
267,606; 9114,833;    0,822;   -0,955
268,203; 9075,909;   -0,269;   -0,591
268,801; 9400,554;    1,731;    0,591
269,398; 9715,305;   -0,360;    2,500
269,995; 9686,577;    0,277;    1,591
270,592; 9459,539;   -0,632;   -0,500
271,189; 9662,702;    0,186;    0,409
271,786; 9793,380;   -0,632;    1,227
272,383; 9629,218;   -1,087;    0,227
272,980; 9829,660;    0,277;    0,318
273,577;10361,685;    0,004;    1,227
274,174; 9893,488;    0,822;    2,591
274,771; 9881,985;   -0,814;   -0,773
275,367;10035,583;    2,277;    1,409
275,964;10012,232;    0,731;   -0,500
276,561;10083,017;    1,549;   -1,045
277,158;10328,216;    0,095;   -1,773
277,755;10499,679;    2,185;    0,409
278,351; 9911,095;   -0,451;   -1,500
278,948;10272,089;   -0,815;    0,045
279,545;10236,632;   -1,360;    2,318
280,141;10906,095;   -1,723;   -2,045
280,738;10828,055;   -0,451;   -0,136
281,334;11049,850;   -1,633;    0,591
281,931;10485,347;   -0,087;   -1,318
282,528;10542,692;    0,822;   -0,500
283,124;11282,389;   -1,087;   -0,500
283,721;11247,214;   -0,451;    1,409
284,317;11050,971;    0,185;    2,500
284,913;11623,565;   -1,360;    0,591
285,510;11847,474;    0,640;   -0,318
286,106;11859,666;   -2,269;   -0,955
286,703;11500,296;   -0,360;    1,955
287,299;11721,962;   -1,451;   -0,591
287,895;11915,937;    0,822;   -1,045
288,491;12530,759;    0,186;    2,136
289,088;12272,730;   -2,360;    2,409
289,684;12384,803;   -1,723;    1,500
290,280;12410,427;    0,368;    0,682
290,876;12520,131;    1,822;    5,500
291,472;12393,886;    1,276;    2,227
292,068;12464,051;    1,367;    0,227
292,665;12161,871;    2,095;    0,773
293,261;11772,451;    0,276;    2,136
293,857;12253,224;    2,913;    2,136
294,453;12187,129;    3,550;    0,955
295,049;12049,251;   -0,268;    1,955
295,644;12049,331;    0,095;    0,136
296,240;11979,572;   -0,905;   -0,136
296,836;12053,067;   -0,995;    0,318
297,432;12321,637;    1,096;   -0,500
298,028;12406,978;    0,732;    0,773
298,624;12841,371;    1,459;    1,864
299,220;13089,697;    2,368;    0,591
299,815;12745,346;    1,005;   -0,409
300,411;12574,887;    0,914;    1,773
301,007;12587,309;    1,368;    0,227
301,602;12625,508;   -0,541;   -2,318
302,198;12808,476;    0,732;   -0,773
302,794;13120,631;    1,187;   -0,500
303,389;13249,572;   -1,177;    1,045
303,985;13352,206;    0,550;    1,409
304,580;13352,257;    1,459;    1,591
305,176;13320,217;   -3,086;    0,136
305,771;13213,891;   -1,268;   -1,227
306,367;13062,750;    4,095;    0,136
306,962;13417,327;    0,641;    1,500
307,558;13161,350;   -0,450;    0,136
308,153;13080,500;    1,095;   -1,136
308,748;13363,221;   -0,814;    1,682
309,344;13328,511;   -0,632;   -1,318
309,939;13420,904;   -1,905;   -1,318
310,534;13692,253;   -0,086;   -1,682
311,130;13650,754;    0,459;   -2,500
311,725;13366,293;    1,004;   -0,500
312,320;13702,950;    2,459;    0,045
312,915;13546,809;    1,459;   -1,045
313,510;13611,428;    1,550;   -0,500
314,105;14149,715;    1,096;    1,409
314,700;13494,346;   -3,086;   -1,045
315,295;13086,439;   -0,904;    0,045
315,890;12616,942;    1,277;    0,864
316,485;13045,314;   -0,359;   -0,318
317,080;13124,166;   -3,086;    1,591
317,675;13700,688;    2,005;   -0,682
318,270;13116,166;    5,550;    3,318
318,865;13072,882;    3,278;    3,045
319,460;12910,656;   -0,904;    0,591
320,055;13168,662;   -0,541;   -1,227
320,650;12796,757;   -1,995;   -0,591
321,244;12834,079;   -0,177;   -1,409
321,839;13801,377;   -1,541;   -0,227
322,434;13723,314;   -1,086;   -1,591
323,029;13334,798;    1,732;    1,591
323,623;13173,221;    1,550;    0,773
324,218;12937,542;    2,368;    1,409
324,812;12845,551;    1,096;    1,591
325,407;12662,656;   -0,814;    2,045
326,002;12570,917;    0,277;   -0,409
326,596;12886,132;    0,914;    1,318
327,191;13101,409;    0,823;   -1,045
327,785;12646,677;   -0,813;   -0,227
328,379;12903,261;    1,368;    0,136
328,974;12734,568;    0,914;   -3,955
329,568;12916,413;    0,186;   -2,409
330,163;12739,126;    2,096;    1,045
330,757;13107,858;    2,459;    1,591
331,351;12410,593;    0,459;    0,682
331,945;12741,802;    0,914;    1,409
332,540;12356,604;   -1,723;   -0,591
333,134;12516,663;   -1,086;    0,773
333,728;12789,206;    0,005;    0,318
334,322;13090,546;   -1,177;   -0,864
334,916;12335,473;    0,277;    0,955
335,510;12725,788;   -0,450;   -0,136
336,105;13000,773;   -1,086;    1,591
336,699;12693,363;   -1,086;    0,591
337,293;12607,782;   -1,723;    0,318
337,887;12790,711;   -2,723;    1,955
338,481;12895,172;    0,459;    0,591
339,074;13043,371;   -0,359;    2,682
339,668;12843,739;   -1,632;    1,227
340,262;13130,889;    1,732;    3,227
340,856;12608,454;    1,822;   -0,682
341,450;11919,788;    1,004;    1,864
342,044;12897,054;    1,459;    0,136
342,637;12695,631;    0,913;   -2,136
343,231;12557,478;   -2,360;    0,682
343,825;12495,352;   -1,086;   -0,591
344,419;12442,684;   -1,995;    0,500
345,012;12212,350;    2,459;    4,045
345,606;12187,161;    4,641;    1,591
346,199;12044,785;   -1,813;   -0,227
346,793;11532,516;    1,914;    2,045
347,386;11714,415;   -0,813;   -1,136
347,980;11726,060;   -0,268;   -0,045
348,573;11489,584;    2,278;    0,409
349,167;11128,996;    5,278;    4,773
349,760;11492,414;    2,914;    2,682
350,354;11489,587;   -0,813;    1,136
350,947;11247,389;    1,096;    1,682
351,540;10861,311;   -0,358;   -1,409
352,134;10780,994;    1,096;    1,136
352,727;10871,007;   -0,086;    1,136
353,320;10629,808;    0,005;    0,591
353,913;10481,451;   -1,995;    1,864
354,507;10710,049;    0,823;   -1,227
355,100;10662,167;    0,460;    0,864
355,693; 9888,957;    2,005;    2,409
356,286; 9928,892;    0,823;    2,773
356,879;10289,436;   -0,722;    1,227
357,472; 9861,865;   -0,904;    1,500
358,065;10112,025;   -0,722;    2,500
358,658; 9987,970;   -0,540;    2,318
359,251; 9583,264;   -1,631;   -0,591
359,844; 9082,630;   -1,904;   -1,136
360,437; 9269,973;   -2,995;    0,045
361,030; 9559,503;    1,369;   -0,682
361,623; 9103,797;    2,824;    0,318
362,215; 9151,573;   -0,086;    2,045
362,808; 8963,545;   -2,358;   -1,682
363,401; 9172,951;   -2,449;    0,136
363,994; 8861,277;   -0,631;   -1,500
364,586; 8758,640;    0,824;   -1,500
365,179; 9013,756;   -0,449;   -1,136
365,772; 8455,805;   -1,995;    2,045
366,364; 8805,714;    1,915;   -3,227
366,957; 8995,045;    2,279;   -0,045
367,549; 9026,406;    2,188;   -0,864
368,142; 8665,415;    1,825;   -1,500
368,734; 8864,374;    0,734;   -2,136
369,327; 8795,991;    1,643;   -0,500
369,919; 8722,153;   -1,538;    0,409
370,512; 8499,679;   -1,083;   -0,500
371,104; 8248,553;   -0,901;    1,591
371,696; 8451,781;    1,191;   -0,955
372,289; 8539,716;    0,373;    1,136
372,881; 8679,032;   -2,080;    1,318
373,473; 8621,684;   -2,170;    1,136
374,066; 8434,207;   -0,169;    0,500
374,658; 8265,703;    0,378;    1,136
375,250; 8617,952;    0,653;   -1,409
375,842; 8464,439;    0,473;   -0,045
376,434; 8343,989;   -0,435;   -0,409
377,026; 8947,355;    0,204;   -2,500
377,618; 8842,054;   -0,158;   -0,682
378,210; 8671,969;   -0,338;   -1,955
378,802; 8519,707;    0,754;   -0,591
379,394; 8495,718;    1,846;    0,682
379,986; 9138,375;    1,393;   -0,955
380,578; 9240,499;   -0,153;    0,773
381,170; 8522,559;   -0,972;    0,045
381,762; 8476,834;    0,755;    1,409
382,354; 8711,123;   -0,065;   -1,318
382,945; 8826,115;   -2,976;    0,318
383,537; 8974,557;   -2,705;   -1,955
384,129; 8942,908;   -2,160;   -1,136
384,721; 9176,386;   -0,252;    0,955
385,312; 9102,469;   -0,161;   -0,955
385,904; 9179,027;   -2,706;    1,591
386,496; 8556,031;   -0,979;    1,045
387,087; 8696,385;    1,022;    2,500
387,679; 8714,533;   -1,160;    0,045
388,270; 8890,744;    2,840;    2,045
388,862; 8998,311;    1,295;   -0,318
389,453; 8916,569;   -0,887;    1,045
390,045; 9204,535;   -0,705;   -2,682
390,636; 9136,852;    0,204;   -0,591
391,227; 8994,939;   -0,523;   -0,045
391,819; 9076,119;    0,204;    0,773
392,410; 9162,884;    1,022;    0,045
393,001; 9090,033;   -0,979;   -1,591
393,593; 9390,499;    1,930;   -0,045
394,184; 9261,418;    1,385;   -0,409
394,775; 9200,826;    1,839;    2,136
395,366; 9398,230;    1,385;    0,773
395,957; 9431,758;    0,113;    0,136
396,548; 9741,851;   -0,342;    2,682
397,139;10072,337;   -2,433;    0,591
397,730; 9787,447;   -1,888;    0,955
398,321; 9842,701;   -1,252;    0,955
398,912; 9850,456;   -0,615;    0,136
399,503; 9912,378;   -3,524;   -1,409
400,094; 9347,308;    0,294;    1,682
400,685; 9208,238;   -0,433;    0,045
401,276; 9287,790;    0,930;   -0,955
401,867; 9622,627;   -0,888;    0,773
402,458; 9692,462;   -2,251;   -2,318
403,048; 9690,065;    1,112;    0,591
403,639; 9269,828;    0,840;    0,864
404,230; 9483,575;    2,476;    0,318
404,821; 9425,832;   -0,615;    0,045
405,411; 9540,875;    1,203;   -2,591
406,002; 9129,938;   -1,252;   -1,136
406,592; 8978,930;    2,294;    0,045
407,183; 9309,586;    0,566;   -1,500
407,774; 9227,414;    3,475;   -0,136
408,364; 9579,467;    0,930;    0,409
408,954; 9141,550;    0,384;    1,227
409,545; 9213,609;    1,021;    1,045
410,135; 8711,542;    1,293;    0,500
410,726; 8874,377;    1,838;    0,318
411,316; 9275,235;    0,111;    0,773
411,906; 8937,229;   -0,253;   -0,409
412,497; 8365,962;   -1,070;   -0,045
413,087; 8995,051;   -1,980;   -0,227
413,677; 9387,047;   -0,707;    3,864
414,267; 9245,971;    0,656;    1,409
414,857; 9266,035;   -2,980;    4,227
415,448; 9542,411;    0,839;    0,500
416,038; 9210,316;    0,020;   -0,591
416,628; 9221,107;   -0,889;    0,409
417,218; 8608,766;    0,565;    3,318
417,808; 8877,648;    0,202;   -0,409
418,398; 9406,693;    0,020;    2,682
418,988; 9405,075;    2,020;    0,591
419,578; 9692,532;   -0,707;    1,409
420,168;10008,978;   -1,343;   -0,955
420,757; 9571,535;   -1,343;   -1,500
421,347; 9268,672;    0,111;   -0,227
421,937; 9440,219;    2,292;    1,409
422,527; 9381,811;    0,838;   -0,773
423,116; 9174,807;   -0,253;   -0,045
423,706; 9515,183;   -1,889;    0,318
424,296; 9542,162;    1,384;    0,682
424,885; 9919,526;   -0,071;   -3,045
425,475;10271,957;    1,474;   -2,864
426,065;10154,333;   -0,980;   -0,318
426,654; 9720,562;   -0,435;   -0,318
427,244; 9880,670;    0,020;    1,409
427,833; 9285,505;    1,383;   -0,500
428,423; 9816,321;   -0,526;    1,136
429,012;10582,243;   -0,344;   -1,136
429,601;10016,516;   -1,344;    0,136
430,191;10254,457;    1,292;    4,318
430,780; 9903,763;   -0,344;   -0,409
431,369; 9814,708;    0,746;   -0,045
431,959;10462,432;   -1,254;    0,500
432,548;10275,224;   -1,163;   -0,045
433,137;10370,533;   -1,254;   -1,318
433,726;10923,529;    0,292;    0,500
434,315;10230,499;   -0,526;    2,409
434,905;10305,957;   -1,254;    1,409
435,494;10165,324;    0,746;    0,955
436,083;10638,821;   -0,981;   -0,955
436,672;10531,402;    0,110;    0,500
437,261;10078,601;    0,292;   -1,955
437,850;10192,098;    1,383;    0,682
438,439;10194,092;    3,291;    1,955
439,027;10023,540;    3,655;    1,773
439,616;10362,695;    2,927;    1,227
440,205;10230,824;    0,200;   -2,136
440,794;10325,566;    2,109;   -0,045
441,383;10591,797;   -1,346;   -0,591
441,971;10396,664;   -2,436;    0,591
442,560;10263,770;    0,563;   -1,773
443,149;10030,424;    0,379;   -1,318
443,737;10124,789;   -0,074;   -2,318
444,326;10392,074;    0,018;    0,318
444,915;10445,964;   -1,982;    0,864
445,503;10903,302;   -2,891;   -0,318
446,092;10096,932;    0,382;    2,136
446,680;10640,727;    0,382;    0,318
447,269;10820,334;   -0,346;   -0,318
447,857;10557,455;    0,018;   -1,773
448,445;10621,199;    0,563;    1,318
449,034;10880,261;   -1,528;   -1,136
449,622;10995,726;   -1,073;    3,500
450,210;10182,453;    2,017;    2,227
450,799;10724,982;    0,290;   -0,591
451,387;10709,828;    1,381;   -0,591
451,975;10299,348;    2,654;    0,864
452,563;10368,760;    3,472;    2,318
453,151;10402,339;   -0,528;   -1,227
453,739;10324,830;   -1,347;    0,136
454,328;10172,023;    2,381;   -2,136
454,916; 9866,953;    2,562;   -0,136
455,504;10055,919;    1,017;    1,227
456,092;10190,088;    0,017;   -1,591
456,679;10192,177;    1,472;    0,682
457,267;10166,025;    4,017;    1,045
457,855;10320,754;    1,017;    1,409
458,443;10049,554;   -0,165;    1,682
459,031;10189,304;    0,108;    2,409
459,619;10651,496;   -1,801;    2,864
460,206;10819,444;    0,835;    2,045
460,794;10836,353;   -2,983;   -0,227
461,382;11096,159;   -0,529;   -0,864
461,970;10664,182;    1,198;    1,864
462,557;10682,195;   -0,711;   -0,682
463,145;10908,408;   -3,165;   -1,682
463,732;11047,565;    2,016;   -1,045
464,320;10951,853;   -0,075;   -3,045
464,907;10614,087;    2,743;   -0,773
465,495;10475,561;    0,743;   -1,227
466,082;10637,673;   -1,984;   -0,045
466,670;10576,715;   -2,529;    1,227
467,257;10967,185;   -1,711;    2,045
467,844;11073,496;   -0,075;    0,045
468,432;11112,117;    0,834;    3,500
469,019;10572,743;    0,925;   -1,773
469,606;11049,631;    0,470;    3,682
470,193;10876,797;   -1,439;    0,227
470,780;10419,365;   -2,075;    0,864
471,368;10752,498;   -1,257;   -0,773
471,955;10524,312;    1,379;   -0,682
472,542;10175,712;    0,652;   -1,136
473,129;10393,342;   -0,166;    0,136
473,716;10144,234;    1,470;    0,591
474,303;10323,255;    0,652;   -0,864
474,890;10613,059;   -1,439;   -0,500
475,477;10601,708;   -1,621;    0,409
476,064;10528,924;    1,106;   -1,591
476,650;10474,922;    0,288;    0,318
477,237;10298,013;   -0,258;    0,955
477,824;10433,110;   -1,076;    0,864
478,411;10413,704;   -1,894;   -0,318
478,997;10623,675;    0,560;   -0,773
479,584;10715,504;    1,196;   -0,409
480,171;11452,286;   -0,440;   -0,773
480,757;11077,424;    2,651;    0,773
481,344;11346,546;    0,469;    0,409
481,931;10908,733;    1,105;    1,045
482,517;12032,101;   -1,258;    0,318
483,104;12680,016;    1,106;    2,864
483,690;12915,047;   -1,804;    0,045
484,276;13239,132;   -0,895;    0,227
484,863;12954,267;    2,469;    1,136
485,449;13568,777;   -0,077;    0,318
486,035;13551,853;   -1,986;   -0,136
486,622;13996,086;   -0,895;    0,045
487,208;13953,654;    1,378;    1,500
487,794;13800,435;    0,741;    0,318
488,380;13905,338;    0,105;   -1,409
488,967;13976,023;   -1,168;   -0,409
489,553;14039,615;   -1,895;   -1,409
490,139;14223,602;    1,559;    0,773
490,725;13602,110;    0,741;   -0,227
491,311;13107,023;    3,287;    3,045
491,897;12434,782;   -0,986;    1,500
492,483;12237,991;    0,105;    1,227
493,069;12101,063;    3,923;    0,864
493,655;12118,207;    1,650;    0,682
494,241;12032,575;    1,377;   -0,955
494,826;12463,059;    0,287;   -1,045
495,412;11926,729;    2,559;   -0,682
495,998;12125,178;   -0,805;   -0,318
496,584;12305,256;    0,377;    1,045
497,169;12320,339;    1,014;   -0,682
497,755;12305,958;    0,650;    1,227
498,341;12955,783;    0,559;    0,318
498,926;12554,645;    1,832;    1,955
499,512;12751,879;    1,286;    2,955
500,097;12912,792;    0,195;   -0,318
500,683;12902,392;   -0,350;    2,136
501,268;13293,174;   -0,169;   -0,955
501,854;13024,995;   -0,169;    1,227
502,439;12987,655;   -0,624;   -1,773
503,024;13248,682;    0,195;    0,500
503,610;13352,866;   -0,078;   -0,682
504,195;13384,561;    0,558;    1,955
504,780;13533,853;    2,922;    1,227
505,366;13413,244;    3,013;    2,864
505,951;13148,704;    0,740;    1,045
506,536;13163,128;   -3,260;   -3,682
507,121;13164,399;    0,285;   -0,318
507,706;13718,158;    2,376;    1,045
508,291;14171,260;    2,649;    1,136
508,876;13666,512;   -0,988;    2,591
509,461;13132,562;   -0,169;   -0,773
510,046;13562,554;    0,194;    0,318
510,631;13838,647;   -0,351;   -0,773
511,216;13543,943;    2,467;   -0,500
511,801;13897,581;   -0,442;    2,591
512,386;14229,970;    0,740;    0,500
512,971;14209,903;   -2,988;    0,955
513,555;13731,668;   -0,897;   -1,500
514,140;14583,412;   -0,442;   -3,136
514,725;14621,717;   -0,715;   -1,136
515,309;14739,108;   -0,533;    0,318
515,894;14149,427;   -0,624;   -2,227
516,479;14643,988;   -0,624;   -0,955
517,063;14512,711;    0,376;    1,227
517,648;14628,389;    1,012;   -1,136
518,232;14317,033;   -0,261;   -1,409
518,817;14642,111;   -0,079;    1,682
519,401;14899,286;    2,194;    0,591
519,985;14385,202;    1,103;    1,136
520,570;14311,971;    0,830;   -1,955
521,154;14580,995;    2,102;    0,591
521,738;14774,655;   -2,352;    2,409
522,323;15331,386;   -0,170;    1,682
522,907;15077,771;    0,466;   -0,136
523,491;14770,803;    0,557;    0,955
524,075;14766,517;    2,284;    0,591
524,659;14879,917;    1,466;    0,591
525,243;14289,993;    1,739;    0,409
525,827;14584,858;    0,648;   -0,045
526,411;15463,189;   -1,989;   -0,136
526,995;15671,807;   -0,352;    1,409
527,579;15300,380;   -0,443;   -1,045
528,163;15619,402;    0,375;   -1,500
528,747;15521,440;    2,466;   -0,773
529,331;15840,057;   -0,080;   -1,409
529,915;16056,911;    1,738;    0,955
530,499;16065,514;   -0,807;    1,227
531,082;15775,814;   -0,534;    1,591
531,666;15111,983;    1,374;    0,773
532,250;15867,427;    1,284;    2,682
532,833;16250,897;    0,920;    2,773
533,417;16105,406;   -1,807;    0,864
534,001;16104,914;    1,647;   -0,318
534,584;16819,079;    0,374;    0,500
535,168;16644,603;    0,465;    1,409
535,751;16726,664;    0,647;    0,045
536,334;16130,941;   -0,898;   -0,409
536,918;16712,398;    0,011;    1,591
537,501;16846,273;   -0,899;    1,318
538,085;16855,166;   -0,444;    1,045
538,668;17067,426;    0,829;    2,409
539,251;17370,049;    1,829;    3,773
539,834;17350,280;    0,101;    0,773
540,418;17363,973;   -1,990;    4,318
541,001;17497,128;   -0,990;    1,773
541,584;17473,137;    2,101;    2,227
542,167;17155,141;    1,374;    2,955
542,750;17271,270;    1,919;   -0,773
543,333;16937,312;    0,555;    2,136
543,916;17773,113;    0,192;    2,500
544,499;18387,640;   -1,354;    0,227
545,082;18379,365;    1,374;    3,591
545,665;18533,951;    1,919;    1,500
546,248;18936,040;    1,010;   -0,318
546,830;18558,044;   -0,445;    1,955
547,413;19002,890;    1,010;   -0,773
547,996;19511,266;    0,555;    0,500
548,579;19294,867;    0,919;    0,955
549,161;19092,501;    1,828;    2,682
549,744;18874,374;   -0,809;    0,409
550,326;19367,396;   -0,809;   -1,136
550,909;19202,510;    2,737;    0,591
551,492;19602,150;   -0,263;    0,227
552,074;19410,174;   -0,173;   -1,318
552,657;20011,514;    2,373;    0,045
553,239;19665,022;   -0,173;   -0,773
553,821;19554,810;   -1,082;    1,045
554,404;19029,924;    1,282;    1,136
554,986;19468,142;    0,464;    1,045
555,568;20119,286;    1,191;   -0,955
556,151;19267,455;    1,191;   -0,227
556,733;19501,271;   -0,264;   -0,864
557,315;20032,064;    0,100;    0,500
557,897;19855,534;    0,554;   -0,500
558,479;19964,861;   -1,991;    1,318
559,061;20094,997;   -0,719;   -0,864
559,643;20435,815;   -0,264;    0,045
560,225;20828,193;    1,645;    2,864
560,807;20874,815;    0,918;    0,318
561,389;20314,481;    0,554;    2,318
561,971;21144,611;    0,463;    2,136
562,553;20894,769;   -1,628;    1,591
563,135;21067,044;   -0,537;    1,136
563,717;20664,090;    3,372;    1,136
564,298;21407,048;    3,645;   -0,045
564,880;21192,833;    0,645;   -1,409
565,462;21405,378;    0,645;    1,318
566,043;22585,063;   -0,446;    2,318
566,625;22153,870;    1,918;    1,227
567,207;22010,970;    1,099;    1,682
567,788;23298,932;   -1,264;    1,500
568,370;24180,799;    1,917;   -0,500
568,951;24035,154;    0,190;    0,227
569,533;24956,402;   -0,628;   -0,500
570,114;25460,283;   -0,446;    0,682
570,695;26123,514;   -0,174;   -1,318
571,277;26718,641;   -0,265;   -1,682
571,858;27442,660;    2,008;   -1,136
572,439;28440,306;    1,554;   -1,045
573,021;28696,901;    2,099;   -2,773
573,602;29246,218;   -1,265;    0,318
574,183;30325,049;   -2,083;    2,227
574,764;30478,438;   -1,629;    0,409
575,345;31104,918;    0,917;   -0,136
575,926;31696,017;   -0,356;    0,136
576,507;31663,662;    1,099;   -0,227
577,088;32921,265;    3,099;    1,682
577,669;32941,068;    0,735;    1,955
578,250;33862,867;    0,644;   -1,045
578,831;34631,011;   -1,356;   -2,227
579,412;34848,237;   -0,810;    0,955
579,993;35746,508;    1,008;    0,227
580,573;36023,007;   -0,629;   -0,955
581,154;35054,385;    0,735;   -0,591
581,735;35983,751;    0,644;    0,773
582,315;35456,478;   -0,629;    2,136
582,896;35663,438;   -0,174;    1,227
583,477;35050,510;    0,189;    1,227
584,057;35266,929;    0,553;    0,955
584,638;35623,326;    2,553;    2,318
585,218;35560,544;   -0,538;    2,682
585,799;35771,584;    0,281;   -0,227
586,379;35663,719;    0,372;    1,591
586,959;34203,753;    0,735;    0,318
587,540;33405,242;   -0,629;    2,227
588,120;32948,754;    1,007;   -0,045
588,700;31853,726;    2,553;    2,136
589,281;32217,212;    0,462;   -0,955
589,861;32261,855;    0,099;   -1,682
590,441;32000,597;    2,371;   -2,682
591,021;30882,406;   -0,265;   -2,591
591,601;31094,497;   -0,537;    0,500
592,181;31053,489;   -0,719;   -0,773
592,761;30249,346;    0,007;    1,409
593,341;30132,709;   -0,901;    0,045
593,921;30192,413;   -0,265;    1,591
594,501;30076,151;   -0,538;    1,318
595,081;29937,607;    0,917;   -0,318
595,661;30323,508;   -1,447;    0,955
596,240;30826,531;   -0,537;    0,136
596,820;30569,000;    0,372;    1,955
597,400;30732,328;    2,008;    0,773
597,980;30882,389;    2,008;    1,045
598,559;30922,933;    2,735;   -0,227
599,139;30559,360;   -0,174;   -1,227
599,718;30465,542;   -0,174;   -0,409
600,298;30718,967;    0,735;    0,682
600,877;31044,966;    2,917;    1,409
601,457;31236,708;    2,281;    1,136
602,036;31144,486;    0,190;    2,045
602,616;31420,106;    0,644;    1,682
603,195;31807,152;   -0,355;    3,500
603,774;31312,909;   -0,901;    2,045
604,354;31196,624;    0,826;   -0,500
604,933;30655,011;    0,463;    1,864
605,512;30769,076;    3,554;    0,591
606,091;30790,590;   -0,537;    3,773
606,671;31637,867;    0,281;    0,773
607,250;30693,433;    1,644;    3,136
607,829;30942,463;    2,372;    3,227
608,408;30769,444;    1,190;    2,591
608,987;29729,116;    1,281;    3,409
609,566;30009,700;   -1,265;   -2,500
610,145;30189,397;   -1,082;    0,682
610,723;30556,928;    4,372;    6,864
611,302;29756,748;   -0,446;    1,682
611,881;29291,923;    5,008;   11,227
612,460;30141,921;    1,645;    3,955
613,039;30540,289;   -0,082;    2,045
613,617;29253,630;    1,736;    4,773
614,196;29411,046;    1,099;    1,227
614,775;29728,416;    1,009;    2,409
615,353;29646,175;    0,736;    0,864
615,932;29405,536;    0,100;    2,409
616,510;29942,860;    0,554;    0,591
617,089;29463,625;    7,100;   17,591
617,667;29139,092;    2,372;    6,136
618,246;29008,635;   -1,537;    1,318
618,824;29167,735;   -3,355;   -0,955
619,402;28745,200;   -2,900;   -1,773
619,981;29318,608;   -0,173;   -1,045
620,559;29057,842;    0,009;    1,682
621,137;28483,327;   -0,718;    1,864
621,715;28531,039;   -1,173;   -0,682
622,293;28451,828;   -0,537;   -0,773
622,871;28918,155;   -0,718;    0,500
623,450;28478,185;    0,373;   -0,864
624,028;28363,138;    0,191;   -0,955
624,606;28020,056;   -1,718;    1,682
625,183;28412,783;   -1,536;   -1,136
625,761;27985,681;    1,009;    1,136
626,339;28253,166;    1,373;    2,591
626,917;28714,914;   -0,172;   -0,045
627,495;28702,616;   -0,354;    1,318
628,073;28125,945;   -0,263;    2,864
628,650;27798,529;    0,100;    2,136
629,228;28250,994;    0,373;    4,409
629,806;27601,641;    2,282;    1,136
630,383;27864,609;    1,464;   -0,318
630,961;27651,493;    2,555;   -0,955
631,539;27410,645;    2,464;    0,227
632,116;26785,766;   11,373;   15,409
632,694;27325,358;    2,555;    6,500
633,271;27685,962;    0,828;    2,682
633,848;27541,292;    1,828;    2,045
634,426;27522,913;   -1,081;    1,773
635,003;26645,680;    1,101;   -0,409
635,580;27025,729;    1,192;    3,682
636,158;27560,082;    3,737;    1,227
636,735;27577,723;    0,555;   -0,500
637,312;27686,493;   -0,809;   -0,682
637,889;27737,735;   -4,354;   -0,682
638,466;27238,938;   -3,990;   -0,409
639,043;27229,119;    2,101;   -1,136
639,620;27484,075;   -2,262;   -0,955
640,197;27886,790;    1,100;    1,682
640,774;28005,043;   -0,172;    1,136
641,351;28432,297;    0,737;    1,136
641,928;27906,641;   -0,627;    1,409
642,505;27535,713;    0,828;   -0,500
643,082;27573,512;   -1,718;    1,227
643,658;26540,947;   -0,718;    1,500
644,235;27315,564;    1,191;    2,500
644,812;27608,999;    1,918;    0,773
645,388;27416,980;   -0,991;    1,409
645,965;27526,234;   -0,809;    1,682
646,542;27582,033;   -1,445;   -0,227
647,118;27552,286;    1,009;   -0,955
647,695;27883,630;   -0,263;    1,136
648,271;27793,157;   -0,536;    0,500
648,848;28144,865;    0,736;    2,227
649,424;28018,209;    0,827;    1,318
650,000;27727,099;   -0,354;   -1,045
650,577;27444,443;   -0,627;   -0,955
651,153;27989,515;   -1,809;    0,955
651,729;29074,223;    1,191;    0,864
652,305;29899,567;    0,645;    2,773
652,881;35928,003;   -0,082;    1,136
653,458;43389,074;    1,100;    0,227
654,034;46867,237;    0,282;    1,591
654,610;48141,854;    0,554;    0,773
655,186;49479,926;    0,645;    3,045
655,762;49215,452;   -0,991;    0,409
656,338;49204,342;    0,100;    0,136
656,913;50227,322;   -0,082;    0,409
657,489;49420,030;    0,827;   -0,318
658,065;49340,466;   -0,173;   -1,591
658,641;50042,992;   -0,900;   -0,864
659,217;49305,245;   -0,991;    0,409
659,792;48703,499;    0,645;   -0,409
660,368;48828,570;   -2,173;   -0,682
660,944;47986,551;   -2,082;    1,227
661,519;41826,441;   -0,628;    0,409
662,095;35236,967;   -1,719;    0,591
662,670;30800,039;    1,281;   -0,136
663,246;29852,111;    1,009;   -0,409
663,821;29284,728;    0,281;    1,682
664,396;28803,981;    0,009;    1,864
664,972;29055,598;    0,009;   -0,500
665,547;29334,670;    1,372;    0,136
666,122;29483,469;   -1,082;    0,318
666,698;29787,359;   -0,173;    0,318
667,273;29067,430;   -0,173;    0,136
667,848;29969,593;    2,372;    1,500
668,423;29771,210;    2,190;    2,318
668,998;30363,645;    2,827;   -0,682
669,573;30930,899;   -3,264;   -1,500
670,148;30735,789;   -1,446;   -0,682
670,723;30519,678;   -1,810;    0,318
671,298;30898,114;    2,372;    1,045
671,873;31024,458;   -0,082;   -0,136
672,448;31035,712;    0,645;    0,136
673,023;31332,056;   -1,992;   -0,227
673,597;31707,855;    0,827;    2,318
674,172;31442,745;   -0,355;    0,318
674,747;30905,271;    0,372;   -1,045
675,321;30688,433;   -0,628;    3,318
675,896;30286,960;    0,645;    1,045
676,471;31320,304;    2,645;    1,591
677,045;31105,739;   -1,264;    0,682
677,620;31197,993;    0,190;    1,136
678,194;31457,246;   -2,628;    1,136
678,769;31035,227;   -1,083;   -0,318
679,343;31295,935;   -0,628;    1,773
679,917;31189,461;   -1,446;    1,955
680,492;31237,351;    0,826;    3,227
681,066;31364,423;    3,372;    0,409
681,640;31413,131;    1,463;   -0,318
682,214;32251,384;    0,735;    0,500
682,788;31811,183;   -1,356;   -0,773
683,363;31827,709;   -1,810;    1,682
683,937;31481,508;   -1,719;   -0,318
684,511;32307,944;    0,463;   -0,591
685,085;32009,015;   -1,356;    0,318
685,659;31706,087;   -2,538;    0,864
686,232;32074,522;   -0,356;   -0,318
686,806;31682,139;   -0,901;    0,409
687,380;32334,484;   -0,174;    0,591
687,954;32540,737;   -1,174;    1,136
688,528;32240,718;   -0,719;    1,955
689,101;33063,517;   -3,992;    1,045
689,675;32623,679;   -0,356;   -0,136
690,249;31964,933;   -0,719;    0,409
690,822;32262,550;    0,280;    0,318
691,396;32392,167;   -0,265;    1,227
691,969;31838,512;    1,280;    0,136
692,543;32258,129;   -0,447;   -1,955
693,116;31909,837;   -0,265;   -1,409
693,690;31732,636;    0,099;    0,500
694,263;32327,707;   -1,083;    2,955
694,836;32362,233;    1,371;    3,591
695,410;31022,214;   -0,265;    1,773
695,983;31509,831;    0,189;    0,591
696,556;31442,994;   -0,447;   -1,045
697,129;31806,156;   -0,356;    1,409
697,703;31444,864;   -1,629;    1,955
698,276;31398,936;    1,462;   -0,773
698,849;31235,190;    1,280;    1,409
699,422;31610,443;   -1,083;    0,591
699,995;31327,151;    0,007;    0,136
700,568;31869,314;   -0,629;    3,045
701,140;31890,658;   -2,811;    1,682
701,713;31572,911;   -0,174;    2,409
702,286;31258,620;   -0,538;    0,864
702,859;31128,782;   -0,902;   -0,591
703,432;30331,763;    0,825;    0,682
704,004;30823,198;    0,462;    0,318
704,577;30726,633;   -0,629;    0,136
705,150;31323,523;    0,189;    2,500
705,722;30994,868;   -0,356;   -3,227
706,295;30822,121;   -0,175;   -0,591
706,867;30749,920;   -0,175;    1,955
707,440;30925,083;   -1,720;   -0,409
708,012;31183,791;    0,462;    0,591
708,584;31095,408;    2,462;    0,227
709,157;31343,207;    1,825;   -0,591
709,729;30995,551;    2,280;    2,045
710,301;31903,168;    0,734;    0,045
710,874;31863,694;   -1,447;   -0,227
711,446;30736,584;    0,371;    0,864
712,018;30650,747;    0,098;    0,500
712,590;30380,546;   -1,993;    1,682
713,162;30940,254;    0,825;    1,318
713,734;31156,689;    1,825;   -2,045
714,306;30986,215;   -1,902;   -0,409
714,878;29686,469;    0,825;    0,864
715,450;30500,631;    0,643;    0,864
716,022;30719,976;    1,552;    1,318
716,593;30844,865;    0,189;    0,591
717,165;30820,846;   -3,175;   -1,227
717,737;30534,009;    0,280;    0,409
718,309;30151,080;    0,280;   -0,045
718,880;30160,516;   -0,539;   -1,409
719,452;30318,042;   -0,175;   -1,591
720,024;29905,932;    0,734;   -0,591
720,595;30462,185;   -2,902;    0,955
721,167;30024,984;    0,370;   -2,045
721,738;29546,601;   -0,812;   -1,045
722,309;29565,491;   -0,993;   -1,227
722,881;29294,472;   -1,357;    0,773
723,452;29923,271;   -2,630;    2,864
724,023;30075,615;   -0,721;    2,682
724,595;29835,232;    0,007;    0,682
725,166;29603,849;    0,007;   -0,409
725,737;29330,376;    1,734;    0,227
726,308;29373,084;   -0,266;    0,318
726,879;29871,428;   -1,630;    1,227
727,450;29683,136;    0,552;   -0,045
728,021;29655,117;    3,097;    0,682
728,592;29401,461;    0,734;    0,500
729,163;29757,806;    0,643;   -0,136
729,734;29822,968;    0,188;   -0,227
730,305;30193,131;    1,734;    0,136
730,876;30555,020;    0,188;    2,955
731,447;30283,910;    2,188;    2,682
732,017;30440,709;    1,097;    1,864
732,588;29852,508;    0,734;    1,227
733,159;30076,398;    0,643;   -1,045
733,729;29843,015;    0,006;    0,409
734,300;29143,905;    0,915;    0,864
734,870;29568,977;    3,461;    0,591
735,441;30169,957;    0,370;   -0,591
736,011;29936,938;    0,643;   -1,591
736,582;29785,828;   -0,812;    0,045
737,152;29243,536;   -1,721;   -2,045
737,722;29685,971;   -0,267;   -0,682
738,293;29377,225;   -1,358;    1,318
738,863;29261,660;    2,461;    2,318
739,433;29089,823;    5,279;    0,318
740,003;29743,894;   -0,994;   -0,682
740,573;29099,239;    2,097;   -1,591
741,143;28968,583;   -1,085;    0,318
741,713;29820,291;    1,188;   -0,500
742,283;29561,635;    0,915;    1,591
742,853;29249,162;    1,915;    1,591
743,423;28644,688;    1,733;    0,045
743,993;28831,305;   -0,358;    1,500
744,563;28234,286;    0,097;   -0,864
745,133;28150,357;   -0,812;   -0,864
745,702;28845,338;   -0,267;    1,773
746,272;28047,228;   -0,176;    0,591
746,842;27783,936;   -1,358;   -0,591
747,411;28150,280;   -0,267;   -0,318
747,981;28363,988;    0,097;    0,500
748,551;28441,242;    2,278;   -1,045
749,120;28279,768;    0,642;   -0,227
749,690;28679,567;   -0,631;    2,409
750,259;29087,184;    1,369;    2,955
750,828;28999,528;    1,551;   -1,955
751,398;29246,691;    1,278;   -0,045
751,967;28786,854;    2,187;    0,409
752,536;28982,380;   -0,813;   -0,227
753,105;29414,724;    0,096;    0,227
753,675;29202,069;    0,096;    1,773
754,244;29142,958;   -0,904;    3,591
754,813;29130,939;    0,551;    1,227
755,382;28710,556;    0,460;    0,955
755,951;29361,810;    1,551;    3,682
756,520;28856,609;   -0,085;    1,864
757,089;29456,408;    0,278;    0,500
757,658;29665,025;    1,733;    1,227
758,227;29652,642;    1,096;    0,318
758,795;29931,532;    1,187;    1,136
759,364;30116,603;   -0,086;   -0,591
759,933;29128,311;   -1,176;   -0,045
760,501;28562,747;    0,733;   -1,318
761,070;29099,546;   -2,813;   -1,409
761,639;29807,981;   -1,904;    1,318
762,207;29215,962;    1,551;   -0,955
762,776;29137,306;    0,369;    0,864
763,344;29084,832;   -0,995;    0,591
763,913;28101,358;   -0,722;    1,409
764,481;28853,248;    1,005;   -0,136
765,049;28632,774;   -1,358;    1,409
765,618;28496,482;   -0,086;    0,318
766,186;28572,372;    0,278;    0,136
766,754;28735,353;    0,005;    1,864
767,322;27705,697;   -1,995;    0,409
767,890;27732,769;   -0,722;   -1,773
768,459;28124,750;   -2,177;   -0,318
769,027;28339,094;    1,641;    3,409
769,595;27269,711;    3,278;    2,591
770,163;27722,783;    3,823;    2,955
770,730;27443,127;    0,732;   -0,136
771,298;27206,108;    0,187;   -1,409
771,866;27316,362;   -1,541;    4,955
772,434;27702,342;   -0,631;   -1,864
773,002;27859,141;    0,005;    0,682
773,569;27467,577;    0,914;    1,682
774,137;27283,739;   -0,268;   -0,045
774,705;28073,083;    0,278;   -0,136
775,272;27539,064;    0,641;    0,682
775,840;27300,681;   -0,177;    2,682
776,407;26877,208;    0,277;    1,955
776,975;26419,006;   -0,632;    0,318
777,542;27367,624;   -1,086;   -0,045
778,110;27219,150;   -1,268;   -0,045
778,677;26913,767;   -2,359;   -0,864
779,244;26615,839;    2,186;    1,045
779,812;26799,819;    1,823;    0,864
780,379;26642,164;    0,005;    1,136
780,946;26932,872;    1,005;   -0,773
781,513;27232,580;   -1,450;    0,318
782,080;26598,288;   -0,086;    2,864
782,647;27396,996;   -0,268;    3,045
783,214;26929,795;   -0,177;    3,864
783,781;26526,230;   -0,723;   -0,682
784,348;26399,574;   -0,632;    1,500
784,915;26856,646;   -3,177;    0,318
785,482;26657,627;    1,368;    2,591
786,049;27098,789;    0,186;   -0,591
786,615;27174,497;    0,277;   -0,955
787,182;26869,751;    0,186;   -0,682
787,749;26540,641;   -2,814;    1,409
788,315;25938,440;   -1,632;   -0,409
788,882;26202,057;    1,550;   -1,227
789,448;26948,492;    1,732;   -0,955
790,015;26939,836;    1,095;    3,227
790,581;26470,999;    1,459;    0,227
791,148;26385,980;    0,641;    1,045
791,714;26560,506;   -0,541;    3,136
792,280;26265,305;    0,186;    1,591
792,847;25797,831;    0,550;    2,500
793,413;26371,994;   -0,269;   -0,318
793,979;25851,338;    3,459;   -1,318
794,545;26010,046;    4,459;    2,682
795,111;25354,845;    2,186;    1,318
795,678;25518,735;    0,731;   -1,682
796,244;25201,079;    3,368;    0,136
796,810;25698,333;    1,731;    0,773
797,375;25413,495;    0,549;   -2,136
797,941;25438,294;   -0,541;    0,591
798,507;25593,002;   -0,451;   -0,955
799,073;25096,710;   -0,360;    0,591
799,639;25108,055;   -2,632;    3,136
800,205;25187,853;    0,095;    2,682
800,770;24716,380;    0,640;    1,773
801,336;24825,997;    1,368;   -0,955
801,901;24488,614;    4,549;    3,136
802,467;25080,595;   -0,542;    2,045
803,033;24387,394;   -0,087;    0,864
803,598;24643,192;    1,913;   -1,045
804,163;24579,446;    1,095;   -0,318
804,729;24608,245;   -0,178;    1,136
805,294;25021,953;    0,822;    2,227
805,859;24830,843;    0,731;   -0,409
806,425;24232,642;    1,186;    2,682
806,990;23839,168;    2,186;    4,318
807,555;24396,785;   -1,451;    2,591
808,120;24275,584;    0,822;   -0,409
808,685;24304,565;    0,185;   -2,500
809,250;23830,636;    0,004;   -0,500
809,815;24114,344;    1,913;    0,682
810,380;24715,871;   -0,269;    1,591
810,945;25313,942;   -1,087;    2,045
811,510;24397,559;    2,094;    1,591
812,075;24081,176;   -0,633;   -1,409
812,640;24123,703;    2,003;    1,409
813,204;24157,865;    0,822;   -0,227
813,769;24624,119;    2,094;   -0,045
814,334;24014,918;    0,458;    0,864
814,898;24092,535;    0,367;    0,591
815,463;23948,697;    1,276;   -0,773
816,027;23912,951;   -0,724;   -2,318
816,592;23943,477;    0,640;   -2,045
817,156;23494,276;    2,094;    1,136
817,721;23393,984;    4,276;    2,318
818,285;23285,965;    2,912;    1,500
818,849;23943,673;   -1,451;    1,682
819,414;23821,290;   -0,269;    2,955
819,978;23430,725;   -1,269;    1,773
820,542;24020,342;    2,003;    0,500
821,106;23654,505;   -0,815;    0,682
821,670;23782,122;   -0,815;    2,591
822,234;23537,648;   -0,270;    1,409
822,798;22906,902;    0,003;    0,500
823,362;22835,337;   -0,633;    4,227
823,926;22159,318;    0,094;    1,136
824,490;22359,571;   -0,997;   -0,682
825,054;22823,552;   -0,088;   -1,136
825,618;22418,260;   -1,542;   -1,500
826,181;22370,241;    0,458;   -1,318
826,745;22324,221;    1,367;   -1,045
827,309;22674,747;    1,185;    1,318
827,872;21988,819;    1,367;    0,955
828,436;23031,709;    1,185;   -0,773
828,999;23083,962;   -0,997;    1,227
829,563;21800,398;   -0,179;    1,136
830,126;21640,651;   -0,179;   -0,591
830,690;21678,087;   -1,997;    2,864
831,253;21154,613;   -0,543;    2,227
831,816;21295,412;   -1,906;    0,500
832,380;21163,392;    0,185;    0,864
832,943;21463,919;   -1,361;   -0,500
833,506;20921,263;    2,639;   -1,227
834,069;21721,789;    3,912;   -0,955
834,632;21800,952;    1,730;    1,318
835,195;21686,751;    1,003;    0,955
835,758;20795,095;   -0,997;    1,955
836,321;20679,894;    0,730;   -1,045
836,884;20798,057;   -0,725;   -0,955
837,447;20811,765;   -2,816;    1,773
838,010;21101,200;    0,366;    3,227
838,573;21372,817;   -1,179;    0,773
839,135;21337,252;   -1,361;   -0,955
839,698;20770,778;    1,275;    0,409
840,261;20274,214;    1,003;   -0,227
840,823;20092,195;   -0,543;    0,864
841,386;20412,812;   -0,452;   -2,409
841,948;20302,520;   -1,361;    1,773
842,511;20036,500;    0,912;    1,682
843,073;20146,754;    1,912;    0,227
843,636;19891,462;   -0,361;   -0,227
844,198;19855,261;    0,911;    0,591
844,760;20042,969;    1,093;    1,955
845,322;19666,495;    0,548;    1,136
845,885;20120,749;    0,730;    0,591
846,447;20552,911;   -1,998;    0,227
847,009;20124,346;    1,911;   -0,682
847,571;20421,691;    0,820;   -2,045
848,133;20559,035;   -1,089;   -1,864
848,695;20366,652;   -0,543;    1,409
849,257;19937,724;   -1,089;   -1,682
849,819;20063,977;   -0,998;   -0,409
850,381;20080,231;   -0,725;   -0,864
850,942;20488,121;    1,093;   -0,591
851,504;20526,283;    1,184;    0,227
852,066;20485,173;    1,275;   -1,591
852,628;19962,427;   -0,180;    1,955
853,189;19528,225;    1,638;    2,682
853,751;19629,388;   -0,907;    1,409
854,312;19427,005;   -0,453;   -1,682
854,874;19991,531;   -2,089;   -0,773
855,435;20547,876;   -0,907;   -1,682
855,997;20684,129;   -1,816;   -0,136
856,558;19961,201;    0,366;    1,773
857,119;20094,545;    0,820;    2,864
857,681;19756,981;    0,002;    0,318
858,242;19823,234;    1,911;   -2,136
858,803;20262,942;    0,456;   -0,773
859,364;20800,741;    0,184;   -4,773
859,925;20049,358;   -2,453;   -0,955
860,486;19939,430;   -0,453;   -0,955
861,047;19703,774;   -0,544;   -1,227
861,608;19525,209;   -1,089;   -0,773
862,169;19583,554;    0,638;   -0,045
862,730;19356,262;    0,456;    1,409
863,291;19625,606;   -0,635;   -0,500
863,852;20030,405;   -0,635;    1,955
864,412;19424,477;   -0,271;   -0,864
864,973;17967,367;   -0,089;    0,500
865,534;17868,711;   -1,726;    0,227
866,094;19375,146;    1,820;    0,227
866,655;19052,945;    1,274;    3,318
867,215;19303,471;    0,274;    0,136
867,776;19124,816;    0,547;   -0,136
868,336;19276,160;   -1,453;    0,136
868,897;18764,050;    2,638;    1,682
869,457;18428,667;    1,365;    0,318
870,017;18666,739;    0,547;   -1,227
870,578;19179,356;   -0,817;    0,773
871,138;18923,064;   -2,089;   -0,955
871,698;18425,226;   -0,817;   -1,318
872,258;18344,298;   -0,453;   -2,864
872,818;18711,370;    2,729;    0,045
873,378;18646,714;    0,638;    1,045
873,938;18165,695;    0,547;    0,500
874,498;18495,767;    0,274;   -1,955
875,058;18375,566;    2,183;    1,773
875,618;18226,819;    1,910;   -2,682
876,177;18147,891;    1,274;    0,136
876,737;17756,599;   -0,090;    1,955
877,297;17800,579;    0,183;    1,955
877,856;17812,015;   -0,362;    0,318
878,416;17761,177;    1,183;   -0,136
878,976;17962,340;   -1,817;    0,409
879,535;18128,593;    0,092;    3,136
880,095;17870,938;   -0,544;    0,045
880,654;18012,100;   -1,090;    1,318
881,213;18142,990;    2,456;    1,500
881,773;17736,425;    2,637;    2,682
882,332;18140,679;    3,365;    5,136
882,891;17950,478;    3,092;    2,136
883,451;18417,095;   -1,272;    1,682
884,010;17819,621;   -2,908;   -0,409
884,569;17938,784;   -0,999;   -0,045
885,128;18078,037;    2,819;   -1,864
885,687;18192,382;    4,455;    0,682
886,246;17849,271;    1,455;    2,136
886,805;17648,616;    2,455;    2,045
887,364;17895,687;   -0,999;   -0,500
887,922;18298,850;   -1,181;    0,045
888,481;17771,649;   -1,545;    0,591
889,040;18075,630;    1,183;    2,136
889,599;18775,429;    2,455;    1,409
890,157;18879,409;    1,455;    2,409
890,716;18560,117;   -0,090;    0,227
891,274;18365,189;    0,092;   -1,136
891,833;18793,988;    1,546;    0,864
892,391;18657,696;   -0,454;    0,500
892,950;18720,495;    1,819;   -0,773
893,508;19118,112;    0,455;   -0,409
894,067;18434,184;    0,637;    0,136
894,625;18303,164;   -0,636;   -1,500
895,183;18527,054;   -0,363;   -0,682
895,741;18466,308;    1,728;   -1,773
896,299;18315,652;   -0,545;   -2,409
896,858;18467,815;    0,819;   -1,591
897,416;18560,432;    2,728;   -1,318
897,974;18288,503;    1,819;    0,318
898,532;18475,302;    6,091;    2,682
899,089;18373,192;    2,091;   -0,682
899,647;18389,264;   -1,454;    1,318
900,205;18108,154;    1,182;    1,045
900,763;18278,316;   -0,454;    0,227
901,321;18262,024;    2,364;   -1,409
901,878;17694,732;   -1,000;   -0,773
902,436;17518,440;   -1,363;    1,318
902,994;17953,694;    4,728;    3,682
903,551;17371,947;    0,728;    0,409
904,109;17767,564;    0,182;   -1,409
904,666;17310,000;    2,455;    1,045
905,224;17129,344;    0,182;   -0,409
905,781;16860,779;    0,727;   -0,318
906,338;16971,124;   -1,363;    1,045
906,895;16900,741;    0,637;    2,045
907,453;16839,176;    1,727;    1,136
908,010;16857,430;   -0,909;    0,409
908,567;16506,501;    1,273;    0,591
909,124;15983,937;    0,364;   -1,500
909,681;16041,190;   -2,909;    0,682
910,238;16178,807;    0,636;   -1,318
910,795;16501,242;   -0,273;   -1,136
911,352;16098,697;   -2,909;   -2,682
911,909;15498,152;   -1,364;   -0,864
912,466;16005,606;   -3,182;    1,500
913,022;15537,970;   -1,636;    0,500
913,579;15920,879;   -0,909;    2,045
914,136;15625,970;    1,636;    0,955
914,692;15950,242;    0,091;   -1,227
915,249;15528,152;    1,455;    0,409
915,806;15747,424;    0,182;    1,955
916,362;15529,515;    1,909;    1,864
916,918;15068,152;    2,000;    1,045
917,475;15019,970;   -1,182;    0,955
918,031;15082,152;    3,364;   -0,045
918,587;14520,697;   -0,909;   -0,318
919,144;14746,333;   -2,273;    0,227
919,700;15061,424;    1,727;    0,773
920,256;14632,788;    0,727;    0,045
920,812;14232,515;   -0,727;   -1,045
921,368;14240,061;   -1,727;   -1,045
921,924;13835,879;    0,182;   -0,136
922,480;13435,970;   -0,545;    1,227
923,036;14114,242;    1,273;    1,955
923,592;13972,606;    0,455;    0,318
924,148;13875,333;    0,455;   -0,955
924,704;13211,061;   -1,364;   -0,409
925,259;13458,970;   -0,273;    0,591
925,815;13222,515;    1,455;    0,500
926,371;12707,424;    2,909;    1,409
926,926;12583,970;    2,091;    0,591
927,482;12181,697;   -1,364;    0,773
928,037;12061,970;    0,909;    2,045
928,593;12362,424;    1,636;    1,045
929,148;12174,606;   -1,818;   -1,500
929,704;11681,606;   -1,455;   -0,500
930,259;11891,152;    0,091;   -0,136
930,814;10922,879;   -0,818;    1,955
931,369;10538,333;    1,091;   -0,773
931,925;10397,333;   -0,091;    0,136
932,480;10331,242;   -2,818;   -2,591
933,035;10204,061;    0,545;   -0,318
933,590; 9898,333;    0,364;   -1,773
934,145; 9517,606;   -1,364;   -0,318
934,700; 9875,515;    0,455;   -0,591
935,255; 9672,697;   -0,091;    0,045
935,809; 8945,333;    3,182;    0,864
936,364; 7990,697;   -0,455;   -0,136
936,919; 7953,879;    0,455;   -1,773
937,474; 7826,788;    1,455;    0,136
938,028; 7585,152;   -1,636;    1,136
938,583; 7039,970;    1,818;    4,682
939,138; 7334,788;    2,091;    2,136
939,692; 6699,333;    1,636;   -1,136
940,247; 6422,061;   -0,727;   -1,045
940,801; 5935,788;   -0,636;    0,227
941,355; 5806,788;   -0,364;    2,591
941,910; 5426,242;   -0,273;   -2,136
942,464; 5533,242;   -0,818;   -0,318
943,018; 5321,879;    1,000;   -0,227
943,572; 5254,152;    2,545;   -0,682
944,126; 4663,879;    0,091;   -0,409
944,681; 4544,152;    3,091;    0,227
945,235; 4521,242;    1,000;   -0,591
945,789; 4468,242;    0,364;   -1,864
946,342; 4555,697;    0,455;   -0,591
946,896; 4361,333;   -2,273;    0,955
947,450; 4103,333;    1,545;   -0,227
948,004; 4295,879;    1,727;   -0,045
948,558; 4302,061;    0,273;   -0,864
949,111; 4242,697;   -0,273;   -0,318
949,665; 4245,788;    1,636;   -0,682
950,219; 4122,970;   -0,091;   -1,045
950,772; 4217,788;   -1,909;    1,864
951,326; 4111,242;    0,545;   -0,955
951,879; 4220,242;    0,727;   -2,318
952,433; 4228,333;    0,000;    2,227
952,986; 4055,333;    2,909;    0,682
953,539; 4018,697;   -0,273;    0,591
954,093; 3930,697;    0,545;   -1,318
954,646; 4081,606;    0,909;    1,318
955,199; 3882,515;    0,000;   -0,500
955,752; 3763,879;   -0,455;    1,773
956,305; 3723,606;   -0,091;    2,955
956,858; 3900,152;    0,818;   -0,318
957,411; 4062,242;   -0,545;    2,136
957,964; 3889,333;    1,364;    2,136
958,517; 3906,697;   -1,545;    3,136
959,070; 3721,515;   -0,455;    1,955
959,623; 3791,061;    1,091;    1,500
960,176; 3543,697;    1,727;    2,045
960,728; 3525,606;   -2,727;    0,773
961,281; 3586,242;    0,545;    0,500
961,834; 3634,879;   -0,909;    0,864
962,386; 3541,788;    1,727;    1,045
962,939; 3459,242;    0,364;   -0,318
963,491; 3614,242;    0,455;    1,136
964,043; 3476,879;    1,182;    2,409
964,596; 3607,788;   -1,000;    2,227
965,148; 3446,152;   -1,000;    1,773
965,700; 3356,152;    1,091;   -0,227
966,253; 3497,242;   -0,636;    0,318
966,805; 3335,970;   -2,273;    0,773
967,357; 3398,606;    1,091;   -1,500
967,909; 3331,788;    0,455;   -1,227
968,461; 3454,333;    0,545;    3,136
969,013; 3410,788;   -0,182;   -0,864
969,565; 3479,515;   -0,455;   -1,136
970,117; 3506,242;   -0,364;    1,045
970,669; 3367,606;    0,182;   -0,136
971,220; 3232,606;   -0,455;   -1,500
971,772; 3147,424;   -0,636;   -0,318
972,324; 3285,242;    0,091;   -0,500
972,876; 3217,242;    0,818;   -0,045
973,427; 3349,424;    1,909;   -1,045
973,979; 3289,061;   -0,727;   -2,500
974,530; 3358,606;    1,818;    1,318
975,082; 3372,970;   -0,545;    1,682
975,633; 3256,970;    1,091;    1,682
976,184; 3403,061;    0,909;    0,773
976,736; 3169,606;    0,091;    0,227
977,287; 2961,242;   -0,909;   -0,500
977,838; 3142,970;    0,909;   -0,318
978,389; 3219,515;   -1,000;   -0,500
978,940; 3082,788;    0,545;   -0,409
979,491; 3117,242;    0,091;   -0,500
980,042; 3070,242;    0,182;    3,045
980,593; 3137,515;   -2,545;    0,227
981,144; 3180,152;    2,545;   -0,500
981,695; 3143,788;    1,455;    1,500
982,246; 3100,697;   -0,273;    1,045
982,797; 3281,606;   -1,727;    0,682
983,347; 3371,333;    0,364;    0,591
983,898; 3559,061;    3,091;    0,409
984,449; 3363,788;    2,182;    0,773
984,999; 3265,788;    1,455;   -1,136
985,550; 3038,788;    0,182;   -0,318
986,100; 3065,788;   -0,455;   -0,318
986,651; 3084,970;   -0,818;    0,045
987,201; 3074,333;   -1,000;   -0,591
987,751; 3161,970;    0,818;    2,864
988,302; 3170,879;    2,636;    1,500
988,852; 3175,697;    0,455;   -1,136
989,402; 3231,515;    0,091;    0,682
989,952; 3130,152;   -2,182;    0,864
990,502; 3224,152;   -0,091;    0,682
991,052; 3192,697;   -0,727;    0,045
991,602; 3071,970;   -2,909;    1,318
992,152; 3057,697;    0,455;    0,682
992,702; 3024,061;    1,364;   -0,045
993,252; 2943,424;   -3,000;   -0,500
993,802; 3047,061;   -0,273;    1,318
994,352; 3284,061;   -1,545;    1,136
994,901; 3366,333;   -0,182;    3,227
995,451; 3292,061;   -0,182;    0,318
996,000; 3383,606;    1,636;    0,318
996,550; 3091,970;    2,273;    0,227
997,100; 3088,788;    1,273;   -0,045
997,649; 3353,606;    2,182;    0,955
998,198; 2977,061;    1,727;   -1,500
998,748; 3201,879;    1,091;   -2,318
999,297; 3104,515;   -0,818;   -0,409
999,846; 3142,879;    1,000;   -0,773
1000,395; 3204,970;   -0,818;    0,500
1000,945; 3158,061;    1,818;   -0,773
1001,494; 3266,424;    2,364;    0,682
1002,043; 3252,061;    4,636;    0,864
1002,592; 3085,515;   -1,091;    1,955
1003,141; 3245,697;   -0,455;   -0,682
1003,690; 3107,333;    1,727;    0,500
1004,238; 3189,788;    1,455;   -0,045
1004,787; 2805,970;    1,364;    1,227
1005,336; 3035,606;    0,364;    0,682
1005,885; 3200,879;    1,364;   -2,773
1006,433; 3345,970;    0,545;    0,955
1006,982; 3397,242;    0,455;    1,682
1007,531; 3279,606;   -1,818;   -0,227
1008,079; 3237,152;   -2,273;    0,500
1008,627; 3385,515;   -1,455;    0,409
1009,176; 3109,697;    0,000;   -1,955
1009,724; 3158,788;    1,091;    0,864
1010,273; 3228,788;    1,273;    0,500
1010,821; 3314,242;    0,091;    1,409
1011,369; 3068,242;   -1,364;    1,318
1011,917; 3035,152;   -1,364;   -0,591
1012,465; 3319,879;    1,273;   -1,591
1013,013; 3432,333;    2,091;   -1,682
1013,561; 3296,515;    0,455;   -0,773
1014,109; 3359,242;   -1,909;    1,682
1014,657; 3233,242;    0,364;    0,591
1015,205; 3354,970;    1,636;   -0,955
1015,753; 3404,152;   -0,545;   -1,409
1016,301; 3433,606;   -2,636;    3,045
1016,848; 3436,333;   -1,273;    0,409
1017,396; 3480,697;    2,545;    0,045
1017,944; 3625,606;    1,182;    1,864
1018,491; 3367,970;    0,273;    1,409
1019,039; 3507,061;    0,455;    0,591
1019,586; 3417,333;   -1,364;    1,682
1020,134; 3528,606;    0,455;    1,500
1020,681; 3566,424;    0,182;   -1,136
1021,228; 3565,515;    2,909;   -2,227
1021,776; 3372,424;    1,182;   -1,136
1022,323; 3603,242;    0,455;    0,773
1022,870; 3537,061;   -1,000;   -0,045
1023,417; 3414,879;    2,636;    1,864
1023,964; 3556,333;    2,636;    1,227
1024,511; 3401,242;    1,000;    0,773
1025,058; 3207,970;    3,182;   -0,045
1025,605; 3240,061;   -2,273;    3,136
1026,152; 3465,697;    1,727;   -0,591
1026,699; 3191,333;    1,818;    1,318
1027,245; 3351,788;   -0,091;    0,318
1027,792; 3578,424;   -1,000;    1,409
1028,339; 3447,061;    2,364;   -0,045
1028,885; 3283,970;    1,000;   -0,227
1029,432; 3238,879;   -0,091;    0,227
1029,978; 3298,788;   -1,000;   -1,591
1030,525; 3207,515;    1,000;    0,409
1031,071; 3445,061;   -1,364;    1,136
1031,618; 3540,606;    0,364;    1,682
1032,164; 3331,242;   -0,091;    3,045
1032,710; 3383,606;    1,636;   -1,500
1033,256; 3273,424;   -0,636;   -0,136
1033,803; 3265,606;   -0,545;    1,500
1034,349; 2977,333;   -1,364;    0,136
1034,895; 3138,697;    0,000;   -0,318
1035,441; 3112,152;   -0,818;    0,318
1035,987; 3108,152;   -2,364;   -0,682
1036,533; 3099,424;   -1,455;   -0,955
1037,078; 3302,879;    1,455;    1,682
1037,624; 3131,970;    2,455;   -0,955
1038,170; 3160,333;    0,455;   -0,318
1038,716; 3078,061;    1,636;   -0,409
1039,261; 2975,424;   -2,273;   -0,773
1039,807; 2901,970;   -0,091;    3,409
1040,352; 2979,879;   -1,909;   -0,318
1040,898; 3029,970;   -1,545;   -0,682
1041,443; 2933,152;   -1,455;   -2,591
1041,989; 2939,788;    1,091;    1,591
1042,534; 2822,788;   -0,364;    2,591
1043,079; 2937,606;    2,909;    0,955
1043,625; 2734,152;    1,818;    0,500
1044,170; 2782,061;   -1,364;    1,045
1044,715; 3036,242;    2,455;    0,955
1045,260; 2862,970;    2,182;   -0,955
1045,805; 2893,242;    1,182;   -0,591
1046,350; 2824,606;    1,364;   -0,409
1046,895; 2768,424;    2,909;    1,591
1047,440; 2713,242;    5,364;    0,409
1047,985; 2600,970;    2,818;   -0,955
1048,530; 2520,515;    1,545;    1,227
1049,074; 2604,606;    0,000;    0,318
1049,619; 2566,697;   -1,364;    1,955
1050,164; 2370,970;    0,455;    0,227
1050,708; 2411,061;   -0,455;    0,045
1051,253; 2790,061;    1,273;   -2,227
1051,797; 2502,424;    0,818;   -1,318
1052,342; 2483,697;   -1,182;    1,045
1052,886; 2506,333;    0,364;   -1,409
1053,430; 2380,515;   -1,364;    0,136
1053,975; 2395,424;   -0,818;   -0,318
1054,519; 2369,242;   -0,727;    3,227
1055,063; 2391,424;    0,909;    1,318
1055,607; 2270,515;   -0,182;    0,227
1056,151; 2285,061;    2,909;    1,682
1056,695; 2203,697;    2,273;   -1,136
1057,239; 2281,152;   -1,727;   -0,682
1057,783; 2299,152;    0,818;   -1,500
1058,327; 2233,515;    0,000;    1,409
1058,871; 2459,606;   -0,545;    1,318
1059,415; 2155,242;   -0,818;   -0,045
1059,958; 2428,606;    1,455;    2,591
1060,502; 2163,152;   -1,000;   -0,773
1061,046; 2039,333;    0,364;   -0,955
1061,589; 2006,515;   -3,000;   -1,136
1062,133; 1894,970;   -1,273;    1,864
1062,676; 1830,242;    1,182;    0,864
1063,220; 1831,242;    1,091;    0,500
1063,763; 1853,515;    0,909;    1,136
1064,306; 1944,061;   -0,909;    1,864
1064,849; 1827,515;   -0,909;    0,591
1065,393; 1833,515;    2,000;   -1,500
1065,936; 1952,061;    0,182;   -0,409
1066,479; 1836,606;   -1,455;    1,318
1067,022; 1868,515;   -0,273;   -0,227
1067,565; 1746,333;   -0,091;   -1,318
1068,108; 1765,788;    0,727;   -0,591
1068,651; 1755,606;   -0,636;    1,409
1069,194; 1686,333;   -0,455;   -1,682
1069,736; 1677,242;   -1,273;    0,955
1070,279; 1655,424;   -1,364;   -0,500
1070,822; 1713,152;   -2,000;   -0,318
1071,364; 1808,515;   -0,364;    1,318
1071,907; 1598,606;   -0,727;    3,227
1072,450; 1497,788;    0,000;   -0,045
1072,992; 1502,879;   -0,273;    3,136
1073,535; 1646,152;    2,091;    2,136
1074,077; 1432,879;   -0,727;    2,045
1074,619; 1399,515;   -1,364;    0,591
1075,161; 1431,152;   -1,091;    1,500
1075,704; 1633,424;    1,545;    1,227
1076,246; 1412,333;   -0,182;    0,682
1076,788; 1334,333;   -0,364;    1,773
1077,330; 1418,606;    1,273;    2,136
1077,872; 1379,424;    0,909;    0,955
1078,414; 1621,061;    2,727;    0,773
1078,956; 1340,061;    1,273;   -0,227
1079,498; 1610,242;    1,636;    0,318
1080,040; 1316,606;    1,909;   -1,318
1080,581; 1245,606;    1,636;   -0,318
1081,123; 1163,424;    0,091;   -0,773
1081,665; 1209,152;   -1,182;   -0,955
1082,206; 1537,515;    1,364;   -0,500
1082,748; 1386,788;    0,727;    2,045
1083,289; 1236,333;   -2,000;    1,318
1083,831; 1149,970;   -0,545;    0,227
1084,372; 1196,788;    0,000;    0,591
1084,913; 1197,333;    1,091;    0,864
1085,455; 1172,970;   -1,909;   -2,045
1085,996; 1148,879;   -2,273;    0,136
1086,537; 1159,788;   -0,091;    0,864
1087,078; 1181,515;   -0,909;   -2,136
1087,619; 1240,879;   -1,273;    0,227
1088,160; 1157,515;    0,000;    1,318
1088,701; 1141,515;   -1,091;    0,682
1089,242; 1074,424;    1,364;   -2,227
1089,783; 1176,606;   -0,273;    1,409
1090,324; 1140,333;    0,455;    0,682
1090,865; 1006,879;    2,727;   -0,409
1091,405;  970,424;    0,727;    2,227
1091,946; 1008,970;    0,182;   -0,955
1092,487;  925,424;    0,818;   -1,409
1093,027; 1104,606;   -1,364;   -1,500
1093,568;  950,788;   -0,364;    1,227
1094,108; 1060,424;    0,273;    1,773
1094,649;  994,152;   -1,182;    0,136
1095,189;  922,970;   -0,636;   -0,682
1095,729;  864,879;   -0,091;    0,955
1096,269;  867,152;    0,727;   -0,955
1096,810; 1209,333;   -1,364;    0,500
1097,350; 1033,697;    1,364;   -0,773
1097,890;  930,242;    0,364;    1,227
1098,430; 1195,879;    2,364;    2,864
1098,970; 1057,333;    2,182;    1,682
1099,510;  913,970;    0,545;   -2,318
1100,050;  831,061;    1,000;   -1,591
1100,589;  804,515;   -0,727;   -0,318
1101,129;  930,879;    0,818;   -0,955
1101,669; 1096,879;    1,727;    2,136
1102,209;  903,879;   -0,091;    2,227
1102,748;  866,970;    0,000;    0,955
1103,288;  848,606;    1,273;   -1,227
1103,827;  884,152;    3,091;   -2,227
1104,367;  751,242;   -0,091;   -2,409
1104,906;  709,424;    1,364;   -1,136
1105,445;  785,515;    0,636;   -1,136
1105,985;  741,515;   -0,727;    1,500
1106,524;  794,061;   -1,727;   -0,682
1107,063;  761,242;   -2,727;    1,409
1107,602;  732,242;   -1,909;   -1,500
1108,141;  643,879;   -1,909;    1,500
1108,680;  758,061;   -3,455;   -0,591
1109,219;  691,879;   -0,909;   -0,500
1109,758;  689,061;    0,455;    0,682
1110,297;  665,879;    1,000;   -0,682
1110,836;  596,061;   -0,727;    0,955
1111,375;  775,788;   -2,545;    0,409
1111,913;  794,152;   -1,000;    0,773
1112,452;  731,879;   -0,273;    0,136
1112,991;  599,970;    1,091;    1,955
1113,529;  551,424;   -0,818;   -0,045
1114,068;  631,333;   -0,273;    2,955
1114,606;  535,061;   -0,364;   -0,955
1115,144;  710,424;   -1,273;    1,045
1115,683;  625,879;   -0,727;    0,318
1116,221;  676,515;   -0,455;   -0,864
1116,759;  588,970;    0,636;   -0,864
1117,297;  808,152;    0,000;    1,864
1117,836;  592,333;   -2,182;   -1,227
1118,374;  610,606;    0,182;   -0,682
1118,912;  533,152;    0,909;    2,682
1119,450;  528,788;    1,000;    0,864
1119,988;  579,333;    1,545;    2,136
1120,525; 1054,242;    5,091;    3,318
1121,063;  748,788;    1,182;    1,864
1121,601;  550,152;   -0,909;   -1,227
1122,139;  492,424;   -0,727;   -2,045
1122,676;  703,424;   -0,727;    2,773
1123,214;  634,152;   -1,182;    4,409
1123,751;  435,697;    1,727;    2,227
1124,289;  578,424;   -0,091;   -0,409
1124,826;  445,061;    1,727;    0,227
1125,364;  364,970;    1,727;   -0,955
1125,901;  560,970;    1,182;    1,227
1126,438;  680,333;    0,818;    0,955
1126,975;  388,970;   -0,727;   -0,773
1127,513;  466,152;    0,273;    2,136
1128,050;  359,333;    1,636;   -0,682
1128,587;  470,606;    2,000;   -0,227
1129,124;  525,515;    0,091;    1,318
1129,661;  374,879;    0,273;    0,227
1130,198;  552,515;    1,636;    0,773
1130,734;  494,152;    0,182;    1,409
1131,271;  344,606;   -0,909;    0,864
1131,808;  520,061;    2,909;    3,045
1132,345;  379,515;    1,545;    0,318
1132,881;  246,061;   -1,545;   -1,864
1133,418;  398,242;    0,727;   -1,136
1133,954;  334,697;    2,455;   -2,682
1134,491;  416,333;    1,364;   -0,773
1135,027;  306,697;    2,364;    0,864
1135,564;  401,061;    0,273;    2,955
1136,100;  380,970;    0,364;    2,136
1136,636;  262,697;   -1,273;   -1,045
1137,172;  375,788;    0,000;   -1,045
1137,708;  288,152;   -1,364;   -1,045
1138,245;  296,788;    1,273;   -1,227
1138,781;  226,242;    1,091;   -3,318
1139,317;  318,606;    1,273;   -1,409
1139,852;  299,152;    3,091;    0,136
1140,388;  424,788;   -1,182;   -0,409
1140,924;  311,515;   -1,091;   -2,227
1141,460;  234,515;   -1,636;    0,136
1141,996;  170,333;   -1,364;    2,682
1142,531;  218,515;    1,364;    3,318
1143,067;  454,061;    1,182;    1,045
1143,602;  517,697;   -0,091;   -0,318
1144,138;  352,697;   -2,636;    1,045
1144,673;  200,061;   -1,455;    1,409
1145,209;  269,788;   -1,909;   -0,318
1145,744;  186,515;   -0,727;    0,864
1146,279;  340,879;    1,818;   -0,136
1146,815;  244,515;    1,545;   -2,682
1147,350;  285,333;   -1,364;    0,045
1147,885;  193,061;   -0,818;   -1,318
1148,420;  198,061;   -2,273;    0,773
1148,955;  169,879;   -1,727;    1,864
1149,490;  213,152;   -0,909;   -1,591
1150,025;  188,424;    0,455;   -1,773
1150,560;  301,515;    1,091;   -0,955
1151,094;  282,424;    1,455;   -0,591
1151,629;  291,970;    1,636;    0,864
1152,164;  192,970;    1,364;    1,318
1152,698;  148,424;   -0,182;   -0,136
1153,233;  110,970;    0,091;   -0,682
1153,767;  162,333;   -3,000;   -2,318
1154,302;  216,242;   -1,455;    1,773
1154,836;  205,606;   -0,455;   -2,136
1155,371;  270,515;   -1,364;    3,682
1155,905;  219,515;   -0,636;    1,682
1156,439;  185,061;   -0,636;   -0,500
1156,973;  217,970;    0,364;    0,318
1157,507;  149,606;   -0,364;    0,682
1158,042;  184,061;   -0,727;    1,045
1158,576;  237,606;    0,182;    1,773
1159,110;  221,242;   -0,818;    2,409
1159,643;  183,061;    0,636;   -0,045
1160,177;  112,061;   -1,545;    1,500

