
Integration time [ms]:   0,040
Averaging Nr. [scans]: 11
Smoothing Nr. [pixels]: 0
Data measured with spectrometer [name]: 7318044SP
Wave   ;Sample   ;Dark     ;Reference
[nm]   ;[counts] ;[counts] ;[counts] 

186,757;   35,573;   31,551;    1,318
187,357;   57,078;   22,551;    0,955
187,958;   38,949;   15,460;   -1,591
188,558;   70,949;    8,915;   -1,227
189,159;   45,377;    6,733;   -4,500
189,759;   21,416;    7,278;   -3,591
190,360;   25,272;    2,824;   -2,136
190,960;   48,881;    2,915;   -4,136
191,560;   60,345;    3,189;   -6,591
192,161;  253,586;    4,372;   -3,500
192,761;  142,373;    4,010;   -3,227
193,361;   93,099;    1,556;   -3,773
193,962;  127,856;    2,010;   -2,682
194,562;   64,669;    1,189;   -3,955
195,162;   91,530;   -2,448;   -2,227
195,762;  224,843;   -3,176;   -0,045
196,362;  177,038;    1,370;   -2,500
196,963;   71,532;    2,006;   -0,864
197,563;  137,806;    1,551;   -0,955
198,163;   81,002;    0,096;   -0,682
198,763;   98,534;    1,733;   -0,500
199,363;  183,638;    3,096;   -0,500
199,963;  147,613;    0,369;    0,409
200,563;  123,497;    2,823;   -1,409
201,163;  105,770;    3,277;   -0,227
201,763;  184,939;    3,732;    0,318
202,363;  123,731;    1,459;    1,500
202,963;  205,108;    1,459;    1,045
203,563;  307,238;    0,277;    0,500
204,162;  174,576;    2,096;   -1,864
204,762;  168,707;    0,550;    0,591
205,362;  134,576;    3,004;    1,955
205,962;  207,549;    3,096;    1,955
206,562;  206,602;    1,823;    2,318
207,161;  176,213;   -0,087;    0,318
207,761;  327,888;    1,277;    2,409
208,361;  206,926;   -0,268;    1,409
208,960;  290,978;    0,459;    1,500
209,560;  322,642;    1,277;    1,591
210,160;  325,914;    0,550;    1,864
210,759;  282,719;    4,186;    1,227
211,359;  284,136;    1,459;    1,045
211,958;  509,486;    1,277;    2,045
212,558;  572,252;    1,732;    1,864
213,157;  426,395;    1,822;    1,500
213,757;  804,188;    3,822;   -0,227
214,356;  528,941;    1,277;   -0,409
214,956;  813,797;    3,095;    0,409
215,555;  471,383;    2,095;    2,136
216,154;  418,487;   -2,723;   -0,591
216,754;  409,500;    0,277;    0,773
217,353;  518,304;   -0,268;   -1,045
217,952;  364,643;   -0,178;    0,318
218,552;  589,773;    1,368;   -0,773
219,151;  461,345;    0,277;    0,955
219,750;  459,294;    0,004;   -0,227
220,349;  487,864;   -0,451;    1,045
220,948;  626,137;   -1,360;    1,136
221,548;  553,448;    0,913;    1,227
222,147;  647,266;   -0,087;   -0,409
222,746;  914,475;   -0,451;   -0,955
223,345;  755,124;    0,731;    0,500
223,944;  753,371;   -0,451;    0,773
224,543;  851,864;    1,004;   -1,409
225,142;  958,346;    0,094;    0,136
225,741;  850,903;   -0,814;    1,045
226,340;  849,020;   -0,451;   -0,955
226,939; 1196,007;   -0,996;   -0,136
227,538;  990,799;   -0,360;   -0,773
228,137; 1199,227;   -0,814;    0,864
228,735; 1179,279;   -0,541;    1,227
229,334;  963,474;   -0,905;   -0,227
229,933; 1334,305;    0,459;    0,591
230,532; 1424,564;    1,186;   -0,409
231,131; 1516,447;    1,732;    0,318
231,729; 1438,837;   -2,450;   -2,318
232,328; 1380,616;   -0,723;   -1,500
232,927; 1382,746;    1,004;   -0,500
233,525; 1403,215;    3,640;    0,045
234,124; 1578,642;    2,368;   -1,591
234,723; 1488,863;    0,913;   -1,045
235,321; 1547,565;    2,277;    0,136
235,920; 1673,422;    1,186;   -1,227
236,518; 1928,760;    3,459;    0,318
237,117; 1843,656;    0,004;   -0,227
237,715; 1921,682;    0,640;   -0,500
238,314; 1968,863;   -0,087;   -2,318
238,912; 2131,512;   -0,723;   -1,409
239,510; 2017,902;    0,459;   -1,227
240,109; 2203,538;    0,004;    3,773
240,707; 2147,901;   -0,996;    1,227
241,305; 2188,915;    0,550;    0,136
241,904; 2357,824;   -0,178;   -2,045
242,502; 2395,759;   -0,632;   -0,227
243,100; 2259,785;   -0,087;   -0,955
243,698; 2405,993;    0,732;    1,682
244,297; 2495,604;   -0,632;    0,682
244,895; 2423,760;   -0,269;   -2,318
245,493; 2674,682;    2,186;   -0,591
246,091; 2617,786;    1,368;   -1,318
246,689; 2539,383;    1,004;    0,591
247,287; 2563,604;    0,822;   -1,136
247,885; 2712,747;   -1,451;    1,227
248,483; 2731,188;    1,822;   -0,500
249,081; 2793,475;    0,185;    1,591
249,679; 2901,878;   -0,178;    1,682
250,277; 2976,929;   -1,723;    0,864
250,875; 2973,006;   -1,087;   -1,045
251,473; 2940,344;   -1,178;    0,500
252,071; 3079,279;    1,459;    1,045
252,669; 3114,643;   -1,814;    0,318
253,267; 3193,514;   -0,087;    0,773
253,864; 3103,240;   -0,360;    0,682
254,462; 3220,631;    1,640;    1,591
255,060; 3062,526;   -0,269;    1,318
255,658; 3173,371;    0,822;   -0,136
256,255; 3468,838;    0,186;   -2,045
256,853; 3410,475;   -0,269;    1,409
257,451; 3359,786;    0,822;    1,864
258,048; 3789,136;    1,822;    1,864
258,646; 3392,228;    1,731;   -1,045
259,243; 3514,111;   -0,087;    2,227
259,841; 3518,760;   -0,814;    0,318
260,438; 3393,137;   -0,087;    0,864
261,036; 3770,292;   -1,905;    1,409
261,633; 3703,903;   -0,087;    2,227
262,231; 3534,448;    2,731;   -0,045
262,828; 3629,837;   -0,905;    1,136
263,425; 3651,877;    0,913;   -0,591
264,023; 3787,072;    0,186;    0,045
264,620; 3541,514;   -0,360;   -0,318
265,217; 3771,410;   -2,087;    3,136
265,815; 3737,216;   -1,905;    2,136
266,412; 3709,851;    0,731;    0,136
267,009; 3726,656;   -1,451;    0,773
267,606; 3775,410;    0,822;   -0,955
268,203; 3621,643;   -0,269;   -0,591
268,801; 3771,345;    1,731;    0,591
269,398; 3906,968;   -0,360;    2,500
269,995; 3919,655;    0,277;    1,591
270,592; 3773,669;   -0,632;   -0,500
271,189; 3851,345;    0,186;    0,409
271,786; 3932,929;   -0,632;    1,227
272,383; 4011,188;   -1,087;    0,227
272,980; 3969,812;    0,277;    0,318
273,577; 4202,292;    0,004;    1,227
274,174; 3882,279;    0,822;    2,591
274,771; 3878,280;   -0,814;   -0,773
275,367; 4182,616;    2,277;    1,409
275,964; 4119,837;    0,731;   -0,500
276,561; 4105,578;    1,549;   -1,045
277,158; 4143,060;    0,095;   -1,773
277,755; 4355,475;    2,185;    0,409
278,351; 3886,280;   -0,451;   -1,500
278,948; 4112,060;   -0,815;    0,045
279,545; 4034,968;   -1,360;    2,318
280,141; 4577,448;   -1,723;   -2,045
280,738; 4364,929;   -0,451;   -0,136
281,334; 4343,787;   -1,633;    0,591
281,931; 4017,151;   -0,087;   -1,318
282,528; 4133,969;    0,822;   -0,500
283,124; 4577,176;   -1,087;   -0,500
283,721; 4447,450;   -0,451;    1,409
284,317; 4292,034;    0,185;    2,500
284,913; 4714,697;   -1,360;    0,591
285,510; 4945,242;    0,640;   -0,318
286,106; 4889,813;   -2,269;   -0,955
286,703; 4438,839;   -0,360;    1,955
287,299; 4587,397;   -1,451;   -0,591
287,895; 4717,890;    0,822;   -1,045
288,491; 5050,877;    0,186;    2,136
289,088; 4947,488;   -2,360;    2,409
289,684; 4990,916;   -1,723;    1,500
290,280; 5036,695;    0,368;    0,682
290,876; 5090,007;    1,822;    5,500
291,472; 4988,709;    1,276;    2,227
292,068; 5057,891;    1,367;    0,227
292,665; 4763,487;    2,095;    0,773
293,261; 4629,423;    0,276;    2,136
293,857; 4868,253;    2,913;    2,136
294,453; 4817,357;    3,550;    0,955
295,049; 4784,511;   -0,268;    1,955
295,644; 4758,953;    0,095;    0,136
296,240; 4696,823;   -0,905;   -0,136
296,836; 4785,693;   -0,995;    0,318
297,432; 4954,822;    1,096;   -0,500
298,028; 5079,575;    0,732;    0,773
298,624; 5208,264;    1,459;    1,864
299,220; 5316,264;    2,368;    0,591
299,815; 5055,394;    1,005;   -0,409
300,411; 5007,238;    0,914;    1,773
301,007; 5010,458;    1,368;    0,227
301,602; 4937,758;   -0,541;   -2,318
302,198; 5084,432;    0,732;   -0,773
302,794; 5235,497;    1,187;   -0,500
303,389; 5286,251;   -1,177;    1,045
303,985; 5382,900;    0,550;    1,409
304,580; 5393,368;    1,459;    1,591
305,176; 5336,589;   -3,086;    0,136
305,771; 5205,589;   -1,268;   -1,227
306,367; 5358,031;    4,095;    0,136
306,962; 5425,485;    0,641;    1,500
307,558; 5173,004;   -0,450;    0,136
308,153; 5133,901;    1,095;   -1,136
308,748; 5230,381;   -0,814;    1,682
309,344; 5332,953;   -0,632;   -1,318
309,939; 5467,433;   -1,905;   -1,318
310,534; 5487,693;   -0,086;   -1,682
311,130; 5375,446;    0,459;   -2,500
311,725; 5171,031;    1,004;   -0,500
312,320; 5434,186;    2,459;    0,045
312,915; 5434,823;    1,459;   -1,045
313,510; 5542,537;    1,550;   -0,500
314,105; 5740,069;    1,096;    1,409
314,700; 5221,744;   -3,086;   -1,045
315,295; 5085,368;   -0,904;    0,045
315,890; 4797,134;    1,277;    0,864
316,485; 4997,381;   -0,359;   -0,318
317,080; 5076,472;   -3,086;    1,591
317,675; 5446,407;    2,005;   -0,682
318,270; 5230,718;    5,550;    3,318
318,865; 5184,952;    3,278;    3,045
319,460; 5000,017;   -0,904;    0,591
320,055; 5100,497;   -0,541;   -1,227
320,650; 4885,016;   -1,995;   -0,591
321,244; 4909,783;   -0,177;   -1,409
321,839; 5548,407;   -1,541;   -0,227
322,434; 5461,641;   -1,086;   -1,591
323,029; 5277,017;    1,732;    1,591
323,623; 5165,654;    1,550;    0,773
324,218; 5122,835;    2,368;    1,409
324,812; 5017,991;    1,096;    1,591
325,407; 4884,654;   -0,814;    2,045
326,002; 4868,173;    0,277;   -0,409
326,596; 5083,173;    0,914;    1,318
327,191; 5130,615;    0,823;   -1,045
327,785; 4864,536;   -0,813;   -0,227
328,379; 5089,173;    1,368;    0,136
328,974; 4868,731;    0,914;   -3,955
329,568; 5121,770;    0,186;   -2,409
330,163; 5068,653;    2,096;    1,045
330,757; 5256,849;    2,459;    1,591
331,351; 4823,342;    0,459;    0,682
331,945; 5034,095;    0,914;    1,409
332,540; 4861,018;   -1,723;   -0,591
333,134; 4932,732;   -1,086;    0,773
333,728; 5038,823;    0,005;    0,318
334,322; 5232,108;   -1,177;   -0,864
334,916; 4735,512;    0,277;    0,955
335,510; 5034,095;   -0,450;   -0,136
336,105; 5180,524;   -1,086;    1,591
336,699; 4938,589;   -1,086;    0,591
337,293; 4901,057;   -1,723;    0,318
337,887; 4918,108;   -2,723;    1,955
338,481; 5073,082;    0,459;    0,591
339,074; 5234,200;   -0,359;    2,682
339,668; 5129,174;   -1,632;    1,227
340,262; 5514,784;    1,732;    3,227
340,856; 5035,252;    1,822;   -0,682
341,450; 4550,681;    1,004;    1,864
342,044; 5072,421;    1,459;    0,136
342,637; 5017,992;    0,913;   -2,136
343,231; 4988,539;   -2,360;    0,682
343,825; 4855,277;   -1,086;   -0,591
344,419; 4890,056;   -1,995;    0,500
345,012; 5036,354;    2,459;    4,045
345,606; 4943,471;    4,641;    1,591
346,199; 4717,977;   -1,813;   -0,227
346,793; 4547,224;    1,914;    2,045
347,386; 4591,121;   -0,813;   -1,136
347,980; 4517,133;   -0,268;   -0,045
348,573; 4511,950;    2,278;    0,409
349,167; 4468,781;    5,278;    4,773
349,760; 4709,781;    2,914;    2,682
350,354; 4597,598;   -0,813;    1,136
350,947; 4472,611;    1,096;    1,682
351,540; 4235,637;   -0,358;   -1,409
352,134; 4152,521;    1,096;    1,136
352,727; 4256,029;   -0,086;    1,136
353,320; 4164,002;    0,005;    0,591
353,913; 3973,067;   -1,995;    1,864
354,507; 4217,535;    0,823;   -1,227
355,100; 4216,210;    0,460;    0,864
355,693; 3991,585;    2,005;    2,409
356,286; 3903,664;    0,823;    2,773
356,879; 4031,950;   -0,722;    1,227
357,472; 3779,898;   -0,904;    1,500
358,065; 3962,170;   -0,722;    2,500
358,658; 3883,911;   -0,540;    2,318
359,251; 3652,353;   -1,631;   -0,591
359,844; 3490,871;   -1,904;   -1,136
360,437; 3680,366;   -2,995;    0,045
361,030; 3764,430;    1,369;   -0,682
361,623; 3533,391;    2,824;    0,318
362,215; 3621,975;   -0,086;    2,045
362,808; 3493,937;   -2,358;   -1,682
363,401; 3591,702;   -2,449;    0,136
363,994; 3580,338;   -0,631;   -1,500
364,586; 3441,039;    0,824;   -1,500
365,179; 3533,532;   -0,449;   -1,136
365,772; 3196,079;   -1,995;    2,045
366,364; 3374,571;    1,915;   -3,227
366,957; 3590,414;    2,279;   -0,045
367,549; 3493,504;    2,188;   -0,864
368,142; 3348,620;    1,825;   -1,500
368,734; 3422,775;    0,734;   -2,136
369,327; 3403,761;    1,643;   -0,500
369,919; 3373,643;   -1,538;    0,409
370,512; 3340,603;   -1,083;   -0,500
371,104; 3287,691;   -0,901;    1,591
371,696; 3427,727;    1,191;   -0,955
372,289; 3384,258;    0,373;    1,136
372,881; 3434,930;   -2,080;    1,318
373,473; 3300,940;   -2,170;    1,136
374,066; 3278,701;   -0,169;    0,500
374,658; 3215,174;    0,378;    1,136
375,250; 3343,895;    0,653;   -1,409
375,842; 3308,940;    0,473;   -0,045
376,434; 3218,362;   -0,435;   -0,409
377,026; 3539,900;    0,204;   -2,500
377,618; 3485,515;   -0,158;   -0,682
378,210; 3357,262;   -0,338;   -1,955
378,802; 3224,958;    0,754;   -0,591
379,394; 3466,045;    1,846;    0,682
379,986; 3638,393;    1,393;   -0,955
380,578; 3645,016;   -0,153;    0,773
381,170; 3409,811;   -0,972;    0,045
381,762; 3315,750;    0,755;    1,409
382,354; 3359,119;   -0,065;   -1,318
382,945; 3387,254;   -2,976;    0,318
383,537; 3470,520;   -2,705;   -1,955
384,129; 3499,746;   -2,160;   -1,136
384,721; 3619,137;   -0,252;    0,955
385,312; 3520,125;   -0,161;   -0,955
385,904; 3666,943;   -2,706;    1,591
386,496; 3236,344;   -0,979;    1,045
387,087; 3407,602;    1,022;    2,500
387,679; 3366,199;   -1,160;    0,045
388,270; 3485,484;    2,840;    2,045
388,862; 3505,302;    1,295;   -0,318
389,453; 3340,185;   -0,887;    1,045
390,045; 3549,990;   -0,705;   -2,682
390,636; 3517,288;    0,204;   -0,591
391,227; 3419,614;   -0,523;   -0,045
391,819; 3513,095;    0,204;    0,773
392,410; 3629,654;    1,022;    0,045
393,001; 3543,617;   -0,979;   -1,591
393,593; 3702,942;    1,930;   -0,045
394,184; 3632,150;    1,385;   -0,409
394,775; 3454,838;    1,839;    2,136
395,366; 3628,421;    1,385;    0,773
395,957; 3618,745;    0,113;    0,136
396,548; 3768,486;   -0,342;    2,682
397,139; 4019,199;   -2,433;    0,591
397,730; 3805,967;   -1,888;    0,955
398,321; 3830,084;   -1,252;    0,955
398,912; 3798,864;   -0,615;    0,136
399,503; 3892,617;   -3,524;   -1,409
400,094; 3599,254;    0,294;    1,682
400,685; 3506,760;   -0,433;    0,045
401,276; 3502,084;    0,930;   -0,955
401,867; 3669,825;   -0,888;    0,773
402,458; 3712,084;   -2,251;   -2,318
403,048; 3779,643;    1,112;    0,591
403,639; 3491,707;    0,840;    0,864
404,230; 3794,462;    2,476;    0,318
404,821; 3734,890;   -0,615;    0,045
405,411; 3776,059;    1,203;   -2,591
406,002; 3494,462;   -1,252;   -1,136
406,592; 3589,436;    2,294;    0,045
407,183; 3642,463;    0,566;   -1,500
407,774; 3533,398;    3,475;   -0,136
408,364; 3730,307;    0,930;    0,409
408,954; 3565,632;    0,384;    1,227
409,545; 3573,333;    1,021;    1,045
410,135; 3245,152;    1,293;    0,500
410,726; 3358,387;    1,838;    0,318
411,316; 3652,062;    0,111;    0,773
411,906; 3385,478;   -0,253;   -0,409
412,497; 3142,412;   -1,070;   -0,045
413,087; 3470,334;   -1,980;   -0,227
413,677; 3671,764;   -0,707;    3,864
414,267; 3583,322;    0,656;    1,409
414,857; 3525,738;   -2,980;    4,227
415,448; 3713,451;    0,839;    0,500
416,038; 3542,659;    0,020;   -0,591
416,628; 3523,556;   -0,889;    0,409
417,218; 3364,271;    0,565;    3,318
417,808; 3549,050;    0,202;   -0,409
418,398; 3655,829;    0,020;    2,682
418,988; 3599,648;    2,020;    0,591
419,578; 3748,439;   -0,707;    1,409
420,168; 3974,101;   -1,343;   -0,955
420,757; 3814,919;   -1,343;   -1,500
421,347; 3513,869;    0,111;   -0,227
421,937; 3591,311;    2,292;    1,409
422,527; 3650,363;    0,838;   -0,773
423,116; 3597,713;   -0,253;   -0,045
423,706; 3663,116;   -1,889;    0,318
424,296; 3550,038;    1,384;    0,682
424,885; 3918,310;   -0,071;   -3,045
425,475; 4072,622;    1,474;   -2,864
426,065; 3934,557;   -0,980;   -0,318
426,654; 3737,455;   -0,435;   -0,318
427,244; 3963,791;    0,020;    1,409
427,833; 3638,882;    1,383;   -0,500
428,423; 3794,740;   -0,526;    1,136
429,012; 4222,975;   -0,344;   -1,136
429,601; 3945,988;   -1,344;    0,136
430,191; 4022,987;    1,292;    4,318
430,780; 3742,896;   -0,344;   -0,409
431,369; 3893,664;    0,746;   -0,045
431,959; 4215,235;   -1,254;    0,500
432,548; 4006,092;   -1,163;   -0,045
433,137; 4033,288;   -1,254;   -1,318
433,726; 4404,209;    0,292;    0,500
434,315; 4042,456;   -0,526;    2,409
434,905; 4143,938;   -1,254;    1,409
435,494; 4154,899;    0,746;    0,955
436,083; 4299,573;   -0,981;   -0,955
436,672; 4190,768;    0,110;    0,500
437,261; 4043,795;    0,292;   -1,955
437,850; 4267,937;    1,383;    0,682
438,439; 4234,731;    3,291;    1,955
439,027; 4183,679;    3,655;    1,773
439,616; 4344,199;    2,927;    1,227
440,205; 4109,900;    0,200;   -2,136
440,794; 4037,667;    2,109;   -0,045
441,383; 4160,901;   -1,346;   -0,591
441,971; 4038,927;   -2,436;    0,591
442,560; 3950,240;    0,563;   -1,773
443,149; 3746,612;    0,379;   -1,318
443,737; 3903,580;   -0,074;   -2,318
444,326; 4059,538;    0,018;    0,318
444,915; 4077,811;   -1,982;    0,864
445,503; 4275,018;   -2,891;   -0,318
446,092; 4017,421;    0,382;    2,136
446,680; 4292,824;    0,382;    0,318
447,269; 4335,344;   -0,346;   -0,318
447,857; 4187,760;    0,018;   -1,773
448,445; 4232,683;    0,563;    1,318
449,034; 4371,280;   -1,528;   -1,136
449,622; 4385,410;   -1,073;    3,500
450,210; 4213,814;    2,017;    2,227
450,799; 4481,905;    0,290;   -0,591
451,387; 4323,321;    1,381;   -0,591
451,975; 4179,892;    2,654;    0,864
452,563; 4337,904;    3,472;    2,318
453,151; 4229,308;   -0,528;   -1,227
453,739; 4144,075;   -1,347;    0,136
454,328; 4165,282;    2,381;   -2,136
454,916; 4004,737;    2,562;   -0,136
455,504; 4084,620;    1,017;    1,227
456,092; 4167,853;    0,017;   -1,591
456,679; 4084,957;    1,472;    0,682
457,267; 4403,737;    4,017;    1,045
457,855; 4245,919;    1,017;    1,409
458,443; 3923,583;   -0,165;    1,682
459,031; 4223,543;    0,108;    2,409
459,619; 4387,023;   -1,801;    2,864
460,206; 4338,751;    0,835;    2,045
460,794; 4436,491;   -2,983;   -0,227
461,382; 4590,311;   -0,529;   -0,864
461,970; 4303,466;    1,198;    1,864
462,557; 4337,583;   -0,711;   -0,682
463,145; 4497,596;   -3,165;   -1,682
463,732; 4641,844;    2,016;   -1,045
464,320; 4462,156;   -0,075;   -3,045
464,907; 4362,247;    2,743;   -0,773
465,495; 4255,378;    0,743;   -1,227
466,082; 4298,870;   -1,984;   -0,045
466,670; 4153,572;   -2,529;    1,227
467,257; 4459,052;   -1,711;    2,045
467,844; 4629,144;   -0,075;    0,045
468,432; 4641,949;    0,834;    3,500
469,019; 4338,846;    0,925;   -1,773
469,606; 4616,118;    0,470;    3,682
470,193; 4552,872;   -1,439;    0,227
470,780; 4357,001;   -2,075;    0,864
471,368; 4488,716;   -1,257;   -0,773
471,955; 4378,184;    1,379;   -0,682
472,542; 4149,028;    0,652;   -1,136
473,129; 4235,132;   -0,166;    0,136
473,716; 4076,482;    1,470;    0,591
474,303; 4168,197;    0,652;   -0,864
474,890; 4347,042;   -1,439;   -0,500
475,477; 4466,809;   -1,621;    0,409
476,064; 4352,121;    1,106;   -1,591
476,650; 4276,108;    0,288;    0,318
477,237; 4162,380;   -0,258;    0,955
477,824; 4260,900;   -1,076;    0,864
478,411; 4178,653;   -1,894;   -0,318
478,997; 4319,004;    0,560;   -0,773
479,584; 4331,797;    1,196;   -0,409
480,171; 4813,239;   -0,440;   -0,773
480,757; 4668,214;    2,651;    0,773
481,344; 4738,395;    0,469;    0,409
481,931; 4354,358;    1,105;    1,045
482,517; 5013,487;   -1,258;    0,318
483,104; 5286,057;    1,106;    2,864
483,690; 5344,083;   -1,804;    0,045
484,276; 5415,500;   -0,895;    0,227
484,863; 5335,629;    2,469;    1,136
485,449; 5571,201;   -0,077;    0,318
486,035; 5535,552;   -1,986;   -0,136
486,622; 5852,097;   -0,895;    0,045
487,208; 5750,448;    1,378;    1,500
487,794; 5632,566;    0,741;    0,318
488,380; 5741,696;    0,105;   -1,409
488,967; 5779,125;   -1,168;   -0,409
489,553; 5848,605;   -1,895;   -1,409
490,139; 5975,489;    1,559;    0,773
490,725; 5639,774;    0,741;   -0,227
491,311; 5394,748;    3,287;    3,045
491,897; 4981,502;   -0,986;    1,500
492,483; 5029,554;    0,105;    1,227
493,069; 5337,281;    3,923;    0,864
493,655; 5081,308;    1,650;    0,682
494,241; 4976,463;    1,377;   -0,955
494,826; 5218,021;    0,287;   -1,045
495,412; 4851,034;    2,559;   -0,682
495,998; 4941,023;   -0,805;   -0,318
496,584; 4942,892;    0,377;    1,045
497,169; 4894,399;    1,014;   -0,682
497,755; 4887,699;    0,650;    1,227
498,341; 5384,269;    0,559;    0,318
498,926; 5138,971;    1,832;    1,955
499,512; 5101,701;    1,286;    2,955
500,097; 5026,557;    0,195;   -0,318
500,683; 5055,543;   -0,350;    2,136
501,268; 5293,998;   -0,169;   -0,955
501,854; 5173,453;   -0,169;    1,227
502,439; 5075,908;   -0,624;   -1,773
503,024; 5157,297;    0,195;    0,500
503,610; 5219,011;   -0,078;   -0,682
504,195; 5166,908;    0,558;    1,955
504,780; 5306,427;    2,922;    1,227
505,366; 5279,465;    3,013;    2,864
505,951; 5047,961;    0,740;    1,045
506,536; 5090,104;   -3,260;   -3,682
507,121; 5045,831;    0,285;   -0,318
507,706; 5345,038;    2,376;    1,045
508,291; 5515,000;    2,649;    1,136
508,876; 5149,067;   -0,988;    2,591
509,461; 4851,248;   -0,169;   -0,773
510,046; 5136,559;    0,194;    0,318
510,631; 5285,442;   -0,351;   -0,773
511,216; 5060,520;    2,467;   -0,500
511,801; 5350,117;   -0,442;    2,591
512,386; 5455,832;    0,740;    0,500
512,971; 5413,378;   -2,988;    0,955
513,555; 5180,261;   -0,897;   -1,500
514,140; 5622,183;   -0,442;   -3,136
514,725; 5577,327;   -0,715;   -1,136
515,309; 5615,547;   -0,533;    0,318
515,894; 5362,495;   -0,624;   -2,227
516,479; 5607,885;   -0,624;   -0,955
517,063; 5441,989;    0,376;    1,227
517,648; 5563,963;    1,012;   -1,136
518,232; 5230,432;   -0,261;   -1,409
518,817; 5508,861;   -0,079;    1,682
519,401; 5726,886;    2,194;    0,591
519,985; 5286,938;    1,103;    1,136
520,570; 5224,471;    0,830;   -1,955
521,154; 5454,640;    2,102;    0,591
521,738; 5605,096;   -2,352;    2,409
522,323; 5973,588;   -0,170;    1,682
522,907; 5708,511;    0,466;   -0,136
523,491; 5529,356;    0,557;    0,955
524,075; 5492,148;    2,284;    0,591
524,659; 5591,043;    1,466;    0,591
525,243; 5289,303;    1,739;    0,409
525,827; 5381,083;    0,648;   -0,045
526,411; 5867,225;   -1,989;   -0,136
526,995; 6044,057;   -0,352;    1,409
527,579; 5797,772;   -0,443;   -1,045
528,163; 5932,318;    0,375;   -1,500
528,747; 5977,123;    2,466;   -0,773
529,331; 6119,759;   -0,080;   -1,409
529,915; 6117,682;    1,738;    0,955
530,499; 6106,851;   -0,807;    1,227
531,082; 5955,149;   -0,534;    1,591
531,666; 5654,163;    1,374;    0,773
532,250; 6008,097;    1,284;    2,682
532,833; 6202,682;    0,920;    2,773
533,417; 6066,410;   -1,807;    0,864
534,001; 6008,436;    1,647;   -0,318
534,584; 6472,268;    0,374;    0,500
535,168; 6298,826;    0,465;    1,409
535,751; 6384,215;    0,647;    0,045
536,334; 5941,657;   -0,898;   -0,409
536,918; 6330,098;    0,011;    1,591
537,501; 6342,190;   -0,899;    1,318
538,085; 6353,008;   -0,444;    1,045
538,668; 6367,346;    0,829;    2,409
539,251; 6712,229;    1,829;    3,773
539,834; 6671,891;    0,101;    0,773
540,418; 6694,450;   -1,990;    4,318
541,001; 6707,853;   -0,990;    1,773
541,584; 6643,763;    2,101;    2,227
542,167; 6422,619;    1,374;    2,955
542,750; 6407,165;    1,919;   -0,773
543,333; 6079,166;    0,555;    2,136
543,916; 6664,503;    0,192;    2,500
544,499; 6912,971;   -1,354;    0,227
545,082; 6953,257;    1,374;    3,591
545,665; 6992,867;    1,919;    1,500
546,248; 7141,166;    1,010;   -0,318
546,830; 6923,504;   -0,445;    1,955
547,413; 7233,751;    1,010;   -0,773
547,996; 7594,154;    0,555;    0,500
548,579; 7291,077;    0,919;    0,955
549,161; 7154,271;    1,828;    2,682
549,744; 6964,194;   -0,809;    0,409
550,326; 7344,727;   -0,809;   -1,136
550,909; 7293,987;    2,737;    0,591
551,492; 7528,038;   -0,263;    0,227
552,074; 7382,675;   -0,173;   -1,318
552,657; 7771,974;    2,373;    0,045
553,239; 7598,896;   -0,173;   -0,773
553,821; 7497,389;   -1,082;    1,045
554,404; 7165,467;    1,282;    1,136
554,986; 7416,117;    0,464;    1,045
555,568; 7767,585;    1,191;   -0,955
556,151; 7360,741;    1,191;   -0,227
556,733; 7410,740;   -0,264;   -0,864
557,315; 7685,897;    0,100;    0,500
557,897; 7395,365;    0,554;   -0,500
558,479; 7491,001;   -1,991;    1,318
559,061; 7640,262;   -0,719;   -0,864
559,643; 7881,612;   -0,264;    0,045
560,225; 8000,416;    1,645;    2,864
560,807; 8012,066;    0,918;    0,318
561,389; 7695,015;    0,554;    2,318
561,971; 8098,042;    0,463;    2,136
562,553; 8034,314;   -1,628;    1,591
563,135; 8114,482;   -0,537;    1,136
563,717; 7866,703;    3,372;    1,136
564,298; 8226,015;    3,645;   -0,045
564,880; 7978,952;    0,645;   -1,409
565,462; 7996,042;    0,645;    1,318
566,043; 8766,496;   -0,446;    2,318
566,625; 8423,639;    1,918;    1,227
567,207; 8269,159;    1,099;    1,682
567,788; 8851,990;   -1,264;    1,500
568,370; 9331,861;    1,917;   -0,500
568,951; 9030,705;    0,190;    0,227
569,533; 9556,316;   -0,628;   -0,500
570,114; 9821,405;   -0,446;    0,682
570,695;10057,290;   -0,174;   -1,318
571,277;10084,848;   -0,265;   -1,682
571,858;10551,744;    2,008;   -1,136
572,439;10940,315;    1,554;   -1,045
573,021;10943,031;    2,099;   -2,773
573,602;11230,433;   -1,265;    0,318
574,183;11734,564;   -2,083;    2,227
574,764;11630,343;   -1,629;    0,409
575,345;11820,135;    0,917;   -0,136
575,926;12076,524;   -0,356;    0,136
576,507;12107,213;    1,099;   -0,227
577,088;12761,381;    3,099;    1,682
577,669;12788,109;    0,735;    1,955
578,250;13267,109;    0,644;   -1,045
578,831;13418,785;   -1,356;   -2,227
579,412;13397,720;   -0,810;    0,955
579,993;14021,460;    1,008;    0,227
580,573;14163,967;   -0,629;   -0,955
581,154;13361,434;    0,735;   -0,591
581,735;14040,148;    0,644;    0,773
582,315;13609,512;   -0,629;    2,136
582,896;13805,797;   -0,174;    1,227
583,477;13409,279;    0,189;    1,227
584,057;13638,992;    0,553;    0,955
584,638;13839,278;    2,553;    2,318
585,218;13880,551;   -0,538;    2,682
585,799;13943,252;    0,281;   -0,227
586,379;13922,563;    0,372;    1,591
586,959;13227,317;    0,735;    0,318
587,540;12892,175;   -0,629;    2,227
588,120;12663,280;    1,007;   -0,045
588,700;12199,578;    2,553;    2,136
589,281;12565,031;    0,462;   -0,955
589,861;12447,733;    0,099;   -1,682
590,441;12310,200;    2,371;   -2,682
591,021;11629,330;   -0,265;   -2,591
591,601;11904,667;   -0,537;    0,500
592,181;12057,706;   -0,719;   -0,773
592,761;11500,942;    0,007;    1,409
593,341;11566,538;   -0,901;    0,045
593,921;11550,187;   -0,265;    1,591
594,501;11489,966;   -0,538;    1,318
595,081;11325,122;    0,917;   -0,318
595,661;11713,356;   -1,447;    0,955
596,240;12029,044;   -0,537;    0,136
596,820;11689,316;    0,372;    1,955
597,400;11599,434;    2,008;    0,773
597,980;11831,381;    2,008;    1,045
598,559;11862,953;    2,735;   -0,227
599,139;11740,278;   -0,174;   -1,227
599,718;11583,278;   -0,174;   -0,409
600,298;11859,148;    0,735;    0,682
600,877;12129,952;    2,917;    1,409
601,457;12249,588;    2,281;    1,136
602,036;12195,355;    0,190;    2,045
602,616;12201,978;    0,644;    1,682
603,195;12462,731;   -0,355;    3,500
603,774;12091,043;   -0,901;    2,045
604,354;11978,199;    0,826;   -0,500
604,933;11761,277;    0,463;    1,864
605,512;11898,121;    3,554;    0,591
606,091;11971,900;   -0,537;    3,773
606,671;12493,523;    0,281;    0,773
607,250;11985,783;    1,644;    3,136
607,829;12102,159;    2,372;    3,227
608,408;11968,809;    1,190;    2,591
608,987;11348,418;    1,281;    3,409
609,566;11478,576;   -1,265;   -2,500
610,145;11666,470;   -1,082;    0,682
610,723;12031,639;    4,372;    6,864
611,302;11420,613;   -0,446;    1,682
611,881;11055,288;    5,008;   11,227
612,460;11605,756;    1,645;    3,955
613,039;11939,716;   -0,082;    2,045
613,617;11032,328;    1,736;    4,773
614,196;11144,405;    1,099;    1,227
614,775;11482,807;    1,009;    2,409
615,353;11401,729;    0,736;    0,864
615,932;11329,924;    0,100;    2,409
616,510;11752,768;    0,554;    0,591
617,089;11547,301;    7,100;   17,591
617,667;11410,326;    2,372;    6,136
618,246;11229,962;   -1,537;    1,318
618,824;11346,378;   -3,355;   -0,955
619,402;10985,326;   -2,900;   -1,773
619,981;11374,365;   -0,173;   -1,045
620,559;11317,819;    0,009;    1,682
621,137;11046,495;   -0,718;    1,864
621,715;10926,482;   -1,173;   -0,682
622,293;10879,533;   -0,537;   -0,773
622,871;11330,806;   -0,718;    0,500
623,450;11032,728;    0,373;   -0,864
624,028;11004,975;    0,191;   -0,955
624,606;10722,741;   -1,718;    1,682
625,183;10946,364;   -1,536;   -1,136
625,761;10769,779;    1,009;    1,136
626,339;11080,286;    1,373;    2,591
626,917;11252,597;   -0,172;   -0,045
627,495;11283,454;   -0,354;    1,318
628,073;10879,246;   -0,263;    2,864
628,650;10678,078;    0,100;    2,136
629,228;10970,403;    0,373;    4,409
629,806;10522,519;    2,282;    1,136
630,383;10721,753;    1,464;   -0,318
630,961;10703,987;    2,555;   -0,955
631,539;10495,207;    2,464;    0,227
632,116;10231,714;   11,373;   15,409
632,694;10544,012;    2,555;    6,500
633,271;10564,323;    0,828;    2,682
633,848;10655,778;    1,828;    2,045
634,426;10623,011;   -1,081;    1,773
635,003;10085,776;    1,101;   -0,409
635,580;10294,984;    1,192;    3,682
636,158;10621,335;    3,737;    1,227
636,735;10584,063;    0,555;   -0,500
637,312;10627,324;   -0,809;   -0,682
637,889;10688,712;   -4,354;   -0,682
638,466;10431,023;   -3,990;   -0,409
639,043;10422,541;    2,101;   -1,136
639,620;10521,853;   -2,262;   -0,955
640,197;10737,403;    1,100;    1,682
640,774;10918,955;   -0,172;    1,136
641,351;11133,416;    0,737;    1,136
641,928;10864,241;   -0,627;    1,409
642,505;10644,793;    0,828;   -0,500
643,082;10739,708;   -1,718;    1,227
643,658;10041,260;   -0,718;    1,500
644,235;10474,267;    1,191;    2,500
644,812;10619,455;    1,918;    0,773
645,388;10487,916;   -0,991;    1,409
645,965;10490,377;   -0,809;    1,682
646,542;10588,656;   -1,445;   -0,227
647,118;10728,663;    1,009;   -0,955
647,695;10831,124;   -0,263;    1,136
648,271;10765,494;   -0,536;    0,500
648,848;10901,319;    0,736;    2,227
649,424;10836,507;    0,827;    1,318
650,000;10523,059;   -0,354;   -1,045
650,577;10491,520;   -0,627;   -0,955
651,153;10753,617;   -1,809;    0,955
651,729;11320,260;    1,191;    0,864
652,305;11554,903;    0,645;    2,773
652,881;13768,091;   -0,082;    1,136
653,458;16750,643;    1,100;    0,227
654,034;18008,286;    0,282;    1,591
654,610;18422,020;    0,554;    0,773
655,186;19266,572;    0,645;    3,045
655,762;18877,942;   -0,991;    0,409
656,338;18911,494;    0,100;    0,136
656,913;19641,227;   -0,082;    0,409
657,489;19131,325;    0,827;   -0,318
658,065;19213,968;   -0,173;   -1,591
658,641;19846,247;   -0,900;   -0,864
659,217;19337,253;   -0,991;    0,409
659,792;18864,896;    0,645;   -0,409
660,368;19138,357;   -2,173;   -0,682
660,944;19225,636;   -2,082;    1,227
661,519;16656,006;   -0,628;    0,409
662,095;13938,195;   -1,719;    0,591
662,670;12018,383;    1,281;   -0,136
663,246;11765,208;    1,009;   -0,409
663,821;11523,123;    0,281;    1,682
664,396;11064,130;    0,009;    1,864
664,972;11253,045;    0,009;   -0,500
665,547;11517,870;    1,372;    0,136
666,122;11527,695;   -1,082;    0,318
666,698;11686,065;   -0,173;    0,318
667,273;11131,344;   -0,173;    0,136
667,848;11708,441;    2,372;    1,500
668,423;11562,448;    2,190;    2,318
668,998;11770,818;    2,827;   -0,682
669,573;12128,824;   -3,264;   -1,500
670,148;12076,831;   -1,446;   -0,682
670,723;11745,019;   -1,810;    0,318
671,298;12074,935;    2,372;    1,045
671,873;12058,214;   -0,082;   -0,136
672,448;12013,584;    0,645;    0,136
673,023;12237,136;   -1,992;   -0,227
673,597;12529,415;    0,827;    2,318
674,172;12418,876;   -0,355;    0,318
674,747;12054,973;    0,372;   -1,045
675,321;11791,525;   -0,628;    3,318
675,896;11541,350;    0,645;    1,045
676,471;12193,175;    2,645;    1,591
677,045;11991,545;   -1,264;    0,682
677,620;11939,551;    0,190;    1,136
678,194;12222,921;   -2,628;    1,136
678,769;12021,201;   -1,083;   -0,318
679,343;12257,753;   -0,628;    1,773
679,917;12145,032;   -1,446;    1,955
680,492;12037,311;    0,826;    3,227
681,066;12114,226;    3,372;    0,409
681,640;12192,051;    1,463;   -0,318
682,214;12741,694;    0,735;    0,500
682,788;12395,700;   -1,356;   -0,773
683,363;12277,707;   -1,810;    1,682
683,937;12080,532;   -1,719;   -0,318
684,511;12582,538;    0,463;   -0,591
685,085;12411,635;   -1,356;    0,318
685,659;12144,369;   -2,538;    0,864
686,232;12425,739;   -0,356;   -0,318
686,806;12196,837;   -0,901;    0,409
687,380;12594,479;   -0,174;    0,591
687,954;12792,031;   -1,174;    1,136
688,528;12518,129;   -0,719;    1,955
689,101;13051,226;   -3,992;    1,045
689,675;12736,778;   -0,356;   -0,136
690,249;12305,330;   -0,719;    0,409
690,822;12625,609;    0,280;    0,318
691,396;12713,888;   -0,265;    1,227
691,969;12298,804;    1,280;    0,136
692,543;12683,901;   -0,447;   -1,955
693,116;12396,453;   -0,265;   -1,409
693,690;12312,460;    0,099;    0,500
694,263;12715,557;   -1,083;    2,955
694,836;12770,291;    1,371;    3,591
695,410;11824,661;   -0,265;    1,773
695,983;12126,031;    0,189;    0,591
696,556;12083,765;   -0,447;   -1,045
697,129;12337,044;   -0,356;    1,409
697,703;12109,505;   -1,629;    1,955
698,276;12133,875;    1,462;   -0,773
698,849;12027,791;    1,280;    1,409
699,422;12232,615;   -1,083;    0,591
699,995;12089,531;    0,007;    0,136
700,568;12385,719;   -0,629;    3,045
701,140;12365,817;   -2,811;    1,682
701,713;12262,914;   -0,174;    2,409
702,286;12103,557;   -0,538;    0,864
702,859;11922,563;   -0,902;   -0,591
703,432;11500,842;    0,825;    0,682
704,004;11782,940;    0,462;    0,318
704,577;11647,037;   -0,629;    0,136
705,150;12019,044;    0,189;    2,500
705,722;11929,414;   -0,356;   -3,227
706,295;11823,875;   -0,175;   -0,591
706,867;11723,336;   -0,175;    1,955
707,440;11915,342;   -1,720;   -0,409
708,012;12106,167;    0,462;    0,591
708,584;11994,264;    2,462;    0,227
709,157;12151,907;    1,825;   -0,591
709,729;12025,459;    2,280;    2,045
710,301;12628,284;    0,734;    0,045
710,874;12582,927;   -1,447;   -0,227
711,446;11708,206;    0,371;    0,864
712,018;11624,394;    0,098;    0,500
712,590;11487,219;   -1,993;    1,682
713,162;11896,680;    0,825;    1,318
713,734;12047,777;    1,825;   -2,045
714,306;11988,147;   -1,902;   -0,409
714,878;11137,336;    0,825;    0,864
715,450;11784,251;    0,643;    0,864
716,022;11939,985;    1,552;    1,318
716,593;12089,355;    0,189;    0,591
717,165;12038,089;   -3,175;   -1,227
717,737;11874,459;    0,280;    0,409
718,309;11654,465;    0,280;   -0,045
718,880;11604,472;   -0,539;   -1,409
719,452;11798,115;   -0,175;   -1,591
720,024;11589,939;    0,734;   -0,591
720,595;11957,855;   -2,902;    0,955
721,167;11653,134;    0,370;   -2,045
721,738;11312,140;   -0,812;   -1,045
722,309;11423,329;   -0,993;   -1,227
722,881;11228,426;   -1,357;    0,773
723,452;11612,433;   -2,630;    2,864
724,023;11814,530;   -0,721;    2,682
724,595;11649,809;    0,007;    0,682
725,166;11399,179;    0,007;   -0,409
725,737;11207,004;    1,734;    0,227
726,308;11330,556;   -0,266;    0,318
726,879;11527,380;   -1,630;    1,227
727,450;11411,478;    0,552;   -0,045
728,021;11335,848;    3,097;    0,682
728,592;11263,854;    0,734;    0,500
729,163;11584,952;    0,643;   -0,136
729,734;11532,049;    0,188;   -0,227
730,305;11773,692;    1,734;    0,136
730,876;11949,608;    0,188;    2,955
731,447;11828,069;    2,188;    2,682
732,017;11869,348;    1,097;    1,864
732,588;11554,718;    0,734;    1,227
733,159;11639,906;    0,643;   -1,045
733,729;11455,458;    0,006;    0,409
734,300;11038,828;    0,915;    0,864
734,870;11290,562;    3,461;    0,591
735,441;11663,841;    0,370;   -0,591
736,011;11529,484;    0,643;   -1,591
736,582;11446,490;   -0,812;    0,045
737,152;10987,497;   -1,721;   -2,045
737,722;11415,594;   -0,267;   -0,682
738,293;11142,510;   -1,358;    1,318
738,863;11142,425;    2,461;    2,318
739,433;11150,250;    5,279;    0,318
740,003;11566,257;   -0,994;   -0,682
740,573;11175,808;    2,097;   -1,591
741,143;11189,451;   -1,085;    0,318
741,713;11634,821;    1,188;   -0,500
742,283;11497,192;    0,915;    1,591
742,853;11357,107;    1,915;    1,591
743,423;10973,386;    1,733;    0,045
743,993;10996,211;   -0,358;    1,500
744,563;10627,127;    0,097;   -0,864
745,133;10633,497;   -0,812;   -0,864
745,702;11123,503;   -0,267;    1,773
746,272;10564,782;   -0,176;    0,591
746,842;10538,061;   -1,358;   -0,591
747,411;10832,886;   -0,267;   -0,318
747,981;10858,802;    0,097;    0,500
748,551;10899,990;    2,278;   -1,045
749,120;10822,178;    0,642;   -0,227
749,690;11099,276;   -0,631;    2,409
750,259;11315,373;    1,369;    2,955
750,828;11178,289;    1,551;   -1,955
751,398;11343,386;    1,278;   -0,045
751,967;11076,483;    2,187;    0,409
752,536;11208,399;   -0,813;   -0,227
753,105;11532,587;    0,096;    0,227
753,675;11278,594;    0,096;    1,773
754,244;11200,237;   -0,904;    3,591
754,813;11246,152;    0,551;    1,227
755,382;10909,977;    0,460;    0,955
755,951;11209,074;    1,551;    3,682
756,520;11014,990;   -0,085;    1,864
757,089;11449,814;    0,278;    0,500
757,658;11423,366;    1,733;    1,227
758,227;11429,918;    1,096;    0,318
758,795;11577,288;    1,187;    1,136
759,364;11834,658;   -0,086;   -0,591
759,933;11114,483;   -1,176;   -0,045
760,501;10823,126;    0,733;   -1,318
761,070;11119,314;   -2,813;   -1,409
761,639;11686,684;   -1,904;    1,318
762,207;11149,691;    1,551;   -0,955
762,776;11112,515;    0,369;    0,864
763,344;11118,067;   -0,995;    0,591
763,913;10270,710;   -0,722;    1,409
764,481;11011,444;    1,005;   -0,136
765,049;10942,814;   -1,358;    1,409
765,618;10860,548;   -0,086;    0,318
766,186;10930,736;    0,278;    0,136
766,754;11102,197;    0,005;    1,864
767,322;10386,204;   -1,995;    0,409
767,890;10339,210;   -0,722;   -1,773
768,459;10783,398;   -2,177;   -0,318
769,027;10868,223;    1,641;    3,409
769,595;10160,229;    3,278;    2,591
770,163;10472,600;    3,823;    2,955
770,730;10361,333;    0,732;   -0,136
771,298;10236,612;    0,187;   -1,409
771,866;10330,892;   -1,541;    4,955
772,434;10553,262;   -0,631;   -1,864
773,002;10753,996;    0,005;    0,682
773,569;10522,820;    0,914;    1,682
774,137;10349,827;   -0,268;   -0,045
774,705;10911,015;    0,278;   -0,136
775,272;10580,476;    0,641;    0,682
775,840;10589,301;   -0,177;    2,682
776,407;10173,125;    0,277;    1,955
776,975; 9831,586;   -0,632;    0,318
777,542;10580,138;   -1,086;   -0,045
778,110;10518,508;   -1,268;   -0,045
778,677;10197,424;   -2,359;   -0,864
779,244;10091,248;    2,186;    1,045
779,812;10224,073;    1,823;    0,864
780,379;10093,625;    0,005;    1,136
780,946;10248,632;    1,005;   -0,773
781,513;10457,547;   -1,450;    0,318
782,080;10021,826;   -0,086;    2,864
782,647;10516,015;   -0,268;    3,045
783,214;10291,476;   -0,177;    3,864
783,781;10061,482;   -0,723;   -0,682
784,348; 9999,852;   -0,632;    1,500
784,915;10244,495;   -3,177;    0,318
785,482;10136,956;    1,368;    2,591
786,049;10500,053;    0,186;   -0,591
786,615;10578,151;    0,277;   -0,955
787,182;10332,430;    0,186;   -0,682
787,749;10139,618;   -2,814;    1,409
788,315; 9675,443;   -1,632;   -0,409
788,882; 9942,722;    1,550;   -1,227
789,448;10466,365;    1,732;   -0,955
790,015;10443,008;    1,095;    3,227
790,581;10140,196;    1,459;    0,227
791,148;10004,748;    0,641;    1,045
791,714;10205,936;   -0,541;    3,136
792,280;10023,306;    0,186;    1,591
792,847; 9813,495;    0,550;    2,500
793,413;10046,228;   -0,269;   -0,318
793,979; 9850,871;    3,459;   -1,318
794,545; 9992,060;    4,459;    2,682
795,111; 9582,793;    2,186;    1,318
795,678; 9667,891;    0,731;   -1,682
796,244; 9493,897;    3,368;    0,136
796,810; 9859,449;    1,731;    0,773
797,375; 9672,365;    0,549;   -2,136
797,941; 9608,917;   -0,541;    0,591
798,507; 9657,923;   -0,451;   -0,955
799,073; 9404,475;   -0,360;    0,591
799,639; 9515,572;   -2,632;    3,136
800,205; 9498,124;    0,095;    2,682
800,770; 9239,313;    0,640;    1,773
801,336; 9213,228;    1,368;   -0,955
801,901; 9205,326;    4,549;    3,136
802,467; 9615,241;   -0,542;    2,045
803,033; 9043,611;   -0,087;    0,864
803,598; 9188,254;    1,913;   -1,045
804,163; 9259,442;    1,095;   -0,318
804,729; 9262,267;   -0,178;    1,136
805,294; 9457,728;    0,822;    2,227
805,859; 9313,280;    0,731;   -0,409
806,425; 9148,377;    1,186;    2,682
806,990; 8886,293;    2,186;    4,318
807,555; 9088,027;   -1,451;    2,591
808,120; 9118,397;    0,822;   -0,409
808,685; 9120,040;    0,185;   -2,500
809,250; 8809,591;    0,004;   -0,500
809,815; 8969,598;    1,913;    0,682
810,380; 9357,332;   -0,269;    1,591
810,945; 9707,884;   -1,087;    2,045
811,510; 9219,981;    2,094;    1,591
812,075; 8934,533;   -0,633;   -1,409
812,640; 9021,994;    2,003;    1,409
813,204; 9107,273;    0,822;   -0,227
813,769; 9464,734;    2,094;   -0,045
814,334; 9106,195;    0,458;    0,864
814,898; 9136,747;    0,367;    0,591
815,463; 8919,117;    1,276;   -0,773
816,027; 8934,396;   -0,724;   -2,318
816,592; 9098,312;    0,640;   -2,045
817,156; 8782,773;    2,094;    1,136
817,721; 8763,325;    4,276;    2,318
818,285; 8767,240;    2,912;    1,500
818,849; 9163,247;   -1,451;    1,682
819,414; 9007,344;   -0,269;    2,955
819,978; 8738,714;   -1,269;    1,773
820,542; 9240,084;    2,003;    0,500
821,106; 9039,000;   -0,815;    0,682
821,670; 9109,643;   -0,815;    2,591
822,234; 8851,286;   -0,270;    1,409
822,798; 8493,110;    0,003;    0,500
823,362; 8664,299;   -0,633;    4,227
823,926; 8227,487;    0,094;    1,136
824,490; 8385,857;   -0,997;   -0,682
825,054; 8636,500;   -0,088;   -1,136
825,618; 8488,234;   -1,542;   -1,500
826,181; 8415,604;    0,458;   -1,318
826,745; 8330,428;    1,367;   -1,045
827,309; 8623,980;    1,185;    1,318
827,872; 8252,987;    1,367;    0,955
828,436; 8885,266;    1,185;   -0,773
828,999; 9000,000;   -0,997;    1,227
829,563; 8296,643;   -0,179;    1,136
830,126; 8160,013;   -0,179;   -0,591
830,690; 8225,746;   -1,997;    2,864
831,253; 7798,571;   -0,543;    2,227
831,816; 7979,487;   -1,906;    0,500
832,380; 7903,948;    0,185;    0,864
832,943; 8104,227;   -1,361;   -0,500
833,506; 7786,142;    2,639;   -1,227
834,069; 8333,058;    3,912;   -0,955
834,632; 8411,428;    1,730;    1,318
835,195; 8316,435;    1,003;    0,955
835,758; 7813,986;   -0,997;    1,955
836,321; 7699,538;    0,730;   -1,045
836,884; 7836,727;   -0,725;   -0,955
837,447; 7869,733;   -2,816;    1,773
838,010; 8012,467;    0,366;    3,227
838,573; 8255,382;   -1,179;    0,773
839,135; 8259,025;   -1,361;   -0,955
839,698; 7871,577;    1,275;    0,409
840,261; 7560,856;    1,003;   -0,227
840,823; 7476,954;   -0,543;    0,864
841,386; 7673,415;   -0,452;   -2,409
841,948; 7746,876;   -1,361;    1,773
842,511; 7469,337;    0,912;    1,682
843,073; 7620,889;    1,912;    0,227
843,636; 7459,077;   -0,361;   -0,227
844,198; 7455,902;    0,911;    0,591
844,760; 7536,545;    1,093;    1,955
845,322; 7264,187;    0,548;    1,136
845,885; 7568,557;    0,730;    0,591
846,447; 7871,564;   -1,998;    0,227
847,009; 7707,752;    1,911;   -0,682
847,571; 7754,850;    0,820;   -2,045
848,133; 7825,765;   -1,089;   -1,864
848,695; 7716,044;   -0,543;    1,409
849,257; 7507,324;   -1,089;   -1,682
849,819; 7653,512;   -0,998;   -0,409
850,381; 7551,791;   -0,725;   -0,864
850,942; 7723,979;    1,093;   -0,591
851,504; 7718,168;    1,184;    0,227
852,066; 7754,356;    1,275;   -1,591
852,628; 7568,544;   -0,180;    1,955
853,189; 7146,551;    1,638;    2,682
853,751; 7316,739;   -0,907;    1,409
854,312; 7193,745;   -0,453;   -1,682
854,874; 7562,297;   -2,089;   -0,773
855,435; 7785,486;   -0,907;   -1,682
855,997; 7984,492;   -1,816;   -0,136
856,558; 7470,953;    0,366;    1,773
857,119; 7489,596;    0,820;    2,864
857,681; 7266,875;    0,002;    0,318
858,242; 7317,882;    1,911;   -2,136
858,803; 7672,888;    0,456;   -0,773
859,364; 8064,986;    0,184;   -4,773
859,925; 7676,537;   -2,453;   -0,955
860,486; 7581,998;   -0,453;   -0,955
861,047; 7336,005;   -0,544;   -1,227
861,608; 7264,102;   -1,089;   -0,773
862,169; 7433,109;    0,638;   -0,045
862,730; 7198,843;    0,456;    1,409
863,291; 7444,758;   -0,635;   -0,500
863,852; 7605,219;   -0,635;    1,955
864,412; 7268,680;   -0,271;   -0,864
864,973; 6465,868;   -0,089;    0,500
865,534; 6423,239;   -1,726;    0,227
866,094; 7289,972;    1,820;    0,227
866,655; 7093,251;    1,274;    3,318
867,215; 7332,349;    0,274;    0,136
867,776; 7218,173;    0,547;   -0,136
868,336; 7263,816;   -1,453;    0,136
868,897; 7101,550;    2,638;    1,682
869,457; 6920,557;    1,365;    0,318
870,017; 7092,108;    0,547;   -1,227
870,578; 7424,479;   -0,817;    0,773
871,138; 7028,667;   -2,089;   -0,955
871,698; 6728,401;   -0,817;   -1,318
872,258; 6667,862;   -0,453;   -2,864
872,818; 7054,414;    2,729;    0,045
873,378; 7020,875;    0,638;    1,045
873,938; 6689,881;    0,547;    0,500
874,498; 6863,433;    0,274;   -1,955
875,058; 6841,076;    2,183;    1,773
875,618; 6741,537;    1,910;   -2,682
876,177; 6710,180;    1,274;    0,136
876,737; 6456,732;   -0,090;    1,955
877,297; 6608,193;    0,183;    1,955
877,856; 6632,563;   -0,362;    0,318
878,416; 6539,933;    1,183;   -0,136
878,976; 6621,030;   -1,817;    0,409
879,535; 6798,946;    0,092;    3,136
880,095; 6686,498;   -0,544;    0,045
880,654; 6685,777;   -1,090;    1,318
881,213; 6852,874;    2,456;    1,500
881,773; 6556,790;    2,637;    2,682
882,332; 6979,524;    3,365;    5,136
882,891; 6765,257;    3,092;    2,136
883,451; 6994,082;   -1,272;    1,682
884,010; 6596,634;   -2,908;   -0,409
884,569; 6699,913;   -0,999;   -0,045
885,128; 6840,556;    2,819;   -1,864
885,687; 6957,017;    4,455;    0,682
886,246; 6834,114;    1,455;    2,136
886,805; 6543,757;    2,455;    2,045
887,364; 6613,036;   -0,999;   -0,500
887,922; 6849,770;   -1,181;    0,045
888,481; 6509,686;   -1,545;    0,591
889,040; 6759,692;    1,183;    2,136
889,599; 7080,517;    2,455;    1,409
890,157; 7144,341;    1,455;    2,409
890,716; 6781,621;   -0,090;    0,227
891,274; 6667,900;    0,092;   -1,136
891,833; 6983,815;    1,546;    0,864
892,391; 6810,004;   -0,454;    0,500
892,950; 6900,828;    1,819;   -0,773
893,508; 7139,744;    0,455;   -0,409
894,067; 6654,841;    0,637;    0,136
894,625; 6632,120;   -0,636;   -1,500
895,183; 6751,400;   -0,363;   -0,682
895,741; 6794,224;    1,728;   -1,773
896,299; 6641,685;   -0,545;   -2,409
896,858; 6714,237;    0,819;   -1,591
897,416; 6878,698;    2,728;   -1,318
897,974; 6745,523;    1,819;    0,318
898,532; 7000,075;    6,091;    2,682
899,089; 6844,263;    2,091;   -0,682
899,647; 6845,724;   -1,454;    1,318
900,205; 6814,549;    1,182;    1,045
900,763; 6879,646;   -0,454;    0,227
901,321; 6909,653;    2,364;   -1,409
901,878; 6468,750;   -1,000;   -0,773
902,436; 6469,302;   -1,363;    1,318
902,994; 6963,308;    4,728;    3,682
903,551; 6482,951;    0,728;    0,409
904,109; 6752,685;    0,182;   -1,409
904,666; 6529,146;    2,455;    1,045
905,224; 6377,062;    0,182;   -0,409
905,781; 6324,886;    0,727;   -0,318
906,338; 6328,256;   -1,363;    1,045
906,895; 6299,717;    0,637;    2,045
907,453; 6289,815;    1,727;    1,136
908,010; 6265,912;   -0,909;    0,409
908,567; 6085,191;    1,273;    0,591
909,124; 5719,561;    0,364;   -1,500
909,681; 5757,204;   -2,909;    0,682
910,238; 6026,211;    0,636;   -1,318
910,795; 6250,126;   -0,273;   -1,136
911,352; 5990,308;   -2,909;   -2,682
911,909; 5659,581;   -1,364;   -0,864
912,466; 6012,217;   -3,182;    1,500
913,022; 5665,672;   -1,636;    0,500
913,579; 5972,854;   -0,909;    2,045
914,136; 5804,854;    1,636;    0,955
914,692; 6024,126;    0,091;   -1,227
915,249; 5718,308;    1,455;    0,409
915,806; 5853,581;    0,182;    1,955
916,362; 5853,399;    1,909;    1,864
916,918; 5493,399;    2,000;    1,045
917,475; 5598,399;   -1,182;    0,955
918,031; 5552,308;    3,364;   -0,045
918,587; 5329,308;   -0,909;   -0,318
919,144; 5520,581;   -2,273;    0,227
919,700; 5611,672;    1,727;    0,773
920,256; 5348,763;    0,727;    0,045
920,812; 5177,854;   -0,727;   -1,045
921,368; 5264,672;   -1,727;   -1,045
921,924; 5046,581;    0,182;   -0,136
922,480; 4837,763;   -0,545;    1,227
923,036; 5230,035;    1,273;    1,955
923,592; 5204,944;    0,455;    0,318
924,148; 5188,944;    0,455;   -0,955
924,704; 4879,581;   -1,364;   -0,409
925,259; 5094,217;   -0,273;    0,591
925,815; 4918,763;    1,455;    0,500
926,371; 4632,763;    2,909;    1,409
926,926; 4637,126;    2,091;    0,591
927,482; 4477,399;   -1,364;    0,773
928,037; 4471,581;    0,909;    2,045
928,593; 4738,217;    1,636;    1,045
929,148; 4599,763;   -1,818;   -1,500
929,704; 4327,126;   -1,455;   -0,500
930,259; 4366,854;    0,091;   -0,136
930,814; 4020,308;   -0,818;    1,955
931,369; 3849,854;    1,091;   -0,773
931,925; 3768,035;   -0,091;    0,136
932,480; 3735,944;   -2,818;   -2,591
933,035; 3943,490;    0,545;   -0,318
933,590; 3772,490;    0,364;   -1,773
934,145; 3489,490;   -1,364;   -0,318
934,700; 3633,490;    0,455;   -0,591
935,255; 3605,944;   -0,091;    0,045
935,809; 3457,490;    3,182;    0,864
936,364; 2887,490;   -0,455;   -0,136
936,919; 2974,126;    0,455;   -1,773
937,474; 2903,035;    1,455;    0,136
938,028; 2812,763;   -1,636;    1,136
938,583; 2828,854;    1,818;    4,682
939,138; 2785,854;    2,091;    2,136
939,692; 2439,035;    1,636;   -1,136
940,247; 2335,672;   -0,727;   -1,045
940,801; 2298,399;   -0,636;    0,227
941,355; 2224,308;   -0,364;    2,591
941,910; 1971,126;   -0,273;   -2,136
942,464; 2083,490;   -0,818;   -0,318
943,018; 2217,944;    1,000;   -0,227
943,572; 2077,217;    2,545;   -0,682
944,126; 1894,944;    0,091;   -0,409
944,681; 1759,672;    3,091;    0,227
945,235; 1718,217;    1,000;   -0,591
945,789; 1674,308;    0,364;   -1,864
946,342; 2015,126;    0,455;   -0,591
946,896; 1690,399;   -2,273;    0,955
947,450; 1561,490;    1,545;   -0,227
948,004; 1885,490;    1,727;   -0,045
948,558; 1715,035;    0,273;   -0,864
949,111; 1651,944;   -0,273;   -0,318
949,665; 1900,944;    1,636;   -0,682
950,219; 1815,217;   -0,091;   -1,045
950,772; 1756,854;   -1,909;    1,864
951,326; 1729,490;    0,545;   -0,955
951,879; 1665,490;    0,727;   -2,318
952,433; 1792,399;    0,000;    2,227
952,986; 1596,217;    2,909;    0,682
953,539; 1518,490;   -0,273;    0,591
954,093; 1480,399;    0,545;   -1,318
954,646; 1663,035;    0,909;    1,318
955,199; 1501,035;    0,000;   -0,500
955,752; 1648,035;   -0,455;    1,773
956,305; 1508,854;   -0,091;    2,955
956,858; 1611,126;    0,818;   -0,318
957,411; 1729,035;   -0,545;    2,136
957,964; 1561,581;    1,364;    2,136
958,517; 1501,035;   -1,545;    3,136
959,070; 1414,126;   -0,455;    1,955
959,623; 1726,854;    1,091;    1,500
960,176; 1578,854;    1,727;    2,045
960,728; 1543,944;   -2,727;    0,773
961,281; 1532,944;    0,545;    0,500
961,834; 1475,490;   -0,909;    0,864
962,386; 1438,126;    1,727;    1,045
962,939; 1368,217;    0,364;   -0,318
963,491; 1454,672;    0,455;    1,136
964,043; 1365,490;    1,182;    2,409
964,596; 1560,854;   -1,000;    2,227
965,148; 1416,944;   -1,000;    1,773
965,700; 1323,035;    1,091;   -0,227
966,253; 1502,763;   -0,636;    0,318
966,805; 1430,763;   -2,273;    0,773
967,357; 1377,217;    1,091;   -1,500
967,909; 1474,944;    0,455;   -1,227
968,461; 1377,763;    0,545;    3,136
969,013; 1333,217;   -0,182;   -0,864
969,565; 1477,944;   -0,455;   -1,136
970,117; 1796,944;   -0,364;    1,045
970,669; 1453,763;    0,182;   -0,136
971,220; 1217,672;   -0,455;   -1,500
971,772; 1269,944;   -0,636;   -0,318
972,324; 1418,308;    0,091;   -0,500
972,876; 1305,308;    0,818;   -0,045
973,427; 1492,672;    1,909;   -1,045
973,979; 1526,672;   -0,727;   -2,500
974,530; 1317,308;    1,818;    1,318
975,082; 1372,399;   -0,545;    1,682
975,633; 1318,399;    1,091;    1,682
976,184; 1456,308;    0,909;    0,773
976,736; 1388,308;    0,091;    0,227
977,287; 1314,490;   -0,909;   -0,500
977,838; 1365,672;    0,909;   -0,318
978,389; 1387,035;   -1,000;   -0,500
978,940; 1199,399;    0,545;   -0,409
979,491; 1205,490;    0,091;   -0,500
980,042; 1286,308;    0,182;    3,045
980,593; 1273,763;   -2,545;    0,227
981,144; 1413,217;    2,545;   -0,500
981,695; 1492,944;    1,455;    1,500
982,246; 1411,035;   -0,273;    1,045
982,797; 1310,763;   -1,727;    0,682
983,347; 1489,672;    0,364;    0,591
983,898; 1740,944;    3,091;    0,409
984,449; 1638,399;    2,182;    0,773
984,999; 1400,217;    1,455;   -1,136
985,550; 1328,399;    0,182;   -0,318
986,100; 1184,944;   -0,455;   -0,318
986,651; 1176,672;   -0,818;    0,045
987,201; 1221,035;   -1,000;   -0,591
987,751; 1270,217;    0,818;    2,864
988,302; 1319,035;    2,636;    1,500
988,852; 1325,944;    0,455;   -1,136
989,402; 1455,581;    0,091;    0,682
989,952; 1446,854;   -2,182;    0,864
990,502; 1330,126;   -0,091;    0,682
991,052; 1216,490;   -0,727;    0,045
991,602; 1192,126;   -2,909;    1,318
992,152; 1274,035;    0,455;    0,682
992,702; 1284,035;    1,364;   -0,045
993,252; 1210,763;   -3,000;   -0,500
993,802; 1343,944;   -0,273;    1,318
994,352; 1384,308;   -1,545;    1,136
994,901; 1320,490;   -0,182;    3,227
995,451; 1294,672;   -0,182;    0,318
996,000; 1348,490;    1,636;    0,318
996,550; 1240,035;    2,273;    0,227
997,100; 1269,490;    1,273;   -0,045
997,649; 1512,308;    2,182;    0,955
998,198; 1226,581;    1,727;   -1,500
998,748; 1426,672;    1,091;   -2,318
999,297; 1290,308;   -0,818;   -0,409
999,846; 1461,399;    1,000;   -0,773
1000,395; 1378,944;   -0,818;    0,500
1000,945; 1494,672;    1,818;   -0,773
1001,494; 1525,854;    2,364;    0,682
1002,043; 1473,126;    4,636;    0,864
1002,592; 1230,854;   -1,091;    1,955
1003,141; 1318,399;   -0,455;   -0,682
1003,690; 1413,035;    1,727;    0,500
1004,238; 1314,126;    1,455;   -0,045
1004,787; 1086,672;    1,364;    1,227
1005,336; 1399,399;    0,364;    0,682
1005,885; 1358,399;    1,364;   -2,773
1006,433; 1371,672;    0,545;    0,955
1006,982; 1634,399;    0,455;    1,682
1007,531; 1430,399;   -1,818;   -0,227
1008,079; 1320,399;   -2,273;    0,500
1008,627; 1331,581;   -1,455;    0,409
1009,176; 1244,581;    0,000;   -1,955
1009,724; 1223,672;    1,091;    0,864
1010,273; 1426,490;    1,273;    0,500
1010,821; 1334,217;    0,091;    1,409
1011,369; 1193,672;   -1,364;    1,318
1011,917; 1210,126;   -1,364;   -0,591
1012,465; 1399,672;    1,273;   -1,591
1013,013; 1400,672;    2,091;   -1,682
1013,561; 1459,672;    0,455;   -0,773
1014,109; 1594,217;   -1,909;    1,682
1014,657; 1438,126;    0,364;    0,591
1015,205; 1361,035;    1,636;   -0,955
1015,753; 1305,854;   -0,545;   -1,409
1016,301; 1408,581;   -2,636;    3,045
1016,848; 1465,672;   -1,273;    0,409
1017,396; 1509,399;    2,545;    0,045
1017,944; 1536,672;    1,182;    1,864
1018,491; 1321,490;    0,273;    1,409
1019,039; 1724,308;    0,455;    0,591
1019,586; 1437,944;   -1,364;    1,682
1020,134; 1440,581;    0,455;    1,500
1020,681; 1519,126;    0,182;   -1,136
1021,228; 1411,944;    2,909;   -2,227
1021,776; 1337,581;    1,182;   -1,136
1022,323; 1650,854;    0,455;    0,773
1022,870; 1550,399;   -1,000;   -0,045
1023,417; 1585,490;    2,636;    1,864
1023,964; 1443,035;    2,636;    1,227
1024,511; 1403,399;    1,000;    0,773
1025,058; 1318,763;    3,182;   -0,045
1025,605; 1318,672;   -2,273;    3,136
1026,152; 1624,854;    1,727;   -0,591
1026,699; 1367,581;    1,818;    1,318
1027,245; 1382,308;   -0,091;    0,318
1027,792; 1406,763;   -1,000;    1,409
1028,339; 1580,490;    2,364;   -0,045
1028,885; 1409,854;    1,000;   -0,227
1029,432; 1337,672;   -0,091;    0,227
1029,978; 1480,944;   -1,000;   -1,591
1030,525; 1394,944;    1,000;    0,409
1031,071; 1371,854;   -1,364;    1,136
1031,618; 1720,581;    0,364;    1,682
1032,164; 1455,581;   -0,091;    3,045
1032,710; 1508,763;    1,636;   -1,500
1033,256; 1416,399;   -0,636;   -0,136
1033,803; 1286,126;   -0,545;    1,500
1034,349; 1085,217;   -1,364;    0,136
1034,895; 1181,581;    0,000;   -0,318
1035,441; 1236,399;   -0,818;    0,318
1035,987; 1288,035;   -2,364;   -0,682
1036,533; 1370,308;   -1,455;   -0,955
1037,078; 1625,217;    1,455;    1,682
1037,624; 1406,854;    2,455;   -0,955
1038,170; 1296,399;    0,455;   -0,318
1038,716; 1372,308;    1,636;   -0,409
1039,261; 1189,126;   -2,273;   -0,773
1039,807; 1177,581;   -0,091;    3,409
1040,352; 1269,672;   -1,909;   -0,318
1040,898; 1269,308;   -1,545;   -0,682
1041,443; 1153,035;   -1,455;   -2,591
1041,989; 1465,763;    1,091;    1,591
1042,534; 1211,672;   -0,364;    2,591
1043,079; 1142,217;    2,909;    0,955
1043,625; 1194,126;    1,818;    0,500
1044,170; 1246,763;   -1,364;    1,045
1044,715; 1519,672;    2,455;    0,955
1045,260; 1335,763;    2,182;   -0,955
1045,805; 1219,126;    1,182;   -0,591
1046,350; 1141,944;    1,364;   -0,409
1046,895; 1328,490;    2,909;    1,591
1047,440; 1339,763;    5,364;    0,409
1047,985; 1145,672;    2,818;   -0,955
1048,530; 1079,490;    1,545;    1,227
1049,074; 1182,763;    0,000;    0,318
1049,619; 1108,944;   -1,364;    1,955
1050,164; 1032,763;    0,455;    0,227
1050,708; 1109,944;   -0,455;    0,045
1051,253; 1505,035;    1,273;   -2,227
1051,797; 1212,944;    0,818;   -1,318
1052,342; 1034,399;   -1,182;    1,045
1052,886; 1141,399;    0,364;   -1,409
1053,430;  963,399;   -1,364;    0,136
1053,975; 1051,672;   -0,818;   -0,318
1054,519; 1081,672;   -0,727;    3,227
1055,063; 1178,672;    0,909;    1,318
1055,607; 1124,399;   -0,182;    0,227
1056,151; 1124,399;    2,909;    1,682
1056,695;  986,672;    2,273;   -1,136
1057,239; 1015,854;   -1,727;   -0,682
1057,783; 1072,217;    0,818;   -1,500
1058,327; 1121,399;    0,000;    1,409
1058,871; 1343,490;   -0,545;    1,318
1059,415; 1114,490;   -0,818;   -0,045
1059,958; 1377,217;    1,455;    2,591
1060,502; 1079,672;   -1,000;   -0,773
1061,046;  916,944;    0,364;   -0,955
1061,589;  869,035;   -3,000;   -1,136
1062,133;  812,399;   -1,273;    1,864
1062,676;  842,854;    1,182;    0,864
1063,220;  890,126;    1,091;    0,500
1063,763;  925,581;    0,909;    1,136
1064,306;  989,581;   -0,909;    1,864
1064,849;  940,399;   -0,909;    0,591
1065,393;  918,581;    2,000;   -1,500
1065,936;  966,399;    0,182;   -0,409
1066,479;  817,672;   -1,455;    1,318
1067,022;  851,035;   -0,273;   -0,227
1067,565;  794,035;   -0,091;   -1,318
1068,108;  774,944;    0,727;   -0,591
1068,651;  733,944;   -0,636;    1,409
1069,194;  720,217;   -0,455;   -1,682
1069,736;  763,854;   -1,273;    0,955
1070,279;  704,035;   -1,364;   -0,500
1070,822;  845,672;   -2,000;   -0,318
1071,364; 1002,944;   -0,364;    1,318
1071,907;  781,581;   -0,727;    3,227
1072,450;  591,308;    0,000;   -0,045
1072,992;  682,035;   -0,273;    3,136
1073,535;  841,581;    2,091;    2,136
1074,077;  659,399;   -0,727;    2,045
1074,619;  649,490;   -1,364;    0,591
1075,161;  700,399;   -1,091;    1,500
1075,704;  888,581;    1,545;    1,227
1076,246;  654,581;   -0,182;    0,682
1076,788;  559,854;   -0,364;    1,773
1077,330;  589,944;    1,273;    2,136
1077,872;  639,581;    0,909;    0,955
1078,414;  902,944;    2,727;    0,773
1078,956;  664,581;    1,273;   -0,227
1079,498;  908,763;    1,636;    0,318
1080,040;  658,763;    1,909;   -1,318
1080,581;  589,308;    1,636;   -0,318
1081,123;  497,763;    0,091;   -0,773
1081,665;  527,763;   -1,182;   -0,955
1082,206;  837,581;    1,364;   -0,500
1082,748;  714,581;    0,727;    2,045
1083,289;  560,854;   -2,000;    1,318
1083,831;  537,854;   -0,545;    0,227
1084,372;  599,854;    0,000;    0,591
1084,913;  596,126;    1,091;    0,864
1085,455;  517,217;   -1,909;   -2,045
1085,996;  535,763;   -2,273;    0,136
1086,537;  594,854;   -0,091;    0,864
1087,078;  592,581;   -0,909;   -2,136
1087,619;  648,672;   -1,273;    0,227
1088,160;  581,035;    0,000;    1,318
1088,701;  544,308;   -1,091;    0,682
1089,242;  515,126;    1,364;   -2,227
1089,783;  614,399;   -0,273;    1,409
1090,324;  584,944;    0,455;    0,682
1090,865;  468,581;    2,727;   -0,409
1091,405;  409,944;    0,727;    2,227
1091,946;  467,490;    0,182;   -0,955
1092,487;  389,490;    0,818;   -1,409
1093,027;  583,308;   -1,364;   -1,500
1093,568;  464,763;   -0,364;    1,227
1094,108;  555,581;    0,273;    1,773
1094,649;  488,854;   -1,182;    0,136
1095,189;  425,854;   -0,636;   -0,682
1095,729;  416,854;   -0,091;    0,955
1096,269;  389,944;    0,727;   -0,955
1096,810;  679,490;   -1,364;    0,500
1097,350;  561,217;    1,364;   -0,773
1097,890;  465,035;    0,364;    1,227
1098,430;  709,490;    2,364;    2,864
1098,970;  611,399;    2,182;    1,682
1099,510;  435,944;    0,545;   -2,318
1100,050;  395,672;    1,000;   -1,591
1100,589;  391,490;   -0,727;   -0,318
1101,129;  496,035;    0,818;   -0,955
1101,669;  646,854;    1,727;    2,136
1102,209;  489,308;   -0,091;    2,227
1102,748;  449,308;    0,000;    0,955
1103,288;  449,763;    1,273;   -1,227
1103,827;  460,944;    3,091;   -2,227
1104,367;  367,944;   -0,091;   -2,409
1104,906;  340,944;    1,364;   -1,136
1105,445;  426,399;    0,636;   -1,136
1105,985;  392,399;   -0,727;    1,500
1106,524;  415,126;   -1,727;   -0,682
1107,063;  398,490;   -2,727;    1,409
1107,602;  355,035;   -1,909;   -1,500
1108,141;  307,854;   -1,909;    1,500
1108,680;  425,490;   -3,455;   -0,591
1109,219;  365,126;   -0,909;   -0,500
1109,758;  349,854;    0,455;    0,682
1110,297;  340,763;    1,000;   -0,682
1110,836;  289,672;   -0,727;    0,955
1111,375;  420,581;   -2,545;    0,409
1111,913;  434,490;   -1,000;    0,773
1112,452;  384,944;   -0,273;    0,136
1112,991;  281,490;    1,091;    1,955
1113,529;  266,490;   -0,818;   -0,045
1114,068;  328,217;   -0,273;    2,955
1114,606;  249,308;   -0,364;   -0,955
1115,144;  389,308;   -1,273;    1,045
1115,683;  333,490;   -0,727;    0,318
1116,221;  372,126;   -0,455;   -0,864
1116,759;  302,672;    0,636;   -0,864
1117,297;  473,217;    0,000;    1,864
1117,836;  314,672;   -2,182;   -1,227
1118,374;  316,581;    0,182;   -0,682
1118,912;  287,217;    0,909;    2,682
1119,450;  283,126;    1,000;    0,864
1119,988;  305,672;    1,545;    2,136
1120,525;  718,126;    5,091;    3,318
1121,063;  454,126;    1,182;    1,864
1121,601;  297,854;   -0,909;   -1,227
1122,139;  258,217;   -0,727;   -2,045
1122,676;  438,308;   -0,727;    2,773
1123,214;  383,399;   -1,182;    4,409
1123,751;  226,399;    1,727;    2,227
1124,289;  314,672;   -0,091;   -0,409
1124,826;  229,854;    1,727;    0,227
1125,364;  153,763;    1,727;   -0,955
1125,901;  330,944;    1,182;    1,227
1126,438;  412,944;    0,818;    0,955
1126,975;  187,854;   -0,727;   -0,773
1127,513;  247,035;    0,273;    2,136
1128,050;  178,581;    1,636;   -0,682
1128,587;  253,581;    2,000;   -0,227
1129,124;  301,763;    0,091;    1,318
1129,661;  188,399;    0,273;    0,227
1130,198;  328,672;    1,636;    0,773
1130,734;  272,399;    0,182;    1,409
1131,271;  168,126;   -0,909;    0,864
1131,808;  304,854;    2,909;    3,045
1132,345;  208,490;    1,545;    0,318
1132,881;  106,126;   -1,545;   -1,864
1133,418;  226,217;    0,727;   -1,136
1133,954;  175,854;    2,455;   -2,682
1134,491;  232,490;    1,364;   -0,773
1135,027;  160,308;    2,364;    0,864
1135,564;  235,944;    0,273;    2,955
1136,100;  224,217;    0,364;    2,136
1136,636;  125,217;   -1,273;   -1,045
1137,172;  208,399;    0,000;   -1,045
1137,708;  155,490;   -1,364;   -1,045
1138,245;  147,308;    1,273;   -1,227
1138,781;  113,217;    1,091;   -3,318
1139,317;  168,035;    1,273;   -1,409
1139,852;  166,035;    3,091;    0,136
1140,388;  249,126;   -1,182;   -0,409
1140,924;  163,217;   -1,091;   -2,227
1141,460;  116,217;   -1,636;    0,136
1141,996;   70,126;   -1,364;    2,682
1142,531;  106,854;    1,364;    3,318
1143,067;  269,672;    1,182;    1,045
1143,602;  325,126;   -0,091;   -0,318
1144,138;  197,490;   -2,636;    1,045
1144,673;   99,035;   -1,455;    1,409
1145,209;  150,126;   -1,909;   -0,318
1145,744;   90,944;   -0,727;    0,864
1146,279;  190,490;    1,818;   -0,136
1146,815;  128,217;    1,545;   -2,682
1147,350;  161,399;   -1,364;    0,045
1147,885;   89,217;   -0,818;   -1,318
1148,420;  102,581;   -2,273;    0,773
1148,955;   90,308;   -1,727;    1,864
1149,490;  104,581;   -0,909;   -1,591
1150,025;   88,763;    0,455;   -1,773
1150,560;  170,763;    1,091;   -0,955
1151,094;  147,763;    1,455;   -0,591
1151,629;  155,672;    1,636;    0,864
1152,164;  104,217;    1,364;    1,318
1152,698;   76,126;   -0,182;   -0,136
1153,233;   39,672;    0,091;   -0,682
1153,767;   77,217;   -3,000;   -2,318
1154,302;  112,672;   -1,455;    1,773
1154,836;  114,126;   -0,455;   -2,136
1155,371;  151,035;   -1,364;    3,682
1155,905;  111,854;   -0,636;    1,682
1156,439;   95,854;   -0,636;   -0,500
1156,973;  119,581;    0,364;    0,318
1157,507;   74,308;   -0,364;    0,682
1158,042;   87,490;   -0,727;    1,045
1158,576;  131,581;    0,182;    1,773
1159,110;  127,308;   -0,818;    2,409
1159,643;   99,672;    0,636;   -0,045
1160,177;   53,854;   -1,545;    1,500

