
Integration time [ms]:   0,040
Averaging Nr. [scans]: 11
Smoothing Nr. [pixels]: 0
Data measured with spectrometer [name]: 7318044SP
Wave   ;Sample   ;Dark     ;Reference
[nm]   ;[counts] ;[counts] ;[counts] 

186,757;   10,898;   31,551;    1,318
187,357;   48,463;   22,551;    0,955
187,958;   22,290;   15,460;   -1,591
188,558;   65,514;    8,915;   -1,227
189,159;   34,586;    6,733;   -4,500
189,759;    3,905;    7,278;   -3,591
190,360;   -6,496;    2,824;   -2,136
190,960;   29,115;    2,915;   -4,136
191,560;   50,105;    3,189;   -6,591
192,161;  293,329;    4,372;   -3,500
192,761;  136,556;    4,010;   -3,227
193,361;   69,024;    1,556;   -3,773
193,962;  100,866;    2,010;   -2,682
194,562;   29,445;    1,189;   -3,955
195,162;   53,526;   -2,448;   -2,227
195,762;  191,916;   -3,176;   -0,045
196,362;  138,316;    1,370;   -2,500
196,963;   26,986;    2,006;   -0,864
197,563;   85,979;    1,551;   -0,955
198,163;   30,385;    0,096;   -0,682
198,763;   41,602;    1,733;   -0,500
199,363;  115,327;    3,096;   -0,500
199,963;   81,032;    0,369;    0,409
200,563;   65,841;    2,823;   -1,409
201,163;   32,590;    3,277;   -0,227
201,763;   96,083;    3,732;    0,318
202,363;   50,599;    1,459;    1,500
202,963;  113,019;    1,459;    1,045
203,563;  194,663;    0,277;    0,500
204,162;   80,706;    2,096;   -1,864
204,762;   76,346;    0,550;    0,591
205,362;   37,312;    3,004;    1,955
205,962;  106,398;    3,096;    1,955
206,562;   99,796;    1,823;    2,318
207,161;   60,974;   -0,087;    0,318
207,761;  207,739;    1,277;    2,409
208,361;  100,909;   -0,268;    1,409
208,960;  155,992;    0,459;    1,500
209,560;  184,468;    1,277;    1,591
210,160;  183,774;    0,550;    1,864
210,759;  148,065;    4,186;    1,227
211,359;  143,901;    1,459;    1,045
211,958;  352,533;    1,277;    2,045
212,558;  400,924;    1,732;    1,864
213,157;  262,608;    1,822;    1,500
213,757;  579,874;    3,822;   -0,227
214,356;  348,556;    1,277;   -0,409
214,956;  585,485;    3,095;    0,409
215,555;  286,473;    2,095;    2,136
216,154;  244,779;   -2,723;   -0,591
216,754;  236,576;    0,277;    0,773
217,353;  317,137;   -0,268;   -1,045
217,952;  189,117;   -0,178;    0,318
218,552;  386,128;    1,368;   -0,773
219,151;  283,926;    0,277;    0,955
219,750;  271,287;    0,004;   -0,227
220,349;  255,238;   -0,451;    1,045
220,948;  406,024;   -1,360;    1,136
221,548;  306,609;    0,913;    1,227
222,147;  389,499;   -0,087;   -0,409
222,746;  626,446;   -0,451;   -0,955
223,345;  459,045;    0,731;    0,500
223,944;  464,445;   -0,451;    0,773
224,543;  510,034;    1,004;   -1,409
225,142;  583,133;    0,094;    0,136
225,741;  508,486;   -0,814;    1,045
226,340;  469,755;   -0,451;   -0,955
226,939;  720,569;   -0,996;   -0,136
227,538;  500,306;   -0,360;   -0,773
228,137;  703,904;   -0,814;    0,864
228,735;  626,348;   -0,541;    1,227
229,334;  451,599;   -0,905;   -0,227
229,933;  743,507;    0,459;    0,591
230,532;  796,197;    1,186;   -0,409
231,131;  886,600;    1,732;    0,318
231,729;  731,181;   -2,450;   -2,318
232,328;  617,478;   -0,723;   -1,500
232,927;  623,411;    1,004;   -0,500
233,525;  599,256;    3,640;    0,045
234,124;  695,254;    2,368;   -1,591
234,723;  573,612;    0,913;   -1,045
235,321;  589,476;    2,277;    0,136
235,920;  662,464;    1,186;   -1,227
236,518;  916,873;    3,459;    0,318
237,117;  699,495;    0,004;   -0,227
237,715;  709,576;    0,640;   -0,500
238,314;  821,411;   -0,087;   -2,318
238,912; 1048,536;   -0,723;   -1,409
239,510;  867,311;    0,459;   -1,227
240,109; 1070,178;    0,004;    3,773
240,707; 1033,107;   -0,996;    1,227
241,305;  890,488;    0,550;    0,136
241,904; 1101,124;   -0,178;   -2,045
242,502; 1235,429;   -0,632;   -0,227
243,100; 1135,373;   -0,087;   -0,955
243,698; 1179,454;    0,732;    1,682
244,297; 1273,428;   -0,632;    0,682
244,895; 1296,364;   -0,269;   -2,318
245,493; 1586,345;    2,186;   -0,591
246,091; 1582,633;    1,368;   -1,318
246,689; 1567,986;    1,004;    0,591
247,287; 1588,668;    0,822;   -1,136
247,885; 1702,063;   -1,451;    1,227
248,483; 1744,078;    1,822;   -0,500
249,081; 1849,686;    0,185;    1,591
249,679; 2003,678;   -0,178;    1,682
250,277; 2086,080;   -1,723;    0,864
250,875; 2159,566;   -1,087;   -1,045
251,473; 2181,176;   -1,178;    0,500
252,071; 2351,715;    1,459;    1,045
252,669; 2424,991;   -1,814;    0,318
253,267; 2515,989;   -0,087;    0,773
253,864; 2474,487;   -0,360;    0,682
254,462; 2667,577;    1,640;    1,591
255,060; 2513,433;   -0,269;    1,318
255,658; 2644,991;    0,822;   -0,136
256,255; 2999,840;    0,186;   -2,045
256,853; 2969,791;   -0,269;    1,409
257,451; 2943,960;    0,822;    1,864
258,048; 3437,544;    1,822;    1,864
258,646; 3067,293;    1,731;   -1,045
259,243; 3231,881;   -0,087;    2,227
259,841; 3237,240;   -0,814;    0,318
260,438; 3187,858;   -0,087;    0,864
261,036; 3568,018;   -1,905;    1,409
261,633; 3543,921;   -0,087;    2,227
262,231; 3422,447;    2,731;   -0,045
262,828; 3548,944;   -0,905;    1,136
263,425; 3627,250;    0,913;   -0,591
264,023; 3832,160;    0,186;    0,045
264,620; 3614,818;   -0,360;   -0,318
265,217; 3846,001;   -2,087;    3,136
265,815; 3842,574;   -1,905;    2,136
266,412; 3855,841;    0,731;    0,136
267,009; 3906,132;   -1,451;    0,773
267,606; 3988,475;    0,822;   -0,955
268,203; 3860,367;   -0,269;   -0,591
268,801; 4040,559;    1,731;    0,591
269,398; 4208,220;   -0,360;    2,500
269,995; 4249,762;    0,277;    1,591
270,592; 4081,906;   -0,632;   -0,500
271,189; 4187,527;    0,186;    0,409
271,786; 4290,476;   -0,632;    1,227
272,383; 4356,858;   -1,087;    0,227
272,980; 4343,755;    0,277;    0,318
273,577; 4604,960;    0,004;    1,227
274,174; 4258,946;    0,822;    2,591
274,771; 4258,172;   -0,814;   -0,773
275,367; 4550,677;    2,277;    1,409
275,964; 4514,418;    0,731;   -0,500
276,561; 4515,659;    1,549;   -1,045
277,158; 4608,223;    0,095;   -1,773
277,755; 4798,777;    2,185;    0,409
278,351; 4342,828;   -0,451;   -1,500
278,948; 4609,006;   -0,815;    0,045
279,545; 4565,457;   -1,360;    2,318
280,141; 5157,918;   -1,723;   -2,045
280,738; 4974,878;   -0,451;   -0,136
281,334; 5017,220;   -1,633;    0,591
281,931; 4677,356;   -0,087;   -1,318
282,528; 4835,973;    0,822;   -0,500
283,124; 5344,213;   -1,087;   -0,500
283,721; 5248,404;   -0,451;    1,409
284,317; 5141,889;    0,185;    2,500
284,913; 5642,392;   -1,360;    0,591
285,510; 5898,210;    0,640;   -0,318
286,106; 5902,492;   -2,269;   -0,955
286,703; 5497,576;   -0,360;    1,955
287,299; 5739,422;   -1,451;   -0,591
287,895; 5963,670;    0,822;   -1,045
288,491; 6403,765;    0,186;    2,136
289,088; 6318,464;   -2,360;    2,409
289,684; 6442,900;   -1,723;    1,500
290,280; 6546,159;    0,368;    0,682
290,876; 6703,046;    1,822;    5,500
291,472; 6673,439;    1,276;    2,227
292,068; 6857,786;    1,367;    0,227
292,665; 6631,149;    2,095;    0,773
293,261; 6480,821;    0,276;    2,136
293,857; 6892,046;    2,913;    2,136
294,453; 6906,587;    3,550;    0,955
295,049; 6911,159;   -0,268;    1,955
295,644; 7033,879;    0,095;    0,136
296,240; 7014,573;   -0,905;   -0,136
296,836; 7172,975;   -0,995;    0,318
297,432; 7507,726;    1,096;   -0,500
298,028; 7687,793;    0,732;    0,773
298,624; 8022,916;    1,459;    1,864
299,220; 8267,968;    2,368;    0,591
299,815; 8036,436;    1,005;   -0,409
300,411; 7981,614;    0,914;    1,773
301,007; 8045,852;    1,368;    0,227
301,602; 8102,598;   -0,541;   -2,318
302,198; 8301,746;    0,732;   -0,773
302,794; 8687,266;    1,187;   -0,500
303,389; 8778,479;   -1,177;    1,045
303,985; 8892,296;    0,550;    1,409
304,580; 8941,619;    1,459;    1,591
305,176; 8913,671;   -3,086;    0,136
305,771; 8855,983;   -1,268;   -1,227
306,367; 8862,296;    4,095;    0,136
306,962; 9091,507;    0,641;    1,500
307,558; 8829,258;   -0,450;    0,136
308,153; 8789,773;    1,095;   -1,136
308,748; 8970,311;   -0,814;    1,682
309,344; 8934,785;   -0,632;   -1,318
309,939; 9078,632;   -1,905;   -1,318
310,534; 9234,344;   -0,086;   -1,682
311,130; 9099,753;    0,459;   -2,500
311,725; 8832,384;    1,004;   -0,500
312,320; 9150,586;    2,459;    0,045
312,915; 9038,264;    1,459;   -1,045
313,510; 9076,792;    1,550;   -0,500
314,105; 9417,895;    1,096;    1,409
314,700; 8809,708;   -3,086;   -1,045
315,295; 8497,346;   -0,904;    0,045
315,890; 8077,213;    1,277;    0,864
316,485; 8307,314;   -0,359;   -0,318
317,080; 8389,892;   -3,086;    1,591
317,675; 8837,960;    2,005;   -0,682
318,270; 8362,254;    5,550;    3,318
318,865; 8318,334;    3,278;    3,045
319,460; 8133,565;   -0,904;    0,591
320,055; 8261,295;   -0,541;   -1,227
320,650; 7961,572;   -1,995;   -0,591
321,244; 8011,348;   -0,177;   -1,409
321,839; 8773,649;   -1,541;   -0,227
322,434; 8654,586;   -1,086;   -1,591
323,029; 8402,795;    1,732;    1,591
323,623; 8208,493;    1,550;    0,773
324,218; 8077,993;    2,368;    1,409
324,812; 7968,913;    1,096;    1,591
325,407; 7851,383;   -0,814;    2,045
326,002; 7831,552;    0,277;   -0,409
326,596; 8130,221;    0,914;    1,318
327,191; 8300,862;    0,823;   -1,045
327,785; 7984,312;   -0,813;   -0,227
328,379; 8257,896;    1,368;    0,136
328,974; 8059,385;    0,914;   -3,955
329,568; 8376,139;    0,186;   -2,409
330,163; 8274,941;    2,096;    1,045
330,757; 8647,403;    2,459;    1,591
331,351; 8110,047;    0,459;    0,682
331,945; 8474,619;    0,914;    1,409
332,540; 8234,967;   -1,723;   -0,591
333,134; 8411,391;   -1,086;    0,773
333,728; 8719,479;    0,005;    0,318
334,322; 9076,454;   -1,177;   -0,864
334,916; 8471,020;    0,277;    0,955
335,510; 8870,605;   -0,450;   -0,136
336,105; 9169,499;   -1,086;    1,591
336,699; 8987,544;   -1,086;    0,591
337,293; 9030,146;   -1,723;    0,318
337,887; 9244,983;   -2,723;    1,955
338,481; 9383,808;    0,459;    0,591
339,074; 9619,282;   -0,359;    2,682
339,668; 9528,467;   -1,632;    1,227
340,262; 9892,163;    1,732;    3,227
340,856; 9471,729;    1,822;   -0,682
341,450; 8972,973;    1,004;    1,864
342,044; 9865,510;    1,459;    0,136
342,637; 9716,724;    0,913;   -2,136
343,231; 9689,846;   -2,360;    0,682
343,825; 9681,352;   -1,086;   -0,591
344,419; 9726,682;   -1,995;    0,500
345,012; 9620,439;    2,459;    4,045
345,606; 9678,159;    4,641;    1,591
346,199; 9551,145;   -1,813;   -0,227
346,793; 9173,967;    1,914;    2,045
347,386; 9397,050;   -0,813;   -1,136
347,980; 9425,055;   -0,268;   -0,045
348,573; 9260,396;    2,278;    0,409
349,167; 9019,352;    5,278;    4,773
349,760; 9372,226;    2,914;    2,682
350,354; 9378,304;   -0,813;    1,136
350,947; 9145,016;    1,096;    1,682
351,540; 8846,847;   -0,358;   -1,409
352,134; 8799,350;    1,096;    1,136
352,727; 8900,820;   -0,086;    1,136
353,320; 8702,256;    0,005;    0,591
353,913; 8550,626;   -1,995;    1,864
354,507; 8792,498;    0,823;   -1,227
355,100; 8757,161;    0,460;    0,864
355,693; 8075,949;    2,005;    2,409
356,286; 8108,613;    0,823;    2,773
356,879; 8434,156;   -0,722;    1,227
357,472; 8041,040;   -0,904;    1,500
358,065; 8254,836;   -0,722;    2,500
358,658; 8142,600;   -0,540;    2,318
359,251; 7792,076;   -1,631;   -0,591
359,844; 7314,895;   -1,904;   -1,136
360,437; 7505,330;   -2,995;    0,045
361,030; 7752,860;    1,369;   -0,682
361,623; 7338,515;    2,824;    0,318
362,215; 7396,929;   -0,086;    2,045
362,808; 7221,174;   -2,358;   -1,682
363,401; 7393,942;   -2,449;    0,136
363,994; 7167,448;   -0,631;   -1,500
364,586; 7043,537;    0,824;   -1,500
365,179; 7231,288;   -0,449;   -1,136
365,772; 6730,797;   -1,995;    2,045
366,364; 7008,428;    1,915;   -3,227
366,957; 7191,029;    2,279;   -0,045
367,549; 7176,935;    2,188;   -0,864
368,142; 6840,760;    1,825;   -1,500
368,734; 6994,352;    0,734;   -2,136
369,327; 6934,786;    1,643;   -0,500
369,919; 6871,491;   -1,538;    0,409
370,512; 6698,377;   -1,083;   -0,500
371,104; 6469,882;   -0,901;    1,591
371,696; 6644,738;    1,191;   -0,955
372,289; 6681,942;    0,373;    1,136
372,881; 6816,977;   -2,080;    1,318
373,473; 6694,713;   -2,170;    1,136
374,066; 6528,223;   -0,169;    0,500
374,658; 6385,521;    0,378;    1,136
375,250; 6700,754;    0,653;   -1,409
375,842; 6579,042;    0,473;   -0,045
376,434; 6440,850;   -0,435;   -0,409
377,026; 6963,744;    0,204;   -2,500
377,618; 6859,061;   -0,158;   -0,682
378,210; 6710,232;   -0,338;   -1,955
378,802; 6531,868;    0,754;   -0,591
379,394; 6566,869;    1,846;    0,682
379,986; 7057,428;    1,393;   -0,955
380,578; 7165,095;   -0,153;    0,773
381,170; 6570,345;   -0,972;    0,045
381,762; 6500,446;    0,755;    1,409
382,354; 6645,840;   -0,065;   -1,318
382,945; 6733,481;   -2,976;    0,318
383,537; 6862,393;   -2,705;   -1,955
384,129; 6893,392;   -2,160;   -1,136
384,721; 7065,420;   -0,252;    0,955
385,312; 6985,596;   -0,161;   -0,955
385,904; 7103,334;   -2,706;    1,591
386,496; 6472,153;   -0,979;    1,045
387,087; 6645,685;    1,022;    2,500
387,679; 6644,740;   -1,160;    0,045
388,270; 6772,040;    2,840;    2,045
388,862; 6898,881;    1,295;   -0,318
389,453; 6767,593;   -0,887;    1,045
390,045; 7052,286;   -0,705;   -2,682
390,636; 6973,419;    0,204;   -0,591
391,227; 6809,327;   -0,523;   -0,045
391,819; 6928,962;    0,204;    0,773
392,410; 7038,093;    1,022;    0,045
393,001; 6970,975;   -0,979;   -1,591
393,593; 7232,623;    1,930;   -0,045
394,184; 7075,632;    1,385;   -0,409
394,775; 6980,404;    1,839;    2,136
395,366; 7193,078;    1,385;    0,773
395,957; 7164,239;    0,113;    0,136
396,548; 7430,607;   -0,342;    2,682
397,139; 7741,545;   -2,433;    0,591
397,730; 7475,477;   -1,888;    0,955
398,321; 7520,733;   -1,252;    0,955
398,912; 7526,670;   -0,615;    0,136
399,503; 7601,592;   -3,524;   -1,409
400,094; 7101,069;    0,294;    1,682
400,685; 6937,724;   -0,433;    0,045
401,276; 6989,002;    0,930;   -0,955
401,867; 7286,932;   -0,888;    0,773
402,458; 7344,856;   -2,251;   -2,318
403,048; 7344,643;    1,112;    0,591
403,639; 6942,767;    0,840;    0,864
404,230; 7208,971;    2,476;    0,318
404,821; 7113,137;   -0,615;    0,045
405,411; 7243,090;    1,203;   -2,591
406,002; 6831,698;   -1,252;   -1,136
406,592; 6720,146;    2,294;    0,045
407,183; 6933,077;    0,566;   -1,500
407,774; 6821,814;    3,475;   -0,136
408,364; 7111,139;    0,930;    0,409
408,954; 6716,313;    0,384;    1,227
409,545; 6739,645;    1,021;    1,045
410,135; 6233,216;    1,293;    0,500
410,726; 6387,146;    1,838;    0,318
411,316; 6732,638;    0,111;    0,773
411,906; 6318,997;   -0,253;   -0,409
412,497; 5855,182;   -1,070;   -0,045
413,087; 6352,453;   -1,980;   -0,227
413,677; 6641,089;   -0,707;    3,864
414,267; 6465,922;    0,656;    1,409
414,857; 6368,349;   -2,980;    4,227
415,448; 6590,813;    0,839;    0,500
416,038; 6268,809;    0,020;   -0,591
416,628; 6167,148;   -0,889;    0,409
417,218; 5722,081;    0,565;    3,318
417,808; 5877,873;    0,202;   -0,409
418,398; 6161,917;    0,020;    2,682
418,988; 6072,300;    2,020;    0,591
419,578; 6221,301;   -0,707;    1,409
420,168; 6436,654;   -1,343;   -0,955
420,757; 6048,483;   -1,343;   -1,500
421,347; 5690,625;    0,111;   -0,227
421,937; 5770,173;    2,292;    1,409
422,527; 5723,039;    0,838;   -0,773
423,116; 5490,213;   -0,253;   -0,045
423,706; 5618,863;   -1,889;    0,318
424,296; 5517,478;    1,384;    0,682
424,885; 5852,296;   -0,071;   -3,045
425,475; 5977,365;    1,474;   -2,864
426,065; 5817,741;   -0,980;   -0,318
426,654; 5469,064;   -0,435;   -0,318
427,244; 5569,805;    0,020;    1,409
427,833; 5058,549;    1,383;   -0,500
428,423; 5316,640;   -0,526;    1,136
429,012; 5804,746;   -0,344;   -1,136
429,601; 5362,202;   -1,344;    0,136
430,191; 5461,777;    1,292;    4,318
430,780; 5076,446;   -0,344;   -0,409
431,369; 5040,758;    0,746;   -0,045
431,959; 5394,754;   -1,254;    0,500
432,548; 5130,093;   -1,163;   -0,045
433,137; 5109,584;   -1,254;   -1,318
433,726; 5489,125;    0,292;    0,500
434,315; 4971,914;   -0,526;    2,409
434,905; 4955,465;   -1,254;    1,409
435,494; 4877,922;    0,746;    0,955
436,083; 5029,962;   -0,981;   -0,955
436,672; 4839,727;    0,110;    0,500
437,261; 4565,836;    0,292;   -1,955
437,850; 4679,696;    1,383;    0,682
438,439; 4581,511;    3,291;    1,955
439,027; 4439,323;    3,655;    1,773
439,616; 4533,025;    2,927;    1,227
440,205; 4239,243;    0,200;   -2,136
440,794; 4117,442;    2,109;   -0,045
441,383; 4128,674;   -1,346;   -0,591
441,971; 3915,632;   -2,436;    0,591
442,560; 3726,194;    0,563;   -1,773
443,149; 3447,050;    0,379;   -1,318
443,737; 3523,492;   -0,074;   -2,318
444,326; 3579,953;    0,018;    0,318
444,915; 3519,115;   -1,982;    0,864
445,503; 3620,544;   -2,891;   -0,318
446,092; 3376,356;    0,382;    2,136
446,680; 3525,880;    0,382;    0,318
447,269; 3462,578;   -0,346;   -0,318
447,857; 3220,155;    0,018;   -1,773
448,445; 3183,991;    0,563;    1,318
449,034; 3232,779;   -1,528;   -1,136
449,622; 3135,880;   -1,073;    3,500
450,210; 3109,611;    2,017;    2,227
450,799; 3198,595;    0,290;   -0,591
451,387; 2941,896;    1,381;   -0,591
451,975; 2802,324;    2,654;    0,864
452,563; 2914,007;    3,472;    2,318
453,151; 2641,953;   -0,528;   -1,227
453,739; 2557,538;   -1,347;    0,136
454,328; 2663,638;    2,381;   -2,136
454,916; 2455,297;    2,562;   -0,136
455,504; 2441,898;    1,017;    1,227
456,092; 2374,339;    0,017;   -1,591
456,679; 2229,064;    1,472;    0,682
457,267; 2782,096;    4,017;    1,045
457,855; 2360,280;    1,017;    1,409
458,443; 1992,536;   -0,165;    1,682
459,031; 2366,285;    0,108;    2,409
459,619; 2334,840;   -1,801;    2,864
460,206; 2138,970;    0,835;    2,045
460,794; 2179,153;   -2,983;   -0,227
461,382; 2266,325;   -0,529;   -0,864
461,970; 2046,166;    1,198;    1,864
462,557; 2022,633;   -0,711;   -0,682
463,145; 2219,391;   -3,165;   -1,682
463,732; 2443,005;    2,016;   -1,045
464,320; 2112,931;   -0,075;   -3,045
464,907; 2199,892;    2,743;   -0,773
465,495; 2022,733;    0,743;   -1,227
466,082; 1892,115;   -1,984;   -0,045
466,670; 1792,703;   -2,529;    1,227
467,257; 1820,264;   -1,711;    2,045
467,844; 1979,575;   -0,075;    0,045
468,432; 1940,197;    0,834;    3,500
469,019; 1735,553;    0,925;   -1,773
469,606; 1844,894;    0,470;    3,682
470,193; 1855,153;   -1,439;    0,227
470,780; 1780,082;   -2,075;    0,864
471,368; 1668,944;   -1,257;   -0,773
471,955; 1723,485;    1,379;   -0,682
472,542; 1549,069;    0,652;   -1,136
473,129; 1391,879;   -0,166;    0,136
473,716; 1298,588;    1,470;    0,591
474,303; 1332,610;    0,652;   -0,864
474,890; 1356,326;   -1,439;   -0,500
475,477; 1475,340;   -1,621;    0,409
476,064; 1299,467;    1,106;   -1,591
476,650; 1378,735;    0,288;    0,318
477,237; 1241,735;   -0,258;    0,955
477,824; 1174,379;   -1,076;    0,864
478,411;  978,791;   -1,894;   -0,318
478,997;  951,308;    0,560;   -0,773
479,584;  834,958;    1,196;   -0,409
480,171; 1223,557;   -0,440;   -0,773
480,757; 1308,606;    2,651;    0,773
481,344; 1050,545;    0,469;    0,409
481,931;  790,828;    1,105;    1,045
482,517; 1121,375;   -1,258;    0,318
483,104; 1242,833;    1,106;    2,864
483,690; 1039,956;   -1,804;    0,045
484,276;  968,861;   -0,895;    0,227
484,863; 1336,540;    2,469;    1,136
485,449; 1040,871;   -0,077;    0,318
486,035;  918,220;   -1,986;   -0,136
486,622; 1120,814;   -0,895;    0,045
487,208;  953,475;    1,378;    1,500
487,794;  797,529;    0,741;    0,318
488,380;  794,978;    0,105;   -1,409
488,967;  794,212;   -1,168;   -0,409
489,553;  821,621;   -1,895;   -1,409
490,139;  992,245;    1,559;    0,773
490,725;  792,662;    0,741;   -0,227
491,311;  848,484;    3,287;    3,045
491,897;  734,243;   -0,986;    1,500
492,483;  764,544;    0,105;    1,227
493,069; 1607,070;    3,923;    0,864
493,655; 1086,306;    1,650;    0,682
494,241;  908,946;    1,377;   -0,955
494,826; 1033,156;    0,287;   -1,045
495,412; 1131,644;    2,559;   -0,682
495,998; 1040,915;   -0,805;   -0,318
496,584; 1183,083;    0,377;    1,045
497,169; 1153,984;    1,014;   -0,682
497,755; 1083,061;    0,650;    1,227
498,341; 1600,155;    0,559;    0,318
498,926; 1805,019;    1,832;    1,955
499,512; 1531,804;    1,286;    2,955
500,097; 1522,987;    0,195;   -0,318
500,683; 1690,132;   -0,350;    2,136
501,268; 1875,278;   -0,169;   -0,955
501,854; 2025,827;   -0,169;    1,227
502,439; 2104,034;   -0,624;   -1,773
503,024; 2332,605;    0,195;    0,500
503,610; 2616,062;   -0,078;   -0,682
504,195; 2691,576;    0,558;    1,955
504,780; 3053,684;    2,922;    1,227
505,366; 3362,802;    3,013;    2,864
505,951; 3403,630;    0,740;    1,045
506,536; 3684,964;   -3,260;   -3,682
507,121; 3926,961;    0,285;   -0,318
507,706; 4484,720;    2,376;    1,045
508,291; 4986,641;    2,649;    1,136
508,876; 4958,715;   -0,988;    2,591
509,461; 4979,855;   -0,169;   -0,773
510,046; 5622,119;    0,194;    0,318
510,631; 6157,393;   -0,351;   -0,773
511,216; 6242,235;    2,467;   -0,500
511,801; 6938,871;   -0,442;    2,591
512,386; 7459,444;    0,740;    0,500
512,971; 7758,742;   -2,988;    0,955
513,555; 7796,324;   -0,897;   -1,500
514,140; 8779,614;   -0,442;   -3,136
514,725; 9086,649;   -0,715;   -1,136
515,309; 9517,221;   -0,533;    0,318
515,894; 9413,813;   -0,624;   -2,227
516,479;10130,011;   -0,624;   -0,955
517,063;10269,824;    0,376;    1,227
517,648;10697,321;    1,012;   -1,136
518,232;10619,786;   -0,261;   -1,409
518,817;11245,864;   -0,079;    1,682
519,401;11745,130;    2,194;    0,591
519,985;11499,863;    1,103;    1,136
520,570;11619,634;    0,830;   -1,955
521,154;12113,568;    2,102;    0,591
521,738;12455,957;   -2,352;    2,409
522,323;13205,595;   -0,170;    1,682
522,907;13133,982;    0,466;   -0,136
523,491;12974,741;    0,557;    0,955
524,075;13111,911;    2,284;    0,591
524,659;13383,763;    1,466;    0,591
525,243;12984,658;    1,739;    0,409
525,827;13350,615;    0,648;   -0,045
526,411;14326,491;   -1,989;   -0,136
526,995;14641,109;   -0,352;    1,409
527,579;14357,048;   -0,443;   -1,045
528,163;14749,435;    0,375;   -1,500
528,747;14695,927;    2,466;   -0,773
529,331;15078,998;   -0,080;   -1,409
529,915;15350,126;    1,738;    0,955
530,499;15393,547;   -0,807;    1,227
531,082;15161,936;   -0,534;    1,591
531,666;14622,200;    1,374;    0,773
532,250;15366,823;    1,284;    2,682
532,833;15809,567;    0,920;    2,773
533,417;15644,441;   -1,807;    0,864
534,001;15698,950;    1,647;   -0,318
534,584;16406,116;    0,374;    0,500
535,168;16297,186;    0,465;    1,409
535,751;16409,063;    0,647;    0,045
536,334;15872,795;   -0,898;   -0,409
536,918;16471,524;    0,011;    1,591
537,501;16604,582;   -0,899;    1,318
538,085;16602,748;   -0,444;    1,045
538,668;16838,644;    0,829;    2,409
539,251;17246,814;    1,829;    3,773
539,834;17236,953;    0,101;    0,773
540,418;17223,740;   -1,990;    4,318
541,001;17328,711;   -0,990;    1,773
541,584;17321,815;    2,101;    2,227
542,167;17031,089;    1,374;    2,955
542,750;17205,219;    1,919;   -0,773
543,333;16823,264;    0,555;    2,136
543,916;17609,972;    0,192;    2,500
544,499;18311,045;   -1,354;    0,227
545,082;18292,770;    1,374;    3,591
545,665;18408,810;    1,919;    1,500
546,248;18815,082;    1,010;   -0,318
546,830;18486,722;   -0,445;    1,955
547,413;18895,933;    1,010;   -0,773
547,996;19444,856;    0,555;    0,500
548,579;19202,549;    0,919;    0,955
549,161;18978,183;    1,828;    2,682
549,744;18789,785;   -0,809;    0,409
550,326;19289,079;   -0,809;   -1,136
550,909;19149,285;    2,737;    0,591
551,492;19570,379;   -0,263;    0,227
552,074;19307,404;   -0,173;   -1,318
552,657;19932,017;    2,373;    0,045
553,239;19624,525;   -0,173;   -0,773
553,821;19518,585;   -1,082;    1,045
554,404;19017,246;    1,282;    1,136
554,986;19481,828;    0,464;    1,045
555,568;20107,336;    1,191;   -0,955
556,151;19274,869;    1,191;   -0,227
556,733;19425,684;   -0,264;   -0,864
557,315;19968,752;    0,100;    0,500
557,897;19815,857;    0,554;   -0,500
558,479;19924,822;   -1,991;    1,318
559,061;20037,778;   -0,719;   -0,864
559,643;20420,413;   -0,264;    0,045
560,225;20802,425;    1,645;    2,864
560,807;20845,686;    0,918;    0,318
561,389;20271,261;    0,554;    2,318
561,971;21137,030;    0,463;    2,136
562,553;20901,186;   -1,628;    1,591
563,135;21045,824;   -0,537;    1,136
563,717;20672,325;    3,372;    1,136
564,298;21354,738;    3,645;   -0,045
564,880;21166,253;    0,645;   -1,409
565,462;21353,435;    0,645;    1,318
566,043;22594,754;   -0,446;    2,318
566,625;22144,198;    1,918;    1,227
567,207;21990,389;    1,099;    1,682
567,788;23291,352;   -1,264;    1,500
568,370;24171,221;    1,917;   -0,500
568,951;24048,847;    0,190;    0,227
569,533;24923,097;   -0,628;   -0,500
570,114;25436,065;   -0,446;    0,682
570,695;26048,117;   -0,174;   -1,318
571,277;26662,791;   -0,265;   -1,682
571,858;27510,172;    2,008;   -1,136
572,439;28448,182;    1,554;   -1,045
573,021;28698,780;    2,099;   -2,773
573,602;29272,006;   -1,265;    0,318
574,183;30247,474;   -2,083;    2,227
574,764;30447,226;   -1,629;    0,409
575,345;31076,980;    0,917;   -0,136
575,926;31731,623;   -0,356;    0,136
576,507;31693,904;    1,099;   -0,227
577,088;32915,143;    3,099;    1,682
577,669;32973,493;    0,735;    1,955
578,250;33895,928;    0,644;   -1,045
578,831;34603,893;   -1,356;   -2,227
579,412;34863,935;   -0,810;    0,955
579,993;35715,570;    1,008;    0,227
580,573;36021,796;   -0,629;   -0,955
581,154;35016,265;    0,735;   -0,591
581,735;35968,994;    0,644;    0,773
582,315;35493,358;   -0,629;    2,136
582,896;35746,499;   -0,174;    1,227
583,477;35096,846;    0,189;    1,227
584,057;35300,354;    0,553;    0,955
584,638;35620,297;    2,553;    2,318
585,218;35645,605;   -0,538;    2,682
585,799;35756,281;    0,281;   -0,227
586,379;35620,325;    0,372;    1,591
586,959;34204,814;    0,735;    0,318
587,540;33378,214;   -0,629;    2,227
588,120;32966,637;    1,007;   -0,045
588,700;31944,426;    2,553;    2,136
589,281;32237,001;    0,462;   -0,955
589,861;32228,190;    0,099;   -1,682
590,441;31964,204;    2,371;   -2,682
591,021;30891,832;   -0,265;   -2,591
591,601;31054,011;   -0,537;    0,500
592,181;31002,548;   -0,719;   -0,773
592,761;30252,955;    0,007;    1,409
593,341;30173,770;   -0,901;    0,045
593,921;30184,564;   -0,265;    1,591
594,501;30129,303;   -0,538;    1,318
595,081;29941,940;    0,917;   -0,318
595,661;30344,932;   -1,447;    0,955
596,240;30850,227;   -0,537;    0,136
596,820;30607,422;    0,372;    1,955
597,400;30781,570;    2,008;    0,773
597,980;30945,812;    2,008;    1,045
598,559;30868,720;    2,735;   -0,227
599,139;30539,784;   -0,174;   -1,227
599,718;30488,693;   -0,174;   -0,409
600,298;30729,481;    0,735;    0,682
600,877;31015,662;    2,917;    1,409
601,457;31249,948;    2,281;    1,136
602,036;31170,910;    0,190;    2,045
602,616;31376,983;    0,644;    1,682
603,195;31828,392;   -0,355;    3,500
603,774;31363,876;   -0,901;    2,045
604,354;31170,318;    0,826;   -0,500
604,933;30634,434;    0,463;    1,864
605,512;30755,135;    3,554;    0,591
606,091;30815,011;   -0,537;    3,773
606,671;31609,470;    0,281;    0,773
607,250;30725,219;    1,644;    3,136
607,829;30966,156;    2,372;    3,227
608,408;30775,410;    1,190;    2,591
608,987;29720,989;    1,281;    3,409
609,566;30051,125;   -1,265;   -2,500
610,145;30210,998;   -1,082;    0,682
610,723;30533,892;    4,372;    6,864
611,302;29776,620;   -0,446;    1,682
611,881;29278,796;    5,008;   11,227
612,460;30151,067;    1,645;    3,955
613,039;30517,797;   -0,082;    2,045
613,617;29191,323;    1,736;    4,773
614,196;29418,737;    1,099;    1,227
614,775;29775,196;    1,009;    2,409
615,353;29687,591;    0,736;    0,864
615,932;29399,589;    0,100;    2,409
616,510;29984,640;    0,554;    0,591
617,089;29519,223;    7,100;   17,591
617,667;29208,327;    2,372;    6,136
618,246;29082,597;   -1,537;    1,318
618,824;29231,423;   -3,355;   -0,955
619,402;28753,161;   -2,900;   -1,773
619,981;29262,659;   -0,173;   -1,045
620,559;29039,893;    0,009;    1,682
621,137;28553,196;   -0,718;    1,864
621,715;28558,636;   -1,173;   -0,682
622,293;28483,788;   -0,537;   -0,773
622,871;28918,207;   -0,718;    0,500
623,450;28476,871;    0,373;   -0,864
624,028;28410,735;    0,191;   -0,955
624,606;28017,651;   -1,718;    1,682
625,183;28395,741;   -1,536;   -1,136
625,761;28011,639;    1,009;    1,136
626,339;28333,034;    1,373;    2,591
626,917;28671,688;   -0,172;   -0,045
627,495;28695,754;   -0,354;    1,318
628,073;28089,083;   -0,263;    2,864
628,650;27785,396;    0,100;    2,136
629,228;28244,862;    0,373;    4,409
629,806;27611,690;    2,282;    1,136
630,383;27900,656;    1,464;   -0,318
630,961;27679,632;    2,555;   -0,955
631,539;27397,783;    2,464;    0,227
632,116;26771,905;   11,373;   15,409
632,694;27342,223;    2,555;    6,500
633,271;27618,552;    0,828;    2,682
633,848;27598,520;    1,828;    2,045
634,426;27577,412;   -1,081;    1,773
635,003;26723,267;    1,101;   -0,409
635,580;27070,043;    1,192;    3,682
636,158;27591,580;    3,737;    1,227
636,735;27520,677;    0,555;   -0,500
637,312;27705,085;   -0,809;   -0,682
637,889;27798,052;   -4,354;   -0,682
638,466;27248,797;   -3,990;   -0,409
639,043;27236,067;    2,101;   -1,136
639,620;27591,387;   -2,262;   -0,955
640,197;27916,199;    1,100;    1,682
640,774;28002,180;   -0,172;    1,136
641,351;28459,252;    0,737;    1,136
641,928;27898,051;   -0,627;    1,409
642,505;27516,123;    0,828;   -0,500
643,082;27639,286;   -1,718;    1,227
643,658;26577,085;   -0,718;    1,500
644,235;27359,884;    1,191;    2,500
644,812;27713,865;    1,918;    0,773
645,388;27474,664;   -0,991;    1,409
645,965;27516,554;   -0,809;    1,682
646,542;27622,898;   -1,445;   -0,227
647,118;27585,152;    1,009;   -0,955
647,695;27901,860;   -0,263;    1,136
648,271;27776,478;   -0,536;    0,500
648,848;28158,640;    0,736;    2,227
649,424;27929,985;    0,827;    1,318
650,000;27700,239;   -0,354;   -1,045
650,577;27518,129;   -0,627;   -0,955
651,153;28037,019;   -1,809;    0,955
651,729;29129,181;    1,191;    0,864
652,305;29920,253;    0,645;    2,773
652,881;35966,780;   -0,082;    1,136
653,458;43405,306;    1,100;    0,227
654,034;46946,741;    0,282;    1,591
654,610;48166,904;    0,554;    0,773
655,186;49557,885;    0,645;    3,045
655,762;49195,411;   -0,991;    0,409
656,338;49237,029;    0,100;    0,136
656,913;50170,101;   -0,082;    0,409
657,489;49376,991;    0,827;   -0,318
658,065;49462,153;   -0,173;   -1,591
658,641;50095,498;   -0,900;   -0,864
659,217;49330,297;   -0,991;    0,409
659,792;48747,642;    0,645;   -0,409
660,368;48908,350;   -2,173;   -0,682
660,944;47976,603;   -2,082;    1,227
661,519;41808,584;   -0,628;    0,409
662,095;35156,565;   -1,719;    0,591
662,670;30863,546;    1,281;   -0,136
663,246;29878,163;    1,009;   -0,409
663,821;29308,144;    0,281;    1,682
664,396;28790,671;    0,009;    1,864
664,972;29107,561;    0,009;   -0,500
665,547;29403,542;    1,372;    0,136
666,122;29479,068;   -1,082;    0,318
666,698;29778,140;   -0,173;    0,318
667,273;29111,484;   -0,173;    0,136
667,848;29969,465;    2,372;    1,500
668,423;29745,174;    2,190;    2,318
668,998;30386,791;    2,827;   -0,682
669,573;30956,045;   -3,264;   -1,500
670,148;30693,662;   -1,446;   -0,682
670,723;30530,461;   -1,810;    0,318
671,298;30965,715;    2,372;    1,045
671,873;31086,605;   -0,082;   -0,136
672,448;31006,586;    0,645;    0,136
673,023;31358,657;   -1,992;   -0,227
673,597;31720,638;    0,827;    2,318
674,172;31500,710;   -0,355;    0,318
674,747;30926,237;    0,372;   -1,045
675,321;30738,581;   -0,628;    3,318
675,896;30326,107;    0,645;    1,045
676,471;31443,543;    2,645;    1,591
677,045;31140,888;   -1,264;    0,682
677,620;31223,778;    0,190;    1,136
678,194;31479,849;   -2,628;    1,136
678,769;31078,648;   -1,083;   -0,318
679,343;31362,538;   -0,628;    1,773
679,917;31201,974;   -1,446;    1,955
680,492;31288,228;    0,826;    3,227
681,066;31368,027;    3,372;    0,409
681,640;31431,553;    1,463;   -0,318
682,214;32352,352;    0,735;    0,500
682,788;31870,879;   -1,356;   -0,773
683,363;31828,132;   -1,810;    1,682
683,937;31513,750;   -1,719;   -0,318
684,511;32296,003;    0,463;   -0,591
685,085;31981,075;   -1,356;    0,318
685,659;31761,692;   -2,538;    0,864
686,232;31998,037;   -0,356;   -0,318
686,806;31656,472;   -0,901;    0,409
687,380;32311,635;   -0,174;    0,591
687,954;32570,525;   -1,174;    1,136
688,528;32279,142;   -0,719;    1,955
689,101;33074,760;   -3,992;    1,045
689,675;32614,559;   -0,356;   -0,136
690,249;31986,631;   -0,719;    0,409
690,822;32253,248;    0,280;    0,318
691,396;32382,138;   -0,265;    1,227
691,969;31877,210;    1,280;    0,136
692,543;32339,191;   -0,447;   -1,955
693,116;31895,899;   -0,265;   -1,409
693,690;31744,153;    0,099;    0,500
694,263;32363,952;   -1,083;    2,955
694,836;32462,205;    1,371;    3,591
695,410;31040,459;   -0,265;    1,773
695,983;31496,622;    0,189;    0,591
696,556;31400,875;   -0,447;   -1,045
697,129;31810,220;   -0,356;    1,409
697,703;31501,565;   -1,629;    1,955
698,276;31429,455;    1,462;   -0,773
698,849;31265,617;    1,280;    1,409
699,422;31665,144;   -1,083;    0,591
699,995;31346,943;    0,007;    0,136
700,568;31915,469;   -0,629;    3,045
701,140;31909,632;   -2,811;    1,682
701,713;31609,704;   -0,174;    2,409
702,286;31323,776;   -0,538;    0,864
702,859;31229,938;   -0,902;   -0,591
703,432;30353,465;    0,825;    0,682
704,004;30872,900;    0,462;    0,318
704,577;30743,881;   -0,629;    0,136
705,150;31349,498;    0,189;    2,500
705,722;31056,025;   -0,356;   -3,227
706,295;30809,733;   -0,175;   -0,591
706,867;30752,441;   -0,175;    1,955
707,440;30952,422;   -1,720;   -0,409
708,012;31236,494;    0,462;    0,591
708,584;31131,384;    2,462;    0,227
709,157;31451,092;    1,825;   -0,591
709,729;31077,800;    2,280;    2,045
710,301;31885,509;    0,734;    0,045
710,874;31894,489;   -1,447;   -0,227
711,446;30702,379;    0,371;    0,864
712,018;30607,633;    0,098;    0,500
712,590;30394,069;   -1,993;    1,682
713,162;30932,413;    0,825;    1,318
713,734;31170,940;    1,825;   -2,045
714,306;31039,375;   -1,902;   -0,409
714,878;29758,538;    0,825;    0,864
715,450;30527,882;    0,643;    0,864
716,022;30777,136;    1,552;    1,318
716,593;30907,026;    0,189;    0,591
717,165;30865,280;   -3,175;   -1,227
717,737;30590,079;    0,280;    0,409
718,309;30158,060;    0,280;   -0,045
718,880;30171,586;   -0,539;   -1,409
719,452;30335,022;   -0,175;   -1,591
720,024;29918,366;    0,734;   -0,591
720,595;30561,438;   -2,902;    0,955
721,167;30055,964;    0,370;   -2,045
721,738;29549,945;   -0,812;   -1,045
722,309;29585,835;   -0,993;   -1,227
722,881;29319,453;   -1,357;    0,773
723,452;29971,070;   -2,630;    2,864
724,023;30130,505;   -0,721;    2,682
724,595;29869,759;    0,007;    0,682
725,166;29616,831;    0,007;   -0,409
725,737;29326,084;    1,734;    0,227
726,308;29363,520;   -0,266;    0,318
726,879;29841,410;   -1,630;    1,227
727,450;29710,482;    0,552;   -0,045
728,021;29627,372;    3,097;    0,682
728,592;29411,625;    0,734;    0,500
729,163;29787,243;    0,643;   -0,136
729,734;29818,678;    0,188;   -0,227
730,305;30163,205;    1,734;    0,136
730,876;30547,004;    0,188;    2,955
731,447;30295,530;    2,188;    2,682
732,017;30440,238;    1,097;    1,864
732,588;29856,037;    0,734;    1,227
733,159;30060,382;    0,643;   -1,045
733,729;29873,545;    0,006;    0,409
734,300;29138,707;    0,915;    0,864
734,870;29549,688;    3,461;    0,591
735,441;30135,578;    0,370;   -0,591
736,011;29930,287;    0,643;   -1,591
736,582;29862,449;   -0,812;    0,045
737,152;29299,339;   -1,721;   -2,045
737,722;29652,775;   -0,267;   -0,682
738,293;29351,938;   -1,358;    1,318
738,863;29259,828;    2,461;    2,318
739,433;29048,808;    5,279;    0,318
740,003;29696,880;   -0,994;   -0,682
740,573;29055,407;    2,097;   -1,591
741,143;29026,388;   -1,085;    0,318
741,713;29865,005;    1,188;   -0,500
742,283;29578,622;    0,915;    1,591
742,853;29299,785;    1,915;    1,591
743,423;28725,948;    1,733;    0,045
743,993;28883,474;   -0,358;    1,500
744,563;28221,091;    0,097;   -0,864
745,133;28160,527;   -0,812;   -0,864
745,702;28825,962;   -0,267;    1,773
746,272;28018,216;   -0,176;    0,591
746,842;27812,015;   -1,358;   -0,591
747,411;28254,996;   -0,267;   -0,318
747,981;28365,613;    0,097;    0,500
748,551;28408,503;    2,278;   -1,045
749,120;28334,212;    0,642;   -0,227
749,690;28768,556;   -0,631;    2,409
750,259;29132,901;    1,369;    2,955
750,828;29013,427;    1,551;   -1,955
751,398;29247,953;    1,278;   -0,045
751,967;28816,571;    2,187;    0,409
752,536;28954,097;   -0,813;   -0,227
753,105;29431,987;    0,096;    0,227
753,675;29196,513;    0,096;    1,773
754,244;29142,949;   -0,904;    3,591
754,813;29204,930;    0,551;    1,227
755,382;28700,456;    0,460;    0,955
755,951;29341,346;    1,551;    3,682
756,520;28820,236;   -0,085;    1,864
757,089;29472,035;    0,278;    0,500
757,658;29667,198;    1,733;    1,227
758,227;29624,906;    1,096;    0,318
758,795;29945,160;    1,187;    1,136
759,364;30093,595;   -0,086;   -0,591
759,933;29130,304;   -1,176;   -0,045
760,501;28619,739;    0,733;   -1,318
761,070;29165,356;   -2,813;   -1,409
761,639;29842,337;   -1,904;    1,318
762,207;29257,409;    1,551;   -0,955
762,776;29101,208;    0,369;    0,864
763,344;29034,280;   -0,995;    0,591
763,913;28087,988;   -0,722;    1,409
764,481;28855,151;    1,005;   -0,136
765,049;28580,041;   -1,358;    1,409
765,618;28439,567;   -0,086;    0,318
766,186;28541,821;    0,278;    0,136
766,754;28768,529;    0,005;    1,864
767,322;27736,601;   -1,995;    0,409
767,890;27778,582;   -0,722;   -1,773
768,459;28209,927;   -2,177;   -0,318
769,027;28375,362;    1,641;    3,409
769,595;27214,343;    3,278;    2,591
770,163;27699,142;    3,823;    2,955
770,730;27489,305;    0,732;   -0,136
771,298;27272,649;    0,187;   -1,409
771,866;27345,994;   -1,541;    4,955
772,434;27746,793;   -0,631;   -1,864
773,002;27878,774;    0,005;    0,682
773,569;27508,300;    0,914;    1,682
774,137;27330,281;   -0,268;   -0,045
774,705;28123,899;    0,278;   -0,136
775,272;27603,789;    0,641;    0,682
775,840;27296,679;   -0,177;    2,682
776,407;26887,660;    0,277;    1,955
776,975;26485,186;   -0,632;    0,318
777,542;27432,894;   -1,086;   -0,045
778,110;27263,330;   -1,268;   -0,045
778,677;26955,947;   -2,359;   -0,864
779,244;26672,292;    2,186;    1,045
779,812;26786,454;    1,823;    0,864
780,379;26638,526;    0,005;    1,136
780,946;26925,780;    1,005;   -0,773
781,513;27235,579;   -1,450;    0,318
782,080;26627,469;   -0,086;    2,864
782,647;27410,632;   -0,268;    3,045
783,214;26942,431;   -0,177;    3,864
783,781;26600,412;   -0,723;   -0,682
784,348;26411,483;   -0,632;    1,500
784,915;26833,919;   -3,177;    0,318
785,482;26628,991;    1,368;    2,591
786,049;27076,881;    0,186;   -0,591
786,615;27164,407;    0,277;   -0,955
787,182;26861,661;    0,186;   -0,682
787,749;26550,005;   -2,814;    1,409
788,315;25936,532;   -1,632;   -0,409
788,882;26204,785;    1,550;   -1,227
789,448;26931,221;    1,732;   -0,955
790,015;26918,747;    1,095;    3,227
790,581;26514,183;    1,459;    0,227
791,148;26404,073;    0,641;    1,045
791,714;26615,508;   -0,541;    3,136
792,280;26240,307;    0,186;    1,591
792,847;25746,925;    0,550;    2,500
793,413;26356,178;   -0,269;   -0,318
793,979;25920,250;    3,459;   -1,318
794,545;26039,413;    4,459;    2,682
795,111;25404,212;    2,186;    1,318
795,678;25539,647;    0,731;   -1,682
796,244;25183,537;    3,368;    0,136
796,810;25740,791;    1,731;    0,773
797,375;25431,227;    0,549;   -2,136
797,941;25464,662;   -0,541;    0,591
798,507;25654,643;   -0,451;   -0,955
799,073;25129,351;   -0,360;    0,591
799,639;25168,878;   -2,632;    3,136
800,205;25180,586;    0,095;    2,682
800,770;24738,930;    0,640;    1,773
801,336;24835,002;    1,368;   -0,955
801,901;24537,165;    4,549;    3,136
802,467;25099,782;   -0,542;    2,045
803,033;24394,763;   -0,087;    0,864
803,598;24617,380;    1,913;   -1,045
804,163;24641,725;    1,095;   -0,318
804,729;24621,070;   -0,178;    1,136
805,294;25051,323;    0,822;    2,227
805,859;24777,395;    0,731;   -0,409
806,425;24266,285;    1,186;    2,682
806,990;23943,084;    2,186;    4,318
807,555;24451,247;   -1,451;    2,591
808,120;24287,682;    0,822;   -0,409
808,685;24362,936;    0,185;   -2,500
809,250;23807,735;    0,004;   -0,500
809,815;24099,807;    1,913;    0,682
810,380;24709,152;   -0,269;    1,591
810,945;25286,042;   -1,087;    2,045
811,510;24372,204;    2,094;    1,591
812,075;24084,731;   -0,633;   -1,409
812,640;24146,166;    2,003;    1,409
813,204;24199,965;    0,822;   -0,227
813,769;24653,219;    2,094;   -0,045
814,334;24024,836;    0,458;    0,864
814,898;24104,363;    0,367;    0,591
815,463;23952,616;    1,276;   -0,773
816,027;23895,688;   -0,724;   -2,318
816,592;23986,578;    0,640;   -2,045
817,156;23511,377;    2,094;    1,136
817,721;23391,813;    4,276;    2,318
818,285;23282,885;    2,912;    1,500
818,849;24015,320;   -1,451;    1,682
819,414;23870,301;   -0,269;    2,955
819,978;23427,282;   -1,269;    1,773
820,542;24017,081;    2,003;    0,500
821,106;23737,971;   -0,815;    0,682
821,670;23858,952;   -0,815;    2,591
822,234;23553,115;   -0,270;    1,409
822,798;22882,641;    0,003;    0,500
823,362;22838,258;   -0,633;    4,227
823,926;22127,694;    0,094;    1,136
824,490;22378,675;   -0,997;   -0,682
825,054;22863,292;   -0,088;   -1,136
825,618;22442,637;   -1,542;   -1,500
826,181;22405,436;    0,458;   -1,318
826,745;22378,417;    1,367;   -1,045
827,309;22677,034;    1,185;    1,318
827,872;22016,015;    1,367;    0,955
828,436;23024,632;    1,185;   -0,773
828,999;23042,068;   -0,997;    1,227
829,563;21811,594;   -0,179;    1,136
830,126;21692,211;   -0,179;   -0,591
830,690;21700,738;   -1,997;    2,864
831,253;21178,809;   -0,543;    2,227
831,816;21374,699;   -1,906;    0,500
832,380;21277,590;    0,185;    0,864
832,943;21504,570;   -1,361;   -0,500
833,506;20927,006;    2,639;   -1,227
834,069;21705,987;    3,912;   -0,955
834,632;21786,604;    1,730;    1,318
835,195;21714,403;    1,003;    0,955
835,758;20847,293;   -0,997;    1,955
836,321;20717,183;    0,730;   -1,045
836,884;20805,164;   -0,725;   -0,955
837,447;20794,236;   -2,816;    1,773
838,010;21130,853;    0,366;    3,227
838,573;21412,925;   -1,179;    0,773
839,135;21358,724;   -1,361;   -0,955
839,698;20768,523;    1,275;    0,409
840,261;20288,050;    1,003;   -0,227
840,823;20088,394;   -0,543;    0,864
841,386;20369,375;   -0,452;   -2,409
841,948;20326,265;   -1,361;    1,773
842,511;20004,883;    0,912;    1,682
843,073;20150,954;    1,912;    0,227
843,636;19885,117;   -0,361;   -0,227
844,198;19874,643;    0,911;    0,591
844,760;20017,352;    1,093;    1,955
845,322;19678,878;    0,548;    1,136
845,885;20105,314;    0,730;    0,591
846,447;20530,567;   -1,998;    0,227
847,009;20111,457;    1,911;   -0,682
847,571;20446,438;    0,820;   -2,045
848,133;20560,419;   -1,089;   -1,864
848,695;20316,945;   -0,543;    1,409
849,257;19884,017;   -1,089;   -1,682
849,819;20060,362;   -0,998;   -0,409
850,381;20091,434;   -0,725;   -0,864
850,942;20523,324;    1,093;   -0,591
851,504;20501,396;    1,184;    0,227
852,066;20472,195;    1,275;   -1,591
852,628;19983,903;   -0,180;    1,955
853,189;19549,975;    1,638;    2,682
853,751;19682,683;   -0,907;    1,409
854,312;19499,482;   -0,453;   -1,682
854,874;19973,554;   -2,089;   -0,773
855,435;20532,626;   -0,907;   -1,682
855,997;20725,516;   -1,816;   -0,136
856,558;20002,769;    0,366;    1,773
857,119;20089,568;    0,820;    2,864
857,681;19762,549;    0,002;    0,318
858,242;19776,439;    1,911;   -2,136
858,803;20204,511;    0,456;   -0,773
859,364;20800,765;    0,184;   -4,773
859,925;20133,928;   -2,453;   -0,955
860,486;20006,272;   -0,453;   -0,955
861,047;19663,708;   -0,544;   -1,227
861,608;19497,507;   -1,089;   -0,773
862,169;19604,488;    0,638;   -0,045
862,730;19349,650;    0,456;    1,409
863,291;19640,177;   -0,635;   -0,500
863,852;20031,521;   -0,635;    1,955
864,412;19452,230;   -0,271;   -0,864
864,973;17989,938;   -0,089;    0,500
865,534;17887,282;   -1,726;    0,227
866,094;19424,900;    1,820;    0,227
866,655;19070,608;    1,274;    3,318
867,215;19304,134;    0,274;    0,136
867,776;19126,661;    0,547;   -0,136
868,336;19236,187;   -1,453;    0,136
868,897;18710,986;    2,638;    1,682
869,457;18428,422;    1,365;    0,318
870,017;18645,402;    0,547;   -1,227
870,578;19214,929;   -0,817;    0,773
871,138;18959,455;   -2,089;   -0,955
871,698;18467,436;   -0,817;   -1,318
872,258;18325,963;   -0,453;   -2,864
872,818;18731,034;    2,729;    0,045
873,378;18666,288;    0,638;    1,045
873,938;18142,542;    0,547;    0,500
874,498;18532,614;    0,274;   -1,955
875,058;18438,413;    2,183;    1,773
875,618;18258,484;    1,910;   -2,682
876,177;18197,465;    1,274;    0,136
876,737;17781,355;   -0,090;    1,955
877,297;17836,609;    0,183;    1,955
877,856;17835,681;   -0,362;    0,318
878,416;17766,571;    1,183;   -0,136
878,976;18033,461;   -1,817;    0,409
879,535;18236,896;    0,092;    3,136
880,095;17910,514;   -0,544;    0,045
880,654;18042,767;   -1,090;    1,318
881,213;18154,839;    2,456;    1,500
881,773;17738,911;    2,637;    2,682
882,332;18113,892;    3,365;    5,136
882,891;17967,327;    3,092;    2,136
883,451;18444,763;   -1,272;    1,682
884,010;17824,562;   -2,908;   -0,409
884,569;17953,361;   -0,999;   -0,045
885,128;18123,978;    2,819;   -1,864
885,687;18199,778;    4,455;    0,682
886,246;17873,758;    1,455;    2,136
886,805;17695,012;    2,455;    2,045
887,364;17943,538;   -0,999;   -0,500
887,922;18318,792;   -1,181;    0,045
888,481;17805,319;   -1,545;    0,591
889,040;18154,663;    1,183;    2,136
889,599;18820,917;    2,455;    1,409
890,157;18900,079;    1,455;    2,409
890,716;18590,969;   -0,090;    0,227
891,274;18394,132;    0,092;   -1,136
891,833;18803,477;    1,546;    0,864
892,391;18718,367;   -0,454;    0,500
892,950;18756,075;    1,819;   -0,773
893,508;19117,056;    0,455;   -0,409
894,067;18384,491;    0,637;    0,136
894,625;18300,927;   -0,636;   -1,500
895,183;18548,635;   -0,363;   -0,682
895,741;18477,252;    1,728;   -1,773
896,299;18282,142;   -0,545;   -2,409
896,858;18462,305;    0,819;   -1,591
897,416;18596,104;    2,728;   -1,318
897,974;18346,085;    1,819;    0,318
898,532;18535,612;    6,091;    2,682
899,089;18396,047;    2,091;   -0,682
899,647;18404,664;   -1,454;    1,318
900,205;18120,827;    1,182;    1,045
900,763;18305,990;   -0,454;    0,227
901,321;18329,698;    2,364;   -1,409
901,878;17703,224;   -1,000;   -0,773
902,436;17625,751;   -1,363;    1,318
902,994;18018,823;    4,728;    3,682
903,551;17397,622;    0,728;    0,409
904,109;17762,694;    0,182;   -1,409
904,666;17332,584;    2,455;    1,045
905,224;17186,383;    0,182;   -0,409
905,781;16935,818;    0,727;   -0,318
906,338;16970,254;   -1,363;    1,045
906,895;16945,598;    0,637;    2,045
907,453;16872,397;    1,727;    1,136
908,010;16879,287;   -0,909;    0,409
908,567;16520,905;    1,273;    0,591
909,124;16000,886;    0,364;   -1,500
909,681;16083,866;   -2,909;    0,682
910,238;16216,756;    0,636;   -1,318
910,795;16495,465;   -0,273;   -1,136
911,352;16080,646;   -2,909;   -2,682
911,909;15474,646;   -1,364;   -0,864
912,466;16018,010;   -3,182;    1,500
913,022;15567,556;   -1,636;    0,500
913,579;15964,283;   -0,909;    2,045
914,136;15588,465;    1,636;    0,955
914,692;15953,556;    0,091;   -1,227
915,249;15562,737;    1,455;    0,409
915,806;15782,646;    0,182;    1,955
916,362;15514,919;    1,909;    1,864
916,918;15076,919;    2,000;    1,045
917,475;15030,010;   -1,182;    0,955
918,031;15098,101;    3,364;   -0,045
918,587;14562,283;   -0,909;   -0,318
919,144;14750,465;   -2,273;    0,227
919,700;15079,919;    1,727;    0,773
920,256;14661,010;    0,727;    0,045
920,812;14250,283;   -0,727;   -1,045
921,368;14253,465;   -1,727;   -1,045
921,924;13830,828;    0,182;   -0,136
922,480;13442,919;   -0,545;    1,227
923,036;14087,919;    1,273;    1,955
923,592;13984,465;    0,455;    0,318
924,148;13935,737;    0,455;   -0,955
924,704;13262,101;   -1,364;   -0,409
925,259;13428,646;   -0,273;    0,591
925,815;13241,556;    1,455;    0,500
926,371;12702,828;    2,909;    1,409
926,926;12580,192;    2,091;    0,591
927,482;12189,556;   -1,364;    0,773
928,037;12079,556;    0,909;    2,045
928,593;12380,283;    1,636;    1,045
929,148;12160,465;   -1,818;   -1,500
929,704;11649,919;   -1,455;   -0,500
930,259;11848,192;    0,091;   -0,136
930,814;10912,374;   -0,818;    1,955
931,369;10540,828;    1,091;   -0,773
931,925;10406,101;   -0,091;    0,136
932,480;10324,828;   -2,818;   -2,591
933,035;10235,283;    0,545;   -0,318
933,590; 9941,556;    0,364;   -1,773
934,145; 9518,646;   -1,364;   -0,318
934,700; 9869,737;    0,455;   -0,591
935,255; 9695,556;   -0,091;    0,045
935,809; 8930,737;    3,182;    0,864
936,364; 8018,737;   -0,455;   -0,136
936,919; 7960,465;    0,455;   -1,773
937,474; 7830,828;    1,455;    0,136
938,028; 7577,374;   -1,636;    1,136
938,583; 7034,010;    1,818;    4,682
939,138; 7311,465;    2,091;    2,136
939,692; 6722,010;    1,636;   -1,136
940,247; 6427,465;   -0,727;   -1,045
940,801; 5927,010;   -0,636;    0,227
941,355; 5780,010;   -0,364;    2,591
941,910; 5418,010;   -0,273;   -2,136
942,464; 5550,828;   -0,818;   -0,318
943,018; 5328,646;    1,000;   -0,227
943,572; 5269,919;    2,545;   -0,682
944,126; 4651,101;    0,091;   -0,409
944,681; 4549,101;    3,091;    0,227
945,235; 4514,101;    1,000;   -0,591
945,789; 4473,192;    0,364;   -1,864
946,342; 4568,101;    0,455;   -0,591
946,896; 4368,374;   -2,273;    0,955
947,450; 4117,556;    1,545;   -0,227
948,004; 4321,283;    1,727;   -0,045
948,558; 4329,374;    0,273;   -0,864
949,111; 4237,101;   -0,273;   -0,318
949,665; 4267,465;    1,636;   -0,682
950,219; 4127,192;   -0,091;   -1,045
950,772; 4232,283;   -1,909;    1,864
951,326; 4082,556;    0,545;   -0,955
951,879; 4208,919;    0,727;   -2,318
952,433; 4227,101;    0,000;    2,227
952,986; 4059,010;    2,909;    0,682
953,539; 4051,010;   -0,273;    0,591
954,093; 3957,737;    0,545;   -1,318
954,646; 4086,192;    0,909;    1,318
955,199; 3908,737;    0,000;   -0,500
955,752; 3794,101;   -0,455;    1,773
956,305; 3742,828;   -0,091;    2,955
956,858; 3918,374;    0,818;   -0,318
957,411; 4079,919;   -0,545;    2,136
957,964; 3911,101;    1,364;    2,136
958,517; 3894,465;   -1,545;    3,136
959,070; 3730,737;   -0,455;    1,955
959,623; 3773,192;    1,091;    1,500
960,176; 3530,374;    1,727;    2,045
960,728; 3517,283;   -2,727;    0,773
961,281; 3584,283;    0,545;    0,500
961,834; 3636,283;   -0,909;    0,864
962,386; 3542,374;    1,727;    1,045
962,939; 3462,374;    0,364;   -0,318
963,491; 3610,465;    0,455;    1,136
964,043; 3470,556;    1,182;    2,409
964,596; 3595,101;   -1,000;    2,227
965,148; 3452,828;   -1,000;    1,773
965,700; 3374,101;    1,091;   -0,227
966,253; 3529,919;   -0,636;    0,318
966,805; 3344,192;   -2,273;    0,773
967,357; 3398,101;    1,091;   -1,500
967,909; 3358,556;    0,455;   -1,227
968,461; 3452,646;    0,545;    3,136
969,013; 3394,374;   -0,182;   -0,864
969,565; 3468,646;   -0,455;   -1,136
970,117; 3509,919;   -0,364;    1,045
970,669; 3355,465;    0,182;   -0,136
971,220; 3227,646;   -0,455;   -1,500
971,772; 3162,374;   -0,636;   -0,318
972,324; 3278,646;    0,091;   -0,500
972,876; 3216,374;    0,818;   -0,045
973,427; 3369,283;    1,909;   -1,045
973,979; 3308,192;   -0,727;   -2,500
974,530; 3369,283;    1,818;    1,318
975,082; 3366,374;   -0,545;    1,682
975,633; 3272,646;    1,091;    1,682
976,184; 3387,283;    0,909;    0,773
976,736; 3161,374;    0,091;    0,227
977,287; 2969,646;   -0,909;   -0,500
977,838; 3153,828;    0,909;   -0,318
978,389; 3227,010;   -1,000;   -0,500
978,940; 3093,283;    0,545;   -0,409
979,491; 3111,737;    0,091;   -0,500
980,042; 3090,737;    0,182;    3,045
980,593; 3132,374;   -2,545;    0,227
981,144; 3156,919;    2,545;   -0,500
981,695; 3121,828;    1,455;    1,500
982,246; 3100,737;   -0,273;    1,045
982,797; 3281,919;   -1,727;    0,682
983,347; 3366,919;    0,364;    0,591
983,898; 3560,737;    3,091;    0,409
984,449; 3356,737;    2,182;    0,773
984,999; 3273,010;    1,455;   -1,136
985,550; 3029,919;    0,182;   -0,318
986,100; 3061,828;   -0,455;   -0,318
986,651; 3089,556;   -0,818;    0,045
987,201; 3093,374;   -1,000;   -0,591
987,751; 3175,465;    0,818;    2,864
988,302; 3160,192;    2,636;    1,500
988,852; 3189,646;    0,455;   -1,136
989,402; 3225,556;    0,091;    0,682
989,952; 3135,101;   -2,182;    0,864
990,502; 3224,737;   -0,091;    0,682
991,052; 3198,465;   -0,727;    0,045
991,602; 3054,465;   -2,909;    1,318
992,152; 3059,737;    0,455;    0,682
992,702; 3030,192;    1,364;   -0,045
993,252; 2958,283;   -3,000;   -0,500
993,802; 3047,283;   -0,273;    1,318
994,352; 3291,828;   -1,545;    1,136
994,901; 3385,646;   -0,182;    3,227
995,451; 3283,465;   -0,182;    0,318
996,000; 3368,101;    1,636;    0,318
996,550; 3077,192;    2,273;    0,227
997,100; 3084,919;    1,273;   -0,045
997,649; 3398,192;    2,182;    0,955
998,198; 2992,556;    1,727;   -1,500
998,748; 3192,556;    1,091;   -2,318
999,297; 3090,919;   -0,818;   -0,409
999,846; 3155,374;    1,000;   -0,773
1000,395; 3215,646;   -0,818;    0,500
1000,945; 3172,010;    1,818;   -0,773
1001,494; 3263,828;    2,364;    0,682
1002,043; 3240,919;    4,636;    0,864
1002,592; 3077,828;   -1,091;    1,955
1003,141; 3221,465;   -0,455;   -0,682
1003,690; 3074,556;    1,727;    0,500
1004,238; 3178,010;    1,455;   -0,045
1004,787; 2804,556;    1,364;    1,227
1005,336; 3043,374;    0,364;    0,682
1005,885; 3197,919;    1,364;   -2,773
1006,433; 3336,556;    0,545;    0,955
1006,982; 3378,010;    0,455;    1,682
1007,531; 3285,465;   -1,818;   -0,227
1008,079; 3259,374;   -2,273;    0,500
1008,627; 3396,919;   -1,455;    0,409
1009,176; 3102,010;    0,000;   -1,955
1009,724; 3170,556;    1,091;    0,864
1010,273; 3218,919;    1,273;    0,500
1010,821; 3323,737;    0,091;    1,409
1011,369; 3040,374;   -1,364;    1,318
1011,917; 3039,919;   -1,364;   -0,591
1012,465; 3319,556;    1,273;   -1,591
1013,013; 3431,828;    2,091;   -1,682
1013,561; 3305,465;    0,455;   -0,773
1014,109; 3363,828;   -1,909;    1,682
1014,657; 3242,465;    0,364;    0,591
1015,205; 3370,646;    1,636;   -0,955
1015,753; 3406,101;   -0,545;   -1,409
1016,301; 3441,465;   -2,636;    3,045
1016,848; 3457,010;   -1,273;    0,409
1017,396; 3481,919;    2,545;    0,045
1017,944; 3605,465;    1,182;    1,864
1018,491; 3350,192;    0,273;    1,409
1019,039; 3504,101;    0,455;    0,591
1019,586; 3410,828;   -1,364;    1,682
1020,134; 3520,919;    0,455;    1,500
1020,681; 3556,646;    0,182;   -1,136
1021,228; 3542,283;    2,909;   -2,227
1021,776; 3383,374;    1,182;   -1,136
1022,323; 3604,465;    0,455;    0,773
1022,870; 3538,283;   -1,000;   -0,045
1023,417; 3395,919;    2,636;    1,864
1023,964; 3554,556;    2,636;    1,227
1024,511; 3408,646;    1,000;    0,773
1025,058; 3193,374;    3,182;   -0,045
1025,605; 3245,010;   -2,273;    3,136
1026,152; 3494,192;    1,727;   -0,591
1026,699; 3201,465;    1,818;    1,318
1027,245; 3357,283;   -0,091;    0,318
1027,792; 3591,101;   -1,000;    1,409
1028,339; 3467,283;    2,364;   -0,045
1028,885; 3304,374;    1,000;   -0,227
1029,432; 3246,101;   -0,091;    0,227
1029,978; 3316,192;   -1,000;   -1,591
1030,525; 3220,646;    1,000;    0,409
1031,071; 3468,465;   -1,364;    1,136
1031,618; 3554,010;    0,364;    1,682
1032,164; 3325,374;   -0,091;    3,045
1032,710; 3379,556;    1,636;   -1,500
1033,256; 3283,919;   -0,636;   -0,136
1033,803; 3263,192;   -0,545;    1,500
1034,349; 2966,374;   -1,364;    0,136
1034,895; 3131,192;    0,000;   -0,318
1035,441; 3127,192;   -0,818;    0,318
1035,987; 3094,192;   -2,364;   -0,682
1036,533; 3104,919;   -1,455;   -0,955
1037,078; 3323,010;    1,455;    1,682
1037,624; 3131,556;    2,455;   -0,955
1038,170; 3155,828;    0,455;   -0,318
1038,716; 3067,828;    1,636;   -0,409
1039,261; 2979,192;   -2,273;   -0,773
1039,807; 2907,010;   -0,091;    3,409
1040,352; 2986,374;   -1,909;   -0,318
1040,898; 3030,737;   -1,545;   -0,682
1041,443; 2944,192;   -1,455;   -2,591
1041,989; 2956,010;    1,091;    1,591
1042,534; 2841,556;   -0,364;    2,591
1043,079; 2942,556;    2,909;    0,955
1043,625; 2726,465;    1,818;    0,500
1044,170; 2780,828;   -1,364;    1,045
1044,715; 3033,101;    2,455;    0,955
1045,260; 2850,556;    2,182;   -0,955
1045,805; 2886,283;    1,182;   -0,591
1046,350; 2812,556;    1,364;   -0,409
1046,895; 2755,101;    2,909;    1,591
1047,440; 2736,283;    5,364;    0,409
1047,985; 2628,374;    2,818;   -0,955
1048,530; 2537,556;    1,545;    1,227
1049,074; 2596,283;    0,000;    0,318
1049,619; 2557,828;   -1,364;    1,955
1050,164; 2363,010;    0,455;    0,227
1050,708; 2423,192;   -0,455;    0,045
1051,253; 2787,828;    1,273;   -2,227
1051,797; 2479,465;    0,818;   -1,318
1052,342; 2498,101;   -1,182;    1,045
1052,886; 2491,010;    0,364;   -1,409
1053,430; 2367,737;   -1,364;    0,136
1053,975; 2393,101;   -0,818;   -0,318
1054,519; 2357,283;   -0,727;    3,227
1055,063; 2368,192;    0,909;    1,318
1055,607; 2273,374;   -0,182;    0,227
1056,151; 2283,646;    2,909;    1,682
1056,695; 2190,556;    2,273;   -1,136
1057,239; 2263,374;   -1,727;   -0,682
1057,783; 2277,101;    0,818;   -1,500
1058,327; 2233,374;    0,000;    1,409
1058,871; 2448,465;   -0,545;    1,318
1059,415; 2163,646;   -0,818;   -0,045
1059,958; 2423,101;    1,455;    2,591
1060,502; 2133,374;   -1,000;   -0,773
1061,046; 2046,101;    0,364;   -0,955
1061,589; 2029,465;   -3,000;   -1,136
1062,133; 1903,192;   -1,273;    1,864
1062,676; 1846,374;    1,182;    0,864
1063,220; 1844,465;    1,091;    0,500
1063,763; 1879,919;    0,909;    1,136
1064,306; 1958,101;   -0,909;    1,864
1064,849; 1833,465;   -0,909;    0,591
1065,393; 1850,374;    2,000;   -1,500
1065,936; 1948,556;    0,182;   -0,409
1066,479; 1830,556;   -1,455;    1,318
1067,022; 1842,465;   -0,273;   -0,227
1067,565; 1750,737;   -0,091;   -1,318
1068,108; 1763,737;    0,727;   -0,591
1068,651; 1748,101;   -0,636;    1,409
1069,194; 1683,646;   -0,455;   -1,682
1069,736; 1690,737;   -1,273;    0,955
1070,279; 1648,556;   -1,364;   -0,500
1070,822; 1706,556;   -2,000;   -0,318
1071,364; 1807,374;   -0,364;    1,318
1071,907; 1612,737;   -0,727;    3,227
1072,450; 1513,737;    0,000;   -0,045
1072,992; 1513,192;   -0,273;    3,136
1073,535; 1657,556;    2,091;    2,136
1074,077; 1444,646;   -0,727;    2,045
1074,619; 1407,374;   -1,364;    0,591
1075,161; 1441,556;   -1,091;    1,500
1075,704; 1626,010;    1,545;    1,227
1076,246; 1425,283;   -0,182;    0,682
1076,788; 1340,465;   -0,364;    1,773
1077,330; 1413,374;    1,273;    2,136
1077,872; 1385,919;    0,909;    0,955
1078,414; 1618,556;    2,727;    0,773
1078,956; 1347,283;    1,273;   -0,227
1079,498; 1618,192;    1,636;    0,318
1080,040; 1318,556;    1,909;   -1,318
1080,581; 1244,465;    1,636;   -0,318
1081,123; 1168,646;    0,091;   -0,773
1081,665; 1219,192;   -1,182;   -0,955
1082,206; 1543,192;    1,364;   -0,500
1082,748; 1390,919;    0,727;    2,045
1083,289; 1249,101;   -2,000;    1,318
1083,831; 1152,737;   -0,545;    0,227
1084,372; 1203,737;    0,000;    0,591
1084,913; 1201,283;    1,091;    0,864
1085,455; 1156,828;   -1,909;   -2,045
1085,996; 1134,465;   -2,273;    0,136
1086,537; 1158,556;   -0,091;    0,864
1087,078; 1190,010;   -0,909;   -2,136
1087,619; 1227,192;   -1,273;    0,227
1088,160; 1146,101;    0,000;    1,318
1088,701; 1136,737;   -1,091;    0,682
1089,242; 1068,646;    1,364;   -2,227
1089,783; 1177,919;   -0,273;    1,409
1090,324; 1137,919;    0,455;    0,682
1090,865; 1003,283;    2,727;   -0,409
1091,405;  963,646;    0,727;    2,227
1091,946; 1002,556;    0,182;   -0,955
1092,487;  931,101;    0,818;   -1,409
1093,027; 1113,465;   -1,364;   -1,500
1093,568;  949,283;   -0,364;    1,227
1094,108; 1061,283;    0,273;    1,773
1094,649;  981,646;   -1,182;    0,136
1095,189;  924,465;   -0,636;   -0,682
1095,729;  874,556;   -0,091;    0,955
1096,269;  870,465;    0,727;   -0,955
1096,810; 1197,192;   -1,364;    0,500
1097,350; 1029,374;    1,364;   -0,773
1097,890;  930,646;    0,364;    1,227
1098,430; 1201,010;    2,364;    2,864
1098,970; 1059,465;    2,182;    1,682
1099,510;  911,737;    0,545;   -2,318
1100,050;  834,646;    1,000;   -1,591
1100,589;  799,283;   -0,727;   -0,318
1101,129;  934,101;    0,818;   -0,955
1101,669; 1103,010;    1,727;    2,136
1102,209;  912,374;   -0,091;    2,227
1102,748;  866,556;    0,000;    0,955
1103,288;  851,919;    1,273;   -1,227
1103,827;  888,646;    3,091;   -2,227
1104,367;  757,010;   -0,091;   -2,409
1104,906;  707,374;    1,364;   -1,136
1105,445;  782,828;    0,636;   -1,136
1105,985;  729,828;   -0,727;    1,500
1106,524;  794,465;   -1,727;   -0,682
1107,063;  761,192;   -2,727;    1,409
1107,602;  735,010;   -1,909;   -1,500
1108,141;  649,283;   -1,909;    1,500
1108,680;  764,101;   -3,455;   -0,591
1109,219;  682,101;   -0,909;   -0,500
1109,758;  679,919;    0,455;    0,682
1110,297;  664,192;    1,000;   -0,682
1110,836;  609,192;   -0,727;    0,955
1111,375;  777,919;   -2,545;    0,409
1111,913;  788,374;   -1,000;    0,773
1112,452;  720,919;   -0,273;    0,136
1112,991;  605,101;    1,091;    1,955
1113,529;  559,556;   -0,818;   -0,045
1114,068;  639,192;   -0,273;    2,955
1114,606;  528,374;   -0,364;   -0,955
1115,144;  711,737;   -1,273;    1,045
1115,683;  632,828;   -0,727;    0,318
1116,221;  677,010;   -0,455;   -0,864
1116,759;  575,737;    0,636;   -0,864
1117,297;  795,828;    0,000;    1,864
1117,836;  606,556;   -2,182;   -1,227
1118,374;  614,828;    0,182;   -0,682
1118,912;  538,465;    0,909;    2,682
1119,450;  521,283;    1,000;    0,864
1119,988;  585,192;    1,545;    2,136
1120,525; 1055,646;    5,091;    3,318
1121,063;  744,010;    1,182;    1,864
1121,601;  545,828;   -0,909;   -1,227
1122,139;  502,646;   -0,727;   -2,045
1122,676;  712,010;   -0,727;    2,773
1123,214;  639,101;   -1,182;    4,409
1123,751;  438,192;    1,727;    2,227
1124,289;  577,101;   -0,091;   -0,409
1124,826;  439,737;    1,727;    0,227
1125,364;  348,192;    1,727;   -0,955
1125,901;  560,374;    1,182;    1,227
1126,438;  685,010;    0,818;    0,955
1126,975;  383,374;   -0,727;   -0,773
1127,513;  463,646;    0,273;    2,136
1128,050;  363,374;    1,636;   -0,682
1128,587;  463,646;    2,000;   -0,227
1129,124;  514,919;    0,091;    1,318
1129,661;  366,646;    0,273;    0,227
1130,198;  546,646;    1,636;    0,773
1130,734;  486,919;    0,182;    1,409
1131,271;  340,010;   -0,909;    0,864
1131,808;  524,646;    2,909;    3,045
1132,345;  385,828;    1,545;    0,318
1132,881;  245,010;   -1,545;   -1,864
1133,418;  397,919;    0,727;   -1,136
1133,954;  335,101;    2,455;   -2,682
1134,491;  415,374;    1,364;   -0,773
1135,027;  308,737;    2,364;    0,864
1135,564;  400,010;    0,273;    2,955
1136,100;  384,556;    0,364;    2,136
1136,636;  259,010;   -1,273;   -1,045
1137,172;  366,465;    0,000;   -1,045
1137,708;  286,556;   -1,364;   -1,045
1138,245;  291,737;    1,273;   -1,227
1138,781;  242,192;    1,091;   -3,318
1139,317;  323,465;    1,273;   -1,409
1139,852;  302,192;    3,091;    0,136
1140,388;  427,192;   -1,182;   -0,409
1140,924;  304,101;   -1,091;   -2,227
1141,460;  230,919;   -1,636;    0,136
1141,996;  158,374;   -1,364;    2,682
1142,531;  222,465;    1,364;    3,318
1143,067;  453,646;    1,182;    1,045
1143,602;  518,828;   -0,091;   -0,318
1144,138;  349,465;   -2,636;    1,045
1144,673;  207,283;   -1,455;    1,409
1145,209;  281,919;   -1,909;   -0,318
1145,744;  188,101;   -0,727;    0,864
1146,279;  336,010;    1,818;   -0,136
1146,815;  241,828;    1,545;   -2,682
1147,350;  289,737;   -1,364;    0,045
1147,885;  196,192;   -0,818;   -1,318
1148,420;  196,192;   -2,273;    0,773
1148,955;  178,374;   -1,727;    1,864
1149,490;  205,828;   -0,909;   -1,591
1150,025;  192,556;    0,455;   -1,773
1150,560;  312,465;    1,091;   -0,955
1151,094;  270,919;    1,455;   -0,591
1151,629;  273,919;    1,636;    0,864
1152,164;  193,010;    1,364;    1,318
1152,698;  148,010;   -0,182;   -0,136
1153,233;  107,374;    0,091;   -0,682
1153,767;  167,101;   -3,000;   -2,318
1154,302;  218,556;   -1,455;    1,773
1154,836;  205,192;   -0,455;   -2,136
1155,371;  262,919;   -1,364;    3,682
1155,905;  217,828;   -0,636;    1,682
1156,439;  182,556;   -0,636;   -0,500
1156,973;  220,192;    0,364;    0,318
1157,507;  147,465;   -0,364;    0,682
1158,042;  180,646;   -0,727;    1,045
1158,576;  243,828;    0,182;    1,773
1159,110;  217,283;   -0,818;    2,409
1159,643;  184,828;    0,636;   -0,045
1160,177;  123,646;   -1,545;    1,500

