
Integration time [ms]:   0,040
Averaging Nr. [scans]: 11
Smoothing Nr. [pixels]: 0
Data measured with spectrometer [name]: 7318044SP
Wave   ;Sample   ;Dark     ;Reference
[nm]   ;[counts] ;[counts] ;[counts] 

186,757;   -0,134;   31,551;    1,318
187,357;   25,455;   22,551;    0,955
187,958;    9,191;   15,460;   -1,591
188,558;   36,258;    8,915;   -1,227
189,159;    9,049;    6,733;   -4,500
189,759;  -10,963;    7,278;   -3,591
190,360;  -16,654;    2,824;   -2,136
190,960;   14,800;    2,915;   -4,136
191,560;   14,390;    3,189;   -6,591
192,161;  221,386;    4,372;   -3,500
192,761;   93,278;    4,010;   -3,227
193,361;   39,663;    1,556;   -3,773
193,962;   68,681;    2,010;   -2,682
194,562;   -0,088;    1,189;   -3,955
195,162;   13,573;   -2,448;   -2,227
195,762;  119,857;   -3,176;   -0,045
196,362;   80,324;    1,370;   -2,500
196,963;   -0,254;    2,006;   -0,864
197,563;   44,335;    1,551;   -0,955
198,163;   -4,952;    0,096;   -0,682
198,763;    5,041;    1,733;   -0,500
199,363;   49,701;    3,096;   -0,500
199,963;   20,613;    0,369;    0,409
200,563;   14,364;    2,823;   -1,409
201,163;    1,709;    3,277;   -0,227
201,763;   26,052;    3,732;    0,318
202,363;   -0,737;    1,459;    1,500
202,963;   27,361;    1,459;    1,045
203,563;   78,360;    0,277;    0,500
204,162;   15,213;    2,096;   -1,864
204,762;    8,606;    0,550;    0,591
205,362;   -8,816;    3,004;    1,955
205,962;   15,905;    3,096;    1,955
206,562;    9,791;    1,823;    2,318
207,161;   -0,484;   -0,087;    0,318
207,761;   69,362;    1,277;    2,409
208,361;    4,821;   -0,268;    1,409
208,960;   22,004;    0,459;    1,500
209,560;   12,655;    1,277;    1,591
210,160;   27,852;    0,550;    1,864
210,759;   10,928;    4,186;    1,227
211,359;    1,897;    1,459;    1,045
211,958;   91,355;    1,277;    2,045
212,558;   88,167;    1,732;    1,864
213,157;   31,438;    1,822;    1,500
213,757;  163,176;    3,822;   -0,227
214,356;   62,428;    1,277;   -0,409
214,956;  137,448;    3,095;    0,409
215,555;   39,924;    2,095;    2,136
216,154;    4,586;   -2,723;   -0,591
216,754;    4,796;    0,277;    0,773
217,353;   19,249;   -0,268;   -1,045
217,952;  -12,762;   -0,178;    0,318
218,552;   38,679;    1,368;   -0,773
219,151;    2,080;    0,277;    0,955
219,750;   -2,137;    0,004;   -0,227
220,349;  -17,054;   -0,451;    1,045
220,948;   46,112;   -1,360;    1,136
221,548;    1,309;    0,913;    1,227
222,147;    5,769;   -0,087;   -0,409
222,746;   77,336;   -0,451;   -0,955
223,345;   27,538;    0,731;    0,500
223,944;   20,781;   -0,451;    0,773
224,543;   26,510;    1,004;   -1,409
225,142;   16,594;    0,094;    0,136
225,741;   19,020;   -0,814;    1,045
226,340;   13,703;   -0,451;   -0,955
226,939;   59,070;   -0,996;   -0,136
227,538;    6,361;   -0,360;   -0,773
228,137;   68,430;   -0,814;    0,864
228,735;   42,716;   -0,541;    1,227
229,334;  -13,346;   -0,905;   -0,227
229,933;   58,404;    0,459;    0,591
230,532;   56,846;    1,186;   -0,409
231,131;   99,803;    1,732;    0,318
231,729;   45,656;   -2,450;   -2,318
232,328;   11,855;   -0,723;   -1,500
232,927;   20,771;    1,004;   -0,500
233,525;   16,749;    3,640;    0,045
234,124;   30,821;    2,368;   -1,591
234,723;    1,435;    0,913;   -1,045
235,321;  -13,635;    2,277;    0,136
235,920;    1,370;    1,186;   -1,227
236,518;   74,936;    3,459;    0,318
237,117;    8,905;    0,004;   -0,227
237,715;   18,250;    0,640;   -0,500
238,314;   23,804;   -0,087;   -2,318
238,912;   63,557;   -0,723;   -1,409
239,510;   34,704;    0,459;   -1,227
240,109;   80,819;    0,004;    3,773
240,707;   64,995;   -0,996;    1,227
241,305;    8,286;    0,550;    0,136
241,904;   34,922;   -0,178;   -2,045
242,502;   86,334;   -0,632;   -0,227
243,100;   41,551;   -0,087;   -0,955
243,698;    1,715;    0,732;    1,682
244,297;   15,731;   -0,632;    0,682
244,895;   13,575;   -0,269;   -2,318
245,493;   81,590;    2,186;   -0,591
246,091;   92,076;    1,368;   -1,318
246,689;   42,999;    1,004;    0,591
247,287;   42,442;    0,822;   -1,136
247,885;   21,342;   -1,451;    1,227
248,483;    6,158;    1,822;   -0,500
249,081;   40,775;    0,185;    1,591
249,679;   43,675;   -0,178;    1,682
250,277;   -0,196;   -1,723;    0,864
250,875;   41,901;   -1,087;   -1,045
251,473;    8,190;   -1,178;    0,500
252,071;   48,158;    1,459;    1,045
252,669;   10,508;   -1,814;    0,318
253,267;   -2,881;   -0,087;    0,773
253,864;   12,260;   -0,360;    0,682
254,462;   62,293;    1,640;    1,591
255,060;   -3,182;   -0,269;    1,318
255,658;   -4,764;    0,822;   -0,136
256,255;   10,002;    0,186;   -2,045
256,853;   30,342;   -0,269;    1,409
257,451;    2,255;    0,822;    1,864
258,048;  156,235;    1,822;    1,864
258,646;   60,216;    1,731;   -1,045
259,243;   99,978;   -0,087;    2,227
259,841;   53,741;   -0,814;    0,318
260,438;   -1,335;   -0,087;    0,864
261,036;   34,560;   -1,905;    1,409
261,633;    1,298;   -0,087;    2,227
262,231;  -10,606;    2,731;   -0,045
262,828;  -14,341;   -0,905;    1,136
263,425;   -4,192;    0,913;   -0,591
264,023;    0,727;    0,186;    0,045
264,620;   50,790;   -0,360;   -0,318
265,217;   83,676;   -2,087;    3,136
265,815;   14,167;   -1,905;    2,136
266,412;   39,921;    0,731;    0,136
267,009;   28,269;   -1,451;    0,773
267,606;   70,216;    0,822;   -0,955
268,203;   22,166;   -0,269;   -0,591
268,801;    9,912;    1,731;    0,591
269,398;   -2,221;   -0,360;    2,500
269,995;   33,568;    0,277;    1,591
270,592;   19,588;   -0,632;   -0,500
271,189;   -5,831;    0,186;    0,409
271,786;  -19,362;   -0,632;    1,227
272,383;   39,987;   -1,087;    0,227
272,980;   10,306;    0,277;    0,318
273,577;   -4,788;    0,004;    1,227
274,174;   -9,546;    0,822;    2,591
274,771;   28,054;   -0,814;   -0,773
275,367;  178,136;    2,277;    1,409
275,964;   85,290;    0,731;   -0,500
276,561;   12,830;    1,549;   -1,045
277,158;  -15,688;    0,095;   -1,773
277,755;   66,502;    2,185;    0,409
278,351;   35,503;   -0,451;   -1,500
278,948;   51,673;   -0,815;    0,045
279,545;   32,868;   -1,360;    2,318
280,141;   75,402;   -1,723;   -2,045
280,738;   69,264;   -0,451;   -0,136
281,334;    7,052;   -1,633;    0,591
281,931;   -3,985;   -0,087;   -1,318
282,528;   44,293;    0,822;   -0,500
283,124;   68,657;   -1,087;   -0,500
283,721;   65,344;   -0,451;    1,409
284,317;   17,507;    0,185;    2,500
284,913;   65,927;   -1,360;    0,591
285,510;  122,109;    0,640;   -0,318
286,106;   76,358;   -2,269;   -0,955
286,703;   34,689;   -0,360;    1,955
287,299;   15,650;   -1,451;   -0,591
287,895;   14,270;    0,822;   -1,045
288,491;    1,143;    0,186;    2,136
289,088;   33,627;   -2,360;    2,409
289,684;   37,145;   -1,723;    1,500
290,280;   97,263;    0,368;    0,682
290,876;   64,960;    1,822;    5,500
291,472;   49,792;    1,276;    2,227
292,068;   61,875;    1,367;    0,227
292,665;   27,287;    2,095;    0,773
293,261;    1,140;    0,276;    2,136
293,857;   46,837;    2,913;    2,136
294,453;   20,055;    3,550;    0,955
295,049;   99,428;   -0,268;    1,955
295,644;   45,734;    0,095;    0,136
296,240;   -3,870;   -0,905;   -0,136
296,836;   28,168;   -0,995;    0,318
297,432;   59,448;    1,096;   -0,500
298,028;   63,953;    0,732;    0,773
298,624;   27,580;    1,459;    1,864
299,220;   23,682;    2,368;    0,591
299,815;   15,836;    1,005;   -0,409
300,411;   53,337;    0,914;    1,773
301,007;   75,996;    1,368;    0,227
301,602;   20,569;   -0,541;   -2,318
302,198;   66,046;    0,732;   -0,773
302,794;   21,607;    1,187;   -0,500
303,389;   -4,162;   -1,177;    1,045
303,985;   14,588;    0,550;    1,409
304,580;   68,894;    1,459;    1,591
305,176;   21,402;   -3,086;    0,136
305,771;  -27,881;   -1,268;   -1,227
306,367;  131,449;    4,095;    0,136
306,962;   44,205;    0,641;    1,500
307,558;   66,608;   -0,450;    0,136
308,153;   46,479;    1,095;   -1,136
308,748;   -0,826;   -0,814;    1,682
309,344;  123,929;   -0,632;   -1,318
309,939;  109,809;   -1,905;   -1,318
310,534;   29,414;   -0,086;   -1,682
311,130;    7,666;    0,459;   -2,500
311,725;    3,735;    1,004;   -0,500
312,320;   19,515;    2,459;    0,045
312,915;   43,946;    1,459;   -1,045
313,510;  122,383;    1,550;   -0,500
314,105;   23,485;    1,096;    1,409
314,700;   -9,446;   -3,086;   -1,045
315,295;   17,349;   -0,904;    0,045
315,890;   -6,494;    1,277;    0,864
316,485;   30,979;   -0,359;   -0,318
317,080;   -2,005;   -3,086;    1,591
317,675;  117,228;    2,005;   -0,682
318,270;  217,794;    5,550;    3,318
318,865;  148,080;    3,278;    3,045
319,460;   82,270;   -0,904;    0,591
320,055;   15,000;   -0,541;   -1,227
320,650;   13,772;   -1,995;   -0,591
321,244;   20,020;   -0,177;   -1,409
321,839;   15,511;   -1,541;   -0,227
322,434;   32,333;   -1,086;   -1,591
323,029;    7,840;    1,732;    1,591
323,623;   -2,553;    1,550;    0,773
324,218;   82,393;    2,368;    1,409
324,812;   55,684;    1,096;    1,591
325,407;   45,725;   -0,814;    2,045
326,002;  110,217;    0,277;   -0,409
326,596;   64,869;    0,914;    1,318
327,191;   15,378;    0,823;   -1,045
327,785;   21,869;   -0,813;   -0,227
328,379;    7,131;    1,368;    0,136
328,974;   17,156;    0,914;   -3,955
329,568;   34,423;    0,186;   -2,409
330,163;   76,291;    2,096;    1,045
330,757;    5,457;    2,459;    1,591
331,351;  -11,362;    0,459;    0,682
331,945;  -17,015;    0,914;    1,409
332,540;   32,260;   -1,723;   -0,591
333,134;   28,039;   -1,086;    0,773
333,728;   39,052;    0,005;    0,318
334,322;    0,367;   -1,177;   -0,864
334,916;   -4,051;    0,277;    0,955
335,510;   60,419;   -0,450;   -0,136
336,105;   38,196;   -1,086;    1,591
336,699;    0,854;   -1,086;    0,591
337,293;   25,588;   -1,723;    0,318
337,887;    3,450;   -2,723;    1,955
338,481;   43,027;    0,459;    0,591
339,074;   83,327;   -0,359;    2,682
339,668;   73,008;   -1,632;    1,227
340,262;  323,051;    1,732;    3,227
340,856;  128,237;    1,822;   -0,682
341,450;   16,448;    1,004;    1,864
342,044;   39,316;    1,459;    0,136
342,637;   76,728;    0,913;   -2,136
343,231;   27,943;   -2,360;    0,682
343,825;   18,777;   -1,086;   -0,591
344,419;   23,991;   -1,995;    0,500
345,012;  268,235;    2,459;    4,045
345,606;  161,476;    4,641;    1,591
346,199;   29,594;   -1,813;   -0,227
346,793;   77,639;    1,914;    2,045
347,386;   17,855;   -0,813;   -1,136
347,980;  -13,802;   -0,268;   -0,045
348,573;   17,034;    2,278;    0,409
349,167;  180,445;    5,278;    4,773
349,760;   88,351;    2,914;    2,682
350,354;   63,222;   -0,813;    1,136
350,947;   83,224;    1,096;    1,682
351,540;   54,005;   -0,358;   -1,409
352,134;    4,558;    1,096;    1,136
352,727;    5,177;   -0,086;    1,136
353,320;   11,423;    0,005;    0,591
353,913;  -19,273;   -1,995;    1,864
354,507;   74,384;    0,823;   -1,227
355,100;   17,832;    0,460;    0,864
355,693;  234,354;    2,005;    2,409
356,286;  105,027;    0,823;    2,773
356,879;   37,777;   -0,722;    1,227
357,472;   36,761;   -0,904;    1,500
358,065;   53,779;   -0,722;    2,500
358,658;   -2,845;   -0,540;    2,318
359,251;   -8,328;   -1,631;   -0,591
359,844;   65,185;   -1,904;   -1,136
360,437;   86,506;   -2,995;    0,045
361,030;   20,192;    1,369;   -0,682
361,623;   26,235;    2,824;    0,318
362,215;  147,211;   -0,086;    2,045
362,808;   52,671;   -2,358;   -1,682
363,401;   21,323;   -2,449;    0,136
363,994;  136,879;   -0,631;   -1,500
364,586;   44,223;    0,824;   -1,500
365,179;   27,593;   -0,449;   -1,136
365,772;  -32,574;   -1,995;    2,045
366,364;   29,387;    1,915;   -3,227
366,957;   41,218;    2,279;   -0,045
367,549;   21,504;    2,188;   -0,864
368,142;   27,675;    1,825;   -1,500
368,734;   13,043;    0,734;   -2,136
369,327;  -17,144;    1,643;   -0,500
369,919;    6,478;   -1,538;    0,409
370,512;   20,727;   -1,083;   -0,500
371,104;  197,643;   -0,901;    1,591
371,696;  213,472;    1,191;   -0,955
372,289;  118,972;    0,373;    1,136
372,881;   82,359;   -2,080;    1,318
373,473;    7,854;   -2,170;    1,136
374,066;   79,856;   -0,169;    0,500
374,658;   65,438;    0,378;    1,136
375,250;    8,228;    0,653;   -1,409
375,842;   43,337;    0,473;   -0,045
376,434;   11,686;   -0,435;   -0,409
377,026;   -5,195;    0,204;   -2,500
377,618;   39,521;   -0,158;   -0,682
378,210;  -15,355;   -0,338;   -1,955
378,802;  -26,590;    0,754;   -0,591
379,394;  340,012;    1,846;    0,682
379,986;  103,824;    1,393;   -0,955
380,578;   15,285;   -0,153;    0,773
381,170;  253,486;   -0,972;    0,045
381,762;  175,938;    0,755;    1,409
382,354;  134,733;   -0,065;   -1,318
382,945;   52,056;   -2,976;    0,318
383,537;    9,071;   -2,705;   -1,955
384,129;    2,785;   -2,160;   -1,136
384,721;  110,136;   -0,252;    0,955
385,312;   46,248;   -0,161;   -0,955
385,904;  121,282;   -2,706;    1,591
386,496;   49,762;   -0,979;    1,045
387,087;  174,077;    1,022;    2,500
387,679;  119,396;   -1,160;    0,045
388,270;   84,448;    2,840;    2,045
388,862;   63,975;    1,295;   -0,318
389,453;   56,480;   -0,887;    1,045
390,045;   55,090;   -0,705;   -2,682
390,636;  -47,463;    0,204;   -0,591
391,227;   19,421;   -0,523;   -0,045
391,819;   -7,819;    0,204;    0,773
392,410;  227,634;    1,022;    0,045
393,001;   48,112;   -0,979;   -1,591
393,593;   98,835;    1,930;   -0,045
394,184;  150,448;    1,385;   -0,409
394,775;   42,459;    1,839;    2,136
395,366;  -38,876;    1,385;    0,773
395,957;  111,359;    0,113;    0,136
396,548;   16,174;   -0,342;    2,682
397,139;  112,011;   -2,433;    0,591
397,730;   51,308;   -1,888;    0,955
398,321;   58,878;   -1,252;    0,955
398,912;    9,064;   -0,615;    0,136
399,503;    4,299;   -3,524;   -1,409
400,094;   50,190;    0,294;    1,682
400,685;   37,233;   -0,433;    0,045
401,276;    8,619;    0,930;   -0,955
401,867;   -9,195;   -0,888;    0,773
402,458;  -59,379;   -2,251;   -2,318
403,048;   68,888;    1,112;    0,591
403,639;   24,508;    0,840;    0,864
404,230;  113,431;    2,476;    0,318
404,821;  171,481;   -0,615;    0,045
405,411;   89,707;    1,203;   -2,591
406,002;   13,067;   -1,252;   -1,136
406,592;  221,805;    2,294;    0,045
407,183;   93,183;    0,566;   -1,500
407,774;   76,614;    3,475;   -0,136
408,364;   37,352;    0,930;    0,409
408,954;  131,262;    0,384;    1,227
409,545;  136,577;    1,021;    1,045
410,135;  103,454;    1,293;    0,500
410,726;   54,229;    1,838;    0,318
411,316;  223,257;    0,111;    0,773
411,906;   74,063;   -0,253;   -0,409
412,497;   82,883;   -1,070;   -0,045
413,087;   30,361;   -1,980;   -0,227
413,677;  -31,928;   -0,707;    3,864
414,267;  -28,078;    0,656;    1,409
414,857;  -56,163;   -2,980;    4,227
415,448;  -49,957;    0,839;    0,500
416,038;  -11,002;    0,020;   -0,591
416,628;   28,751;   -0,889;    0,409
417,218;   73,619;    0,565;    3,318
417,808;  223,171;    0,202;   -0,409
418,398;   99,273;    0,020;    2,682
418,988;   -7,732;    2,020;    0,591
419,578;   80,871;   -0,707;    1,409
420,168;   13,762;   -1,343;   -0,955
420,757;  151,341;   -1,343;   -1,500
421,347;   49,866;    0,111;   -0,227
421,937;   17,571;    2,292;    1,409
422,527;  143,660;    0,838;   -0,773
423,116;  272,949;   -0,253;   -0,045
423,706;   16,740;   -1,889;    0,318
424,296;  -16,959;    1,384;    0,682
424,885;   97,768;   -0,071;   -3,045
425,475;   65,193;    1,474;   -2,864
426,065;  -34,299;   -0,980;   -0,318
426,654;  -50,735;   -0,435;   -0,318
427,244;  203,526;    0,020;    1,409
427,833;  167,988;    1,383;   -0,500
428,423;   53,576;   -0,526;    1,136
429,012;   49,740;   -0,344;   -1,136
429,601;  164,932;   -1,344;    0,136
430,191;   69,325;    1,292;    4,318
430,780;  -20,932;   -0,344;   -0,409
431,369;  152,281;    0,746;   -0,045
431,959;   46,964;   -1,254;    0,500
432,548;  -10,962;   -1,163;   -0,045
433,137;  -64,222;   -1,254;   -1,318
433,726;   -3,186;    0,292;    0,500
434,315;   27,479;   -0,526;    2,409
434,905;  121,486;   -1,254;    1,409
435,494;  123,248;    0,746;    0,955
436,083;    5,081;   -0,981;   -0,955
436,672;   88,094;    0,110;    0,500
437,261;   44,485;    0,292;   -1,955
437,850;  256,146;    1,383;    0,682
438,439;  303,052;    3,291;    1,955
439,027;  409,303;    3,655;    1,773
439,616;  329,956;    2,927;    1,227
440,205;  120,744;    0,200;   -2,136
440,794;   77,612;    2,109;   -0,045
441,383;    5,506;   -1,346;   -0,591
441,971;  -20,437;   -2,436;    0,591
442,560;    0,613;    0,563;   -1,773
443,149;  -92,978;    0,379;   -1,318
443,737;  -50,343;   -0,074;   -2,318
444,326;  -20,884;    0,018;    0,318
444,915;   23,122;   -1,982;    0,864
445,503;   27,913;   -2,891;   -0,318
446,092;  279,710;    0,382;    2,136
446,680;  207,407;    0,382;    0,318
447,269;  108,982;   -0,346;   -0,318
447,857;  108,699;    0,018;   -1,773
448,445;   63,535;    0,563;    1,318
449,034;    1,009;   -1,528;   -1,136
449,622;   13,631;   -1,073;    3,500
450,210;  266,206;    2,017;    2,227
450,799;  186,198;    0,290;   -0,591
451,387;  156,838;    1,381;   -0,591
451,975;  146,721;    2,654;    0,864
452,563;  220,222;    3,472;    2,318
453,151;   46,994;   -0,528;   -1,227
453,739;   85,481;   -1,347;    0,136
454,328;  186,093;    2,381;   -2,136
454,916;  122,530;    2,562;   -0,136
455,504;  142,494;    1,017;    1,227
456,092;   35,067;    0,017;   -1,591
456,679;    3,181;    1,472;    0,682
457,267;  411,080;    4,017;    1,045
457,855;   98,249;    1,017;    1,409
458,443;  -35,635;   -0,165;    1,682
459,031;  114,667;    0,108;    2,409
459,619;   78,734;   -1,801;    2,864
460,206;  -13,458;    0,835;    2,045
460,794;  -21,448;   -2,983;   -0,227
461,382;   28,336;   -0,529;   -0,864
461,970;   27,284;    1,198;    1,864
462,557;  -35,571;   -0,711;   -0,682
463,145;   74,559;   -3,165;   -1,682
463,732;  306,016;    2,016;   -1,045
464,320;   87,521;   -0,075;   -3,045
464,907;  222,805;    2,743;   -0,773
465,495;  128,920;    0,743;   -1,227
466,082;   60,498;   -1,984;   -0,045
466,670;   85,078;   -2,529;    1,227
467,257;  -14,972;   -1,711;    2,045
467,844;   79,017;   -0,075;    0,045
468,432;   50,987;    0,834;    3,500
469,019;   16,111;    0,925;   -1,773
469,606;  106,402;    0,470;    3,682
470,193;  131,778;   -1,439;    0,227
470,780;   82,707;   -2,075;    0,864
471,368;   12,024;   -1,257;   -0,773
471,955;  113,787;    1,379;   -0,682
472,542;   76,809;    0,652;   -1,136
473,129;  -24,050;   -0,166;    0,136
473,716;  -18,795;    1,470;    0,591
474,303;   16,722;    0,652;   -0,864
474,890;   15,539;   -1,439;   -0,500
475,477;  112,602;   -1,621;    0,409
476,064;   25,375;    1,106;   -1,591
476,650;  140,014;    0,288;    0,318
477,237;   52,378;   -0,258;    0,955
477,824;   32,228;   -1,076;    0,864
478,411;  -49,079;   -1,894;   -0,318
478,997;  -57,131;    0,560;   -0,773
479,584;  -93,489;    1,196;   -0,409
480,171;   69,589;   -0,440;   -0,773
480,757;  124,234;    2,651;    0,773
481,344;   19,445;    0,469;    0,409
481,931;  -56,724;    1,105;    1,045
482,517;   63,846;   -1,258;    0,318
483,104;  140,485;    1,106;    2,864
483,690;   12,897;   -1,804;    0,045
484,276;   -8,297;   -0,895;    0,227
484,863;  190,432;    2,469;    1,136
485,449;   48,722;   -0,077;    0,318
486,035;    5,055;   -1,986;   -0,136
486,622;   90,442;   -0,895;    0,045
487,208;   17,583;    1,378;    1,500
487,794;  -59,478;    0,741;    0,318
488,380;  -64,046;    0,105;   -1,409
488,967;  -58,778;   -1,168;   -0,409
489,553;  -30,981;   -1,895;   -1,409
490,139;   37,238;    1,559;    0,773
490,725;  -26,469;    0,741;   -0,227
491,311;   14,485;    3,287;    3,045
491,897;   -9,739;   -0,986;    1,500
492,483;   -1,008;    0,105;    1,227
493,069;  404,179;    3,923;    0,864
493,655;  140,663;    1,650;    0,682
494,241;   25,708;    1,377;   -0,955
494,826;   40,033;    0,287;   -1,045
495,412;   89,331;    2,559;   -0,682
495,998;    0,339;   -0,805;   -0,318
496,584;   58,275;    0,377;    1,045
497,169;   66,094;    1,014;   -0,682
497,755;    6,106;    0,650;    1,227
498,341;  134,836;    0,559;    0,318
498,926;  245,039;    1,832;    1,955
499,512;    8,040;    1,286;    2,955
500,097;   -3,480;    0,195;   -0,318
500,683;   27,053;   -0,350;    2,136
501,268;  -20,950;   -0,169;   -0,955
501,854;    4,128;   -0,169;    1,227
502,439;   -4,358;   -0,624;   -1,773
503,024;    6,444;    0,195;    0,500
503,610;   34,421;   -0,078;   -0,682
504,195;  -14,254;    0,558;    1,955
504,780;   74,267;    2,922;    1,227
505,366;  152,624;    3,013;    2,864
505,951;   82,173;    0,740;    1,045
506,536;    4,646;   -3,260;   -3,682
507,121;   66,114;    0,285;   -0,318
507,706;   23,708;    2,376;    1,045
508,291;  -23,932;    2,649;    1,136
508,876;  -32,865;   -0,988;    2,591
509,461;   10,795;   -0,169;   -0,773
510,046;   48,513;    0,194;    0,318
510,631;   56,572;   -0,351;   -0,773
511,216;  -19,379;    2,467;   -0,500
511,801;   39,397;   -0,442;    2,591
512,386;   55,069;    0,740;    0,500
512,971;   55,129;   -2,988;    0,955
513,555;   84,462;   -0,897;   -1,500
514,140;   43,025;   -0,442;   -3,136
514,725;  162,184;   -0,715;   -1,136
515,309;   77,905;   -0,533;    0,318
515,894;   -5,924;   -0,624;   -2,227
516,479;   29,389;   -0,624;   -0,955
517,063;   31,880;    0,376;    1,227
517,648;   -3,086;    1,012;   -1,136
518,232;  -36,479;   -0,261;   -1,409
518,817;   42,467;   -0,079;    1,682
519,401;  139,163;    2,194;    0,591
519,985;  118,366;    1,103;    1,136
520,570;   25,138;    0,830;   -1,955
521,154;  102,551;    2,102;    0,591
521,738;  235,792;   -2,352;    2,409
522,323;  110,272;   -0,170;    1,682
522,907;  141,536;    0,466;   -0,136
523,491;   89,767;    0,557;    0,955
524,075;   93,622;    2,284;    0,591
524,659;  336,433;    1,466;    0,591
525,243;  315,038;    1,739;    0,409
525,827;  312,946;    0,648;   -0,045
526,411;  390,342;   -1,989;   -0,136
526,995;  594,084;   -0,352;    1,409
527,579;  773,744;   -0,443;   -1,045
528,163;  802,089;    0,375;   -1,500
528,747; 1106,523;    2,466;   -0,773
529,331; 1172,983;   -0,080;   -1,409
529,915; 1089,450;    1,738;    0,955
530,499; 1399,061;   -0,807;    1,227
531,082; 1718,227;   -0,534;    1,591
531,666; 1933,202;    1,374;    0,773
532,250; 2169,469;    1,284;    2,682
532,833; 2597,702;    0,920;    2,773
533,417; 2692,063;   -1,807;    0,864
534,001; 2975,547;    1,647;   -0,318
534,584; 3526,458;    0,374;    0,500
535,168; 3682,850;    0,465;    1,409
535,751; 4227,032;    0,647;    0,045
536,334; 4141,905;   -0,898;   -0,409
536,918; 4791,155;    0,011;    1,591
537,501; 5115,139;   -0,899;    1,318
538,085; 5470,767;   -0,444;    1,045
538,668; 5816,350;    0,829;    2,409
539,251; 6428,478;    1,829;    3,773
539,834; 6763,989;    0,101;    0,773
540,418; 7054,710;   -1,990;    4,318
541,001; 7357,343;   -0,990;    1,773
541,584; 7567,563;    2,101;    2,227
542,167; 7595,406;    1,374;    2,955
542,750; 7866,487;    1,919;   -0,773
543,333; 7722,541;    0,555;    2,136
543,916; 8583,332;    0,192;    2,500
544,499; 9162,074;   -1,354;    0,227
545,082; 9373,370;    1,374;    3,591
545,665; 9675,599;    1,919;    1,500
546,248;10042,268;    1,010;   -0,318
546,830; 9946,404;   -0,445;    1,955
547,413;10457,599;    1,010;   -0,773
547,996;11041,481;    0,555;    0,500
548,579;10951,215;    0,919;    0,955
549,161;10905,057;    1,828;    2,682
549,744;10804,246;   -0,809;    0,409
550,326;11355,672;   -0,809;   -1,136
550,909;11334,449;    2,737;    0,591
551,492;11792,211;   -0,263;    0,227
552,074;11697,361;   -0,173;   -1,318
552,657;12292,413;    2,373;    0,045
553,239;12144,524;   -0,173;   -0,773
553,821;12133,442;   -1,082;    1,045
554,404;11788,492;    1,282;    1,136
554,986;12174,777;    0,464;    1,045
555,568;12729,252;    1,191;   -0,955
556,151;12190,380;    1,191;   -0,227
556,733;12407,939;   -0,264;   -0,864
557,315;12840,578;    0,100;    0,500
557,897;12643,972;    0,554;   -0,500
558,479;12804,242;   -1,991;    1,318
559,061;13029,455;   -0,719;   -0,864
559,643;13378,173;   -0,264;    0,045
560,225;13671,002;    1,645;    2,864
560,807;13732,900;    0,918;    0,318
561,389;13324,972;    0,554;    2,318
561,971;13989,435;    0,463;    2,136
562,553;13890,194;   -1,628;    1,591
563,135;14045,353;   -0,537;    1,136
563,717;13712,432;    3,372;    1,136
564,298;14320,680;    3,645;   -0,045
564,880;14103,048;    0,645;   -1,409
565,462;14234,321;    0,645;    1,318
566,043;15292,176;   -0,446;    2,318
566,625;14915,281;    1,918;    1,227
567,207;14744,663;    1,099;    1,682
567,788;15680,774;   -1,264;    1,500
568,370;16415,214;    1,917;   -0,500
568,951;16281,832;    0,190;    0,227
569,533;17016,925;   -0,628;   -0,500
570,114;17442,983;   -0,446;    0,682
570,695;17841,433;   -0,174;   -1,318
571,277;18198,809;   -0,265;   -1,682
571,858;18866,521;    2,008;   -1,136
572,439;19590,406;    1,554;   -1,045
573,021;19717,229;    2,099;   -2,773
573,602;20136,322;   -1,265;    0,318
574,183;20953,294;   -2,083;    2,227
574,764;20974,220;   -1,629;    0,409
575,345;21483,792;    0,917;   -0,136
575,926;21958,236;   -0,356;    0,136
576,507;21920,063;    1,099;   -0,227
577,088;22926,038;    3,099;    1,682
577,669;22966,471;    0,735;    1,955
578,250;23719,658;    0,644;   -1,045
578,831;24204,607;   -1,356;   -2,227
579,412;24360,235;   -0,810;    0,955
579,993;25127,258;    1,008;    0,227
580,573;25458,088;   -0,629;   -0,955
581,154;24543,482;    0,735;   -0,591
581,735;25358,732;    0,644;    0,773
582,315;24864,914;   -0,629;    2,136
582,896;25098,311;   -0,174;    1,227
583,477;24599,427;    0,189;    1,227
584,057;24873,233;    0,553;    0,955
584,638;25204,076;    2,553;    2,318
585,218;25286,534;   -0,538;    2,682
585,799;25390,945;    0,281;   -0,227
586,379;25363,492;    0,372;    1,591
586,959;24293,073;    0,735;    0,318
587,540;23698,209;   -0,629;    2,227
588,120;23353,112;    1,007;   -0,045
588,700;22616,735;    2,553;    2,136
589,281;22953,037;    0,462;   -0,955
589,861;22936,159;    0,099;   -1,682
590,441;22776,190;    2,371;   -2,682
591,021;21886,909;   -0,265;   -2,591
591,601;22136,071;   -0,537;    0,500
592,181;22217,153;   -0,719;   -0,773
592,761;21516,727;    0,007;    1,409
593,341;21507,425;   -0,901;    0,045
593,921;21556,466;   -0,265;    1,591
594,501;21527,553;   -0,538;    1,318
595,081;21373,429;    0,917;   -0,318
595,661;21777,339;   -1,447;    0,955
596,240;22245,006;   -0,537;    0,136
596,820;21907,663;    0,372;    1,955
597,400;22022,316;    2,008;    0,773
597,980;22184,690;    2,008;    1,045
598,559;22250,086;    2,735;   -0,227
599,139;22029,638;   -0,174;   -1,227
599,718;21924,820;   -0,174;   -0,409
600,298;22232,384;    0,735;    0,682
600,877;22499,011;    2,917;    1,409
601,457;22700,396;    2,281;    1,136
602,036;22607,358;    0,190;    2,045
602,616;22787,522;    0,644;    1,682
603,195;23133,228;   -0,355;    3,500
603,774;22679,299;   -0,901;    2,045
604,354;22520,518;    0,826;   -0,500
604,933;22155,750;    0,463;    1,864
605,512;22289,178;    3,554;    0,591
606,091;22341,483;   -0,537;    3,773
606,671;23111,447;    0,281;    0,773
607,250;22408,328;    1,644;    3,136
607,829;22596,198;    2,372;    3,227
608,408;22403,758;    1,190;    2,591
608,987;21550,650;    1,281;    3,409
609,566;21794,780;   -1,265;   -2,500
610,145;21960,659;   -1,082;    0,682
610,723;22390,810;    4,372;    6,864
611,302;21672,868;   -0,446;    1,682
611,881;21261,392;    5,008;   11,227
612,460;22036,142;    1,645;    3,955
613,039;22392,905;   -0,082;    2,045
613,617;21288,894;    1,736;    4,773
614,196;21414,350;    1,099;    1,227
614,775;21773,453;    1,009;    2,409
615,353;21718,401;    0,736;    0,864
615,932;21532,242;    0,100;    2,409
616,510;22103,285;    0,554;    0,591
617,089;21676,992;    7,100;   17,591
617,667;21450,955;    2,372;    6,136
618,246;21370,604;   -1,537;    1,318
618,824;21517,068;   -3,355;   -0,955
619,402;21114,054;   -2,900;   -1,773
619,981;21595,055;   -0,173;   -1,045
620,559;21456,793;    0,009;    1,682
621,137;21025,137;   -0,718;    1,864
621,715;21062,107;   -1,173;   -0,682
622,293;20978,399;   -0,537;   -0,773
622,871;21402,305;   -0,718;    0,500
623,450;21022,993;    0,373;   -0,864
624,028;20940,651;    0,191;   -0,955
624,606;20622,650;   -1,718;    1,682
625,183;20967,549;   -1,536;   -1,136
625,761;20650,927;    1,009;    1,136
626,339;20961,918;    1,373;    2,591
626,917;21297,314;   -0,172;   -0,045
627,495;21325,389;   -0,354;    1,318
628,073;20808,535;   -0,263;    2,864
628,650;20537,716;    0,100;    2,136
629,228;20938,530;    0,373;    4,409
629,806;20401,961;    2,282;    1,136
630,383;20621,448;    1,464;   -0,318
630,961;20505,259;    2,555;   -0,955
631,539;20258,996;    2,464;    0,227
632,116;19786,259;   11,373;   15,409
632,694;20288,147;    2,555;    6,500
633,271;20465,624;    0,828;    2,682
633,848;20519,699;    1,828;    2,045
634,426;20470,740;   -1,081;    1,773
635,003;19654,313;    1,101;   -0,409
635,580;19966,824;    1,192;    3,682
636,158;20483,403;    3,737;    1,227
636,735;20453,104;    0,555;   -0,500
637,312;20593,421;   -0,809;   -0,682
637,889;20676,785;   -4,354;   -0,682
638,466;20236,636;   -3,990;   -0,409
639,043;20192,435;    2,101;   -1,136
639,620;20472,332;   -2,262;   -0,955
640,197;20791,956;    1,100;    1,682
640,774;20916,147;   -0,172;    1,136
641,351;21262,976;    0,737;    1,136
641,928;20846,622;   -0,627;    1,409
642,505;20548,723;    0,828;   -0,500
643,082;20593,824;   -1,718;    1,227
643,658;19707,834;   -0,718;    1,500
644,235;20381,662;    1,191;    2,500
644,812;20660,854;    1,918;    0,773
645,388;20458,227;   -0,991;    1,409
645,965;20481,328;   -0,809;    1,682
646,542;20620,156;   -1,445;   -0,227
647,118;20649,530;    1,009;   -0,955
647,695;20857,813;   -0,263;    1,136
648,271;20772,004;   -0,536;    0,500
648,848;21033,560;    0,736;    2,227
649,424;20928,933;    0,827;    1,318
650,000;20635,489;   -0,354;   -1,045
650,577;20465,681;   -0,627;   -0,955
651,153;20915,054;   -1,809;    0,955
651,729;21810,064;    1,191;    0,864
652,305;22347,165;    0,645;    2,773
652,881;26716,448;   -0,082;    1,136
653,458;32238,821;    1,100;    0,227
654,034;34811,377;    0,282;    1,591
654,610;35729,659;    0,554;    0,773
655,186;36841,669;    0,645;    3,045
655,762;36480,952;   -0,991;    0,409
656,338;36548,871;    0,100;    0,136
656,913;37427,336;   -0,082;    0,409
657,489;36717,982;    0,827;   -0,318
658,065;36768,538;   -0,173;   -1,591
658,641;37485,729;   -0,900;   -0,864
659,217;36840,557;   -0,991;    0,409
659,792;36262,295;    0,645;   -0,409
660,368;36516,214;   -2,173;   -0,682
660,944;36043,769;   -2,082;    1,227
661,519;31445,052;   -0,628;    0,409
662,095;26526,425;   -1,719;    0,591
662,670;23185,345;    1,281;   -0,136
663,246;22555,627;    1,009;   -0,409
663,821;22089,183;    0,281;    1,682
664,396;21619,102;    0,009;    1,864
664,972;21878,657;    0,009;   -0,500
665,547;22193,213;    1,372;    0,136
666,122;22239,404;   -1,082;    0,318
666,698;22494,505;   -0,173;    0,318
667,273;21881,515;   -0,173;    0,136
667,848;22646,071;    2,372;    1,500
668,423;22414,262;    2,190;    2,318
668,998;22875,909;    2,827;   -0,682
669,573;23404,646;   -3,264;   -1,500
670,148;23240,747;   -1,446;   -0,682
670,723;22984,575;   -1,810;    0,318
671,298;23382,312;    2,372;    1,045
671,873;23497,140;   -0,082;   -0,136
672,448;23416,150;    0,645;    0,136
673,023;23703,524;   -1,992;   -0,227
673,597;24067,534;    0,827;    2,318
674,172;23856,908;   -0,355;    0,318
674,747;23353,008;    0,372;   -1,045
675,321;23075,564;   -0,628;    3,318
675,896;22712,392;    0,645;    1,045
676,471;23661,311;    2,645;    1,591
677,045;23419,321;   -1,264;    0,682
677,620;23494,786;    0,190;    1,136
678,194;23752,159;   -2,628;    1,136
678,769;23403,260;   -1,083;   -0,318
679,343;23701,725;   -0,628;    1,773
679,917;23607,644;   -1,446;    1,955
680,492;23577,108;    0,826;    3,227
681,066;23653,209;    3,372;    0,409
681,640;23765,219;    1,463;   -0,318
682,214;24522,411;    0,735;    0,500
682,788;24108,512;   -1,356;   -0,773
683,363;24021,249;   -1,810;    1,682
683,937;23715,714;   -1,719;   -0,318
684,511;24372,905;    0,463;   -0,591
685,085;24136,643;   -1,356;    0,318
685,659;23842,925;   -2,538;    0,864
686,232;24184,662;   -0,356;   -0,318
686,806;23901,582;   -0,901;    0,409
687,380;24458,410;   -0,174;    0,591
687,954;24625,238;   -1,174;    1,136
688,528;24330,430;   -0,719;    1,955
689,101;25078,985;   -3,992;    1,045
689,675;24677,540;   -0,356;   -0,136
690,249;24103,005;   -0,719;    0,409
690,822;24444,106;    0,280;    0,318
691,396;24544,843;   -0,265;    1,227
691,969;24051,399;    1,280;    0,136
692,543;24488,318;   -0,447;   -1,955
693,116;24121,509;   -0,265;   -1,409
693,690;24046,065;    0,099;    0,500
694,263;24571,257;   -1,083;    2,955
694,836;24621,358;    1,371;    3,591
695,410;23346,913;   -0,265;    1,773
695,983;23747,923;    0,189;    0,591
696,556;23703,569;   -0,447;   -1,045
697,129;24074,943;   -0,356;    1,409
697,703;23768,316;   -1,629;    1,955
698,276;23737,963;    1,462;   -0,773
698,849;23567,155;    1,280;    1,409
699,422;23916,346;   -1,083;    0,591
699,995;23667,993;    0,007;    0,136
700,568;24108,184;   -0,629;    3,045
701,140;24115,376;   -2,811;    1,682
701,713;23934,568;   -0,174;    2,409
702,286;23699,851;   -0,538;    0,864
702,859;23542,043;   -0,902;   -0,591
703,432;22843,416;    0,825;    0,682
704,004;23246,790;    0,462;    0,318
704,577;23158,982;   -0,629;    0,136
705,150;23653,992;    0,189;    2,500
705,722;23455,911;   -0,356;   -3,227
706,295;23291,830;   -0,175;   -0,591
706,867;23183,658;   -0,175;    1,955
707,440;23365,031;   -1,720;   -0,409
708,012;23643,405;    0,462;    0,591
708,584;23526,506;    2,462;    0,227
709,157;23753,516;    1,825;   -0,591
709,729;23460,708;    2,280;    2,045
710,301;24249,718;    0,734;    0,045
710,874;24291,273;   -1,447;   -0,227
711,446;23189,283;    0,371;    0,864
712,018;23074,566;    0,098;    0,500
712,590;22821,485;   -1,993;    1,682
713,162;23368,040;    0,825;    1,318
713,734;23537,505;    1,825;   -2,045
714,306;23454,060;   -1,902;   -0,409
714,878;22278,888;    0,825;    0,864
715,450;23072,353;    0,643;    0,864
716,022;23269,090;    1,552;    1,318
716,593;23389,100;    0,189;    0,591
717,165;23378,110;   -3,175;   -1,227
717,737;23130,575;    0,280;    0,409
718,309;22780,948;    0,280;   -0,045
718,880;22776,231;   -0,539;   -1,409
719,452;22988,604;   -0,175;   -1,591
720,024;22656,887;    0,734;   -0,591
720,595;23177,261;   -2,902;    0,955
721,167;22736,998;    0,370;   -2,045
721,738;22304,463;   -0,812;   -1,045
722,309;22391,654;   -0,993;   -1,227
722,881;22157,573;   -1,357;    0,773
723,452;22731,220;   -2,630;    2,864
724,023;22921,775;   -0,721;    2,682
724,595;22697,240;    0,007;    0,682
725,166;22401,977;    0,007;   -0,409
725,737;22148,714;    1,734;    0,227
726,308;22221,088;   -0,266;    0,318
726,879;22590,007;   -1,630;    1,227
727,450;22455,290;    0,552;   -0,045
728,021;22402,663;    3,097;    0,682
728,592;22229,946;    0,734;    0,500
729,163;22585,865;    0,643;   -0,136
729,734;22621,784;    0,188;   -0,227
730,305;22933,248;    1,734;    0,136
730,876;23223,986;    0,188;    2,955
731,447;23003,632;    2,188;    2,682
732,017;23130,278;    1,097;    1,864
732,588;22596,652;    0,734;    1,227
733,159;22765,753;    0,643;   -1,045
733,729;22552,490;    0,006;    0,409
734,300;21910,864;    0,915;    0,864
734,870;22302,965;    3,461;    0,591
735,441;22872,065;    0,370;   -0,591
736,011;22655,803;    0,643;   -1,591
736,582;22564,176;   -0,812;    0,045
737,152;22025,823;   -1,721;   -2,045
737,722;22482,651;   -0,267;   -0,682
738,293;22193,206;   -1,358;    1,318
738,863;22071,944;    2,461;    2,318
739,433;21968,135;    5,279;    0,318
740,003;22509,145;   -0,994;   -0,682
740,573;22013,428;    2,097;   -1,591
741,143;22008,620;   -1,085;    0,318
741,713;22646,539;    1,188;   -0,500
742,283;22412,003;    0,915;    1,591
742,853;22183,377;    1,915;    1,591
743,423;21683,751;    1,733;    0,045
743,993;21798,306;   -0,358;    1,500
744,563;21310,861;    0,097;   -0,864
745,133;21291,508;   -0,812;   -0,864
745,702;21904,154;   -0,267;    1,773
746,272;21170,528;   -0,176;    0,591
746,842;20959,810;   -1,358;   -0,591
747,411;21350,275;   -0,267;   -0,318
747,981;21519,558;    0,097;    0,500
748,551;21543,204;    2,278;   -1,045
749,120;21388,305;    0,642;   -0,227
749,690;21724,224;   -0,631;    2,409
750,259;22036,870;    1,369;    2,955
750,828;21949,244;    1,551;   -1,955
751,398;22173,981;    1,278;   -0,045
751,967;21781,536;    2,187;    0,409
752,536;21939,183;   -0,813;   -0,227
753,105;22360,011;    0,096;    0,227
753,675;22144,203;    0,096;    1,773
754,244;22079,213;   -0,904;    3,591
754,813;22077,677;    0,551;    1,227
755,382;21657,869;    0,460;    0,955
755,951;22225,515;    1,551;    3,682
756,520;21817,434;   -0,085;    1,864
757,089;22402,717;    0,278;    0,500
757,658;22510,363;    1,733;    1,227
758,227;22509,737;    1,096;    0,318
758,795;22739,565;    1,187;    1,136
759,364;22954,848;   -0,086;   -0,591
759,933;21994,494;   -1,176;   -0,045
760,501;21556,232;    0,733;   -1,318
761,070;21958,878;   -2,813;   -1,409
761,639;22697,979;   -1,904;    1,318
762,207;22085,261;    1,551;   -0,955
762,776;21976,090;    0,369;    0,864
763,344;21956,009;   -0,995;    0,591
763,913;21010,110;   -0,722;    1,409
764,481;21792,210;    1,005;   -0,136
765,049;21613,220;   -1,358;    1,409
765,618;21528,139;   -0,086;    0,318
766,186;21615,149;    0,278;    0,136
766,754;21776,523;    0,005;    1,864
767,322;20851,169;   -1,995;    0,409
767,890;20860,452;   -0,722;   -1,773
768,459;21342,007;   -2,177;   -0,318
769,027;21502,017;    1,641;    3,409
769,595;20504,573;    3,278;    2,591
770,163;20921,674;    3,823;    2,955
770,730;20693,775;    0,732;   -0,136
771,298;20587,876;    0,187;   -1,409
771,866;20654,340;   -1,541;    4,955
772,434;20937,350;   -0,631;   -1,864
773,002;21115,542;    0,005;    0,682
773,569;20789,097;    0,914;    1,682
774,137;20654,107;   -0,268;   -0,045
774,705;21363,935;    0,278;   -0,136
775,272;20882,582;    0,641;    0,682
775,840;20699,046;   -0,177;    2,682
776,407;20274,329;    0,277;    1,955
776,975;19873,157;   -0,632;    0,318
777,542;20793,894;   -1,086;   -0,045
778,110;20646,904;   -1,268;   -0,045
778,677;20317,551;   -2,359;   -0,864
779,244;20100,379;    2,186;    1,045
779,812;20230,661;    1,823;    0,864
780,379;20126,035;    0,005;    1,136
780,946;20385,045;    1,005;   -0,773
781,513;20668,055;   -1,450;    0,318
782,080;20078,974;   -0,086;    2,864
782,647;20763,529;   -0,268;    3,045
783,214;20410,994;   -0,177;    3,864
783,781;20022,731;   -0,723;   -0,682
784,348;19882,196;   -0,632;    1,500
784,915;20283,115;   -3,177;    0,318
785,482;20094,761;    1,368;    2,591
786,049;20540,589;    0,186;   -0,591
786,615;20678,508;    0,277;   -0,955
787,182;20353,609;    0,186;   -0,682
787,749;20079,892;   -2,814;    1,409
788,315;19501,720;   -1,632;   -0,409
788,882;19777,185;    1,550;   -1,227
789,448;20420,740;    1,732;   -0,955
790,015;20432,023;    1,095;    3,227
790,581;20083,942;    1,459;    0,227
791,148;19963,588;    0,641;    1,045
791,714;20129,780;   -0,541;    3,136
792,280;19823,154;    0,186;    1,591
792,847;19449,254;    0,550;    2,500
793,413;19927,992;   -0,269;   -0,318
793,979;19552,547;    3,459;   -1,318
794,545;19675,375;    4,459;    2,682
795,111;19157,113;    2,186;    1,318
795,678;19285,395;    0,731;   -1,682
796,244;18965,223;    3,368;    0,136
796,810;19458,506;    1,731;    0,773
797,375;19222,789;    0,549;   -2,136
797,941;19176,071;   -0,541;    0,591
798,507;19353,718;   -0,451;   -0,955
799,073;18922,728;   -0,360;    0,591
799,639;18982,829;   -2,632;    3,136
800,205;19023,475;    0,095;    2,682
800,770;18598,303;    0,640;    1,773
801,336;18622,949;    1,368;   -0,955
801,901;18433,414;    4,549;    3,136
802,467;19003,697;   -0,542;    2,045
803,033;18339,888;   -0,087;    0,864
803,598;18567,626;    1,913;   -1,045
804,163;18601,908;    1,095;   -0,318
804,729;18567,191;   -0,178;    1,136
805,294;18873,110;    0,822;    2,227
805,859;18690,120;    0,731;   -0,409
806,425;18261,494;    1,186;    2,682
806,990;17941,686;    2,186;    4,318
807,555;18334,514;   -1,451;    2,591
808,120;18301,705;    0,822;   -0,409
808,685;18317,443;    0,185;   -2,500
809,250;17853,362;    0,004;   -0,500
809,815;18155,190;    1,913;    0,682
810,380;18611,291;   -0,269;    1,591
810,945;19097,664;   -1,087;    2,045
811,510;18341,038;    2,094;    1,591
812,075;18077,321;   -0,633;   -1,409
812,640;18169,331;    2,003;    1,409
813,204;18200,613;    0,822;   -0,227
813,769;18672,896;    2,094;   -0,045
814,334;18171,270;    0,458;    0,864
814,898;18235,552;    0,367;    0,591
815,463;18038,290;    1,276;   -0,773
816,027;18059,481;   -0,724;   -2,318
816,592;18146,946;    0,640;   -2,045
817,156;17720,592;    2,094;    1,136
817,721;17631,511;    4,276;    2,318
818,285;17579,794;    2,912;    1,500
818,849;18136,077;   -1,451;    1,682
819,414;18020,087;   -0,269;    2,955
819,978;17586,824;   -1,269;    1,773
820,542;18227,561;    2,003;    0,500
821,106;17952,571;   -0,815;    0,682
821,670;18030,763;   -0,815;    2,591
822,234;17807,318;   -0,270;    1,409
822,798;17194,237;    0,003;    0,500
823,362;17231,247;   -0,633;    4,227
823,926;16593,257;    0,094;    1,136
824,490;16832,813;   -0,997;   -0,682
825,054;17218,368;   -0,088;   -1,136
825,618;16926,742;   -1,542;   -1,500
826,181;16910,025;    0,458;   -1,318
826,745;16836,035;    1,367;   -1,045
827,309;17169,045;    1,185;    1,318
827,872;16606,418;    1,367;    0,955
828,436;17516,974;    1,185;   -0,773
828,999;17556,984;   -0,997;    1,227
829,563;16478,175;   -0,179;    1,136
830,126;16298,003;   -0,179;   -0,591
830,690;16390,650;   -1,997;    2,864
831,253;15918,023;   -0,543;    2,227
831,816;16051,397;   -1,906;    0,500
832,380;16016,680;    0,185;    0,864
832,943;16268,417;   -1,361;   -0,500
833,506;15750,427;    2,639;   -1,227
834,069;16464,164;    3,912;   -0,955
834,632;16572,629;    1,730;    1,318
835,195;16487,093;    1,003;    0,955
835,758;15719,921;   -0,997;    1,955
836,321;15599,022;    0,730;   -1,045
836,884;15686,760;   -0,725;   -0,955
837,447;15706,224;   -2,816;    1,773
838,010;15975,234;    0,366;    3,227
838,573;16257,971;   -1,179;    0,773
839,135;16260,163;   -1,361;   -0,955
839,698;15703,718;    1,275;    0,409
840,261;15261,728;    1,003;   -0,227
840,823;15105,557;   -0,543;    0,864
841,386;15382,839;   -0,452;   -2,409
841,948;15326,849;   -1,361;    1,773
842,511;15068,223;    0,912;    1,682
843,073;15203,960;    1,912;    0,227
843,636;15015,606;   -0,361;   -0,227
844,198;14964,525;    0,911;    0,591
844,760;15109,717;    1,093;    1,955
845,322;14771,727;    0,548;    1,136
845,885;15117,737;    0,730;    0,591
846,447;15568,929;   -1,998;    0,227
847,009;15233,757;    1,911;   -0,682
847,571;15450,858;    0,820;   -2,045
848,133;15511,504;   -1,089;   -1,864
848,695;15365,060;   -0,543;    1,409
849,257;14977,888;   -1,089;   -1,682
849,819;15188,534;   -0,998;   -0,409
850,381;15204,817;   -0,725;   -0,864
850,942;15550,645;    1,093;   -0,591
851,504;15485,291;    1,184;    0,227
852,066;15490,120;    1,275;   -1,591
852,628;15092,584;   -0,180;    1,955
853,189;14641,230;    1,638;    2,682
853,751;14770,059;   -0,907;    1,409
854,312;14564,069;   -0,453;   -1,682
854,874;15077,897;   -2,089;   -0,773
855,435;15542,816;   -0,907;   -1,682
855,997;15730,462;   -1,816;   -0,136
856,558;15066,745;    0,366;    1,773
857,119;15137,846;    0,820;    2,864
857,681;14835,310;    0,002;    0,318
858,242;14873,593;    1,911;   -2,136
858,803;15256,694;    0,456;   -0,773
859,364;15851,704;    0,184;   -4,773
859,925;15266,896;   -2,453;   -0,955
860,486;15102,815;   -0,453;   -0,955
861,047;14862,370;   -0,544;   -1,227
861,608;14686,380;   -1,089;   -0,773
862,169;14839,935;    0,638;   -0,045
862,730;14608,036;    0,456;    1,409
863,291;14873,865;   -0,635;   -0,500
863,852;15169,784;   -0,635;    1,955
864,412;14632,612;   -0,271;   -0,864
864,973;13355,440;   -0,089;    0,500
865,534;13291,904;   -1,726;    0,227
866,094;14616,733;    1,820;    0,227
866,655;14349,106;    1,274;    3,318
867,215;14619,571;    0,274;    0,136
867,776;14435,308;    0,547;   -0,136
868,336;14539,409;   -1,453;    0,136
868,897;14157,510;    2,638;    1,682
869,457;13904,156;    1,365;    0,318
870,017;14100,711;    0,547;   -1,227
870,578;14575,540;   -0,817;    0,773
871,138;14259,550;   -2,089;   -0,955
871,698;13816,650;   -0,817;   -1,318
872,258;13701,751;   -0,453;   -2,864
872,818;14109,398;    2,729;    0,045
873,378;14109,953;    0,638;    1,045
873,938;13636,145;    0,547;    0,500
874,498;13894,246;    0,274;   -1,955
875,058;13867,801;    2,183;    1,773
875,618;13738,811;    1,910;   -2,682
876,177;13641,367;    1,274;    0,136
876,737;13287,286;   -0,090;    1,955
877,297;13368,114;    0,183;    1,955
877,856;13423,215;   -0,362;    0,318
878,416;13320,588;    1,183;   -0,136
878,976;13501,144;   -1,817;    0,409
879,535;13667,790;    0,092;    3,136
880,095;13470,709;   -0,544;    0,045
880,654;13567,083;   -1,090;    1,318
881,213;13707,184;    2,456;    1,500
881,773;13343,103;    2,637;    2,682
882,332;13749,840;    3,365;    5,136
882,891;13558,941;    3,092;    2,136
883,451;13974,769;   -1,272;    1,682
884,010;13442,779;   -2,908;   -0,409
884,569;13546,880;   -0,999;   -0,045
885,128;13704,708;    2,819;   -1,864
885,687;13759,445;    4,455;    0,682
886,246;13556,910;    1,455;    2,136
886,805;13285,465;    2,455;    2,045
887,364;13468,202;   -0,999;   -0,500
887,922;13791,667;   -1,181;    0,045
888,481;13357,041;   -1,545;    0,591
889,040;13643,596;    1,183;    2,136
889,599;14179,970;    2,455;    1,409
890,157;14285,616;    1,455;    2,409
890,716;13959,535;   -0,090;    0,227
891,274;13758,818;    0,092;   -1,136
891,833;14147,191;    1,546;    0,864
892,391;14017,383;   -0,454;    0,500
892,950;14111,666;    1,819;   -0,773
893,508;14433,221;    0,455;   -0,409
894,067;13827,777;    0,637;    0,136
894,625;13698,787;   -0,636;   -1,500
895,183;13923,251;   -0,363;   -0,682
895,741;13885,716;    1,728;   -1,773
896,299;13671,362;   -0,545;   -2,409
896,858;13828,917;    0,819;   -1,591
897,416;13967,109;    2,728;   -1,318
897,974;13759,846;    1,819;    0,318
898,532;13938,856;    6,091;    2,682
899,089;13839,412;    2,091;   -0,682
899,647;13895,785;   -1,454;    1,318
900,205;13675,614;    1,182;    1,045
900,763;13776,442;   -0,454;    0,227
901,321;13813,724;    2,364;   -1,409
901,878;13275,098;   -1,000;   -0,773
902,436;13182,653;   -1,363;    1,318
902,994;13650,936;    4,728;    3,682
903,551;13113,310;    0,728;    0,409
904,109;13457,320;    0,182;   -1,409
904,666;13102,239;    2,455;    1,045
905,224;12956,431;    0,182;   -0,409
905,781;12773,259;    0,727;   -0,318
906,338;12777,541;   -1,363;    1,045
906,895;12726,915;    0,637;    2,045
907,453;12703,016;    1,727;    1,136
908,010;12726,753;   -0,909;    0,409
908,567;12458,854;    1,273;    0,591
909,124;11961,228;    0,364;   -1,500
909,681;12016,329;   -2,909;    0,682
910,238;12227,429;    0,636;   -1,318
910,795;12488,167;   -0,273;   -1,136
911,352;12127,439;   -2,909;   -2,682
911,909;11609,348;   -1,364;   -0,864
912,466;12108,621;   -3,182;    1,500
913,022;11676,530;   -1,636;    0,500
913,579;12027,894;   -0,909;    2,045
914,136;11751,439;    1,636;    0,955
914,692;12063,258;    0,091;   -1,227
915,249;11690,348;    1,455;    0,409
915,806;11905,894;    0,182;    1,955
916,362;11753,985;    1,909;    1,864
916,918;11304,076;    2,000;    1,045
917,475;11320,803;   -1,182;    0,955
918,031;11407,894;    3,364;   -0,045
918,587;10903,894;   -0,909;   -0,318
919,144;11125,258;   -2,273;    0,227
919,700;11391,621;    1,727;    0,773
920,256;10961,348;    0,727;    0,045
920,812;10664,530;   -0,727;   -1,045
921,368;10729,985;   -1,727;   -1,045
921,924;10372,348;    0,182;   -0,136
922,480;10002,348;   -0,545;    1,227
923,036;10629,439;    1,273;    1,955
923,592;10542,076;    0,455;    0,318
924,148;10462,258;    0,455;   -0,955
924,704; 9883,439;   -1,364;   -0,409
925,259;10155,530;   -0,273;    0,591
925,815; 9931,712;    1,455;    0,500
926,371; 9484,894;    2,909;    1,409
926,926; 9436,258;    2,091;    0,591
927,482; 9119,258;   -1,364;    0,773
928,037; 8996,530;    0,909;    2,045
928,593; 9355,985;    1,636;    1,045
929,148; 9188,348;   -1,818;   -1,500
929,704; 8738,167;   -1,455;   -0,500
930,259; 8886,439;    0,091;   -0,136
930,814; 8119,712;   -0,818;    1,955
931,369; 7832,985;    1,091;   -0,773
931,925; 7733,439;   -0,091;    0,136
932,480; 7658,167;   -2,818;   -2,591
933,035; 7623,621;    0,545;   -0,318
933,590; 7445,530;    0,364;   -1,773
934,145; 7098,985;   -1,364;   -0,318
934,700; 7424,076;    0,455;   -0,591
935,255; 7269,621;   -0,091;    0,045
935,809; 6703,348;    3,182;    0,864
936,364; 5929,803;   -0,455;   -0,136
936,919; 5957,076;    0,455;   -1,773
937,474; 5868,076;    1,455;    0,136
938,028; 5673,167;   -1,636;    1,136
938,583; 5291,530;    1,818;    4,682
939,138; 5508,076;    2,091;    2,136
939,692; 4987,348;    1,636;   -1,136
940,247; 4763,348;   -0,727;   -1,045
940,801; 4448,712;   -0,636;    0,227
941,355; 4339,076;   -0,364;    2,591
941,910; 4007,439;   -0,273;   -2,136
942,464; 4152,076;   -0,818;   -0,318
943,018; 4043,530;    1,000;   -0,227
943,572; 3982,530;    2,545;   -0,682
944,126; 3507,530;    0,091;   -0,409
944,681; 3389,439;    3,091;    0,227
945,235; 3384,439;    1,000;   -0,591
945,789; 3334,167;    0,364;   -1,864
946,342; 3512,258;    0,455;   -0,591
946,896; 3256,530;   -2,273;    0,955
947,450; 3026,167;    1,545;   -0,227
948,004; 3284,348;    1,727;   -0,045
948,558; 3237,439;    0,273;   -0,864
949,111; 3181,348;   -0,273;   -0,318
949,665; 3271,076;    1,636;   -0,682
950,219; 3165,348;   -0,091;   -1,045
950,772; 3190,803;   -1,909;    1,864
951,326; 3129,348;    0,545;   -0,955
951,879; 3187,712;    0,727;   -2,318
952,433; 3243,439;    0,000;    2,227
952,986; 3059,621;    2,909;    0,682
953,539; 3005,167;   -0,273;    0,591
954,093; 2937,439;    0,545;   -1,318
954,646; 3099,348;    0,909;    1,318
955,199; 2927,712;    0,000;   -0,500
955,752; 2868,985;   -0,455;    1,773
956,305; 2804,803;   -0,091;    2,955
956,858; 2967,167;    0,818;   -0,318
957,411; 3114,530;   -0,545;    2,136
957,964; 2956,258;    1,364;    2,136
958,517; 2918,894;   -1,545;    3,136
959,070; 2795,258;   -0,455;    1,955
959,623; 2938,076;    1,091;    1,500
960,176; 2718,258;    1,727;    2,045
960,728; 2704,803;   -2,727;    0,773
961,281; 2748,167;    0,545;    0,500
961,834; 2756,621;   -0,909;    0,864
962,386; 2673,348;    1,727;    1,045
962,939; 2607,985;    0,364;   -0,318
963,491; 2744,894;    0,455;    1,136
964,043; 2629,167;    1,182;    2,409
964,596; 2773,530;   -1,000;    2,227
965,148; 2600,258;   -1,000;    1,773
965,700; 2524,894;    1,091;   -0,227
966,253; 2689,894;   -0,636;    0,318
966,805; 2553,167;   -2,273;    0,773
967,357; 2548,258;    1,091;   -1,500
967,909; 2561,985;    0,455;   -1,227
968,461; 2628,621;    0,545;    3,136
969,013; 2538,439;   -0,182;   -0,864
969,565; 2656,439;   -0,455;   -1,136
970,117; 2816,348;   -0,364;    1,045
970,669; 2577,348;    0,182;   -0,136
971,220; 2409,985;   -0,455;   -1,500
971,772; 2385,348;   -0,636;   -0,318
972,324; 2502,803;    0,091;   -0,500
972,876; 2405,167;    0,818;   -0,045
973,427; 2583,712;    1,909;   -1,045
973,979; 2566,712;   -0,727;   -2,500
974,530; 2516,167;    1,818;    1,318
975,082; 2534,439;   -0,545;    1,682
975,633; 2464,258;    1,091;    1,682
976,184; 2604,985;    0,909;    0,773
976,736; 2446,894;    0,091;    0,227
977,287; 2270,894;   -0,909;   -0,500
977,838; 2413,258;    0,909;   -0,318
978,389; 2465,894;   -1,000;   -0,500
978,940; 2332,258;    0,545;   -0,409
979,491; 2347,076;    0,091;   -0,500
980,042; 2338,530;    0,182;    3,045
980,593; 2359,803;   -2,545;    0,227
981,144; 2436,076;    2,545;   -0,500
981,695; 2440,621;    1,455;    1,500
982,246; 2402,258;   -0,273;    1,045
982,797; 2478,530;   -1,727;    0,682
983,347; 2600,530;    0,364;    0,591
983,898; 2802,348;    3,091;    0,409
984,449; 2647,621;    2,182;    0,773
984,999; 2497,621;    1,455;   -1,136
985,550; 2314,348;    0,182;   -0,318
986,100; 2301,439;   -0,455;   -0,318
986,651; 2333,530;   -0,818;    0,045
987,201; 2324,985;   -1,000;   -0,591
987,751; 2403,803;    0,818;    2,864
988,302; 2400,712;    2,636;    1,500
988,852; 2396,985;    0,455;   -1,136
989,402; 2477,894;    0,091;    0,682
989,952; 2434,894;   -2,182;    0,864
990,502; 2459,712;   -0,091;    0,682
991,052; 2399,621;   -0,727;    0,045
991,602; 2300,076;   -2,909;    1,318
992,152; 2318,439;    0,455;    0,682
992,702; 2308,803;    1,364;   -0,045
993,252; 2247,803;   -3,000;   -0,500
993,802; 2355,530;   -0,273;    1,318
994,352; 2514,803;   -1,545;    1,136
994,901; 2549,894;   -0,182;    3,227
995,451; 2493,076;   -0,182;    0,318
996,000; 2576,621;    1,636;    0,318
996,550; 2333,712;    2,273;    0,227
997,100; 2332,348;    1,273;   -0,045
997,649; 2607,258;    2,182;    0,955
998,198; 2259,712;    1,727;   -1,500
998,748; 2480,439;    1,091;   -2,318
999,297; 2366,712;   -0,818;   -0,409
999,846; 2455,439;    1,000;   -0,773
1000,395; 2461,712;   -0,818;    0,500
1000,945; 2482,076;    1,818;   -0,773
1001,494; 2555,076;    2,364;    0,682
1002,043; 2512,348;    4,636;    0,864
1002,592; 2321,258;   -1,091;    1,955
1003,141; 2487,530;   -0,455;   -0,682
1003,690; 2389,894;    1,727;    0,500
1004,238; 2417,076;    1,455;   -0,045
1004,787; 2069,894;    1,364;    1,227
1005,336; 2346,258;    0,364;    0,682
1005,885; 2443,530;    1,364;   -2,773
1006,433; 2530,894;    0,545;    0,955
1006,982; 2683,439;    0,455;    1,682
1007,531; 2525,258;   -1,818;   -0,227
1008,079; 2447,439;   -2,273;    0,500
1008,627; 2546,803;   -1,455;    0,409
1009,176; 2344,803;    0,000;   -1,955
1009,724; 2376,621;    1,091;    0,864
1010,273; 2480,894;    1,273;    0,500
1010,821; 2526,712;    0,091;    1,409
1011,369; 2294,530;   -1,364;    1,318
1011,917; 2281,439;   -1,364;   -0,591
1012,465; 2543,894;    1,273;   -1,591
1013,013; 2612,348;    2,091;   -1,682
1013,561; 2558,894;    0,455;   -0,773
1014,109; 2639,439;   -1,909;    1,682
1014,657; 2494,803;    0,364;    0,591
1015,205; 2569,803;    1,636;   -0,955
1015,753; 2566,258;   -0,545;   -1,409
1016,301; 2626,258;   -2,636;    3,045
1016,848; 2626,530;   -1,273;    0,409
1017,396; 2681,076;    2,545;    0,045
1017,944; 2783,985;    1,182;    1,864
1018,491; 2535,258;    0,273;    1,409
1019,039; 2784,803;    0,455;    0,591
1019,586; 2600,621;   -1,364;    1,682
1020,134; 2670,258;    0,455;    1,500
1020,681; 2722,712;    0,182;   -1,136
1021,228; 2689,439;    2,909;   -2,227
1021,776; 2533,530;    1,182;   -1,136
1022,323; 2806,894;    0,455;    0,773
1022,870; 2724,712;   -1,000;   -0,045
1023,417; 2649,348;    2,636;    1,864
1023,964; 2703,167;    2,636;    1,227
1024,511; 2600,803;    1,000;    0,773
1025,058; 2418,076;    3,182;   -0,045
1025,605; 2479,985;   -2,273;    3,136
1026,152; 2740,530;    1,727;   -0,591
1026,699; 2453,348;    1,818;    1,318
1027,245; 2570,167;   -0,091;    0,318
1027,792; 2705,803;   -1,000;    1,409
1028,339; 2683,439;    2,364;   -0,045
1028,885; 2526,803;    1,000;   -0,227
1029,432; 2461,712;   -0,091;    0,227
1029,978; 2561,712;   -1,000;   -1,591
1030,525; 2460,712;    1,000;    0,409
1031,071; 2612,985;   -1,364;    1,136
1031,618; 2813,712;    0,364;    1,682
1032,164; 2581,712;   -0,091;    3,045
1032,710; 2621,348;    1,636;   -1,500
1033,256; 2514,530;   -0,636;   -0,136
1033,803; 2458,258;   -0,545;    1,500
1034,349; 2205,167;   -1,364;    0,136
1034,895; 2344,621;    0,000;   -0,318
1035,441; 2358,439;   -0,818;    0,318
1035,987; 2395,439;   -2,364;   -0,682
1036,533; 2402,076;   -1,455;   -0,955
1037,078; 2637,894;    1,455;    1,682
1037,624; 2437,076;    2,455;   -0,955
1038,170; 2425,530;    0,455;   -0,318
1038,716; 2376,621;    1,636;   -0,409
1039,261; 2251,712;   -2,273;   -0,773
1039,807; 2214,803;   -0,091;    3,409
1040,352; 2282,439;   -1,909;   -0,318
1040,898; 2311,258;   -1,545;   -0,682
1041,443; 2219,712;   -1,455;   -2,591
1041,989; 2346,076;    1,091;    1,591
1042,534; 2162,439;   -0,364;    2,591
1043,079; 2214,530;    2,909;    0,955
1043,625; 2083,348;    1,818;    0,500
1044,170; 2147,076;   -1,364;    1,045
1044,715; 2417,621;    2,455;    0,955
1045,260; 2227,712;    2,182;   -0,955
1045,805; 2217,258;    1,182;   -0,591
1046,350; 2149,076;    1,364;   -0,409
1046,895; 2184,894;    2,909;    1,591
1047,440; 2158,076;    5,364;    0,409
1047,985; 2018,985;    2,818;   -0,955
1048,530; 1939,803;    1,545;    1,227
1049,074; 2022,167;    0,000;    0,318
1049,619; 1984,530;   -1,364;    1,955
1050,164; 1821,712;    0,455;    0,227
1050,708; 1867,530;   -0,455;    0,045
1051,253; 2288,803;    1,273;   -2,227
1051,797; 1985,348;    0,818;   -1,318
1052,342; 1913,985;   -1,182;    1,045
1052,886; 1959,712;    0,364;   -1,409
1053,430; 1806,712;   -1,364;    0,136
1053,975; 1835,530;   -0,818;   -0,318
1054,519; 1842,894;   -0,727;    3,227
1055,063; 1904,076;    0,909;    1,318
1055,607; 1806,076;   -0,182;    0,227
1056,151; 1813,076;    2,909;    1,682
1056,695; 1705,348;    2,273;   -1,136
1057,239; 1779,076;   -1,727;   -0,682
1057,783; 1798,985;    0,818;   -1,500
1058,327; 1785,439;    0,000;    1,409
1058,871; 2028,076;   -0,545;    1,318
1059,415; 1736,258;   -0,818;   -0,045
1059,958; 2033,530;    1,455;    2,591
1060,502; 1731,167;   -1,000;   -0,773
1061,046; 1594,439;    0,364;   -0,955
1061,589; 1560,439;   -3,000;   -1,136
1062,133; 1451,712;   -1,273;    1,864
1062,676; 1422,530;    1,182;    0,864
1063,220; 1456,439;    1,091;    0,500
1063,763; 1490,076;    0,909;    1,136
1064,306; 1567,530;   -0,909;    1,864
1064,849; 1473,167;   -0,909;    0,591
1065,393; 1480,530;    2,000;   -1,500
1065,936; 1559,894;    0,182;   -0,409
1066,479; 1432,985;   -1,455;    1,318
1067,022; 1453,258;   -0,273;   -0,227
1067,565; 1372,167;   -0,091;   -1,318
1068,108; 1384,348;    0,727;   -0,591
1068,651; 1339,348;   -0,636;    1,409
1069,194; 1286,076;   -0,455;   -1,682
1069,736; 1322,803;   -1,273;    0,955
1070,279; 1269,258;   -1,364;   -0,500
1070,822; 1371,621;   -2,000;   -0,318
1071,364; 1496,167;   -0,364;    1,318
1071,907; 1294,803;   -0,727;    3,227
1072,450; 1145,258;    0,000;   -0,045
1072,992; 1170,439;   -0,273;    3,136
1073,535; 1340,985;    2,091;    2,136
1074,077; 1121,712;   -0,727;    2,045
1074,619; 1110,530;   -1,364;    0,591
1075,161; 1147,894;   -1,091;    1,500
1075,704; 1346,258;    1,545;    1,227
1076,246; 1119,348;   -0,182;    0,682
1076,788; 1022,258;   -0,364;    1,773
1077,330; 1085,167;    1,273;    2,136
1077,872; 1095,530;    0,909;    0,955
1078,414; 1352,076;    2,727;    0,773
1078,956; 1079,985;    1,273;   -0,227
1079,498; 1347,076;    1,636;    0,318
1080,040; 1056,076;    1,909;   -1,318
1080,581;  985,985;    1,636;   -0,318
1081,123;  901,076;    0,091;   -0,773
1081,665;  947,530;   -1,182;   -0,955
1082,206; 1271,985;    1,364;   -0,500
1082,748; 1129,439;    0,727;    2,045
1083,289;  979,258;   -2,000;    1,318
1083,831;  909,439;   -0,545;    0,227
1084,372;  984,621;    0,000;    0,591
1084,913;  980,985;    1,091;    0,864
1085,455;  919,894;   -1,909;   -2,045
1085,996;  910,803;   -2,273;    0,136
1086,537;  948,712;   -0,091;    0,864
1087,078;  961,803;   -0,909;   -2,136
1087,619; 1023,258;   -1,273;    0,227
1088,160;  934,894;    0,000;    1,318
1088,701;  902,530;   -1,091;    0,682
1089,242;  848,894;    1,364;   -2,227
1089,783;  970,167;   -0,273;    1,409
1090,324;  934,621;    0,455;    0,682
1090,865;  811,076;    2,727;   -0,409
1091,405;  754,894;    0,727;    2,227
1091,946;  797,167;    0,182;   -0,955
1092,487;  717,258;    0,818;   -1,409
1093,027;  907,803;   -1,364;   -1,500
1093,568;  765,348;   -0,364;    1,227
1094,108;  868,076;    0,273;    1,773
1094,649;  791,621;   -1,182;    0,136
1095,189;  726,985;   -0,636;   -0,682
1095,729;  695,530;   -0,091;    0,955
1096,269;  681,530;    0,727;   -0,955
1096,810; 1012,803;   -1,364;    0,500
1097,350;  849,167;    1,364;   -0,773
1097,890;  746,621;    0,364;    1,227
1098,430; 1013,985;    2,364;    2,864
1098,970;  888,621;    2,182;    1,682
1099,510;  717,258;    0,545;   -2,318
1100,050;  658,530;    1,000;   -1,591
1100,589;  646,712;   -0,727;   -0,318
1101,129;  780,167;    0,818;   -0,955
1101,669;  936,258;    1,727;    2,136
1102,209;  747,621;   -0,091;    2,227
1102,748;  707,712;    0,000;    0,955
1103,288;  696,076;    1,273;   -1,227
1103,827;  729,712;    3,091;   -2,227
1104,367;  604,167;   -0,091;   -2,409
1104,906;  571,076;    1,364;   -1,136
1105,445;  654,621;    0,636;   -1,136
1105,985;  605,712;   -0,727;    1,500
1106,524;  650,803;   -1,727;   -0,682
1107,063;  618,076;   -2,727;    1,409
1107,602;  581,894;   -1,909;   -1,500
1108,141;  514,712;   -1,909;    1,500
1108,680;  635,348;   -3,455;   -0,591
1109,219;  572,348;   -0,909;   -0,500
1109,758;  565,258;    0,455;    0,682
1110,297;  541,621;    1,000;   -0,682
1110,836;  485,348;   -0,727;    0,955
1111,375;  645,894;   -2,545;    0,409
1111,913;  659,985;   -1,000;    0,773
1112,452;  586,530;   -0,273;    0,136
1112,991;  475,167;    1,091;    1,955
1113,529;  446,258;   -0,818;   -0,045
1114,068;  516,712;   -0,273;    2,955
1114,606;  425,348;   -0,364;   -0,955
1115,144;  591,712;   -1,273;    1,045
1115,683;  522,803;   -0,727;    0,318
1116,221;  569,530;   -0,455;   -0,864
1116,759;  476,167;    0,636;   -0,864
1117,297;  681,894;    0,000;    1,864
1117,836;  488,530;   -2,182;   -1,227
1118,374;  497,439;    0,182;   -0,682
1118,912;  445,530;    0,909;    2,682
1119,450;  444,712;    1,000;    0,864
1119,988;  490,621;    1,545;    2,136
1120,525;  937,076;    5,091;    3,318
1121,063;  647,258;    1,182;    1,864
1121,601;  455,258;   -0,909;   -1,227
1122,139;  411,530;   -0,727;   -2,045
1122,676;  621,348;   -0,727;    2,773
1123,214;  551,076;   -1,182;    4,409
1123,751;  353,803;    1,727;    2,227
1124,289;  475,621;   -0,091;   -0,409
1124,826;  369,167;    1,727;    0,227
1125,364;  281,621;    1,727;   -0,955
1125,901;  464,712;    1,182;    1,227
1126,438;  579,894;    0,818;    0,955
1126,975;  312,621;   -0,727;   -0,773
1127,513;  390,621;    0,273;    2,136
1128,050;  290,439;    1,636;   -0,682
1128,587;  392,894;    2,000;   -0,227
1129,124;  438,167;    0,091;    1,318
1129,661;  299,985;    0,273;    0,227
1130,198;  474,167;    1,636;    0,773
1130,734;  420,621;    0,182;    1,409
1131,271;  282,439;   -0,909;    0,864
1131,808;  446,530;    2,909;    3,045
1132,345;  325,076;    1,545;    0,318
1132,881;  194,985;   -1,545;   -1,864
1133,418;  336,530;    0,727;   -1,136
1133,954;  277,621;    2,455;   -2,682
1134,491;  362,076;    1,364;   -0,773
1135,027;  251,076;    2,364;    0,864
1135,564;  345,621;    0,273;    2,955
1136,100;  326,530;    0,364;    2,136
1136,636;  216,621;   -1,273;   -1,045
1137,172;  309,439;    0,000;   -1,045
1137,708;  238,439;   -1,364;   -1,045
1138,245;  226,530;    1,273;   -1,227
1138,781;  182,712;    1,091;   -3,318
1139,317;  254,803;    1,273;   -1,409
1139,852;  250,258;    3,091;    0,136
1140,388;  363,803;   -1,182;   -0,409
1140,924;  249,803;   -1,091;   -2,227
1141,460;  193,348;   -1,636;    0,136
1141,996;  126,439;   -1,364;    2,682
1142,531;  185,258;    1,364;    3,318
1143,067;  389,712;    1,182;    1,045
1143,602;  441,894;   -0,091;   -0,318
1144,138;  282,803;   -2,636;    1,045
1144,673;  163,348;   -1,455;    1,409
1145,209;  228,985;   -1,909;   -0,318
1145,744;  151,530;   -0,727;    0,864
1146,279;  287,167;    1,818;   -0,136
1146,815;  196,258;    1,545;   -2,682
1147,350;  246,348;   -1,364;    0,045
1147,885;  154,076;   -0,818;   -1,318
1148,420;  147,985;   -2,273;    0,773
1148,955;  145,076;   -1,727;    1,864
1149,490;  161,894;   -0,909;   -1,591
1150,025;  136,076;    0,455;   -1,773
1150,560;  252,803;    1,091;   -0,955
1151,094;  228,803;    1,455;   -0,591
1151,629;  226,530;    1,636;    0,864
1152,164;  161,894;    1,364;    1,318
1152,698;  117,439;   -0,182;   -0,136
1153,233;   84,712;    0,091;   -0,682
1153,767;  132,621;   -3,000;   -2,318
1154,302;  177,076;   -1,455;    1,773
1154,836;  166,712;   -0,455;   -2,136
1155,371;  228,894;   -1,364;    3,682
1155,905;  179,439;   -0,636;    1,682
1156,439;  149,621;   -0,636;   -0,500
1156,973;  180,712;    0,364;    0,318
1157,507;  120,439;   -0,364;    0,682
1158,042;  142,803;   -0,727;    1,045
1158,576;  195,348;    0,182;    1,773
1159,110;  186,167;   -0,818;    2,409
1159,643;  150,894;    0,636;   -0,045
1160,177;   90,621;   -1,545;    1,500

