
Integration time [ms]:   0,040
Averaging Nr. [scans]: 11
Smoothing Nr. [pixels]: 0
Data measured with spectrometer [name]: 7318044SP
Wave   ;Sample   ;Dark     ;Reference
[nm]   ;[counts] ;[counts] ;[counts] 

186,757;   27,696;   31,551;    1,318
187,357;   61,806;   22,551;    0,955
187,958;   47,360;   15,460;   -1,591
188,558;   86,221;    8,915;   -1,227
189,159;   52,202;    6,733;   -4,500
189,759;   23,976;    7,278;   -3,591
190,360;   25,847;    2,824;   -2,136
190,960;   66,459;    2,915;   -4,136
191,560;   81,812;    3,189;   -6,591
192,161;  358,945;    4,372;   -3,500
192,761;  185,263;    4,010;   -3,227
193,361;  114,458;    1,556;   -3,773
193,962;  175,027;    2,010;   -2,682
194,562;   94,334;    1,189;   -3,955
195,162;  147,506;   -2,448;   -2,227
195,762;  323,714;   -3,176;   -0,045
196,362;  267,023;    1,370;   -2,500
196,963;  112,875;    2,006;   -0,864
197,563;  191,413;    1,551;   -0,955
198,163;  126,365;    0,096;   -0,682
198,763;  150,127;    1,733;   -0,500
199,363;  274,034;    3,096;   -0,500
199,963;  231,466;    0,369;    0,409
200,563;  199,002;    2,823;   -1,409
201,163;  173,570;    3,277;   -0,227
201,763;  275,608;    3,732;    0,318
202,363;  214,488;    1,459;    1,500
202,963;  339,090;    1,459;    1,045
203,563;  454,916;    0,277;    0,500
204,162;  290,595;    2,096;   -1,864
204,762;  279,144;    0,550;    0,591
205,362;  246,201;    3,004;    1,955
205,962;  361,378;    3,096;    1,955
206,562;  346,685;    1,823;    2,318
207,161;  319,045;   -0,087;    0,318
207,761;  487,991;    1,277;    2,409
208,361;  351,252;   -0,268;    1,409
208,960;  466,426;    0,459;    1,500
209,560;  553,266;    1,277;    1,591
210,160;  520,117;    0,550;    1,864
210,759;  480,590;    4,186;    1,227
211,359;  500,517;    1,459;    1,045
211,958;  790,058;    1,277;    2,045
212,558;  888,267;    1,732;    1,864
213,157;  707,042;    1,822;    1,500
213,757; 1191,854;    3,822;   -0,227
214,356;  864,990;    1,277;   -0,409
214,956; 1232,556;    3,095;    0,409
215,555;  824,907;    2,095;    2,136
216,154;  750,759;   -2,723;   -0,591
216,754;  767,647;    0,277;    0,773
217,353;  919,026;   -0,268;   -1,045
217,952;  759,188;   -0,178;    0,318
218,552; 1015,471;    1,368;   -0,773
219,151;  900,997;    0,277;    0,955
219,750;  901,994;    0,004;   -0,227
220,349; 1066,127;   -0,451;    1,045
220,948; 1110,640;   -1,360;    1,136
221,548; 1170,135;    0,913;    1,227
222,147; 1294,297;   -0,087;   -0,409
222,746; 1589,335;   -0,451;   -0,955
223,345; 1463,661;    0,731;    0,500
223,944; 1471,879;   -0,451;    0,773
224,543; 1683,286;    1,004;   -1,409
225,142; 1783,477;    0,094;    0,136
225,741; 1695,102;   -0,814;    1,045
226,340; 1741,280;   -0,451;   -0,955
226,939; 2236,185;   -0,996;   -0,136
227,538; 2228,104;   -0,360;   -0,773
228,137; 2386,702;   -0,814;    0,864
228,735; 2569,146;   -0,541;    1,227
229,334; 2276,216;   -0,905;   -0,227
229,933; 2664,850;    0,459;    0,591
230,532; 2785,722;    1,186;   -0,409
231,131; 2837,398;    1,732;    0,318
231,729; 3041,615;   -2,450;   -2,318
232,328; 3196,276;   -0,723;   -1,500
232,927; 3302,028;    1,004;   -0,500
233,525; 3451,963;    3,640;    0,045
234,124; 3676,416;    2,368;   -1,591
234,723; 3691,046;    0,913;   -1,045
235,321; 3851,910;    2,277;    0,136
235,920; 4124,717;    1,186;   -1,227
236,518; 4368,308;    3,459;    0,318
237,117; 4595,202;    0,004;   -0,227
237,715; 4789,556;    0,640;   -0,500
238,314; 4826,754;   -0,087;   -2,318
238,912; 4933,606;   -0,723;   -1,409
239,510; 4995,745;    0,459;   -1,227
240,109; 5185,431;    0,004;    3,773
240,707; 5229,723;   -0,996;    1,227
241,305; 5616,013;    0,550;    0,136
241,904; 5874,013;   -0,178;   -2,045
242,502; 5825,318;   -0,632;   -0,227
243,100; 5749,626;   -0,087;   -0,955
243,698; 6006,979;    0,732;    1,682
244,297; 6206,863;   -0,632;    0,682
244,895; 6035,343;   -0,269;   -2,318
245,493; 6388,871;    2,186;   -0,591
246,091; 6434,431;    1,368;   -1,318
246,689; 6432,965;    1,004;    0,591
247,287; 6635,739;    0,822;   -1,136
247,885; 6904,861;   -1,451;    1,227
248,483; 6990,331;    1,822;   -0,500
249,081; 7133,848;    0,185;    1,591
249,679; 7323,657;   -0,178;    1,682
250,277; 7582,787;   -1,723;    0,864
250,875; 7591,364;   -1,087;   -1,045
251,473; 7608,338;   -1,178;    0,500
252,071; 7850,604;    1,459;    1,045
252,669; 7995,152;   -1,814;    0,318
253,267; 8270,878;   -0,087;    0,773
253,864; 8243,921;   -0,360;    0,682
254,462; 8062,829;    1,640;    1,591
255,060; 8052,776;   -0,269;    1,318
255,658; 8413,334;    0,822;   -0,136
256,255; 8863,456;    0,186;   -2,045
256,853; 8705,134;   -0,269;    1,409
257,451; 8708,486;    0,822;    1,864
258,048; 8985,978;    1,822;    1,864
258,646; 8736,182;    1,731;   -1,045
259,243; 8922,407;   -0,087;    2,227
259,841; 9002,765;   -0,814;    0,318
260,438; 8876,747;   -0,087;    0,864
261,036; 9654,180;   -1,905;    1,409
261,633; 9532,173;   -0,087;    2,227
262,231; 9231,972;    2,731;   -0,045
262,828; 9326,014;   -0,905;    1,136
263,425; 9407,866;    0,913;   -0,591
264,023; 9688,231;    0,186;    0,045
264,620; 9242,979;   -0,360;   -0,318
265,217; 9625,708;   -2,087;    3,136
265,815; 9704,372;   -1,905;    2,136
266,412; 9494,275;    0,731;    0,136
267,009; 9563,384;   -1,451;    0,773
267,606; 9432,364;    0,822;   -0,955
268,203; 9401,347;   -0,269;   -0,591
268,801; 9722,357;    1,731;    0,591
269,398;10008,654;   -0,360;    2,500
269,995;10010,378;    0,277;    1,591
270,592; 9777,522;   -0,632;   -0,500
271,189; 9995,143;    0,186;    0,409
271,786;10112,728;   -0,632;    1,227
272,383; 9937,565;   -1,087;    0,227
272,980;10180,099;    0,277;    0,318
273,577;10672,485;    0,004;    1,227
274,174;10229,744;    0,822;    2,591
274,771;10252,243;   -0,814;   -0,773
275,367;10387,929;    2,277;    1,409
275,964;10349,397;    0,731;   -0,500
276,561;10439,911;    1,549;   -1,045
277,158;10690,839;    0,095;   -1,773
277,755;10828,212;    2,185;    0,409
278,351;10216,990;   -0,451;   -1,500
278,948;10558,894;   -0,815;    0,045
279,545;10571,073;   -1,360;    2,318
280,141;11248,807;   -1,723;   -2,045
280,738;11162,858;   -0,451;   -0,136
281,334;11410,109;   -1,633;    0,591
281,931;10754,881;   -0,087;   -1,318
282,528;10830,862;    0,822;   -0,500
283,124;11593,284;   -1,087;   -0,500
283,721;11493,202;   -0,451;    1,409
284,317;11308,596;    0,185;    2,500
284,913;11910,462;   -1,360;    0,591
285,510;12119,553;    0,640;   -0,318
286,106;12157,381;   -2,269;   -0,955
286,703;11776,919;   -0,360;    1,955
287,299;11981,765;   -1,451;   -0,591
287,895;12183,286;    0,822;   -1,045
288,491;12784,563;    0,186;    2,136
289,088;12501,262;   -2,360;    2,409
289,684;12590,061;   -1,723;    1,500
290,280;12614,138;    0,368;    0,682
290,876;12715,571;    1,822;    5,500
291,472;12584,964;    1,276;    2,227
292,068;12742,766;    1,367;    0,227
292,665;12419,402;    2,095;    0,773
293,261;12019,619;    0,276;    2,136
293,857;12437,117;    2,913;    2,136
294,453;12353,021;    3,550;    0,955
295,049;12249,503;   -0,268;    1,955
295,644;12259,586;    0,095;    0,136
296,240;12182,734;   -0,905;   -0,136
296,836;12234,045;   -0,995;    0,318
297,432;12509,342;    1,096;   -0,500
298,028;12576,682;    0,732;    0,773
298,624;13022,623;    1,459;    1,864
299,220;13303,129;    2,368;    0,591
299,815;12954,689;    1,005;   -0,409
300,411;12734,685;    0,914;    1,773
301,007;12741,287;    1,368;    0,227
301,602;12796,124;   -0,541;   -2,318
302,198;12980,180;    0,732;   -0,773
302,794;13340,154;    1,187;   -0,500
303,389;13424,459;   -1,177;    1,045
303,985;13546,639;    0,550;    1,409
304,580;13515,235;    1,459;    1,591
305,176;13468,651;   -3,086;    0,136
305,771;13423,144;   -1,268;   -1,227
306,367;13284,912;    4,095;    0,136
306,962;13595,487;    0,641;    1,500
307,558;13341,329;   -0,450;    0,136
308,153;13290,934;    1,095;   -1,136
308,748;13533,200;   -0,814;    1,682
309,344;13554,037;   -0,632;   -1,318
309,939;13655,248;   -1,905;   -1,318
310,534;13899,870;   -0,086;   -1,682
311,130;13843,278;    0,459;   -2,500
311,725;13566,636;    1,004;   -0,500
312,320;13905,929;    2,459;    0,045
312,915;13739,608;    1,459;   -1,045
313,510;13846,954;    1,550;   -0,500
314,105;14322,329;    1,096;    1,409
314,700;13684,778;   -3,086;   -1,045
315,295;13275,326;   -0,904;    0,045
315,890;12812,557;    1,277;    0,864
316,485;13188,385;   -0,359;   -0,318
317,080;13293,054;   -3,086;    1,591
317,675;13870,031;    2,005;   -0,682
318,270;13283,961;    5,550;    3,318
318,865;13271,950;    3,278;    3,045
319,460;13085,726;   -0,904;    0,591
320,055;13304,366;   -0,541;   -1,227
320,650;12981,460;   -1,995;   -0,591
321,244;13033,874;   -0,177;   -1,409
321,839;14011,537;   -1,541;   -0,227
322,434;13942,657;   -1,086;   -1,591
323,029;13543,321;    1,732;    1,591
323,623;13344,655;    1,550;    0,773
324,218;13127,973;    2,368;    1,409
324,812;13017,165;    1,096;    1,591
325,407;12831,726;   -0,814;    2,045
326,002;12728,532;    0,277;   -0,409
326,596;13075,019;    0,914;    1,318
327,191;13236,297;    0,823;   -1,045
327,785;12810,019;   -0,813;   -0,227
328,379;13065,149;    1,368;    0,136
328,974;12890,092;    0,914;   -3,955
329,568;13106,664;    0,186;   -2,409
330,163;12925,558;    2,096;    1,045
330,757;13308,020;    2,459;    1,591
331,351;12618,209;    0,459;    0,682
331,945;12883,780;    0,914;    1,409
332,540;12442,038;   -1,723;   -0,591
333,134;12621,371;   -1,086;    0,773
333,728;12890,004;    0,005;    0,318
334,322;13216,161;   -1,177;   -0,864
334,916;12498,999;    0,277;    0,955
335,510;12841,221;   -0,450;   -0,136
336,105;13088,842;   -1,086;    1,591
336,699;12806,161;   -1,086;    0,591
337,293;12732,399;   -1,723;    0,318
337,887;12895,509;   -2,723;    1,955
338,481;13029,152;    0,459;    0,591
339,074;13159,716;   -0,359;    2,682
339,668;12977,902;   -1,632;    1,227
340,262;13261,961;    1,732;    3,227
340,856;12735,163;    1,822;   -0,682
341,450;12061,407;    1,004;    1,864
342,044;13026,490;    1,459;    0,136
342,637;12804,158;    0,913;   -2,136
343,231;12672,735;   -2,360;    0,682
343,825;12623,423;   -1,086;   -0,591
344,419;12552,571;   -1,995;    0,500
345,012;12321,327;    2,459;    4,045
345,606;12329,321;    4,641;    1,591
346,199;12164,398;   -1,813;   -0,227
346,793;11612,674;    1,914;    2,045
347,386;11792,393;   -0,813;   -1,136
347,980;11847,944;   -0,268;   -0,045
348,573;11613,012;    2,278;    0,409
349,167;11252,514;    5,278;    4,773
349,760;11570,751;    2,914;    2,682
350,354;11598,193;   -0,813;    1,136
350,947;11345,723;    1,096;    1,682
351,540;10991,372;   -0,358;   -1,409
352,134;10900,694;    1,096;    1,136
352,727;10973,709;   -0,086;    1,136
353,320;10769,145;    0,005;    0,591
353,913;10607,242;   -1,995;    1,864
354,507;10799,478;    0,823;   -1,227
355,100;10802,323;    0,460;    0,864
355,693;10004,019;    2,005;    2,409
356,286;10033,320;    0,823;    2,773
356,879;10381,318;   -0,722;    1,227
357,472; 9955,293;   -0,904;    1,500
358,065;10198,361;   -0,722;    2,500
358,658;10112,580;   -0,540;    2,318
359,251; 9726,147;   -1,631;   -0,591
359,844; 9156,693;   -1,904;   -1,136
360,437; 9328,492;   -2,995;    0,045
361,030; 9605,658;    1,369;   -0,682
361,623; 9173,404;    2,824;    0,318
362,215; 9249,363;   -0,086;    2,045
362,808; 9080,881;   -2,358;   -1,682
363,401; 9254,285;   -2,449;    0,136
363,994; 8990,246;   -0,631;   -1,500
364,586; 8876,335;    0,824;   -1,500
365,179; 9109,813;   -0,449;   -1,136
365,772; 8605,868;   -1,995;    2,045
366,364; 8946,499;    1,915;   -3,227
366,957; 9134,373;    2,279;   -0,045
367,549; 9144,279;    2,188;   -0,864
368,142; 8741,740;    1,825;   -1,500
368,734; 8949,423;    0,734;   -2,136
369,327; 8915,584;    1,643;   -0,500
369,919; 8824,744;   -1,538;    0,409
370,512; 8597,812;   -1,083;   -0,500
371,104; 8396,589;   -0,901;    1,591
371,696; 8575,627;    1,191;   -0,955
372,289; 8654,649;    0,373;    1,136
372,881; 8821,684;   -2,080;    1,318
373,473; 8736,329;   -2,170;    1,136
374,066; 8532,748;   -0,169;    0,500
374,658; 8362,228;    0,378;    1,136
375,250; 8770,098;    0,653;   -1,409
375,842; 8588,477;    0,473;   -0,045
376,434; 8492,376;   -0,435;   -0,409
377,026; 9090,269;    0,204;   -2,500
377,618; 8987,586;   -0,158;   -0,682
378,210; 8795,394;   -0,338;   -1,955
378,802; 8630,756;    0,754;   -0,591
379,394; 8615,758;    1,846;    0,682
379,986; 9271,317;    1,393;   -0,955
380,578; 9380,166;   -0,153;    0,773
381,170; 8665,779;   -0,972;    0,045
381,762; 8611,426;    0,755;    1,409
382,354; 8842,093;   -0,065;   -1,318
382,945; 8928,370;   -2,976;    0,318
383,537; 9101,555;   -2,705;   -1,955
384,129; 9108,917;   -2,160;   -1,136
384,721; 9319,854;   -0,252;    0,955
385,312; 9269,394;   -0,161;   -0,955
385,904; 9334,223;   -2,706;    1,591
386,496; 8675,860;   -0,979;    1,045
387,087; 8811,210;    1,022;    2,500
387,679; 8879,447;   -1,160;    0,045
388,270; 9023,838;    2,840;    2,045
388,862; 9154,861;    1,295;   -0,318
389,453; 9082,845;   -0,887;    1,045
390,045; 9355,448;   -0,705;   -2,682
390,636; 9236,035;    0,204;   -0,591
391,227; 9113,397;   -0,523;   -0,045
391,819; 9223,215;    0,204;    0,773
392,410; 9312,800;    1,022;    0,045
393,001; 9240,863;   -0,979;   -1,591
393,593; 9535,330;    1,930;   -0,045
394,184; 9388,339;    1,385;   -0,409
394,775; 9323,566;    1,839;    2,136
395,366; 9513,512;    1,385;    0,773
395,957; 9578,674;    0,113;    0,136
396,548; 9900,951;   -0,342;    2,682
397,139;10206,070;   -2,433;    0,591
397,730; 9903,002;   -1,888;    0,955
398,321; 9985,985;   -1,252;    0,955
398,912;10020,013;   -0,615;    0,136
399,503;10054,753;   -3,524;   -1,409
400,094; 9459,048;    0,294;    1,682
400,685; 9316,795;   -0,433;    0,045
401,276; 9444,255;    0,930;   -0,955
401,867; 9765,275;   -0,888;    0,773
402,458; 9886,745;   -2,251;   -2,318
403,048; 9854,623;    1,112;    0,591
403,639; 9426,383;    0,840;    0,864
404,230; 9643,860;    2,476;    0,318
404,821; 9595,390;   -0,615;    0,045
405,411; 9721,706;    1,203;   -2,591
406,002; 9322,314;   -1,252;   -1,136
406,592; 9140,035;    2,294;    0,045
407,183; 9458,784;    0,566;   -1,500
407,774; 9380,430;    3,475;   -0,136
408,364; 9742,755;    0,930;    0,409
408,954; 9305,475;    0,384;    1,227
409,545; 9349,443;    1,021;    1,045
410,135; 8842,832;    1,293;    0,500
410,726; 9042,580;    1,838;    0,318
411,316; 9450,072;    0,111;    0,773
411,906; 9077,431;   -0,253;   -0,409
412,497; 8520,434;   -1,070;   -0,045
413,087; 9210,342;   -1,980;   -0,227
413,677; 9644,069;   -0,707;    3,864
414,267; 9452,174;    0,656;    1,409
414,857; 9471,965;   -2,980;    4,227
415,448; 9754,701;    0,839;    0,500
416,038; 9403,425;    0,020;   -0,591
416,628; 9378,309;   -0,889;    0,409
417,218; 8809,788;    0,565;    3,318
417,808; 9084,398;    0,202;   -0,409
418,398; 9634,988;    0,020;    2,682
418,988; 9667,644;    2,020;    0,591
419,578; 9953,462;   -0,707;    1,409
420,168;10284,180;   -1,343;   -0,955
420,757; 9864,281;   -1,343;   -1,500
421,347; 9508,151;    0,111;   -0,227
421,937; 9701,880;    2,292;    1,409
422,527; 9639,473;    0,838;   -0,773
423,116; 9496,738;   -0,253;   -0,045
423,706; 9818,570;   -1,889;    0,318
424,296; 9794,549;    1,384;    0,682
424,885;10254,549;   -0,071;   -3,045
425,475;10562,890;    1,474;   -2,864
426,065;10430,176;   -0,980;   -0,318
426,654;10057,226;   -0,435;   -0,318
427,244;10219,967;    0,020;    1,409
427,833; 9635,801;    1,383;   -0,500
428,423;10120,620;   -0,526;    1,136
429,012;10934,999;   -0,344;   -1,136
429,601;10407,364;   -1,344;    0,136
430,191;10647,302;    1,292;    4,318
430,780;10291,608;   -0,344;   -0,409
431,369;10204,465;    0,746;   -0,045
431,959;10868,643;   -1,254;    0,500
432,548;10655,618;   -1,163;   -0,045
433,137;10766,291;   -1,254;   -1,318
433,726;11361,105;    0,292;    0,500
434,315;10638,167;   -0,526;    2,409
434,905;10733,990;   -1,254;    1,409
435,494;10595,447;    0,746;    0,955
436,083;11096,033;   -0,981;   -0,955
436,672;10961,888;    0,110;    0,500
437,261;10467,452;    0,292;   -1,955
437,850;10638,585;    1,383;    0,682
438,439;10661,491;    3,291;    1,955
439,027;10491,667;    3,655;    1,773
439,616;10862,732;    2,927;    1,227
440,205;10707,677;    0,200;   -2,136
440,794;10848,058;    2,109;   -0,045
441,383;11110,563;   -1,346;   -0,591
441,971;10970,339;   -2,436;    0,591
442,560;10876,446;    0,563;   -1,773
443,149;10574,667;    0,379;   -1,318
443,737;10705,108;   -0,074;   -2,318
444,326;11019,206;    0,018;    0,318
444,915;11073,004;   -1,982;    0,864
445,503;11524,524;   -2,891;   -0,318
446,092;10678,972;    0,382;    2,136
446,680;11280,678;    0,382;    0,318
447,269;11496,467;   -0,346;   -0,318
447,857;11225,862;    0,018;   -1,773
448,445;11299,607;    0,563;    1,318
449,034;11522,940;   -1,528;   -1,136
449,622;11707,951;   -1,073;    3,500
450,210;10851,682;    2,017;    2,227
450,799;11429,665;    0,290;   -0,591
451,387;11342,694;    1,381;   -0,591
451,975;11001,940;    2,654;    0,864
452,563;11085,714;    3,472;    2,318
453,151;11112,023;   -0,528;   -1,227
453,739;11035,063;   -1,347;    0,136
454,328;10883,163;    2,381;   -2,136
454,916;10566,640;    2,562;   -0,136
455,504;10756,241;    1,017;    1,227
456,092;10924,046;    0,017;   -1,591
456,679;10940,953;    1,472;    0,682
457,267;10864,439;    4,017;    1,045
457,855;11054,533;    1,017;    1,409
458,443;10805,425;   -0,165;    1,682
459,031;10917,083;    0,108;    2,409
459,619;11402,275;   -1,801;    2,864
460,206;11546,586;    0,835;    2,045
460,794;11618,769;   -2,983;   -0,227
461,382;11918,214;   -0,529;   -0,864
461,970;11462,237;    1,198;    1,864
462,557;11458,704;   -0,711;   -0,682
463,145;11674,553;   -3,165;   -1,682
463,732;11877,894;    2,016;   -1,045
464,320;11832,274;   -0,075;   -3,045
464,907;11456,508;    2,743;   -0,773
465,495;11304,804;    0,743;   -1,227
466,082;11499,276;   -1,984;   -0,045
466,670;11417,592;   -2,529;    1,227
467,257;11811,153;   -1,711;    2,045
467,844;11946,282;   -0,075;    0,045
468,432;11966,086;    0,834;    3,500
469,019;11421,623;    0,925;   -1,773
469,606;11936,874;    0,470;    3,682
470,193;11755,860;   -1,439;    0,227
470,780;11269,971;   -2,075;    0,864
471,368;11636,288;   -1,257;   -0,773
471,955;11446,556;    1,379;   -0,682
472,542;11050,867;    0,652;   -1,136
473,129;11272,858;   -0,166;    0,136
473,716;10972,841;    1,470;    0,591
474,303;11219,135;    0,652;   -0,864
474,890;11532,397;   -1,439;   -0,500
475,477;11539,683;   -1,621;    0,409
476,064;11446,083;    1,106;   -1,591
476,650;11409,352;    0,288;    0,318
477,237;11250,715;   -0,258;    0,955
477,824;11418,722;   -1,076;    0,864
478,411;11453,952;   -1,894;   -0,318
478,997;11657,834;    0,560;   -0,773
479,584;11736,574;    1,196;   -0,409
480,171;12513,628;   -0,440;   -0,773
480,757;12144,586;    2,651;    0,773
481,344;12476,797;    0,469;    0,409
481,931;11961,626;    1,105;    1,045
482,517;13141,173;   -1,258;    0,318
483,104;13848,177;    1,106;    2,864
483,690;14132,027;   -1,804;    0,045
484,276;14509,749;   -0,895;    0,227
484,863;14251,702;    2,469;    1,136
485,449;14871,850;   -0,077;    0,318
486,035;14844,018;   -1,986;   -0,136
486,622;15335,339;   -0,895;    0,045
487,208;15295,909;    1,378;    1,500
487,794;15054,873;    0,741;    0,318
488,380;15196,504;    0,105;   -1,409
488,967;15287,646;   -1,168;   -0,409
489,553;15363,782;   -1,895;   -1,409
490,139;15590,770;    1,559;    0,773
490,725;14864,914;    0,741;   -0,227
491,311;14328,827;    3,287;    3,045
491,897;13585,132;   -0,986;    1,500
492,483;13318,614;    0,105;    1,227
493,069;13099,595;    3,923;    0,864
493,655;13149,922;    1,650;    0,682
494,241;13039,835;    1,377;   -0,955
494,826;13460,408;    0,287;   -1,045
495,412;12927,715;    2,559;   -0,682
495,998;13040,076;   -0,805;   -0,318
496,584;13199,063;    0,377;    1,045
497,169;13216,055;    1,014;   -0,682
497,755;13191,314;    0,650;    1,227
498,341;13790,408;    0,559;    0,318
498,926;13342,636;    1,832;    1,955
499,512;13484,602;    1,286;    2,955
500,097;13674,694;    0,195;   -0,318
500,683;13612,385;   -0,350;    2,136
501,268;13955,531;   -0,169;   -0,955
501,854;13674,079;   -0,169;    1,227
502,439;13611,014;   -0,624;   -1,773
503,024;13844,949;    0,195;    0,500
503,610;13930,042;   -0,078;   -0,682
504,195;13935,011;    0,558;    1,955
504,780;14031,482;    2,922;    1,227
505,366;13885,146;    3,013;    2,864
505,951;13564,883;    0,740;    1,045
506,536;13567,398;   -3,260;   -3,682
507,121;13547,213;    0,285;   -0,318
507,706;14075,700;    2,376;    1,045
508,291;14530,439;    2,649;    1,136
508,876;13942,786;   -0,988;    2,591
509,461;13404,926;   -0,169;   -0,773
510,046;13832,826;    0,194;    0,318
510,631;14090,100;   -0,351;   -0,773
511,216;13722,306;    2,467;   -0,500
511,801;14098,942;   -0,442;    2,591
512,386;14424,424;    0,740;    0,500
512,971;14388,540;   -2,988;    0,955
513,555;13931,031;   -0,897;   -1,500
514,140;14723,322;   -0,442;   -3,136
514,725;14754,356;   -0,715;   -1,136
515,309;14883,383;   -0,533;    0,318
515,894;14296,066;   -0,624;   -2,227
516,479;14768,718;   -0,624;   -0,955
517,063;14588,258;    0,376;    1,227
517,648;14702,664;    1,012;   -1,136
518,232;14388,857;   -0,261;   -1,409
518,817;14737,662;   -0,079;    1,682
519,401;14958,928;    2,194;    0,591
519,985;14465,570;    1,103;    1,136
520,570;14317,614;    0,830;   -1,955
521,154;14590,729;    2,102;    0,591
521,738;14817,937;   -2,352;    2,409
522,323;15349,938;   -0,170;    1,682
522,907;15062,689;    0,466;   -0,136
523,491;14787,903;    0,557;    0,955
524,075;14790,436;    2,284;    0,591
524,659;14905,379;    1,466;    0,591
525,243;14356,456;    1,739;    0,409
525,827;14596,140;    0,648;   -0,045
526,411;15500,834;   -1,989;   -0,136
526,995;15743,998;   -0,352;    1,409
527,579;15328,301;   -0,443;   -1,045
528,163;15639,051;    0,375;   -1,500
528,747;15566,543;    2,466;   -0,773
529,331;15878,523;   -0,080;   -1,409
529,915;16076,106;    1,738;    0,955
530,499;16064,527;   -0,807;    1,227
531,082;15794,825;   -0,534;    1,591
531,666;15203,543;    1,374;    0,773
532,250;15904,348;    1,284;    2,682
532,833;16260,911;    0,920;    2,773
533,417;16089,421;   -1,807;    0,864
534,001;16115,566;    1,647;   -0,318
534,584;16861,733;    0,374;    0,500
535,168;16680,075;    0,465;    1,409
535,751;16750,679;    0,647;    0,045
536,334;16182,047;   -0,898;   -0,409
536,918;16734,049;    0,011;    1,591
537,501;16884,562;   -0,899;    1,318
538,085;16890,728;   -0,444;    1,045
538,668;17062,624;    0,829;    2,409
539,251;17403,975;    1,829;    3,773
539,834;17392,024;    0,101;    0,773
540,418;17356,538;   -1,990;    4,318
541,001;17504,328;   -0,990;    1,773
541,584;17519,976;    2,101;    2,227
542,167;17210,978;    1,374;    2,955
542,750;17337,289;    1,919;   -0,773
543,333;16949,243;    0,555;    2,136
543,916;17789,861;    0,192;    2,500
544,499;18404,570;   -1,354;    0,227
545,082;18421,477;    1,374;    3,591
545,665;18535,789;    1,919;    1,500
546,248;18941,425;    1,010;   -0,318
546,830;18532,793;   -0,445;    1,955
547,413;18994,549;    1,010;   -0,773
547,996;19526,290;    0,555;    0,500
548,579;19298,619;    0,919;    0,955
549,161;19068,345;    1,828;    2,682
549,744;18847,765;   -0,809;    0,409
550,326;19430,968;   -0,809;   -1,136
550,909;19221,356;    2,737;    0,591
551,492;19565,268;   -0,263;    0,227
552,074;19383,384;   -0,173;   -1,318
552,657;19987,179;    2,373;    0,045
553,239;19707,232;   -0,173;   -0,773
553,821;19580,837;   -1,082;    1,045
554,404;19094,135;    1,282;    1,136
554,986;19541,171;    0,464;    1,045
555,568;20152,861;    1,191;   -0,955
556,151;19311,576;    1,191;   -0,227
556,733;19508,027;   -0,264;   -0,864
557,315;20024,550;    0,100;    0,500
557,897;19824,565;    0,554;   -0,500
558,479;19939,074;   -1,991;    1,318
559,061;20089,030;   -0,719;   -0,864
559,643;20484,029;   -0,264;    0,045
560,225;20836,950;    1,645;    2,864
560,807;20845,847;    0,918;    0,318
561,389;20295,968;    0,554;    2,318
561,971;21154,373;    0,463;    2,136
562,553;20903,347;   -1,628;    1,591
563,135;21064,986;   -0,537;    1,136
563,717;20729,759;    3,372;    1,136
564,298;21491,445;    3,645;   -0,045
564,880;21220,688;    0,645;   -1,409
565,462;21343,142;    0,645;    1,318
566,043;22613,643;   -0,446;    2,318
566,625;22176,359;    1,918;    1,227
567,207;22040,915;    1,099;    1,682
567,788;23312,332;   -1,264;    1,500
568,370;24168,655;    1,917;   -0,500
568,951;24056,827;    0,190;    0,227
569,533;24982,713;   -0,628;   -0,500
570,114;25510,409;   -0,446;    0,682
570,695;26095,824;   -0,174;   -1,318
571,277;26682,861;   -0,265;   -1,682
571,858;27496,789;    2,008;   -1,136
572,439;28449,980;    1,554;   -1,045
573,021;28672,851;    2,099;   -2,773
573,602;29235,167;   -1,265;    0,318
574,183;30319,908;   -2,083;    2,227
574,764;30488,570;   -1,629;    0,409
575,345;31145,596;    0,917;   -0,136
575,926;31770,602;   -0,356;    0,136
576,507;31690,975;    1,099;   -0,227
577,088;32934,395;    3,099;    1,682
577,669;32948,655;    0,735;    1,955
578,250;33842,454;    0,644;   -1,045
578,831;34609,055;   -1,356;   -2,227
579,412;34888,824;   -0,810;    0,955
579,993;35737,186;    1,008;    0,227
580,573;36085,594;   -0,629;   -0,955
581,154;35059,699;    0,735;   -0,591
581,735;35968,065;    0,644;    0,773
582,315;35519,610;   -0,629;    2,136
582,896;35655,206;   -0,174;    1,227
583,477;35051,462;    0,189;    1,227
584,057;35350,243;    0,553;    0,955
584,638;35697,368;    2,553;    2,318
585,218;35629,040;   -0,538;    2,682
585,799;35786,534;    0,281;   -0,227
586,379;35640,941;    0,372;    1,591
586,959;34252,430;    0,735;    0,318
587,540;33407,558;   -0,629;    2,227
588,120;32959,981;    1,007;   -0,045
588,700;31891,951;    2,553;    2,136
589,281;32293,345;    0,462;   -0,955
589,861;32289,988;    0,099;   -1,682
590,441;32013,184;    2,371;   -2,682
591,021;30907,084;   -0,265;   -2,591
591,601;31101,809;   -0,537;    0,500
592,181;31118,437;   -0,719;   -0,773
592,761;30301,571;    0,007;    1,409
593,341;30193,750;   -0,901;    0,045
593,921;30229,998;   -0,265;    1,591
594,501;30076,282;   -0,538;    1,318
595,081;29879,192;    0,917;   -0,318
595,661;30310,367;   -1,447;    0,955
596,240;30885,116;   -0,537;    0,136
596,820;30607,584;    0,372;    1,955
597,400;30798,641;    2,008;    0,773
597,980;30896,883;    2,008;    1,045
598,559;30836,336;    2,735;   -0,227
599,139;30550,309;   -0,174;   -1,227
599,718;30495,400;   -0,174;   -0,409
600,298;30765,188;    0,735;    0,682
600,877;31036,278;    2,917;    1,409
601,457;31304,201;    2,281;    1,136
602,036;31163,344;    0,190;    2,045
602,616;31409,781;    0,644;    1,682
603,195;31781,463;   -0,355;    3,500
603,774;31336,584;   -0,901;    2,045
604,354;31169,571;    0,826;   -0,500
604,933;30618,232;    0,463;    1,864
605,512;30731,933;    3,554;    0,591
606,091;30749,718;   -0,537;    3,773
606,671;31623,996;    0,281;    0,773
607,250;30737,199;    1,644;    3,136
607,829;30994,772;    2,372;    3,227
608,408;30737,844;    1,190;    2,591
608,987;29745,605;    1,281;    3,409
609,566;30078,650;   -1,265;   -2,500
610,145;30201,705;   -1,082;    0,682
610,723;30576,054;    4,372;    6,864
611,302;29819,782;   -0,446;    1,682
611,881;29270,867;    5,008;   11,227
612,460;30131,865;    1,645;    3,955
613,039;30524,322;   -0,082;    2,045
613,617;29215,666;    1,736;    4,773
614,196;29385,445;    1,099;    1,227
614,775;29769,267;    1,009;    2,409
615,353;29703,843;    0,736;    0,864
615,932;29374,387;    0,100;    2,409
616,510;29951,438;    0,554;    0,591
617,089;29499,294;    7,100;   17,591
617,667;29140,852;    2,372;    6,136
618,246;29070,031;   -1,537;    1,318
618,824;29214,949;   -3,355;   -0,955
619,402;28767,141;   -2,900;   -1,773
619,981;29270,912;   -0,173;   -1,045
620,559;29017,691;    0,009;    1,682
621,137;28498,176;   -0,718;    1,864
621,715;28615,434;   -1,173;   -0,682
622,293;28551,949;   -0,537;   -0,773
622,871;28952,186;   -0,718;    0,500
623,450;28557,396;    0,373;   -0,864
624,028;28407,078;    0,191;   -0,955
624,606;28022,631;   -1,718;    1,682
625,183;28429,539;   -1,536;   -1,136
625,761;28052,165;    1,009;    1,136
626,339;28307,923;    1,373;    2,591
626,917;28683,941;   -0,172;   -0,045
627,495;28692,916;   -0,354;    1,318
628,073;28115,517;   -0,263;    2,864
628,650;27822,103;    0,100;    2,136
629,228;28267,660;    0,373;    4,409
629,806;27637,760;    2,282;    1,136
630,383;27876,454;    1,464;   -0,318
630,961;27661,612;    2,555;   -0,955
631,539;27431,581;    2,464;    0,227
632,116;26754,430;   11,373;   15,409
632,694;27329,021;    2,555;    6,500
633,271;27738,078;    0,828;    2,682
633,848;27614,500;    1,828;    2,045
634,426;27536,665;   -1,081;    1,773
635,003;26656,156;    1,101;   -0,409
635,580;27033,750;    1,192;    3,682
636,158;27620,196;    3,737;    1,227
636,735;27594,384;    0,555;   -0,500
637,312;27707,792;   -0,809;   -0,682
637,889;27806,486;   -4,354;   -0,682
638,466;27228,686;   -3,990;   -0,409
639,043;27294,775;    2,101;   -1,136
639,620;27616,275;   -2,262;   -0,955
640,197;27951,724;    1,100;    1,682
640,774;28027,069;   -0,172;    1,136
641,351;28475,686;    0,737;    1,136
641,928;27823,122;   -0,627;    1,409
642,505;27469,921;    0,828;   -0,500
643,082;27566,902;   -1,718;    1,227
643,658;26579,883;   -0,718;    1,500
644,235;27386,864;    1,191;    2,500
644,812;27721,572;    1,918;    0,773
645,388;27442,007;   -0,991;    1,409
645,965;27559,806;   -0,809;    1,682
646,542;27593,242;   -1,445;   -0,227
647,118;27578,768;    1,009;   -0,955
647,695;27887,022;   -0,263;    1,136
648,271;27776,094;   -0,536;    0,500
648,848;28115,347;    0,736;    2,227
649,424;27969,601;    0,827;    1,318
650,000;27774,037;   -0,354;   -1,045
650,577;27545,745;   -0,627;   -0,955
651,153;28024,998;   -1,809;    0,955
651,729;29139,616;    1,191;    0,864
652,305;29921,687;    0,645;    2,773
652,881;35879,941;   -0,082;    1,136
653,458;43323,740;    1,100;    0,227
654,034;46835,812;    0,282;    1,591
654,610;48191,793;    0,554;    0,773
655,186;49481,592;    0,645;    3,045
655,762;49190,482;   -0,991;    0,409
656,338;49239,190;    0,100;    0,136
656,913;50209,262;   -0,082;    0,409
657,489;49468,334;    0,827;   -0,318
658,065;49453,224;   -0,173;   -1,591
658,641;50080,387;   -0,900;   -0,864
659,217;49373,550;   -0,991;    0,409
659,792;48795,621;    0,645;   -0,409
660,368;48903,602;   -2,173;   -0,682
660,944;47967,220;   -2,082;    1,227
661,519;41897,382;   -0,628;    0,409
662,095;35231,636;   -1,719;    0,591
662,670;30796,526;    1,281;   -0,136
663,246;29924,416;    1,009;   -0,409
663,821;29290,306;    0,281;    1,682
664,396;28801,560;    0,009;    1,864
664,972;29131,813;    0,009;   -0,500
665,547;29400,431;    1,372;    0,136
666,122;29483,230;   -1,082;    0,318
666,698;29766,029;   -0,173;    0,318
667,273;29114,646;   -0,173;    0,136
667,848;29953,627;    2,372;    1,500
668,423;29770,153;    2,190;    2,318
668,998;30365,589;    2,827;   -0,682
669,573;30906,297;   -3,264;   -1,500
670,148;30711,369;   -1,446;   -0,682
670,723;30463,804;   -1,810;    0,318
671,298;30889,149;    2,372;    1,045
671,873;31095,130;   -0,082;   -0,136
672,448;30999,020;    0,645;    0,136
673,023;31353,728;   -1,992;   -0,227
673,597;31687,254;    0,827;    2,318
674,172;31448,963;   -0,355;    0,318
674,747;30981,580;    0,372;   -1,045
675,321;30727,379;   -0,628;    3,318
675,896;30304,178;    0,645;    1,045
676,471;31381,432;    2,645;    1,591
677,045;31149,958;   -1,264;    0,682
677,620;31201,303;    0,190;    1,136
678,194;31466,375;   -2,628;    1,136
678,769;31041,992;   -1,083;   -0,318
679,343;31322,518;   -0,628;    1,773
679,917;31195,408;   -1,446;    1,955
680,492;31269,026;    0,826;    3,227
681,066;31406,188;    3,372;    0,409
681,640;31429,351;    1,463;   -0,318
682,214;32300,059;    0,735;    0,500
682,788;31827,586;   -1,356;   -0,773
683,363;31796,112;   -1,810;    1,682
683,937;31534,275;   -1,719;   -0,318
684,511;32385,801;    0,463;   -0,591
685,085;31994,782;   -1,356;    0,318
685,659;31720,490;   -2,538;    0,864
686,232;32018,926;   -0,356;   -0,318
686,806;31667,089;   -0,901;    0,409
687,380;32331,251;   -0,174;    0,591
687,954;32570,959;   -1,174;    1,136
688,528;32268,122;   -0,719;    1,955
689,101;33055,830;   -3,992;    1,045
689,675;32628,811;   -0,356;   -0,136
690,249;31947,701;   -0,719;    0,409
690,822;32273,228;    0,280;    0,318
691,396;32411,481;   -0,265;    1,227
691,969;31888,008;    1,280;    0,136
692,543;32290,080;   -0,447;   -1,955
693,116;31912,333;   -0,265;   -1,409
693,690;31785,041;    0,099;    0,500
694,263;32318,659;   -1,083;    2,955
694,836;32425,549;    1,371;    3,591
695,410;31043,439;   -0,265;    1,773
695,983;31547,692;    0,189;    0,591
696,556;31511,037;   -0,447;   -1,045
697,129;31826,927;   -0,356;    1,409
697,703;31444,090;   -1,629;    1,955
698,276;31410,616;    1,462;   -0,773
698,849;31266,324;    1,280;    1,409
699,422;31622,305;   -1,083;    0,591
699,995;31316,377;    0,007;    0,136
700,568;31840,631;   -0,629;    3,045
701,140;31823,157;   -2,811;    1,682
701,713;31565,956;   -0,174;    2,409
702,286;31297,574;   -0,538;    0,864
702,859;31211,736;   -0,902;   -0,591
703,432;30359,081;    0,825;    0,682
704,004;30890,607;    0,462;    0,318
704,577;30750,043;   -0,629;    0,136
705,150;31333,933;    0,189;    2,500
705,722;31065,005;   -0,356;   -3,227
706,295;30841,167;   -0,175;   -0,591
706,867;30699,330;   -0,175;    1,955
707,440;30897,766;   -1,720;   -0,409
708,012;31223,746;    0,462;    0,591
708,584;31106,727;    2,462;    0,227
709,157;31345,890;    1,825;   -0,591
709,729;31013,871;    2,280;    2,045
710,301;31887,670;    0,734;    0,045
710,874;31890,197;   -1,447;   -0,227
711,446;30779,177;    0,371;    0,864
712,018;30672,340;    0,098;    0,500
712,590;30429,867;   -1,993;    1,682
713,162;30928,938;    0,825;    1,318
713,734;31158,283;    1,825;   -2,045
714,306;31028,446;   -1,902;   -0,409
714,878;29710,336;    0,825;    0,864
715,450;30545,498;    0,643;    0,864
716,022;30759,388;    1,552;    1,318
716,593;30874,915;    0,189;    0,591
717,165;30799,714;   -3,175;   -1,227
717,737;30593,331;    0,280;    0,409
718,309;30188,221;    0,280;   -0,045
718,880;30139,566;   -0,539;   -1,409
719,452;30314,910;   -0,175;   -1,591
720,024;29879,528;    0,734;   -0,591
720,595;30477,781;   -2,902;    0,955
721,167;30042,853;    0,370;   -2,045
721,738;29585,016;   -0,812;   -1,045
722,309;29615,360;   -0,993;   -1,227
722,881;29360,523;   -1,357;    0,773
723,452;29997,686;   -2,630;    2,864
724,023;30154,303;   -0,721;    2,682
724,595;29895,102;    0,007;    0,682
725,166;29626,720;    0,007;   -0,409
725,737;29322,973;    1,734;    0,227
726,308;29360,136;   -0,266;    0,318
726,879;29863,572;   -1,630;    1,227
727,450;29715,371;    0,552;   -0,045
728,021;29644,261;    3,097;    0,682
728,592;29448,787;    0,734;    0,500
729,163;29765,404;    0,643;   -0,136
729,734;29838,294;    0,188;   -0,227
730,305;30218,275;    1,734;    0,136
730,876;30586,256;    0,188;    2,955
731,447;30301,783;    2,188;    2,682
732,017;30398,400;    1,097;    1,864
732,588;29846,563;    0,734;    1,227
733,159;30074,453;    0,643;   -1,045
733,729;29859,343;    0,006;    0,409
734,300;29094,596;    0,915;    0,864
734,870;29566,759;    3,461;    0,591
735,441;30153,740;    0,370;   -0,591
736,011;29863,721;    0,643;   -1,591
736,582;29787,975;   -0,812;    0,045
737,152;29284,319;   -1,721;   -2,045
737,722;29680,846;   -0,267;   -0,682
738,293;29403,281;   -1,358;    1,318
738,863;29265,444;    2,461;    2,318
739,433;29054,243;    5,279;    0,318
740,003;29719,133;   -0,994;   -0,682
740,573;29090,205;    2,097;   -1,591
741,143;29008,367;   -1,085;    0,318
741,713;29846,167;    1,188;   -0,500
742,283;29588,511;    0,915;    1,591
742,853;29349,219;    1,915;    1,591
743,423;28709,655;    1,733;    0,045
743,993;28857,636;   -0,358;    1,500
744,563;28228,071;    0,097;   -0,864
745,133;28131,688;   -0,812;   -0,864
745,702;28827,124;   -0,267;    1,773
746,272;28106,105;   -0,176;    0,591
746,842;27772,995;   -1,358;   -0,591
747,411;28217,067;   -0,267;   -0,318
747,981;28451,684;    0,097;    0,500
748,551;28465,210;    2,278;   -1,045
749,120;28316,464;    0,642;   -0,227
749,690;28725,900;   -0,631;    2,409
750,259;29070,153;    1,369;    2,955
750,828;28980,316;    1,551;   -1,955
751,398;29275,024;    1,278;   -0,045
751,967;28796,278;    2,187;    0,409
752,536;29014,895;   -0,813;   -0,227
753,105;29445,058;    0,096;    0,227
753,675;29261,766;    0,096;    1,773
754,244;29152,020;   -0,904;    3,591
754,813;29142,364;    0,551;    1,227
755,382;28768,072;    0,460;    0,955
755,951;29385,781;    1,551;    3,682
756,520;28854,762;   -0,085;    1,864
757,089;29469,106;    0,278;    0,500
757,658;29616,723;    1,733;    1,227
758,227;29583,886;    1,096;    0,318
758,795;29915,322;    1,187;    1,136
759,364;30175,030;   -0,086;   -0,591
759,933;29142,920;   -1,176;   -0,045
760,501;28617,264;    0,733;   -1,318
761,070;29141,882;   -2,813;   -1,409
761,639;29850,772;   -1,904;    1,318
762,207;29201,389;    1,551;   -0,955
762,776;29124,915;    0,369;    0,864
763,344;29080,351;   -0,995;    0,591
763,913;28110,514;   -0,722;    1,409
764,481;28857,949;    1,005;   -0,136
765,049;28593,930;   -1,358;    1,409
765,618;28469,547;   -0,086;    0,318
766,186;28537,255;    0,278;    0,136
766,754;28692,964;    0,005;    1,864
767,322;27704,490;   -1,995;    0,409
767,890;27766,016;   -0,722;   -1,773
768,459;28180,725;   -2,177;   -0,318
769,027;28316,069;    1,641;    3,409
769,595;27259,414;    3,278;    2,591
770,163;27717,031;    3,823;    2,955
770,730;27452,648;    0,732;   -0,136
771,298;27217,357;    0,187;   -1,409
771,866;27307,247;   -1,541;    4,955
772,434;27666,137;   -0,631;   -1,864
773,002;27884,117;    0,005;    0,682
773,569;27480,371;    0,914;    1,682
774,137;27320,534;   -0,268;   -0,045
774,705;28082,788;    0,278;   -0,136
775,272;27605,768;    0,641;    0,682
775,840;27297,477;   -0,177;    2,682
776,407;26836,821;    0,277;    1,955
776,975;26415,439;   -0,632;    0,318
777,542;27430,419;   -1,086;   -0,045
778,110;27218,673;   -1,268;   -0,045
778,677;26915,563;   -2,359;   -0,864
779,244;26679,180;    2,186;    1,045
779,812;26819,616;    1,823;    0,864
780,379;26630,324;    0,005;    1,136
780,946;26898,760;    1,005;   -0,773
781,513;27239,650;   -1,450;    0,318
782,080;26605,449;   -0,086;    2,864
782,647;27360,430;   -0,268;    3,045
783,214;26931,865;   -0,177;    3,864
783,781;26574,482;   -0,723;   -0,682
784,348;26434,191;   -0,632;    1,500
784,915;26850,717;   -3,177;    0,318
785,482;26638,062;    1,368;    2,591
786,049;27017,861;    0,186;   -0,591
786,615;27181,842;    0,277;   -0,955
787,182;26900,459;    0,186;   -0,682
787,749;26552,349;   -2,814;    1,409
788,315;25953,057;   -1,632;   -0,409
788,882;26232,583;    1,550;   -1,227
789,448;26912,019;    1,732;   -0,955
790,015;26939,727;    1,095;    3,227
790,581;26497,890;    1,459;    0,227
791,148;26384,053;    0,641;    1,045
791,714;26602,943;   -0,541;    3,136
792,280;26249,560;    0,186;    1,591
792,847;25767,268;    0,550;    2,500
793,413;26395,794;   -0,269;   -0,318
793,979;25867,503;    3,459;   -1,318
794,545;26008,756;    4,459;    2,682
795,111;25381,555;    2,186;    1,318
795,678;25551,173;    0,731;   -1,682
796,244;25169,881;    3,368;    0,136
796,810;25686,498;    1,731;    0,773
797,375;25411,388;    0,549;   -2,136
797,941;25450,824;   -0,541;    0,591
798,507;25576,168;   -0,451;   -0,955
799,073;25132,604;   -0,360;    0,591
799,639;25150,857;   -2,632;    3,136
800,205;25237,020;    0,095;    2,682
800,770;24747,001;    0,640;    1,773
801,336;24866,891;    1,368;   -0,955
801,901;24564,327;    4,549;    3,136
802,467;25104,853;   -0,542;    2,045
803,033;24406,470;   -0,087;    0,864
803,598;24591,815;    1,913;   -1,045
804,163;24643,796;    1,095;   -0,318
804,729;24632,595;   -0,178;    1,136
805,294;25009,394;    0,822;    2,227
805,859;24772,284;    0,731;   -0,409
806,425;24223,174;    1,186;    2,682
806,990;23843,609;    2,186;    4,318
807,555;24406,136;   -1,451;    2,591
808,120;24281,480;    0,822;   -0,409
808,685;24360,461;    0,185;   -2,500
809,250;23799,806;    0,004;   -0,500
809,815;24147,605;    1,913;    0,682
810,380;24695,404;   -0,269;    1,591
810,945;25275,021;   -1,087;    2,045
811,510;24359,093;    2,094;    1,591
812,075;24096,801;   -0,633;   -1,409
812,640;24118,964;    2,003;    1,409
813,204;24145,672;    0,822;   -0,227
813,769;24639,562;    2,094;   -0,045
814,334;24078,271;    0,458;    0,864
814,898;24088,251;    0,367;    0,591
815,463;23939,142;    1,276;   -0,773
816,027;23944,304;   -0,724;   -2,318
816,592;23948,103;    0,640;   -2,045
817,156;23534,993;    2,094;    1,136
817,721;23418,520;    4,276;    2,318
818,285;23318,955;    2,912;    1,500
818,849;23958,573;   -1,451;    1,682
819,414;23824,099;   -0,269;    2,955
819,978;23416,262;   -1,269;    1,773
820,542;24040,879;    2,003;    0,500
821,106;23697,678;   -0,815;    0,682
821,670;23848,841;   -0,815;    2,591
822,234;23571,367;   -0,270;    1,409
822,798;22878,894;    0,003;    0,500
823,362;22824,784;   -0,633;    4,227
823,926;22123,128;    0,094;    1,136
824,490;22359,927;   -0,997;   -0,682
825,054;22836,999;   -0,088;   -1,136
825,618;22475,798;   -1,542;   -1,500
826,181;22418,779;    0,458;   -1,318
826,745;22297,124;    1,367;   -1,045
827,309;22694,832;    1,185;    1,318
827,872;22035,358;    1,367;    0,955
828,436;22991,794;    1,185;   -0,773
828,999;23048,320;   -0,997;    1,227
829,563;21776,119;   -0,179;    1,136
830,126;21662,737;   -0,179;   -0,591
830,690;21671,627;   -1,997;    2,864
831,253;21182,062;   -0,543;    2,227
831,816;21308,043;   -1,906;    0,500
832,380;21258,206;    0,185;    0,864
832,943;21509,641;   -1,361;   -0,500
833,506;20925,713;    2,639;   -1,227
834,069;21708,603;    3,912;   -0,955
834,632;21762,402;    1,730;    1,318
835,195;21700,110;    1,003;    0,955
835,758;20830,637;   -0,997;    1,955
836,321;20727,436;    0,730;   -1,045
836,884;20829,962;   -0,725;   -0,955
837,447;20814,852;   -2,816;    1,773
838,010;21153,833;    0,366;    3,227
838,573;21425,996;   -1,179;    0,773
839,135;21353,250;   -1,361;   -0,955
839,698;20802,867;    1,275;    0,409
840,261;20286,302;    1,003;   -0,227
840,823;20087,920;   -0,543;    0,864
841,386;20391,628;   -0,452;   -2,409
841,948;20291,972;   -1,361;    1,773
842,511;20001,499;    0,912;    1,682
843,073;20154,116;    1,912;    0,227
843,636;19945,006;   -0,361;   -0,227
844,198;19900,896;    0,911;    0,591
844,760;20048,877;    1,093;    1,955
845,322;19689,222;    0,548;    1,136
845,885;20095,566;    0,730;    0,591
846,447;20535,638;   -1,998;    0,227
847,009;20148,528;    1,911;   -0,682
847,571;20416,509;    0,820;   -2,045
848,133;20519,035;   -1,089;   -1,864
848,695;20323,107;   -0,543;    1,409
849,257;19902,452;   -1,089;   -1,682
849,819;20120,978;   -0,998;   -0,409
850,381;20134,959;   -0,725;   -0,864
850,942;20501,394;    1,093;   -0,591
851,504;20464,739;    1,184;    0,227
852,066;20534,447;    1,275;   -1,591
852,628;20020,155;   -0,180;    1,955
853,189;19531,500;    1,638;    2,682
853,751;19661,572;   -0,907;    1,409
854,312;19455,371;   -0,453;   -1,682
854,874;19985,443;   -2,089;   -0,773
855,435;20503,515;   -0,907;   -1,682
855,997;20734,132;   -1,816;   -0,136
856,558;20015,931;    0,366;    1,773
857,119;20068,457;    0,820;    2,864
857,681;19742,802;    0,002;    0,318
858,242;19825,601;    1,911;   -2,136
858,803;20220,036;    0,456;   -0,773
859,364;20793,108;    0,184;   -4,773
859,925;20087,998;   -2,453;   -0,955
860,486;19991,070;   -0,453;   -0,955
861,047;19697,778;   -0,544;   -1,227
861,608;19501,668;   -1,089;   -0,773
862,169;19612,922;    0,638;   -0,045
862,730;19390,903;    0,456;    1,409
863,291;19627,429;   -0,635;   -0,500
863,852;20040,774;   -0,635;    1,955
864,412;19456,300;   -0,271;   -0,864
864,973;18050,736;   -0,089;    0,500
865,534;17901,626;   -1,726;    0,227
866,094;19416,789;    1,820;    0,227
866,655;19102,769;    1,274;    3,318
867,215;19341,023;    0,274;    0,136
867,776;19166,459;    0,547;   -0,136
868,336;19304,621;   -1,453;    0,136
868,897;18714,784;    2,638;    1,682
869,457;18424,674;    1,365;    0,318
870,017;18664,928;    0,547;   -1,227
870,578;19244,272;   -0,817;    0,773
871,138;18935,617;   -2,089;   -0,955
871,698;18430,780;   -0,817;   -1,318
872,258;18316,306;   -0,453;   -2,864
872,818;18753,923;    2,729;    0,045
873,378;18688,995;    0,638;    1,045
873,938;18212,794;    0,547;    0,500
874,498;18531,684;    0,274;   -1,955
875,058;18430,483;    2,183;    1,773
875,618;18253,373;    1,910;   -2,682
876,177;18161,082;    1,274;    0,136
876,737;17768,153;   -0,090;    1,955
877,297;17835,225;    0,183;    1,955
877,856;17824,479;   -0,362;    0,318
878,416;17753,642;    1,183;   -0,136
878,976;17989,350;   -1,817;    0,409
879,535;18159,967;    0,092;    3,136
880,095;17897,857;   -0,544;    0,045
880,654;18024,565;   -1,090;    1,318
881,213;18129,546;    2,456;    1,500
881,773;17742,164;    2,637;    2,682
882,332;18164,963;    3,365;    5,136
882,891;17949,307;    3,092;    2,136
883,451;18464,652;   -1,272;    1,682
884,010;17829,724;   -2,908;   -0,409
884,569;17979,795;   -0,999;   -0,045
885,128;18121,776;    2,819;   -1,864
885,687;18228,757;    4,455;    0,682
886,246;17900,556;    1,455;    2,136
886,805;17674,356;    2,455;    2,045
887,364;17909,064;   -0,999;   -0,500
887,922;18295,136;   -1,181;    0,045
888,481;17823,753;   -1,545;    0,591
889,040;18168,097;    1,183;    2,136
889,599;18805,169;    2,455;    1,409
890,157;18891,968;    1,455;    2,409
890,716;18539,677;   -0,090;    0,227
891,274;18370,748;    0,092;   -1,136
891,833;18830,366;    1,546;    0,864
892,391;18662,256;   -0,454;    0,500
892,950;18743,328;    1,819;   -0,773
893,508;19131,127;    0,455;   -0,409
894,067;18454,380;    0,637;    0,136
894,625;18334,270;   -0,636;   -1,500
895,183;18585,433;   -0,363;   -0,682
895,741;18531,596;    1,728;   -1,773
896,299;18317,940;   -0,545;   -2,409
896,858;18467,285;    0,819;   -1,591
897,416;18624,357;    2,728;   -1,318
897,974;18346,974;    1,819;    0,318
898,532;18494,864;    6,091;    2,682
899,089;18402,845;    2,091;   -0,682
899,647;18371,280;   -1,454;    1,318
900,205;18078,080;    1,182;    1,045
900,763;18269,879;   -0,454;    0,227
901,321;18272,132;    2,364;   -1,409
901,878;17702,750;   -1,000;   -0,773
902,436;17614,731;   -1,363;    1,318
902,994;17955,075;    4,728;    3,682
903,551;17357,056;    0,728;    0,409
904,109;17803,401;    0,182;   -1,409
904,666;17320,291;    2,455;    1,045
905,224;17155,453;    0,182;   -0,409
905,781;16904,798;    0,727;   -0,318
906,338;16961,688;   -1,363;    1,045
906,895;16878,033;    0,637;    2,045
907,453;16831,468;    1,727;    1,136
908,010;16854,085;   -0,909;    0,409
908,567;16493,248;    1,273;    0,591
909,124;15976,411;    0,364;   -1,500
909,681;16064,301;   -2,909;    0,682
910,238;16212,282;    0,636;   -1,318
910,795;16503,444;   -0,273;   -1,136
911,352;16123,354;   -2,909;   -2,682
911,909;15513,263;   -1,364;   -0,864
912,466;16032,444;   -3,182;    1,500
913,022;15535,444;   -1,636;    0,500
913,579;15895,444;   -0,909;    2,045
914,136;15581,354;    1,636;    0,955
914,692;15936,899;    0,091;   -1,227
915,249;15562,354;    1,455;    0,409
915,806;15792,081;    0,182;    1,955
916,362;15513,081;    1,909;    1,864
916,918;15063,990;    2,000;    1,045
917,475;15050,626;   -1,182;    0,955
918,031;15102,808;    3,364;   -0,045
918,587;14512,717;   -0,909;   -0,318
919,144;14733,172;   -2,273;    0,227
919,700;15053,172;    1,727;    0,773
920,256;14632,808;    0,727;    0,045
920,812;14236,354;   -0,727;   -1,045
921,368;14256,899;   -1,727;   -1,045
921,924;13865,717;    0,182;   -0,136
922,480;13472,172;   -0,545;    1,227
923,036;14089,081;    1,273;    1,955
923,592;14017,354;    0,455;    0,318
924,148;13907,081;    0,455;   -0,955
924,704;13186,717;   -1,364;   -0,409
925,259;13417,808;   -0,273;    0,591
925,815;13235,535;    1,455;    0,500
926,371;12713,717;    2,909;    1,409
926,926;12557,808;    2,091;    0,591
927,482;12199,535;   -1,364;    0,773
928,037;12064,535;    0,909;    2,045
928,593;12344,717;    1,636;    1,045
929,148;12177,444;   -1,818;   -1,500
929,704;11634,717;   -1,455;   -0,500
930,259;11887,444;    0,091;   -0,136
930,814;10906,263;   -0,818;    1,955
931,369;10566,899;    1,091;   -0,773
931,925;10424,626;   -0,091;    0,136
932,480;10345,263;   -2,818;   -2,591
933,035;10203,990;    0,545;   -0,318
933,590; 9952,626;    0,364;   -1,773
934,145; 9544,535;   -1,364;   -0,318
934,700; 9884,535;    0,455;   -0,591
935,255; 9697,081;   -0,091;    0,045
935,809; 8956,081;    3,182;    0,864
936,364; 8045,808;   -0,455;   -0,136
936,919; 7958,081;    0,455;   -1,773
937,474; 7809,626;    1,455;    0,136
938,028; 7589,172;   -1,636;    1,136
938,583; 7050,354;    1,818;    4,682
939,138; 7302,172;    2,091;    2,136
939,692; 6704,990;    1,636;   -1,136
940,247; 6427,535;   -0,727;   -1,045
940,801; 5949,172;   -0,636;    0,227
941,355; 5838,263;   -0,364;    2,591
941,910; 5425,717;   -0,273;   -2,136
942,464; 5547,717;   -0,818;   -0,318
943,018; 5325,081;    1,000;   -0,227
943,572; 5260,626;    2,545;   -0,682
944,126; 4659,990;    0,091;   -0,409
944,681; 4566,263;    3,091;    0,227
945,235; 4541,990;    1,000;   -0,591
945,789; 4477,717;    0,364;   -1,864
946,342; 4581,444;    0,455;   -0,591
946,896; 4375,626;   -2,273;    0,955
947,450; 4111,444;    1,545;   -0,227
948,004; 4300,354;    1,727;   -0,045
948,558; 4295,990;    0,273;   -0,864
949,111; 4229,626;   -0,273;   -0,318
949,665; 4260,899;    1,636;   -0,682
950,219; 4132,717;   -0,091;   -1,045
950,772; 4213,535;   -1,909;    1,864
951,326; 4100,626;    0,545;   -0,955
951,879; 4223,081;    0,727;   -2,318
952,433; 4234,808;    0,000;    2,227
952,986; 4058,626;    2,909;    0,682
953,539; 4037,444;   -0,273;    0,591
954,093; 3943,172;    0,545;   -1,318
954,646; 4078,354;    0,909;    1,318
955,199; 3894,081;    0,000;   -0,500
955,752; 3750,263;   -0,455;    1,773
956,305; 3722,444;   -0,091;    2,955
956,858; 3931,444;    0,818;   -0,318
957,411; 4079,626;   -0,545;    2,136
957,964; 3898,899;    1,364;    2,136
958,517; 3893,444;   -1,545;    3,136
959,070; 3716,535;   -0,455;    1,955
959,623; 3773,354;    1,091;    1,500
960,176; 3547,899;    1,727;    2,045
960,728; 3538,263;   -2,727;    0,773
961,281; 3583,808;    0,545;    0,500
961,834; 3644,899;   -0,909;    0,864
962,386; 3535,444;    1,727;    1,045
962,939; 3476,808;    0,364;   -0,318
963,491; 3622,626;    0,455;    1,136
964,043; 3478,081;    1,182;    2,409
964,596; 3604,081;   -1,000;    2,227
965,148; 3446,263;   -1,000;    1,773
965,700; 3348,899;    1,091;   -0,227
966,253; 3528,626;   -0,636;    0,318
966,805; 3344,354;   -2,273;    0,773
967,357; 3401,172;    1,091;   -1,500
967,909; 3344,990;    0,455;   -1,227
968,461; 3474,717;    0,545;    3,136
969,013; 3397,717;   -0,182;   -0,864
969,565; 3476,354;   -0,455;   -1,136
970,117; 3500,808;   -0,364;    1,045
970,669; 3360,717;    0,182;   -0,136
971,220; 3233,535;   -0,455;   -1,500
971,772; 3151,808;   -0,636;   -0,318
972,324; 3284,444;    0,091;   -0,500
972,876; 3233,354;    0,818;   -0,045
973,427; 3359,354;    1,909;   -1,045
973,979; 3311,990;   -0,727;   -2,500
974,530; 3357,626;    1,818;    1,318
975,082; 3352,263;   -0,545;    1,682
975,633; 3262,081;    1,091;    1,682
976,184; 3396,990;    0,909;    0,773
976,736; 3170,354;    0,091;    0,227
977,287; 2982,081;   -0,909;   -0,500
977,838; 3150,263;    0,909;   -0,318
978,389; 3243,990;   -1,000;   -0,500
978,940; 3117,626;    0,545;   -0,409
979,491; 3124,263;    0,091;   -0,500
980,042; 3054,535;    0,182;    3,045
980,593; 3138,990;   -2,545;    0,227
981,144; 3178,444;    2,545;   -0,500
981,695; 3135,626;    1,455;    1,500
982,246; 3108,899;   -0,273;    1,045
982,797; 3292,263;   -1,727;    0,682
983,347; 3390,263;    0,364;    0,591
983,898; 3578,444;    3,091;    0,409
984,449; 3370,990;    2,182;    0,773
984,999; 3278,172;    1,455;   -1,136
985,550; 3031,444;    0,182;   -0,318
986,100; 3082,808;   -0,455;   -0,318
986,651; 3110,535;   -0,818;    0,045
987,201; 3072,626;   -1,000;   -0,591
987,751; 3148,535;    0,818;    2,864
988,302; 3142,172;    2,636;    1,500
988,852; 3188,990;    0,455;   -1,136
989,402; 3215,535;    0,091;    0,682
989,952; 3136,626;   -2,182;    0,864
990,502; 3244,535;   -0,091;    0,682
991,052; 3204,354;   -0,727;    0,045
991,602; 3070,808;   -2,909;    1,318
992,152; 3062,172;    0,455;    0,682
992,702; 3028,626;    1,364;   -0,045
993,252; 2953,354;   -3,000;   -0,500
993,802; 3046,899;   -0,273;    1,318
994,352; 3279,263;   -1,545;    1,136
994,901; 3385,172;   -0,182;    3,227
995,451; 3288,626;   -0,182;    0,318
996,000; 3385,081;    1,636;    0,318
996,550; 3098,354;    2,273;    0,227
997,100; 3081,990;    1,273;   -0,045
997,649; 3370,354;    2,182;    0,955
998,198; 2981,263;    1,727;   -1,500
998,748; 3201,354;    1,091;   -2,318
999,297; 3103,990;   -0,818;   -0,409
999,846; 3161,081;    1,000;   -0,773
1000,395; 3208,172;   -0,818;    0,500
1000,945; 3145,172;    1,818;   -0,773
1001,494; 3248,626;    2,364;    0,682
1002,043; 3253,808;    4,636;    0,864
1002,592; 3077,444;   -1,091;    1,955
1003,141; 3238,535;   -0,455;   -0,682
1003,690; 3098,990;    1,727;    0,500
1004,238; 3190,899;    1,455;   -0,045
1004,787; 2807,263;    1,364;    1,227
1005,336; 3050,717;    0,364;    0,682
1005,885; 3206,808;    1,364;   -2,773
1006,433; 3341,081;    0,545;    0,955
1006,982; 3375,354;    0,455;    1,682
1007,531; 3291,626;   -1,818;   -0,227
1008,079; 3252,808;   -2,273;    0,500
1008,627; 3393,444;   -1,455;    0,409
1009,176; 3113,990;    0,000;   -1,955
1009,724; 3144,535;    1,091;    0,864
1010,273; 3206,354;    1,273;    0,500
1010,821; 3328,081;    0,091;    1,409
1011,369; 3040,626;   -1,364;    1,318
1011,917; 3035,081;   -1,364;   -0,591
1012,465; 3322,899;    1,273;   -1,591
1013,013; 3439,626;    2,091;   -1,682
1013,561; 3319,808;    0,455;   -0,773
1014,109; 3388,081;   -1,909;    1,682
1014,657; 3247,899;    0,364;    0,591
1015,205; 3363,354;    1,636;   -0,955
1015,753; 3400,626;   -0,545;   -1,409
1016,301; 3436,535;   -2,636;    3,045
1016,848; 3459,081;   -1,273;    0,409
1017,396; 3501,899;    2,545;    0,045
1017,944; 3606,263;    1,182;    1,864
1018,491; 3360,263;    0,273;    1,409
1019,039; 3492,535;    0,455;    0,591
1019,586; 3413,535;   -1,364;    1,682
1020,134; 3522,717;    0,455;    1,500
1020,681; 3552,444;    0,182;   -1,136
1021,228; 3562,081;    2,909;   -2,227
1021,776; 3377,263;    1,182;   -1,136
1022,323; 3606,626;    0,455;    0,773
1022,870; 3535,990;   -1,000;   -0,045
1023,417; 3413,354;    2,636;    1,864
1023,964; 3571,172;    2,636;    1,227
1024,511; 3401,626;    1,000;    0,773
1025,058; 3187,081;    3,182;   -0,045
1025,605; 3250,899;   -2,273;    3,136
1026,152; 3484,535;    1,727;   -0,591
1026,699; 3185,354;    1,818;    1,318
1027,245; 3364,899;   -0,091;    0,318
1027,792; 3574,444;   -1,000;    1,409
1028,339; 3448,899;    2,364;   -0,045
1028,885; 3292,354;    1,000;   -0,227
1029,432; 3244,808;   -0,091;    0,227
1029,978; 3308,263;   -1,000;   -1,591
1030,525; 3208,626;    1,000;    0,409
1031,071; 3438,535;   -1,364;    1,136
1031,618; 3544,081;    0,364;    1,682
1032,164; 3334,717;   -0,091;    3,045
1032,710; 3400,354;    1,636;   -1,500
1033,256; 3293,808;   -0,636;   -0,136
1033,803; 3287,899;   -0,545;    1,500
1034,349; 2992,990;   -1,364;    0,136
1034,895; 3133,626;    0,000;   -0,318
1035,441; 3142,717;   -0,818;    0,318
1035,987; 3124,535;   -2,364;   -0,682
1036,533; 3128,808;   -1,455;   -0,955
1037,078; 3326,354;    1,455;    1,682
1037,624; 3128,444;    2,455;   -0,955
1038,170; 3167,354;    0,455;   -0,318
1038,716; 3070,899;    1,636;   -0,409
1039,261; 2979,172;   -2,273;   -0,773
1039,807; 2921,172;   -0,091;    3,409
1040,352; 2978,626;   -1,909;   -0,318
1040,898; 3033,899;   -1,545;   -0,682
1041,443; 2916,354;   -1,455;   -2,591
1041,989; 2938,990;    1,091;    1,591
1042,534; 2820,172;   -0,364;    2,591
1043,079; 2929,354;    2,909;    0,955
1043,625; 2734,899;    1,818;    0,500
1044,170; 2769,717;   -1,364;    1,045
1044,715; 3035,172;    2,455;    0,955
1045,260; 2852,263;    2,182;   -0,955
1045,805; 2897,808;    1,182;   -0,591
1046,350; 2826,717;    1,364;   -0,409
1046,895; 2785,717;    2,909;    1,591
1047,440; 2728,626;    5,364;    0,409
1047,985; 2616,444;    2,818;   -0,955
1048,530; 2534,717;    1,545;    1,227
1049,074; 2615,808;    0,000;    0,318
1049,619; 2581,444;   -1,364;    1,955
1050,164; 2371,808;    0,455;    0,227
1050,708; 2419,717;   -0,455;    0,045
1051,253; 2796,444;    1,273;   -2,227
1051,797; 2487,444;    0,818;   -1,318
1052,342; 2494,444;   -1,182;    1,045
1052,886; 2507,263;    0,364;   -1,409
1053,430; 2385,990;   -1,364;    0,136
1053,975; 2403,717;   -0,818;   -0,318
1054,519; 2386,444;   -0,727;    3,227
1055,063; 2409,444;    0,909;    1,318
1055,607; 2276,535;   -0,182;    0,227
1056,151; 2304,808;    2,909;    1,682
1056,695; 2209,990;    2,273;   -1,136
1057,239; 2270,081;   -1,727;   -0,682
1057,783; 2291,990;    0,818;   -1,500
1058,327; 2233,626;    0,000;    1,409
1058,871; 2463,899;   -0,545;    1,318
1059,415; 2174,263;   -0,818;   -0,045
1059,958; 2443,899;    1,455;    2,591
1060,502; 2147,081;   -1,000;   -0,773
1061,046; 2047,081;    0,364;   -0,955
1061,589; 2023,535;   -3,000;   -1,136
1062,133; 1895,354;   -1,273;    1,864
1062,676; 1844,172;    1,182;    0,864
1063,220; 1848,354;    1,091;    0,500
1063,763; 1861,990;    0,909;    1,136
1064,306; 1947,717;   -0,909;    1,864
1064,849; 1842,626;   -0,909;    0,591
1065,393; 1843,081;    2,000;   -1,500
1065,936; 1964,172;    0,182;   -0,409
1066,479; 1836,990;   -1,455;    1,318
1067,022; 1858,172;   -0,273;   -0,227
1067,565; 1748,444;   -0,091;   -1,318
1068,108; 1771,263;    0,727;   -0,591
1068,651; 1732,808;   -0,636;    1,409
1069,194; 1683,081;   -0,455;   -1,682
1069,736; 1695,354;   -1,273;    0,955
1070,279; 1664,081;   -1,364;   -0,500
1070,822; 1707,535;   -2,000;   -0,318
1071,364; 1797,172;   -0,364;    1,318
1071,907; 1613,990;   -0,727;    3,227
1072,450; 1513,444;    0,000;   -0,045
1072,992; 1510,808;   -0,273;    3,136
1073,535; 1660,172;    2,091;    2,136
1074,077; 1428,717;   -0,727;    2,045
1074,619; 1399,172;   -1,364;    0,591
1075,161; 1442,444;   -1,091;    1,500
1075,704; 1615,990;    1,545;    1,227
1076,246; 1419,990;   -0,182;    0,682
1076,788; 1352,535;   -0,364;    1,773
1077,330; 1422,626;    1,273;    2,136
1077,872; 1399,444;    0,909;    0,955
1078,414; 1630,899;    2,727;    0,773
1078,956; 1330,354;    1,273;   -0,227
1079,498; 1604,808;    1,636;    0,318
1080,040; 1303,899;    1,909;   -1,318
1080,581; 1253,626;    1,636;   -0,318
1081,123; 1164,717;    0,091;   -0,773
1081,665; 1221,626;   -1,182;   -0,955
1082,206; 1540,354;    1,364;   -0,500
1082,748; 1390,717;    0,727;    2,045
1083,289; 1264,717;   -2,000;    1,318
1083,831; 1168,717;   -0,545;    0,227
1084,372; 1208,808;    0,000;    0,591
1084,913; 1211,354;    1,091;    0,864
1085,455; 1162,172;   -1,909;   -2,045
1085,996; 1136,172;   -2,273;    0,136
1086,537; 1165,444;   -0,091;    0,864
1087,078; 1204,444;   -0,909;   -2,136
1087,619; 1232,263;   -1,273;    0,227
1088,160; 1152,081;    0,000;    1,318
1088,701; 1137,808;   -1,091;    0,682
1089,242; 1080,899;    1,364;   -2,227
1089,783; 1182,899;   -0,273;    1,409
1090,324; 1146,263;    0,455;    0,682
1090,865; 1020,626;    2,727;   -0,409
1091,405;  978,263;    0,727;    2,227
1091,946; 1004,444;    0,182;   -0,955
1092,487;  923,081;    0,818;   -1,409
1093,027; 1102,626;   -1,364;   -1,500
1093,568;  954,444;   -0,364;    1,227
1094,108; 1066,808;    0,273;    1,773
1094,649;  993,172;   -1,182;    0,136
1095,189;  925,717;   -0,636;   -0,682
1095,729;  880,717;   -0,091;    0,955
1096,269;  882,354;    0,727;   -0,955
1096,810; 1218,899;   -1,364;    0,500
1097,350; 1037,354;    1,364;   -0,773
1097,890;  935,444;    0,364;    1,227
1098,430; 1192,535;    2,364;    2,864
1098,970; 1062,172;    2,182;    1,682
1099,510;  909,081;    0,545;   -2,318
1100,050;  837,172;    1,000;   -1,591
1100,589;  809,444;   -0,727;   -0,318
1101,129;  948,172;    0,818;   -0,955
1101,669; 1105,717;    1,727;    2,136
1102,209;  895,263;   -0,091;    2,227
1102,748;  865,535;    0,000;    0,955
1103,288;  866,354;    1,273;   -1,227
1103,827;  885,808;    3,091;   -2,227
1104,367;  755,172;   -0,091;   -2,409
1104,906;  718,444;    1,364;   -1,136
1105,445;  781,808;    0,636;   -1,136
1105,985;  734,990;   -0,727;    1,500
1106,524;  796,808;   -1,727;   -0,682
1107,063;  754,899;   -2,727;    1,409
1107,602;  737,717;   -1,909;   -1,500
1108,141;  658,535;   -1,909;    1,500
1108,680;  766,354;   -3,455;   -0,591
1109,219;  695,717;   -0,909;   -0,500
1109,758;  693,444;    0,455;    0,682
1110,297;  663,808;    1,000;   -0,682
1110,836;  608,626;   -0,727;    0,955
1111,375;  780,717;   -2,545;    0,409
1111,913;  790,808;   -1,000;    0,773
1112,452;  733,172;   -0,273;    0,136
1112,991;  605,354;    1,091;    1,955
1113,529;  558,535;   -0,818;   -0,045
1114,068;  626,172;   -0,273;    2,955
1114,606;  527,263;   -0,364;   -0,955
1115,144;  707,535;   -1,273;    1,045
1115,683;  642,263;   -0,727;    0,318
1116,221;  681,626;   -0,455;   -0,864
1116,759;  585,808;    0,636;   -0,864
1117,297;  798,808;    0,000;    1,864
1117,836;  600,990;   -2,182;   -1,227
1118,374;  604,444;    0,182;   -0,682
1118,912;  547,717;    0,909;    2,682
1119,450;  531,535;    1,000;    0,864
1119,988;  594,172;    1,545;    2,136
1120,525; 1059,354;    5,091;    3,318
1121,063;  758,626;    1,182;    1,864
1121,601;  549,899;   -0,909;   -1,227
1122,139;  495,626;   -0,727;   -2,045
1122,676;  708,444;   -0,727;    2,773
1123,214;  635,535;   -1,182;    4,409
1123,751;  433,899;    1,727;    2,227
1124,289;  580,990;   -0,091;   -0,409
1124,826;  444,899;    1,727;    0,227
1125,364;  355,444;    1,727;   -0,955
1125,901;  566,899;    1,182;    1,227
1126,438;  683,081;    0,818;    0,955
1126,975;  392,626;   -0,727;   -0,773
1127,513;  467,172;    0,273;    2,136
1128,050;  363,444;    1,636;   -0,682
1128,587;  472,990;    2,000;   -0,227
1129,124;  511,263;    0,091;    1,318
1129,661;  371,808;    0,273;    0,227
1130,198;  548,626;    1,636;    0,773
1130,734;  494,717;    0,182;    1,409
1131,271;  344,263;   -0,909;    0,864
1131,808;  518,172;    2,909;    3,045
1132,345;  393,899;    1,545;    0,318
1132,881;  251,990;   -1,545;   -1,864
1133,418;  399,808;    0,727;   -1,136
1133,954;  336,081;    2,455;   -2,682
1134,491;  422,172;    1,364;   -0,773
1135,027;  309,535;    2,364;    0,864
1135,564;  400,990;    0,273;    2,955
1136,100;  390,535;    0,364;    2,136
1136,636;  267,172;   -1,273;   -1,045
1137,172;  376,717;    0,000;   -1,045
1137,708;  291,263;   -1,364;   -1,045
1138,245;  299,717;    1,273;   -1,227
1138,781;  249,990;    1,091;   -3,318
1139,317;  325,717;    1,273;   -1,409
1139,852;  304,535;    3,091;    0,136
1140,388;  433,535;   -1,182;   -0,409
1140,924;  307,081;   -1,091;   -2,227
1141,460;  235,172;   -1,636;    0,136
1141,996;  163,263;   -1,364;    2,682
1142,531;  218,263;    1,364;    3,318
1143,067;  456,354;    1,182;    1,045
1143,602;  510,899;   -0,091;   -0,318
1144,138;  348,808;   -2,636;    1,045
1144,673;  205,354;   -1,455;    1,409
1145,209;  282,263;   -1,909;   -0,318
1145,744;  202,808;   -0,727;    0,864
1146,279;  343,081;    1,818;   -0,136
1146,815;  246,899;    1,545;   -2,682
1147,350;  293,263;   -1,364;    0,045
1147,885;  197,808;   -0,818;   -1,318
1148,420;  195,444;   -2,273;    0,773
1148,955;  177,081;   -1,727;    1,864
1149,490;  211,081;   -0,909;   -1,591
1150,025;  181,444;    0,455;   -1,773
1150,560;  310,717;    1,091;   -0,955
1151,094;  281,444;    1,455;   -0,591
1151,629;  279,263;    1,636;    0,864
1152,164;  194,444;    1,364;    1,318
1152,698;  154,899;   -0,182;   -0,136
1153,233;  113,899;    0,091;   -0,682
1153,767;  168,354;   -3,000;   -2,318
1154,302;  224,899;   -1,455;    1,773
1154,836;  217,990;   -0,455;   -2,136
1155,371;  279,444;   -1,364;    3,682
1155,905;  214,899;   -0,636;    1,682
1156,439;  186,081;   -0,636;   -0,500
1156,973;  227,081;    0,364;    0,318
1157,507;  153,535;   -0,364;    0,682
1158,042;  189,899;   -0,727;    1,045
1158,576;  237,808;    0,182;    1,773
1159,110;  215,081;   -0,818;    2,409
1159,643;  195,899;    0,636;   -0,045
1160,177;  122,354;   -1,545;    1,500

