
Integration time [ms]:   0,040
Averaging Nr. [scans]: 11
Smoothing Nr. [pixels]: 0
Data measured with spectrometer [name]: 7318044SP
Wave   ;Sample   ;Dark     ;Reference
[nm]   ;[counts] ;[counts] ;[counts] 

186,757;    3,727;   31,551;    1,318
187,357;   42,103;   22,551;    0,955
187,958;   21,840;   15,460;   -1,591
188,558;   60,887;    8,915;   -1,227
189,159;   19,590;    6,733;   -4,500
189,759;   -9,091;    7,278;   -3,591
190,360;  -14,956;    2,824;   -2,136
190,960;   24,554;    2,915;   -4,136
191,560;   43,159;    3,189;   -6,591
192,161;  278,337;    4,372;   -3,500
192,761;  110,976;    4,010;   -3,227
193,361;   59,258;    1,556;   -3,773
193,962;  100,306;    2,010;   -2,682
194,562;   21,307;    1,189;   -3,955
195,162;   32,416;   -2,448;   -2,227
195,762;  166,091;   -3,176;   -0,045
196,362;  113,676;    1,370;   -2,500
196,963;   14,895;    2,006;   -0,864
197,563;   57,625;    1,551;   -0,955
198,163;    0,676;    0,096;   -0,682
198,763;   21,707;    1,733;   -0,500
199,363;   87,433;    3,096;   -0,500
199,963;   47,781;    0,369;    0,409
200,563;   31,047;    2,823;   -1,409
201,163;   10,437;    3,277;   -0,227
201,763;   47,291;    3,732;    0,318
202,363;   15,901;    1,459;    1,500
202,963;   56,052;    1,459;    1,045
203,563;  118,693;    0,277;    0,500
204,162;   35,010;    2,096;   -1,864
204,762;   27,477;    0,550;    0,591
205,362;    2,986;    3,004;    1,955
205,962;   32,244;    3,096;    1,955
206,562;   29,740;    1,823;    2,318
207,161;   13,836;   -0,087;    0,318
207,761;  113,683;    1,277;    2,409
208,361;   28,759;   -0,268;    1,409
208,960;   59,572;    0,459;    1,500
209,560;   61,965;    1,277;    1,591
210,160;   67,267;    0,550;    1,864
210,759;   48,010;    4,186;    1,227
211,359;   28,128;    1,459;    1,045
211,958;  166,027;    1,277;    2,045
212,558;  176,143;    1,732;    1,864
213,157;  103,285;    1,822;    1,500
213,757;  289,920;    3,822;   -0,227
214,356;  127,689;    1,277;   -0,409
214,956;  268,704;    3,095;    0,409
215,555;   99,975;    2,095;    2,136
216,154;   56,463;   -2,723;   -0,591
216,754;   50,351;    0,277;    0,773
217,353;   91,088;   -0,268;   -1,045
217,952;    6,533;   -0,178;    0,318
218,552;  124,817;    1,368;   -0,773
219,151;   64,526;    0,277;    0,955
219,750;   59,801;    0,004;   -0,227
220,349;   38,655;   -0,451;    1,045
220,948;  136,807;   -1,360;    1,136
221,548;   59,024;    0,913;    1,227
222,147;   87,458;   -0,087;   -0,409
222,746;  223,684;   -0,451;   -0,955
223,345;  129,011;    0,731;    0,500
223,944;  132,316;   -0,451;    0,773
224,543;  142,720;    1,004;   -1,409
225,142;  155,195;    0,094;    0,136
225,741;  139,267;   -0,814;    1,045
226,340;  109,174;   -0,451;   -0,955
226,939;  226,800;   -0,996;   -0,136
227,538;  100,996;   -0,360;   -0,773
228,137;  218,770;   -0,814;    0,864
228,735;  167,395;   -0,541;    1,227
229,334;   54,101;   -0,905;   -0,227
229,933;  216,100;    0,459;    0,591
230,532;  227,333;    1,186;   -0,409
231,131;  291,825;    1,732;    0,318
231,729;  178,136;   -2,450;   -2,318
232,328;  109,160;   -0,723;   -1,500
232,927;  126,908;    1,004;   -0,500
233,525;  105,398;    3,640;    0,045
234,124;  133,390;    2,368;   -1,591
234,723;   68,477;    0,913;   -1,045
235,321;   57,253;    2,277;    0,136
235,920;   94,602;    1,186;   -1,227
236,518;  228,833;    3,459;    0,318
237,117;   92,910;    0,004;   -0,227
237,715;  110,169;    0,640;   -0,500
238,314;  136,911;   -0,087;   -2,318
238,912;  258,399;   -0,723;   -1,409
239,510;  164,083;    0,459;   -1,227
240,109;  263,127;    0,004;    3,773
240,707;  233,511;   -0,996;    1,227
241,305;  108,531;    0,550;    0,136
241,904;  216,349;   -0,178;   -2,045
242,502;  325,109;   -0,632;   -0,227
243,100;  239,602;   -0,087;   -0,955
243,698;  182,588;    0,732;    1,682
244,297;  231,021;   -0,632;    0,682
244,895;  242,413;   -0,269;   -2,318
245,493;  447,670;    2,186;   -0,591
246,091;  467,320;    1,368;   -1,318
246,689;  420,127;    1,004;    0,591
247,287;  395,446;    0,822;   -1,136
247,885;  376,209;   -1,451;    1,227
248,483;  351,219;    1,822;   -0,500
249,081;  467,836;    0,185;    1,591
249,679;  556,281;   -0,178;    1,682
250,277;  412,951;   -1,723;    0,864
250,875;  582,158;   -1,087;   -1,045
251,473;  480,864;   -1,178;    0,500
252,071;  636,310;    1,459;    1,045
252,669;  564,134;   -1,814;    0,318
253,267;  508,413;   -0,087;    0,773
253,864;  569,446;   -0,360;    0,682
254,462;  804,813;    1,640;    1,591
255,060;  550,122;   -0,269;    1,318
255,658;  552,952;    0,822;   -0,136
256,255;  712,980;    0,186;   -2,045
256,853;  780,300;   -0,269;    1,409
257,451;  755,466;    0,822;    1,864
258,048; 1315,503;    1,822;    1,864
258,646;  917,347;    1,731;   -1,045
259,243; 1074,209;   -0,087;    2,227
259,841;  957,929;   -0,814;    0,318
260,438;  790,549;   -0,087;    0,864
261,036;  992,702;   -1,905;    1,409
261,633;  892,338;   -0,087;    2,227
262,231;  841,681;    2,731;   -0,045
262,828;  888,808;   -0,905;    1,136
263,425;  976,572;    0,913;   -0,591
264,023; 1023,486;    0,186;    0,045
264,620; 1191,325;   -0,360;   -0,318
265,217; 1355,236;   -2,087;    3,136
265,815; 1066,814;   -1,905;    2,136
266,412; 1224,167;    0,731;    0,136
267,009; 1286,365;   -1,451;    0,773
267,606; 1443,074;    0,822;   -0,955
268,203; 1171,961;   -0,269;   -0,591
268,801; 1269,884;    1,731;    0,591
269,398; 1227,730;   -0,360;    2,500
269,995; 1389,353;    0,277;    1,591
270,592; 1251,135;   -0,632;   -0,500
271,189; 1225,582;    0,186;    0,409
271,786; 1251,526;   -0,632;    1,227
272,383; 1534,724;   -1,087;    0,227
272,980; 1359,989;    0,277;    0,318
273,577; 1378,459;    0,004;    1,227
274,174; 1233,627;    0,822;    2,591
274,771; 1346,952;   -0,814;   -0,773
275,367; 1841,630;    2,277;    1,409
275,964; 1637,010;    0,731;   -0,500
276,561; 1442,258;    1,549;   -1,045
277,158; 1376,008;    0,095;   -1,773
277,755; 1660,654;    2,185;    0,409
278,351; 1385,336;   -0,451;   -1,500
278,948; 1529,610;   -0,815;    0,045
279,545; 1413,422;   -1,360;    2,318
280,141; 1829,514;   -1,723;   -2,045
280,738; 1625,658;   -0,451;   -0,136
281,334; 1441,821;   -1,633;    0,591
281,931; 1421,964;   -0,087;   -1,318
282,528; 1543,035;    0,822;   -0,500
283,124; 1787,631;   -1,087;   -0,500
283,721; 1733,193;   -0,451;    1,409
284,317; 1555,952;    0,185;    2,500
284,913; 1902,272;   -1,360;    0,591
285,510; 2286,090;    0,640;   -0,318
286,106; 2090,188;   -2,269;   -0,955
286,703; 1679,543;   -0,360;    1,955
287,299; 1726,656;   -1,451;   -0,591
287,895; 1850,814;    0,822;   -1,045
288,491; 2026,094;    0,186;    2,136
289,088; 2114,703;   -2,360;    2,409
289,684; 2174,952;   -1,723;    1,500
290,280; 2355,936;    0,368;    0,682
290,876; 2446,190;    1,822;    5,500
291,472; 2397,679;    1,276;    2,227
292,068; 2490,391;    1,367;    0,227
292,665; 2330,747;    2,095;    0,773
293,261; 2306,058;    0,276;    2,136
293,857; 2567,187;    2,913;    2,136
294,453; 2578,180;    3,550;    0,955
295,049; 2755,649;   -0,268;    1,955
295,644; 2769,647;    0,095;    0,136
296,240; 2745,428;   -0,905;   -0,136
296,836; 2971,371;   -0,995;    0,318
297,432; 3240,573;    1,096;   -0,500
298,028; 3431,095;    0,732;    0,773
298,624; 3586,312;    1,459;    1,864
299,220; 3716,090;    2,368;    0,591
299,815; 3620,561;    1,005;   -0,409
300,411; 3711,740;    0,914;    1,773
301,007; 3815,699;    1,368;    0,227
301,602; 3765,359;   -0,541;   -2,318
302,198; 3979,772;    0,732;   -0,773
302,794; 4195,660;    1,187;   -0,500
303,389; 4308,965;   -1,177;    1,045
303,985; 4407,055;    0,550;    1,409
304,580; 4491,376;    1,459;    1,591
305,176; 4482,252;   -3,086;    0,136
305,771; 4395,565;   -1,268;   -1,227
306,367; 4614,062;    4,095;    0,136
306,962; 4658,359;    0,641;    1,500
307,558; 4408,654;   -0,450;    0,136
308,153; 4406,081;    1,095;   -1,136
308,748; 4488,436;   -0,814;    1,682
309,344; 4602,732;   -0,632;   -1,318
309,939; 4739,850;   -1,905;   -1,318
310,534; 4702,837;   -0,086;   -1,682
311,130; 4539,697;    0,459;   -2,500
311,725; 4290,693;    1,004;   -0,500
312,320; 4485,710;    2,459;    0,045
312,915; 4512,666;    1,459;   -1,045
313,510; 4575,738;    1,550;   -0,500
314,105; 4670,833;    1,096;    1,409
314,700; 4176,466;   -3,086;   -1,045
315,295; 3999,830;   -0,904;    0,045
315,890; 3711,610;    1,277;    0,864
316,485; 3847,896;   -0,359;   -0,318
317,080; 3829,289;   -3,086;    1,591
317,675; 4152,903;    2,005;   -0,682
318,270; 3978,190;    5,550;    3,318
318,865; 3895,088;    3,278;    3,045
319,460; 3656,234;   -0,904;    0,591
320,055; 3679,865;   -0,541;   -1,227
320,650; 3471,777;   -1,995;   -0,591
321,244; 3478,101;   -0,177;   -1,409
321,839; 3933,407;   -1,541;   -0,227
322,434; 3843,801;   -1,086;   -1,591
323,029; 3658,005;    1,732;    1,591
323,623; 3545,072;    1,550;    0,773
324,218; 3536,384;    2,368;    1,409
324,812; 3479,761;    1,096;    1,591
325,407; 3410,779;   -0,814;    2,045
326,002; 3417,403;    0,277;   -0,409
326,596; 3599,251;    0,914;    1,318
327,191; 3645,894;    0,823;   -1,045
327,785; 3487,342;   -0,813;   -0,227
328,379; 3716,110;    1,368;    0,136
328,974; 3558,326;    0,914;   -3,955
329,568; 3856,624;    0,186;   -2,409
330,163; 3855,970;    2,096;    1,045
330,757; 4059,895;    2,459;    1,591
331,351; 3780,446;    0,459;    0,682
331,945; 4087,921;    0,914;    1,409
332,540; 4053,547;   -1,723;   -0,591
333,134; 4190,519;   -1,086;    0,773
333,728; 4341,241;    0,005;    0,318
334,322; 4649,759;   -1,177;   -0,864
334,916; 4283,241;    0,277;    0,955
335,510; 4670,549;   -0,450;   -0,136
336,105; 4963,985;   -1,086;    1,591
336,699; 4826,671;   -1,086;    0,591
337,293; 4932,822;   -1,723;    0,318
337,887; 5080,108;   -2,723;    1,955
338,481; 5335,752;    0,459;    0,591
339,074; 5637,049;   -0,359;    2,682
339,668; 5663,688;   -1,632;    1,227
340,262; 6138,928;    1,732;    3,227
340,856; 5778,771;    1,822;   -0,682
341,450; 5382,289;    1,004;    1,864
342,044; 6124,095;    1,459;    0,136
342,637; 6156,309;    0,913;   -2,136
343,231; 6187,716;   -2,360;    0,682
343,825; 6254,296;   -1,086;   -0,591
344,419; 6359,714;   -1,995;    0,500
345,012; 6486,195;    2,459;    4,045
345,606; 6578,460;    4,641;    1,591
346,199; 6496,716;   -1,813;   -0,227
346,793; 6304,719;    1,914;    2,045
347,386; 6518,717;   -0,813;   -1,136
347,980; 6538,440;   -0,268;   -0,045
348,573; 6519,232;    2,278;    0,409
349,167; 6441,912;    5,278;    4,773
349,760; 6791,876;    2,914;    2,682
350,354; 6771,581;   -0,813;    1,136
350,947; 6648,934;    1,096;    1,682
351,540; 6418,219;   -0,358;   -1,409
352,134; 6391,728;    1,096;    1,136
352,727; 6511,568;   -0,086;    1,136
353,320; 6403,089;    0,005;    0,591
353,913; 6257,189;   -1,995;    1,864
354,507; 6485,789;    0,823;   -1,227
355,100; 6522,269;    0,460;    0,864
355,693; 6010,139;    2,005;    2,409
356,286; 5995,899;    0,823;    2,773
356,879; 6276,898;   -0,722;    1,227
357,472; 5917,237;   -0,904;    1,500
358,065; 6135,938;   -0,722;    2,500
358,658; 6046,705;   -0,540;    2,318
359,251; 5738,182;   -1,631;   -0,591
359,844; 5372,997;   -1,904;   -1,136
360,437; 5567,438;   -2,995;    0,045
361,030; 5742,511;    1,369;   -0,682
361,623; 5384,706;    2,824;    0,318
362,215; 5427,122;   -0,086;    2,045
362,808; 5290,187;   -2,358;   -1,682
363,401; 5416,494;   -2,449;    0,136
363,994; 5267,090;   -0,631;   -1,500
364,586; 5122,445;    0,824;   -1,500
365,179; 5256,374;   -0,449;   -1,136
365,772; 4801,716;   -1,995;    2,045
366,364; 5011,698;    1,915;   -3,227
366,957; 5230,561;    2,279;   -0,045
367,549; 5158,101;    2,188;   -0,864
368,142; 4897,193;    1,825;   -1,500
368,734; 5027,046;    0,734;   -2,136
369,327; 4955,840;    1,643;   -0,500
369,919; 4873,174;   -1,538;    0,409
370,512; 4792,504;   -1,083;   -0,500
371,104; 4616,171;   -0,901;    1,591
371,696; 4748,368;    1,191;   -0,955
372,289; 4737,376;    0,373;    1,136
372,881; 4836,022;   -2,080;    1,318
373,473; 4712,101;   -2,170;    1,136
374,066; 4616,118;   -0,169;    0,500
374,658; 4504,274;    0,378;    1,136
375,250; 4714,459;    0,653;   -1,409
375,842; 4590,237;    0,473;   -0,045
376,434; 4479,820;   -0,435;   -0,409
377,026; 4891,381;    0,204;   -2,500
377,618; 4804,005;   -0,158;   -0,682
378,210; 4641,217;   -0,338;   -1,955
378,802; 4475,453;    0,754;   -0,591
379,394; 4593,244;    1,846;    0,682
379,986; 4924,235;    1,393;   -0,955
380,578; 4949,169;   -0,153;    0,773
381,170; 4545,349;   -0,972;    0,045
381,762; 4462,752;    0,755;    1,409
382,354; 4563,278;   -0,065;   -1,318
382,945; 4621,597;   -2,976;    0,318
383,537; 4749,008;   -2,705;   -1,955
384,129; 4786,589;   -2,160;   -1,136
384,721; 4894,811;   -0,252;    0,955
385,312; 4786,451;   -0,161;   -0,955
385,904; 4935,727;   -2,706;    1,591
386,496; 4428,085;   -0,979;    1,045
387,087; 4570,967;    1,022;    2,500
387,679; 4555,197;   -1,160;    0,045
388,270; 4662,947;    2,840;    2,045
388,862; 4723,336;    1,295;   -0,318
389,453; 4572,318;   -0,887;    1,045
390,045; 4834,739;   -0,705;   -2,682
390,636; 4758,775;    0,204;   -0,591
391,227; 4651,872;   -0,523;   -0,045
391,819; 4752,603;    0,204;    0,773
392,410; 4806,102;    1,022;    0,045
393,001; 4767,363;   -0,979;   -1,591
393,593; 4986,560;    1,930;   -0,045
394,184; 4891,931;    1,385;   -0,409
394,775; 4730,430;    1,839;    2,136
395,366; 4957,277;    1,385;    0,773
395,957; 4895,613;    0,113;    0,136
396,548; 5103,714;   -0,342;    2,682
397,139; 5373,006;   -2,433;    0,591
397,730; 5136,767;   -1,888;    0,955
398,321; 5152,937;   -1,252;    0,955
398,912; 5118,967;   -0,615;    0,136
399,503; 5249,797;   -3,524;   -1,409
400,094; 4841,733;    0,294;    1,682
400,685; 4737,927;   -0,433;    0,045
401,276; 4713,113;    0,930;   -0,955
401,867; 4930,138;   -0,888;    0,773
402,458; 4983,057;   -2,251;   -2,318
403,048; 4965,123;    1,112;    0,591
403,639; 4635,150;    0,840;    0,864
404,230; 4909,543;    2,476;    0,318
404,821; 4862,070;   -0,615;    0,045
405,411; 4909,118;    1,203;   -2,591
406,002; 4555,088;   -1,252;   -1,136
406,592; 4527,633;    2,294;    0,045
407,183; 4640,026;    0,566;   -1,500
407,774; 4498,850;    3,475;   -0,136
408,364; 4697,264;    0,930;    0,409
408,954; 4440,077;    0,384;    1,227
409,545; 4402,771;    1,021;    1,045
410,135; 3996,531;    1,293;    0,500
410,726; 4062,472;    1,838;    0,318
411,316; 4309,774;    0,111;    0,773
411,906; 4014,320;   -0,253;   -0,409
412,497; 3633,406;   -1,070;   -0,045
413,087; 3946,223;   -1,980;   -0,227
413,677; 4127,142;   -0,707;    3,864
414,267; 3958,610;    0,656;    1,409
414,857; 3834,585;   -2,980;    4,227
415,448; 3970,947;    0,839;    0,500
416,038; 3713,581;    0,020;   -0,591
416,628; 3590,201;   -0,889;    0,409
417,218; 3363,955;    0,565;    3,318
417,808; 3459,112;    0,202;   -0,409
418,398; 3517,884;    0,020;    2,682
418,988; 3375,631;    2,020;    0,591
419,578; 3431,901;   -0,707;    1,409
420,168; 3559,523;   -1,343;   -0,955
420,757; 3325,072;   -1,343;   -1,500
421,347; 2975,416;    0,111;   -0,227
421,937; 2967,236;    2,292;    1,409
422,527; 2996,559;    0,838;   -0,773
423,116; 2895,998;   -0,253;   -0,045
423,706; 2800,378;   -1,889;    0,318
424,296; 2615,992;    1,384;    0,682
424,885; 2888,629;   -0,071;   -3,045
425,475; 2916,065;    1,474;   -2,864
426,065; 2720,077;   -0,980;   -0,318
426,654; 2516,773;   -0,435;   -0,318
427,244; 2730,688;    0,020;    1,409
427,833; 2440,793;    1,383;   -0,500
428,423; 2357,710;   -0,526;    1,136
429,012; 2585,822;   -0,344;   -1,136
429,601; 2409,553;   -1,344;    0,136
430,191; 2309,305;    1,292;    4,318
430,780; 1997,516;   -0,344;   -0,409
431,369; 2228,473;    0,746;   -0,045
431,959; 2287,198;   -1,254;    0,500
432,548; 2033,446;   -1,163;   -0,045
433,137; 1916,032;   -1,254;   -1,318
433,726; 2131,206;    0,292;    0,500
434,315; 1898,907;   -0,526;    2,409
434,905; 1979,012;   -1,254;    1,409
435,494; 1982,556;    0,746;    0,955
436,083; 1824,681;   -0,981;   -0,955
436,672; 1741,357;    0,110;    0,500
437,261; 1634,926;    0,292;   -1,955
437,850; 1962,511;    1,383;    0,682
438,439; 1930,698;    3,291;    1,955
439,027; 1957,512;    3,655;    1,773
439,616; 1894,582;    2,927;    1,227
440,205; 1506,887;    0,200;   -2,136
440,794; 1331,272;    2,109;   -0,045
441,383; 1221,056;   -1,346;   -0,591
441,971; 1046,649;   -2,436;    0,591
442,560; 1024,762;    0,563;   -1,773
443,149;  859,227;    0,379;   -1,318
443,737;  931,895;   -0,074;   -2,318
444,326;  902,158;    0,018;    0,318
444,915;  950,138;   -1,982;    0,864
445,503;  944,382;   -2,891;   -0,318
446,092; 1237,287;    0,382;    2,136
446,680; 1138,177;    0,382;    0,318
447,269; 1017,060;   -0,346;   -0,318
447,857;  912,095;    0,018;   -1,773
448,445;  797,933;    0,563;    1,318
449,034;  711,810;   -1,528;   -1,136
449,622;  654,094;   -1,073;    3,500
450,210; 1114,016;    2,017;    2,227
450,799;  974,274;    0,290;   -0,591
451,387;  817,122;    1,381;   -0,591
451,975;  775,821;    2,654;    0,864
452,563;  911,319;    3,472;    2,318
453,151;  565,998;   -0,528;   -1,227
453,739;  629,773;   -1,347;    0,136
454,328;  814,053;    2,381;   -2,136
454,916;  665,624;    2,562;   -0,136
455,504;  644,677;    1,017;    1,227
456,092;  459,933;    0,017;   -1,591
456,679;  353,659;    1,472;    0,682
457,267;  991,331;    4,017;    1,045
457,855;  489,428;    1,017;    1,409
458,443;  228,870;   -0,165;    1,682
459,031;  549,253;    0,108;    2,409
459,619;  456,350;   -1,801;    2,864
460,206;  268,755;    0,835;    2,045
460,794;  271,850;   -2,983;   -0,227
461,382;  350,574;   -0,529;   -0,864
461,970;  329,415;    1,198;    1,864
462,557;  193,700;   -0,711;   -0,682
463,145;  405,819;   -3,165;   -1,682
463,732;  736,713;    2,016;   -1,045
464,320;  387,553;   -0,075;   -3,045
464,907;  591,421;    2,743;   -0,773
465,495;  463,728;    0,743;   -1,227
466,082;  323,282;   -1,984;   -0,045
466,670;  349,689;   -2,529;    1,227
467,257;  174,343;   -1,711;    2,045
467,844;  330,202;   -0,075;    0,045
468,432;  292,916;    0,834;    3,500
469,019;  218,823;    0,925;   -1,773
469,606;  313,070;    0,470;    3,682
470,193;  362,427;   -1,439;    0,227
470,780;  308,169;   -2,075;    0,864
471,368;  194,853;   -1,257;   -0,773
471,955;  339,392;    1,379;   -0,682
472,542;  263,890;    0,652;   -1,136
473,129;   90,968;   -0,166;    0,136
473,716;   98,040;    1,470;    0,591
474,303;  141,335;    0,652;   -0,864
474,890;  144,698;   -1,439;   -0,500
475,477;  260,624;   -1,621;    0,409
476,064;  131,757;    1,106;   -1,591
476,650;  276,111;    0,288;    0,318
477,237;  171,929;   -0,258;    0,955
477,824;  128,210;   -1,076;    0,864
478,411;   -4,379;   -1,894;   -0,318
478,997;   -2,947;    0,560;   -0,773
479,584;  -65,564;    1,196;   -0,409
480,171;  152,942;   -0,440;   -0,773
480,757;  218,724;    2,651;    0,773
481,344;   79,930;    0,469;    0,409
481,931;  -36,223;    1,105;    1,045
482,517;  126,862;   -1,258;    0,318
483,104;  223,584;    1,106;    2,864
483,690;   54,162;   -1,804;    0,045
484,276;   26,708;   -0,895;    0,227
484,863;  274,931;    2,469;    1,136
485,449;   91,086;   -0,077;    0,318
486,035;   42,891;   -1,986;   -0,136
486,622;  154,935;   -0,895;    0,045
487,208;   58,508;    1,378;    1,500
487,794;  -44,433;    0,741;    0,318
488,380;  -49,346;    0,105;   -1,409
488,967;  -40,558;   -1,168;   -0,409
489,553;  -18,517;   -1,895;   -1,409
490,139;   83,289;    1,559;    0,773
490,725;  -15,020;    0,741;   -0,227
491,311;   40,074;    3,287;    3,045
491,897;    7,561;   -0,986;    1,500
492,483;   18,227;    0,105;    1,227
493,069;  516,934;    3,923;    0,864
493,655;  202,993;    1,650;    0,682
494,241;   54,995;    1,377;   -0,955
494,826;   77,291;    0,287;   -1,045
495,412;  153,325;    2,559;   -0,682
495,998;   54,516;   -0,805;   -0,318
496,584;  141,863;    0,377;    1,045
497,169;  154,494;    1,014;   -0,682
497,755;   80,943;    0,650;    1,227
498,341;  266,301;    0,559;    0,318
498,926;  438,350;    1,832;    1,955
499,512;  115,426;    1,286;    2,955
500,097;  143,419;    0,195;   -0,318
500,683;  186,289;   -0,350;    2,136
501,268;  128,344;   -0,169;   -0,955
501,854;  177,441;   -0,169;    1,227
502,439;  174,382;   -0,624;   -1,773
503,024;  300,494;    0,195;    0,500
503,610;  393,314;   -0,078;   -0,682
504,195;  286,376;    0,558;    1,955
504,780;  489,933;    2,922;    1,227
505,366;  723,959;    3,013;    2,864
505,951;  649,984;    0,740;    1,045
506,536;  605,134;   -3,260;   -3,682
507,121;  760,765;    0,285;   -0,318
507,706;  799,343;    2,376;    1,045
508,291;  829,813;    2,649;    1,136
508,876;  949,354;   -0,988;    2,591
509,461; 1133,126;   -0,169;   -0,773
510,046; 1422,298;    0,194;    0,318
510,631; 1591,840;   -0,351;   -0,773
511,216; 1661,777;    2,467;   -0,500
511,801; 2113,042;   -0,442;    2,591
512,386; 2386,984;    0,740;    0,500
512,971; 2692,016;   -2,988;    0,955
513,555; 2935,321;   -0,897;   -1,500
514,140; 3546,067;   -0,442;   -3,136
514,725; 3847,109;   -0,715;   -1,136
515,309; 4286,134;   -0,533;    0,318
515,894; 4458,181;   -0,624;   -2,227
516,479; 5118,653;   -0,624;   -0,955
517,063; 5383,555;    0,376;    1,227
517,648; 5906,417;    1,012;   -1,136
518,232; 6008,256;   -0,261;   -1,409
518,817; 6767,062;   -0,079;    1,682
519,401; 7436,054;    2,194;    0,591
519,985; 7415,785;    1,103;    1,136
520,570; 7749,924;    0,830;   -1,955
521,154; 8412,588;    2,102;    0,591
521,738; 8979,983;   -2,352;    2,409
522,323; 9873,795;   -0,170;    1,682
522,907; 9986,190;    0,466;   -0,136
523,491;10116,950;    0,557;    0,955
524,075;10472,301;    2,284;    0,591
524,659;10888,514;    1,466;    0,591
525,243;10728,773;    1,739;    0,409
525,827;11239,096;    0,648;   -0,045
526,411;12274,695;   -1,989;   -0,136
526,995;12749,225;   -0,352;    1,409
527,579;12605,446;   -0,443;   -1,045
528,163;13118,926;    0,375;   -1,500
528,747;13232,235;    2,466;   -0,773
529,331;13733,124;   -0,080;   -1,409
529,915;14082,982;    1,738;    0,955
530,499;14203,584;   -0,807;    1,227
531,082;14116,606;   -0,534;    1,591
531,666;13697,788;    1,374;    0,773
532,250;14523,405;    1,284;    2,682
532,833;15003,064;    0,920;    2,773
533,417;14912,938;   -1,807;    0,864
534,001;15046,178;    1,647;   -0,318
534,584;15839,895;    0,374;    0,500
535,168;15746,692;    0,465;    1,409
535,751;15923,561;    0,647;    0,045
536,334;15398,295;   -0,898;   -0,409
536,918;16054,660;    0,011;    1,591
537,501;16233,176;   -0,899;    1,318
538,085;16240,525;   -0,444;    1,045
538,668;16537,876;    0,829;    2,409
539,251;16898,227;    1,829;    3,773
539,834;16920,639;    0,101;    0,773
540,418;16917,159;   -1,990;    4,318
541,001;17065,038;   -0,990;    1,773
541,584;17148,697;    2,101;    2,227
542,167;16868,873;    1,374;    2,955
542,750;17015,550;    1,919;   -0,773
543,333;16590,966;    0,555;    2,136
543,916;17441,579;    0,192;    2,500
544,499;18074,654;   -1,354;    0,227
545,082;18100,107;    1,374;    3,591
545,665;18278,326;    1,919;    1,500
546,248;18670,602;    1,010;   -0,318
546,830;18324,968;   -0,445;    1,955
547,413;18820,912;    1,010;   -0,773
547,996;19352,838;    0,555;    0,500
548,579;19142,716;    0,919;    0,955
549,161;18939,896;    1,828;    2,682
549,744;18725,684;   -0,809;    0,409
550,326;19256,433;   -0,809;   -1,136
550,909;19071,097;    2,737;    0,591
551,492;19498,822;   -0,263;    0,227
552,074;19275,127;   -0,173;   -1,318
552,657;19871,104;    2,373;    0,045
553,239;19560,522;   -0,173;   -0,773
553,821;19491,213;   -1,082;    1,045
554,404;19051,786;    1,282;    1,136
554,986;19445,189;    0,464;    1,045
555,568;20061,062;    1,191;   -0,955
556,151;19218,141;    1,191;   -0,227
556,733;19431,680;   -0,264;   -0,864
557,315;19983,665;    0,100;    0,500
557,897;19781,951;    0,554;   -0,500
558,479;19864,280;   -1,991;    1,318
559,061;20023,515;   -0,719;   -0,864
559,643;20408,692;   -0,264;    0,045
560,225;20786,970;    1,645;    2,864
560,807;20830,692;    0,918;    0,318
561,389;20236,451;    0,554;    2,318
561,971;21103,683;    0,463;    2,136
562,553;20858,742;   -1,628;    1,591
563,135;21062,652;   -0,537;    1,136
563,717;20678,971;    3,372;    1,136
564,298;21429,114;    3,645;   -0,045
564,880;21184,911;    0,645;   -1,409
565,462;21377,729;    0,645;    1,318
566,043;22605,677;   -0,446;    2,318
566,625;22119,302;    1,918;    1,227
567,207;22041,225;    1,099;    1,682
567,788;23248,916;   -1,264;    1,500
568,370;24131,518;    1,917;   -0,500
568,951;23980,867;    0,190;    0,227
569,533;24956,397;   -0,628;   -0,500
570,114;25487,263;   -0,446;    0,682
570,695;26065,415;   -0,174;   -1,318
571,277;26696,818;   -0,265;   -1,682
571,858;27514,470;    2,008;   -1,136
572,439;28469,568;    1,554;   -1,045
573,021;28709,906;    2,099;   -2,773
573,602;29278,037;   -1,265;    0,318
574,183;30280,599;   -2,083;    2,227
574,764;30476,623;   -1,629;    0,409
575,345;31082,743;    0,917;   -0,136
575,926;31680,380;   -0,356;    0,136
576,507;31692,481;    1,099;   -0,227
577,088;32945,447;    3,099;    1,682
577,669;32978,438;    0,735;    1,955
578,250;33850,872;    0,644;   -1,045
578,831;34646,208;   -1,356;   -2,227
579,412;34890,607;   -0,810;    0,955
579,993;35763,606;    1,008;    0,227
580,573;36003,469;   -0,629;   -0,955
581,154;35027,573;    0,735;   -0,591
581,735;35981,938;    0,644;    0,773
582,315;35518,120;   -0,629;    2,136
582,896;35700,714;   -0,174;    1,227
583,477;35094,612;    0,189;    1,227
584,057;35306,027;    0,553;    0,955
584,638;35629,697;    2,553;    2,318
585,218;35652,187;   -0,538;    2,682
585,799;35807,043;    0,281;   -0,227
586,379;35644,174;    0,372;    1,591
586,959;34234,212;    0,735;    0,318
587,540;33467,800;   -0,629;    2,227
588,120;33012,230;    1,007;   -0,045
588,700;31959,468;    2,553;    2,136
589,281;32322,128;    0,462;   -0,955
589,861;32257,318;    0,099;   -1,682
590,441;32037,605;    2,371;   -2,682
591,021;30946,050;   -0,265;   -2,591
591,601;31100,859;   -0,537;    0,500
592,181;31082,213;   -0,719;   -0,773
592,761;30327,090;    0,007;    1,409
593,341;30275,167;   -0,901;    0,045
593,921;30248,140;   -0,265;    1,591
594,501;30089,883;   -0,538;    1,318
595,081;29987,152;    0,917;   -0,318
595,661;30415,783;   -1,447;    0,955
596,240;30911,984;   -0,537;    0,136
596,820;30638,084;    0,372;    1,955
597,400;30790,057;    2,008;    0,773
597,980;31014,749;    2,008;    1,045
598,559;30983,570;    2,735;   -0,227
599,139;30614,635;   -0,174;   -1,227
599,718;30562,272;   -0,174;   -0,409
600,298;30814,786;    0,735;    0,682
600,877;31068,872;    2,917;    1,409
601,457;31350,427;    2,281;    1,136
602,036;31205,575;    0,190;    2,045
602,616;31487,738;    0,644;    1,682
603,195;31873,143;   -0,355;    3,500
603,774;31394,084;   -0,901;    2,045
604,354;31198,253;    0,826;   -0,500
604,933;30675,372;    0,463;    1,864
605,512;30795,616;    3,554;    0,591
606,091;30845,488;   -0,537;    3,773
606,671;31678,222;    0,281;    0,773
607,250;30712,517;    1,644;    3,136
607,829;30972,630;    2,372;    3,227
608,408;30747,705;    1,190;    2,591
608,987;29767,640;    1,281;    3,409
609,566;30117,158;   -1,265;   -2,500
610,145;30239,559;   -1,082;    0,682
610,723;30567,909;    4,372;    6,864
611,302;29807,997;   -0,446;    1,682
611,881;29295,084;    5,008;   11,227
612,460;30154,810;    1,645;    3,955
613,039;30580,899;   -0,082;    2,045
613,617;29235,435;    1,736;    4,773
614,196;29439,571;    1,099;    1,227
614,775;29822,934;    1,009;    2,409
615,353;29747,417;    0,736;    0,864
615,932;29423,416;    0,100;    2,409
616,510;29980,923;    0,554;    0,591
617,089;29484,778;    7,100;   17,591
617,667;29250,881;    2,372;    6,136
618,246;29109,148;   -1,537;    1,318
618,824;29257,612;   -3,355;   -0,955
619,402;28802,714;   -2,900;   -1,773
619,981;29307,936;   -0,173;   -1,045
620,559;29067,623;    0,009;    1,682
621,137;28580,472;   -0,718;    1,864
621,715;28701,731;   -1,173;   -0,682
622,293;28593,064;   -0,537;   -0,773
622,871;28982,574;   -0,718;    0,500
623,450;28557,233;    0,373;   -0,864
624,028;28455,464;    0,191;   -0,955
624,606;28075,287;   -1,718;    1,682
625,183;28479,465;   -1,536;   -1,136
625,761;28042,181;    1,009;    1,136
626,339;28379,035;    1,373;    2,591
626,917;28791,680;   -0,172;   -0,045
627,495;28789,474;   -0,354;    1,318
628,073;28160,345;   -0,263;    2,864
628,650;27852,299;    0,100;    2,136
629,228;28335,042;    0,373;    4,409
629,806;27764,048;    2,282;    1,136
630,383;27996,193;    1,464;   -0,318
630,961;27761,446;    2,555;   -0,955
631,539;27461,864;    2,464;    0,227
632,116;26839,082;   11,373;   15,409
632,694;27386,578;    2,555;    6,500
633,271;27751,900;    0,828;    2,682
633,848;27611,598;    1,828;    2,045
634,426;27633,939;   -1,081;    1,773
635,003;26757,968;    1,101;   -0,409
635,580;27080,561;    1,192;    3,682
636,158;27637,377;    3,737;    1,227
636,735;27636,116;    0,555;   -0,500
637,312;27688,982;   -0,809;   -0,682
637,889;27858,033;   -4,354;   -0,682
638,466;27310,587;   -3,990;   -0,409
639,043;27331,215;    2,101;   -1,136
639,620;27651,715;   -2,262;   -0,955
640,197;27998,822;    1,100;    1,682
640,774;28109,167;   -0,172;    1,136
641,351;28502,058;    0,737;    1,136
641,928;27909,857;   -0,627;    1,409
642,505;27528,930;    0,828;   -0,500
643,082;27640,002;   -1,718;    1,227
643,658;26590,074;   -0,718;    1,500
644,235;27383,601;    1,191;    2,500
644,812;27803,674;    1,918;    0,773
645,388;27567,837;   -0,991;    1,409
645,965;27564,364;   -0,809;    1,682
646,542;27597,800;   -1,445;   -0,227
647,118;27606,781;    1,009;   -0,955
647,695;27927,490;   -0,263;    1,136
648,271;27817,744;   -0,536;    0,500
648,848;28155,090;    0,736;    2,227
649,424;28050,526;    0,827;    1,318
650,000;27809,871;   -0,354;   -1,045
650,577;27537,579;   -0,627;   -0,955
651,153;28087,015;   -1,809;    0,955
651,729;29155,361;    1,191;    0,864
652,305;30026,706;    0,645;    2,773
652,881;36028,233;   -0,082;    1,136
653,458;43400,396;    1,100;    0,227
654,034;46912,468;    0,282;    1,591
654,610;48264,632;    0,554;    0,773
655,186;49582,159;    0,645;    3,045
655,762;49203,049;   -0,991;    0,409
656,338;49223,122;    0,100;    0,136
656,913;50267,194;   -0,082;    0,409
657,489;49548,903;    0,827;   -0,318
658,065;49522,157;   -0,173;   -1,591
658,641;50220,957;   -0,900;   -0,864
659,217;49412,847;   -0,991;    0,409
659,792;48848,829;    0,645;   -0,409
660,368;48983,537;   -2,173;   -0,682
660,944;48051,064;   -2,082;    1,227
661,519;41825,228;   -0,628;    0,409
662,095;35265,118;   -1,719;    0,591
662,670;30914,100;    1,281;   -0,136
663,246;29964,627;    1,009;   -0,409
663,821;29342,608;    0,281;    1,682
664,396;28887,317;    0,009;    1,864
664,972;29127,662;    0,009;   -0,500
665,547;29414,734;    1,372;    0,136
666,122;29583,625;   -1,082;    0,318
666,698;29852,061;   -0,173;    0,318
667,273;29200,043;   -0,173;    0,136
667,848;30031,569;    2,372;    1,500
668,423;29844,824;    2,190;    2,318
668,998;30403,714;    2,827;   -0,682
669,573;31001,696;   -3,264;   -1,500
670,148;30806,132;   -1,446;   -0,682
670,723;30610,750;   -1,810;    0,318
671,298;31023,277;    2,372;    1,045
671,873;31186,985;   -0,082;   -0,136
672,448;31049,330;    0,645;    0,136
673,023;31441,403;   -1,992;   -0,227
673,597;31787,293;    0,827;    2,318
674,172;31590,366;   -0,355;    0,318
674,747;31001,711;    0,372;   -1,045
675,321;30812,783;   -0,628;    3,318
675,896;30361,219;    0,645;    1,045
676,471;31420,110;    2,645;    1,591
677,045;31198,182;   -1,264;    0,682
677,620;31241,982;    0,190;    1,136
678,194;31492,054;   -2,628;    1,136
678,769;31135,672;   -1,083;   -0,318
679,343;31411,654;   -0,628;    1,773
679,917;31280,908;   -1,446;    1,955
680,492;31349,889;    0,826;    3,227
681,066;31493,325;    3,372;    0,409
681,640;31525,398;    1,463;   -0,318
682,214;32349,652;    0,735;    0,500
682,788;31924,179;   -1,356;   -0,773
683,363;31942,615;   -1,810;    1,682
683,937;31629,778;   -1,719;   -0,318
684,511;32413,942;    0,463;   -0,591
685,085;32037,559;   -1,356;    0,318
685,659;31767,814;   -2,538;    0,864
686,232;32076,522;   -0,356;   -0,318
686,806;31749,140;   -0,901;    0,409
687,380;32467,940;   -0,174;    0,591
687,954;32620,194;   -1,174;    1,136
688,528;32327,357;   -0,719;    1,955
689,101;33117,157;   -3,992;    1,045
689,675;32689,320;   -0,356;   -0,136
690,249;32061,756;   -0,719;    0,409
690,822;32351,102;    0,280;    0,318
691,396;32515,538;   -0,265;    1,227
691,969;31937,610;    1,280;    0,136
692,543;32392,228;   -0,447;   -1,955
693,116;31994,391;   -0,265;   -1,409
693,690;31933,827;    0,099;    0,500
694,263;32499,718;   -1,083;    2,955
694,836;32516,245;    1,371;    3,591
695,410;31104,953;   -0,265;    1,773
695,983;31605,935;    0,189;    0,591
696,556;31511,644;   -0,447;   -1,045
697,129;31898,171;   -0,356;    1,409
697,703;31523,243;   -1,629;    1,955
698,276;31511,770;    1,462;   -0,773
698,849;31346,842;    1,280;    1,409
699,422;31697,006;   -1,083;    0,591
699,995;31400,169;    0,007;    0,136
700,568;31900,060;   -0,629;    3,045
701,140;31913,223;   -2,811;    1,682
701,713;31658,295;   -0,174;    2,409
702,286;31438,095;   -0,538;    0,864
702,859;31337,985;   -0,902;   -0,591
703,432;30439,694;    0,825;    0,682
704,004;30951,585;    0,462;    0,318
704,577;30771,112;   -0,629;    0,136
705,150;31392,457;    0,189;    2,500
705,722;31144,257;   -0,356;   -3,227
706,295;30908,056;   -0,175;   -0,591
706,867;30784,674;   -0,175;    1,955
707,440;30996,656;   -1,720;   -0,409
708,012;31346,728;    0,462;    0,591
708,584;31223,891;    2,462;    0,227
709,157;31412,873;    1,825;   -0,591
709,729;31035,854;    2,280;    2,045
710,301;31919,472;    0,734;    0,045
710,874;31931,817;   -1,447;   -0,227
711,446;30800,071;    0,371;    0,864
712,018;30731,780;    0,098;    0,500
712,590;30422,853;   -1,993;    1,682
713,162;30968,107;    0,825;    1,318
713,734;31183,361;    1,825;   -2,045
714,306;31167,070;   -1,902;   -0,409
714,878;29770,324;    0,825;    0,864
715,450;30582,396;    0,643;    0,864
716,022;30801,832;    1,552;    1,318
716,593;31018,450;    0,189;    0,591
717,165;30931,886;   -3,175;   -1,227
717,737;30607,595;    0,280;    0,409
718,309;30239,213;    0,280;   -0,045
718,880;30176,922;   -0,539;   -1,409
719,452;30376,539;   -0,175;   -1,591
720,024;29964,794;    0,734;   -0,591
720,595;30582,775;   -2,902;    0,955
721,167;30174,120;    0,370;   -2,045
721,738;29647,465;   -0,812;   -1,045
722,309;29668,992;   -0,993;   -1,227
722,881;29444,065;   -1,357;    0,773
723,452;30110,864;   -2,630;    2,864
724,023;30238,664;   -0,721;    2,682
724,595;29983,282;    0,007;    0,682
725,166;29686,536;    0,007;   -0,409
725,737;29326,245;    1,734;    0,227
726,308;29422,135;   -0,266;    0,318
726,879;29899,208;   -1,630;    1,227
727,450;29774,735;    0,552;   -0,045
728,021;29747,443;    3,097;    0,682
728,592;29449,425;    0,734;    0,500
729,163;29862,406;    0,643;   -0,136
729,734;29962,206;    0,188;   -0,227
730,305;30263,915;    1,734;    0,136
730,876;30576,169;    0,188;    2,955
731,447;30320,423;    2,188;    2,682
732,017;30485,859;    1,097;    1,864
732,588;29918,114;    0,734;    1,227
733,159;30179,186;    0,643;   -1,045
733,729;29956,804;    0,006;    0,409
734,300;29192,149;    0,915;    0,864
734,870;29566,858;    3,461;    0,591
735,441;30155,839;    0,370;   -0,591
736,011;29973,275;    0,643;   -1,591
736,582;29938,438;   -0,812;    0,045
737,152;29396,329;   -1,721;   -2,045
737,722;29768,856;   -0,267;   -0,682
738,293;29471,383;   -1,358;    1,318
738,863;29375,910;    2,461;    2,318
739,433;29192,619;    5,279;    0,318
740,003;29757,600;   -0,994;   -0,682
740,573;29173,673;    2,097;   -1,591
741,143;29073,472;   -1,085;    0,318
741,713;29875,999;    1,188;   -0,500
742,283;29627,526;    0,915;    1,591
742,853;29381,417;    1,915;    1,591
743,423;28767,580;    1,733;    0,045
743,993;28949,561;   -0,358;    1,500
744,563;28278,543;    0,097;   -0,864
745,133;28227,433;   -0,812;   -0,864
745,702;28877,506;   -0,267;    1,773
746,272;28133,215;   -0,176;    0,591
746,842;27898,469;   -1,358;   -0,591
747,411;28264,541;   -0,267;   -0,318
747,981;28456,705;    0,097;    0,500
748,551;28498,777;    2,278;   -1,045
749,120;28360,122;    0,642;   -0,227
749,690;28771,285;   -0,631;    2,409
750,259;29096,358;    1,369;    2,955
750,828;29070,339;    1,551;   -1,955
751,398;29330,230;    1,278;   -0,045
751,967;28847,120;    2,187;    0,409
752,536;29057,647;   -0,813;   -0,227
753,105;29464,629;    0,096;    0,227
753,675;29303,247;    0,096;    1,773
754,244;29230,228;   -0,904;    3,591
754,813;29184,482;    0,551;    1,227
755,382;28770,555;    0,460;    0,955
755,951;29497,173;    1,551;    3,682
756,520;28972,609;   -0,085;    1,864
757,089;29537,772;    0,278;    0,500
757,658;29701,390;    1,733;    1,227
758,227;29673,099;    1,096;    0,318
758,795;29978,898;    1,187;    1,136
759,364;30194,789;   -0,086;   -0,591
759,933;29237,407;   -1,176;   -0,045
760,501;28714,297;    0,733;   -1,318
761,070;29197,551;   -2,813;   -1,409
761,639;29944,987;   -1,904;    1,318
762,207;29297,151;    1,551;   -0,955
762,776;29188,587;    0,369;    0,864
763,344;29112,023;   -0,995;    0,591
763,913;28180,913;   -0,722;    1,409
764,481;28970,440;    1,005;   -0,136
765,049;28680,058;   -1,358;    1,409
765,618;28549,312;   -0,086;    0,318
766,186;28611,748;    0,278;    0,136
766,754;28807,184;    0,005;    1,864
767,322;27759,439;   -1,995;    0,409
767,890;27871,420;   -0,722;   -1,773
768,459;28279,038;   -2,177;   -0,318
769,027;28458,019;    1,641;    3,409
769,595;27336,819;    3,278;    2,591
770,163;27791,619;    3,823;    2,955
770,730;27494,146;    0,732;   -0,136
771,298;27293,127;    0,187;   -1,409
771,866;27406,018;   -1,541;    4,955
772,434;27763,545;   -0,631;   -1,864
773,002;27940,163;    0,005;    0,682
773,569;27570,144;    0,914;    1,682
774,137;27382,944;   -0,268;   -0,045
774,705;28104,471;    0,278;   -0,136
775,272;27690,089;    0,641;    0,682
775,840;27340,070;   -0,177;    2,682
776,407;26902,051;    0,277;    1,955
776,975;26513,215;   -0,632;    0,318
777,542;27522,014;   -1,086;   -0,045
778,110;27375,905;   -1,268;   -0,045
778,677;27022,250;   -2,359;   -0,864
779,244;26730,232;    2,186;    1,045
779,812;26893,486;    1,823;    0,864
780,379;26753,558;    0,005;    1,136
780,946;26963,631;    1,005;   -0,773
781,513;27315,067;   -1,450;    0,318
782,080;26674,321;   -0,086;    2,864
782,647;27439,030;   -0,268;    3,045
783,214;26998,193;   -0,177;    3,864
783,781;26657,265;   -0,723;   -0,682
784,348;26497,701;   -0,632;    1,500
784,915;26897,501;   -3,177;    0,318
785,482;26698,846;    1,368;    2,591
786,049;27127,100;    0,186;   -0,591
786,615;27261,082;    0,277;   -0,955
787,182;26966,700;    0,186;   -0,682
787,749;26617,863;   -2,814;    1,409
788,315;26004,390;   -1,632;   -0,409
788,882;26260,826;    1,550;   -1,227
789,448;27030,535;    1,732;   -0,955
790,015;27015,334;    1,095;    3,227
790,581;26536,770;    1,459;    0,227
791,148;26421,206;    0,641;    1,045
791,714;26645,552;   -0,541;    3,136
792,280;26283,897;    0,186;    1,591
792,847;25803,515;    0,550;    2,500
793,413;26443,951;   -0,269;   -0,318
793,979;25939,296;    3,459;   -1,318
794,545;26085,459;    4,459;    2,682
795,111;25447,895;    2,186;    1,318
795,678;25599,967;    0,731;   -1,682
796,244;25234,131;    3,368;    0,136
796,810;25766,294;    1,731;    0,773
797,375;25505,639;    0,549;   -2,136
797,941;25523,166;   -0,541;    0,591
798,507;25670,511;   -0,451;   -0,955
799,073;25170,675;   -0,360;    0,591
799,639;25222,292;   -2,632;    3,136
800,205;25238,728;    0,095;    2,682
800,770;24776,437;    0,640;    1,773
801,336;24902,691;    1,368;   -0,955
801,901;24601,309;    4,549;    3,136
802,467;25131,200;   -0,542;    2,045
803,033;24467,909;   -0,087;    0,864
803,598;24741,981;    1,913;   -1,045
804,163;24721,326;    1,095;   -0,318
804,729;24680,217;   -0,178;    1,136
805,294;25085,198;    0,822;    2,227
805,859;24812,270;    0,731;   -0,409
806,425;24286,525;    1,186;    2,682
806,990;23964,052;    2,186;    4,318
807,555;24521,215;   -1,451;    2,591
808,120;24337,106;    0,822;   -0,409
808,685;24378,542;    0,185;   -2,500
809,250;23868,159;    0,004;   -0,500
809,815;24183,868;    1,913;    0,682
810,380;24724,668;   -0,269;    1,591
810,945;25339,558;   -1,087;    2,045
811,510;24406,994;    2,094;    1,591
812,075;24119,430;   -0,633;   -1,409
812,640;24150,866;    2,003;    1,409
813,204;24236,757;    0,822;   -0,227
813,769;24697,102;    2,094;   -0,045
814,334;24087,993;    0,458;    0,864
814,898;24130,065;    0,367;    0,591
815,463;23993,501;    1,276;   -0,773
816,027;23971,392;   -0,724;   -2,318
816,592;24020,828;    0,640;   -2,045
817,156;23594,900;    2,094;    1,136
817,721;23480,791;    4,276;    2,318
818,285;23357,318;    2,912;    1,500
818,849;24017,026;   -1,451;    1,682
819,414;23885,735;   -0,269;    2,955
819,978;23481,717;   -1,269;    1,773
820,542;24103,516;    2,003;    0,500
821,106;23750,771;   -0,815;    0,682
821,670;23861,479;   -0,815;    2,591
822,234;23593,734;   -0,270;    1,409
822,798;22926,170;    0,003;    0,500
823,362;22873,878;   -0,633;    4,227
823,926;22205,405;    0,094;    1,136
824,490;22410,114;   -0,997;   -0,682
825,054;22858,823;   -0,088;   -1,136
825,618;22480,259;   -1,542;   -1,500
826,181;22471,968;    0,458;   -1,318
826,745;22374,495;    1,367;   -1,045
827,309;22739,021;    1,185;    1,318
827,872;22098,276;    1,367;    0,955
828,436;23110,984;    1,185;   -0,773
828,999;23095,784;   -0,997;    1,227
829,563;21829,856;   -0,179;    1,136
830,126;21715,111;   -0,179;   -0,591
830,690;21695,547;   -1,997;    2,864
831,253;21209,346;   -0,543;    2,227
831,816;21378,146;   -1,906;    0,500
832,380;21298,582;    0,185;    0,864
832,943;21514,473;   -1,361;   -0,500
833,506;20998,454;    2,639;   -1,227
834,069;21780,981;    3,912;   -0,955
834,632;21799,872;    1,730;    1,318
835,195;21728,126;    1,003;    0,955
835,758;20875,653;   -0,997;    1,955
836,321;20757,725;    0,730;   -1,045
836,884;20842,889;   -0,725;   -0,955
837,447;20801,688;   -2,816;    1,773
838,010;21126,942;    0,366;    3,227
838,573;21456,197;   -1,179;    0,773
839,135;21380,814;   -1,361;   -0,955
839,698;20853,796;    1,275;    0,409
840,261;20329,777;    1,003;   -0,227
840,823;20133,123;   -0,543;    0,864
841,386;20426,559;   -0,452;   -2,409
841,948;20358,995;   -1,361;    1,773
842,511;20057,612;    0,912;    1,682
843,073;20181,685;    1,912;    0,227
843,636;19974,394;   -0,361;   -0,227
844,198;19979,193;    0,911;    0,591
844,760;20068,629;    1,093;    1,955
845,322;19707,974;    0,548;    1,136
845,885;20174,229;    0,730;    0,591
846,447;20606,392;   -1,998;    0,227
847,009;20203,919;    1,911;   -0,682
847,571;20510,173;    0,820;   -2,045
848,133;20653,700;   -1,089;   -1,864
848,695;20392,591;   -0,543;    1,409
849,257;19956,118;   -1,089;   -1,682
849,819;20156,099;   -0,998;   -0,409
850,381;20160,717;   -0,725;   -0,864
850,942;20590,244;    1,093;   -0,591
851,504;20595,225;    1,184;    0,227
852,066;20592,934;    1,275;   -1,591
852,628;20066,279;   -0,180;    1,955
853,189;19599,897;    1,638;    2,682
853,751;19697,788;   -0,907;    1,409
854,312;19522,951;   -0,453;   -1,682
854,874;20045,205;   -2,089;   -0,773
855,435;20571,550;   -0,907;   -1,682
855,997;20757,168;   -1,816;   -0,136
856,558;20066,240;    0,366;    1,773
857,119;20139,676;    0,820;    2,864
857,681;19785,294;    0,002;    0,318
858,242;19865,730;    1,911;   -2,136
858,803;20292,985;    0,456;   -0,773
859,364;20853,602;    0,184;   -4,773
859,925;20105,948;   -2,453;   -0,955
860,486;20003,929;   -0,453;   -0,955
861,047;19687,547;   -0,544;   -1,227
861,608;19556,801;   -1,089;   -0,773
862,169;19670,419;    0,638;   -0,045
862,730;19408,128;    0,456;    1,409
863,291;19683,927;   -0,635;   -0,500
863,852;20118,000;   -0,635;    1,955
864,412;19530,436;   -0,271;   -0,864
864,973;18063,781;   -0,089;    0,500
865,534;17915,035;   -1,726;    0,227
866,094;19442,835;    1,820;    0,227
866,655;19115,907;    1,274;    3,318
867,215;19353,343;    0,274;    0,136
867,776;19203,597;    0,547;   -0,136
868,336;19306,397;   -1,453;    0,136
868,897;18768,288;    2,638;    1,682
869,457;18493,996;    1,365;    0,318
870,017;18710,978;    0,547;   -1,227
870,578;19271,959;   -0,817;    0,773
871,138;18990,759;   -2,089;   -0,955
871,698;18482,650;   -0,817;   -1,318
872,258;18348,358;   -0,453;   -2,864
872,818;18750,249;    2,729;    0,045
873,378;18726,230;    0,638;    1,045
873,938;18177,030;    0,547;    0,500
874,498;18541,739;    0,274;   -1,955
875,058;18465,629;    2,183;    1,773
875,618;18304,520;    1,910;   -2,682
876,177;18250,411;    1,274;    0,136
876,737;17837,392;   -0,090;    1,955
877,297;17867,555;    0,183;    1,955
877,856;17863,264;   -0,362;    0,318
878,416;17802,155;    1,183;   -0,136
878,976;18020,954;   -1,817;    0,409
879,535;18211,299;    0,092;    3,136
880,095;17908,736;   -0,544;    0,045
880,654;18036,990;   -1,090;    1,318
881,213;18146,153;    2,456;    1,500
881,773;17795,589;    2,637;    2,682
882,332;18180,389;    3,365;    5,136
882,891;18025,825;    3,092;    2,136
883,451;18467,988;   -1,272;    1,682
884,010;17895,515;   -2,908;   -0,409
884,569;18004,587;   -0,999;   -0,045
885,128;18184,569;    2,819;   -1,864
885,687;18268,550;    4,455;    0,682
886,246;17937,714;    1,455;    2,136
886,805;17726,513;    2,455;    2,045
887,364;17989,677;   -0,999;   -0,500
887,922;18368,022;   -1,181;    0,045
888,481;17865,549;   -1,545;    0,591
889,040;18179,621;    1,183;    2,136
889,599;18912,966;    2,455;    1,409
890,157;18955,311;    1,455;    2,409
890,716;18610,566;   -0,090;    0,227
891,274;18412,456;    0,092;   -1,136
891,833;18851,710;    1,546;    0,864
892,391;18736,692;   -0,454;    0,500
892,950;18800,582;    1,819;   -0,773
893,508;19168,746;    0,455;   -0,409
894,067;18459,545;    0,637;    0,136
894,625;18325,800;   -0,636;   -1,500
895,183;18605,054;   -0,363;   -0,682
895,741;18512,308;    1,728;   -1,773
896,299;18351,926;   -0,545;   -2,409
896,858;18532,998;    0,819;   -1,591
897,416;18648,162;    2,728;   -1,318
897,974;18345,688;    1,819;    0,318
898,532;18534,306;    6,091;    2,682
899,089;18389,379;    2,091;   -0,682
899,647;18424,178;   -1,454;    1,318
900,205;18142,887;    1,182;    1,045
900,763;18328,869;   -0,454;    0,227
901,321;18337,668;    2,364;   -1,409
901,878;17728,923;   -1,000;   -0,773
902,436;17607,359;   -1,363;    1,318
902,994;18026,067;    4,728;    3,682
903,551;17439,867;    0,728;    0,409
904,109;17866,939;    0,182;   -1,409
904,666;17403,557;    2,455;    1,045
905,224;17208,448;    0,182;   -0,409
905,781;16938,247;    0,727;   -0,318
906,338;17047,774;   -1,363;    1,045
906,895;16973,029;    0,637;    2,045
907,453;16921,101;    1,727;    1,136
908,010;16943,355;   -0,909;    0,409
908,567;16586,609;    1,273;    0,591
909,124;16015,773;    0,364;   -1,500
909,681;16110,300;   -2,909;    0,682
910,238;16222,554;    0,636;   -1,318
910,795;16521,990;   -0,273;   -1,136
911,352;16151,535;   -2,909;   -2,682
911,909;15524,444;   -1,364;   -0,864
912,466;16058,444;   -3,182;    1,500
913,022;15581,535;   -1,636;    0,500
913,579;15953,081;   -0,909;    2,045
914,136;15599,899;    1,636;    0,955
914,692;15958,444;    0,091;   -1,227
915,249;15552,899;    1,455;    0,409
915,806;15833,626;    0,182;    1,955
916,362;15561,899;    1,909;    1,864
916,918;15106,263;    2,000;    1,045
917,475;15058,717;   -1,182;    0,955
918,031;15127,263;    3,364;   -0,045
918,587;14589,626;   -0,909;   -0,318
919,144;14790,990;   -2,273;    0,227
919,700;15127,899;    1,727;    0,773
920,256;14716,808;    0,727;    0,045
920,812;14295,717;   -0,727;   -1,045
921,368;14268,263;   -1,727;   -1,045
921,924;13901,444;    0,182;   -0,136
922,480;13470,808;   -0,545;    1,227
923,036;14083,899;    1,273;    1,955
923,592;14027,535;    0,455;    0,318
924,148;13922,808;    0,455;   -0,955
924,704;13236,808;   -1,364;   -0,409
925,259;13474,081;   -0,273;    0,591
925,815;13250,990;    1,455;    0,500
926,371;12739,717;    2,909;    1,409
926,926;12582,354;    2,091;    0,591
927,482;12221,808;   -1,364;    0,773
928,037;12080,626;    0,909;    2,045
928,593;12392,263;    1,636;    1,045
929,148;12194,081;   -1,818;   -1,500
929,704;11647,263;   -1,455;   -0,500
930,259;11901,990;    0,091;   -0,136
930,814;10959,808;   -0,818;    1,955
931,369;10586,899;    1,091;   -0,773
931,925;10445,444;   -0,091;    0,136
932,480;10346,626;   -2,818;   -2,591
933,035;10229,444;    0,545;   -0,318
933,590; 9989,990;    0,364;   -1,773
934,145; 9594,354;   -1,364;   -0,318
934,700; 9907,899;    0,455;   -0,591
935,255; 9716,990;   -0,091;    0,045
935,809; 8966,808;    3,182;    0,864
936,364; 8043,899;   -0,455;   -0,136
936,919; 7970,717;    0,455;   -1,773
937,474; 7850,081;    1,455;    0,136
938,028; 7569,172;   -1,636;    1,136
938,583; 7034,263;    1,818;    4,682
939,138; 7305,263;    2,091;    2,136
939,692; 6733,990;    1,636;   -1,136
940,247; 6426,172;   -0,727;   -1,045
940,801; 5946,535;   -0,636;    0,227
941,355; 5813,535;   -0,364;    2,591
941,910; 5430,899;   -0,273;   -2,136
942,464; 5564,990;   -0,818;   -0,318
943,018; 5349,535;    1,000;   -0,227
943,572; 5285,899;    2,545;   -0,682
944,126; 4680,444;    0,091;   -0,409
944,681; 4570,172;    3,091;    0,227
945,235; 4543,535;    1,000;   -0,591
945,789; 4468,808;    0,364;   -1,864
946,342; 4574,808;    0,455;   -0,591
946,896; 4395,263;   -2,273;    0,955
947,450; 4116,263;    1,545;   -0,227
948,004; 4314,899;    1,727;   -0,045
948,558; 4310,990;    0,273;   -0,864
949,111; 4237,899;   -0,273;   -0,318
949,665; 4254,626;    1,636;   -0,682
950,219; 4134,081;   -0,091;   -1,045
950,772; 4231,081;   -1,909;    1,864
951,326; 4110,535;    0,545;   -0,955
951,879; 4225,717;    0,727;   -2,318
952,433; 4250,081;    0,000;    2,227
952,986; 4080,172;    2,909;    0,682
953,539; 4051,808;   -0,273;    0,591
954,093; 3936,899;    0,545;   -1,318
954,646; 4078,899;    0,909;    1,318
955,199; 3900,808;    0,000;   -0,500
955,752; 3791,444;   -0,455;    1,773
956,305; 3736,444;   -0,091;    2,955
956,858; 3909,808;    0,818;   -0,318
957,411; 4089,354;   -0,545;    2,136
957,964; 3919,263;    1,364;    2,136
958,517; 3895,535;   -1,545;    3,136
959,070; 3715,990;   -0,455;    1,955
959,623; 3796,990;    1,091;    1,500
960,176; 3560,172;    1,727;    2,045
960,728; 3551,172;   -2,727;    0,773
961,281; 3571,717;    0,545;    0,500
961,834; 3646,808;   -0,909;    0,864
962,386; 3536,899;    1,727;    1,045
962,939; 3481,081;    0,364;   -0,318
963,491; 3616,990;    0,455;    1,136
964,043; 3472,899;    1,182;    2,409
964,596; 3624,717;   -1,000;    2,227
965,148; 3459,535;   -1,000;    1,773
965,700; 3356,717;    1,091;   -0,227
966,253; 3524,081;   -0,636;    0,318
966,805; 3368,172;   -2,273;    0,773
967,357; 3407,535;    1,091;   -1,500
967,909; 3356,081;    0,455;   -1,227
968,461; 3497,808;    0,545;    3,136
969,013; 3419,717;   -0,182;   -0,864
969,565; 3496,899;   -0,455;   -1,136
970,117; 3523,354;   -0,364;    1,045
970,669; 3363,990;    0,182;   -0,136
971,220; 3241,172;   -0,455;   -1,500
971,772; 3167,717;   -0,636;   -0,318
972,324; 3294,444;    0,091;   -0,500
972,876; 3236,626;    0,818;   -0,045
973,427; 3366,808;    1,909;   -1,045
973,979; 3328,081;   -0,727;   -2,500
974,530; 3372,717;    1,818;    1,318
975,082; 3376,444;   -0,545;    1,682
975,633; 3268,354;    1,091;    1,682
976,184; 3404,263;    0,909;    0,773
976,736; 3179,444;    0,091;    0,227
977,287; 2976,626;   -0,909;   -0,500
977,838; 3169,444;    0,909;   -0,318
978,389; 3232,626;   -1,000;   -0,500
978,940; 3104,172;    0,545;   -0,409
979,491; 3138,899;    0,091;   -0,500
980,042; 3078,172;    0,182;    3,045
980,593; 3139,717;   -2,545;    0,227
981,144; 3174,717;    2,545;   -0,500
981,695; 3128,172;    1,455;    1,500
982,246; 3114,263;   -0,273;    1,045
982,797; 3286,990;   -1,727;    0,682
983,347; 3392,354;    0,364;    0,591
983,898; 3563,626;    3,091;    0,409
984,449; 3372,535;    2,182;    0,773
984,999; 3280,808;    1,455;   -1,136
985,550; 3048,717;    0,182;   -0,318
986,100; 3080,354;   -0,455;   -0,318
986,651; 3112,354;   -0,818;    0,045
987,201; 3092,444;   -1,000;   -0,591
987,751; 3162,354;    0,818;    2,864
988,302; 3171,444;    2,636;    1,500
988,852; 3205,354;    0,455;   -1,136
989,402; 3225,990;    0,091;    0,682
989,952; 3134,626;   -2,182;    0,864
990,502; 3227,717;   -0,091;    0,682
991,052; 3190,535;   -0,727;    0,045
991,602; 3070,535;   -2,909;    1,318
992,152; 3063,172;    0,455;    0,682
992,702; 3065,899;    1,364;   -0,045
993,252; 2974,717;   -3,000;   -0,500
993,802; 3049,990;   -0,273;    1,318
994,352; 3287,444;   -1,545;    1,136
994,901; 3392,172;   -0,182;    3,227
995,451; 3303,263;   -0,182;    0,318
996,000; 3379,172;    1,636;    0,318
996,550; 3099,172;    2,273;    0,227
997,100; 3100,535;    1,273;   -0,045
997,649; 3379,990;    2,182;    0,955
998,198; 2970,899;    1,727;   -1,500
998,748; 3204,263;    1,091;   -2,318
999,297; 3105,717;   -0,818;   -0,409
999,846; 3158,717;    1,000;   -0,773
1000,395; 3217,990;   -0,818;    0,500
1000,945; 3162,172;    1,818;   -0,773
1001,494; 3284,990;    2,364;    0,682
1002,043; 3254,081;    4,636;    0,864
1002,592; 3072,899;   -1,091;    1,955
1003,141; 3237,899;   -0,455;   -0,682
1003,690; 3079,899;    1,727;    0,500
1004,238; 3175,354;    1,455;   -0,045
1004,787; 2806,808;    1,364;    1,227
1005,336; 3043,263;    0,364;    0,682
1005,885; 3183,172;    1,364;   -2,773
1006,433; 3351,990;    0,545;    0,955
1006,982; 3378,626;    0,455;    1,682
1007,531; 3301,263;   -1,818;   -0,227
1008,079; 3264,535;   -2,273;    0,500
1008,627; 3392,081;   -1,455;    0,409
1009,176; 3106,354;    0,000;   -1,955
1009,724; 3163,444;    1,091;    0,864
1010,273; 3236,808;    1,273;    0,500
1010,821; 3323,354;    0,091;    1,409
1011,369; 3055,535;   -1,364;    1,318
1011,917; 3051,081;   -1,364;   -0,591
1012,465; 3329,354;    1,273;   -1,591
1013,013; 3457,535;    2,091;   -1,682
1013,561; 3321,899;    0,455;   -0,773
1014,109; 3353,444;   -1,909;    1,682
1014,657; 3226,535;    0,364;    0,591
1015,205; 3359,990;    1,636;   -0,955
1015,753; 3412,717;   -0,545;   -1,409
1016,301; 3467,081;   -2,636;    3,045
1016,848; 3446,263;   -1,273;    0,409
1017,396; 3493,263;    2,545;    0,045
1017,944; 3616,081;    1,182;    1,864
1018,491; 3360,808;    0,273;    1,409
1019,039; 3481,444;    0,455;    0,591
1019,586; 3429,990;   -1,364;    1,682
1020,134; 3534,717;    0,455;    1,500
1020,681; 3560,899;    0,182;   -1,136
1021,228; 3557,899;    2,909;   -2,227
1021,776; 3369,354;    1,182;   -1,136
1022,323; 3591,990;    0,455;    0,773
1022,870; 3530,808;   -1,000;   -0,045
1023,417; 3430,172;    2,636;    1,864
1023,964; 3589,626;    2,636;    1,227
1024,511; 3410,172;    1,000;    0,773
1025,058; 3186,626;    3,182;   -0,045
1025,605; 3251,990;   -2,273;    3,136
1026,152; 3490,172;    1,727;   -0,591
1026,699; 3206,263;    1,818;    1,318
1027,245; 3371,899;   -0,091;    0,318
1027,792; 3578,717;   -1,000;    1,409
1028,339; 3463,899;    2,364;   -0,045
1028,885; 3309,535;    1,000;   -0,227
1029,432; 3242,717;   -0,091;    0,227
1029,978; 3301,808;   -1,000;   -1,591
1030,525; 3192,626;    1,000;    0,409
1031,071; 3433,354;   -1,364;    1,136
1031,618; 3547,990;    0,364;    1,682
1032,164; 3344,990;   -0,091;    3,045
1032,710; 3400,172;    1,636;   -1,500
1033,256; 3308,354;   -0,636;   -0,136
1033,803; 3282,444;   -0,545;    1,500
1034,349; 2971,263;   -1,364;    0,136
1034,895; 3133,990;    0,000;   -0,318
1035,441; 3107,172;   -0,818;    0,318
1035,987; 3126,899;   -2,364;   -0,682
1036,533; 3113,081;   -1,455;   -0,955
1037,078; 3333,444;    1,455;    1,682
1037,624; 3130,354;    2,455;   -0,955
1038,170; 3184,263;    0,455;   -0,318
1038,716; 3077,717;    1,636;   -0,409
1039,261; 2983,263;   -2,273;   -0,773
1039,807; 2924,081;   -0,091;    3,409
1040,352; 3000,263;   -1,909;   -0,318
1040,898; 3042,081;   -1,545;   -0,682
1041,443; 2918,172;   -1,455;   -2,591
1041,989; 2942,354;    1,091;    1,591
1042,534; 2818,263;   -0,364;    2,591
1043,079; 2940,717;    2,909;    0,955
1043,625; 2725,899;    1,818;    0,500
1044,170; 2759,535;   -1,364;    1,045
1044,715; 3024,535;    2,455;    0,955
1045,260; 2852,354;    2,182;   -0,955
1045,805; 2883,535;    1,182;   -0,591
1046,350; 2833,172;    1,364;   -0,409
1046,895; 2780,808;    2,909;    1,591
1047,440; 2728,263;    5,364;    0,409
1047,985; 2623,717;    2,818;   -0,955
1048,530; 2536,990;    1,545;    1,227
1049,074; 2589,717;    0,000;    0,318
1049,619; 2569,626;   -1,364;    1,955
1050,164; 2376,444;    0,455;    0,227
1050,708; 2414,535;   -0,455;    0,045
1051,253; 2791,899;    1,273;   -2,227
1051,797; 2497,990;    0,818;   -1,318
1052,342; 2507,263;   -1,182;    1,045
1052,886; 2514,354;    0,364;   -1,409
1053,430; 2381,990;   -1,364;    0,136
1053,975; 2406,354;   -0,818;   -0,318
1054,519; 2380,444;   -0,727;    3,227
1055,063; 2397,263;    0,909;    1,318
1055,607; 2265,535;   -0,182;    0,227
1056,151; 2291,535;    2,909;    1,682
1056,695; 2212,172;    2,273;   -1,136
1057,239; 2272,990;   -1,727;   -0,682
1057,783; 2281,354;    0,818;   -1,500
1058,327; 2213,172;    0,000;    1,409
1058,871; 2450,444;   -0,545;    1,318
1059,415; 2160,444;   -0,818;   -0,045
1059,958; 2442,808;    1,455;    2,591
1060,502; 2144,626;   -1,000;   -0,773
1061,046; 2045,444;    0,364;   -0,955
1061,589; 2012,626;   -3,000;   -1,136
1062,133; 1892,444;   -1,273;    1,864
1062,676; 1843,717;    1,182;    0,864
1063,220; 1848,535;    1,091;    0,500
1063,763; 1864,899;    0,909;    1,136
1064,306; 1948,808;   -0,909;    1,864
1064,849; 1816,535;   -0,909;    0,591
1065,393; 1831,535;    2,000;   -1,500
1065,936; 1951,444;    0,182;   -0,409
1066,479; 1842,172;   -1,455;    1,318
1067,022; 1852,626;   -0,273;   -0,227
1067,565; 1741,444;   -0,091;   -1,318
1068,108; 1769,354;    0,727;   -0,591
1068,651; 1737,990;   -0,636;    1,409
1069,194; 1685,172;   -0,455;   -1,682
1069,736; 1686,626;   -1,273;    0,955
1070,279; 1663,444;   -1,364;   -0,500
1070,822; 1720,263;   -2,000;   -0,318
1071,364; 1802,172;   -0,364;    1,318
1071,907; 1610,626;   -0,727;    3,227
1072,450; 1491,717;    0,000;   -0,045
1072,992; 1504,808;   -0,273;    3,136
1073,535; 1658,808;    2,091;    2,136
1074,077; 1445,444;   -0,727;    2,045
1074,619; 1406,535;   -1,364;    0,591
1075,161; 1435,535;   -1,091;    1,500
1075,704; 1646,808;    1,545;    1,227
1076,246; 1425,535;   -0,182;    0,682
1076,788; 1351,808;   -0,364;    1,773
1077,330; 1415,081;    1,273;    2,136
1077,872; 1374,081;    0,909;    0,955
1078,414; 1619,535;    2,727;    0,773
1078,956; 1346,990;    1,273;   -0,227
1079,498; 1617,535;    1,636;    0,318
1080,040; 1307,535;    1,909;   -1,318
1080,581; 1248,717;    1,636;   -0,318
1081,123; 1156,808;    0,091;   -0,773
1081,665; 1209,535;   -1,182;   -0,955
1082,206; 1539,172;    1,364;   -0,500
1082,748; 1395,081;    0,727;    2,045
1083,289; 1252,717;   -2,000;    1,318
1083,831; 1156,626;   -0,545;    0,227
1084,372; 1202,263;    0,000;    0,591
1084,913; 1210,808;    1,091;    0,864
1085,455; 1166,263;   -1,909;   -2,045
1085,996; 1135,899;   -2,273;    0,136
1086,537; 1160,808;   -0,091;    0,864
1087,078; 1196,899;   -0,909;   -2,136
1087,619; 1244,808;   -1,273;    0,227
1088,160; 1154,899;    0,000;    1,318
1088,701; 1139,263;   -1,091;    0,682
1089,242; 1070,808;    1,364;   -2,227
1089,783; 1186,899;   -0,273;    1,409
1090,324; 1140,444;    0,455;    0,682
1090,865;  999,990;    2,727;   -0,409
1091,405;  976,808;    0,727;    2,227
1091,946; 1007,263;    0,182;   -0,955
1092,487;  937,808;    0,818;   -1,409
1093,027; 1101,172;   -1,364;   -1,500
1093,568;  949,626;   -0,364;    1,227
1094,108; 1057,354;    0,273;    1,773
1094,649;  986,899;   -1,182;    0,136
1095,189;  913,535;   -0,636;   -0,682
1095,729;  871,081;   -0,091;    0,955
1096,269;  883,535;    0,727;   -0,955
1096,810; 1216,444;   -1,364;    0,500
1097,350; 1018,808;    1,364;   -0,773
1097,890;  926,172;    0,364;    1,227
1098,430; 1191,535;    2,364;    2,864
1098,970; 1060,899;    2,182;    1,682
1099,510;  907,535;    0,545;   -2,318
1100,050;  829,354;    1,000;   -1,591
1100,589;  795,263;   -0,727;   -0,318
1101,129;  936,808;    0,818;   -0,955
1101,669; 1109,444;    1,727;    2,136
1102,209;  908,990;   -0,091;    2,227
1102,748;  869,354;    0,000;    0,955
1103,288;  867,172;    1,273;   -1,227
1103,827;  888,626;    3,091;   -2,227
1104,367;  751,990;   -0,091;   -2,409
1104,906;  717,808;    1,364;   -1,136
1105,445;  786,899;    0,636;   -1,136
1105,985;  732,899;   -0,727;    1,500
1106,524;  789,899;   -1,727;   -0,682
1107,063;  756,172;   -2,727;    1,409
1107,602;  724,081;   -1,909;   -1,500
1108,141;  661,899;   -1,909;    1,500
1108,680;  768,626;   -3,455;   -0,591
1109,219;  689,263;   -0,909;   -0,500
1109,758;  689,899;    0,455;    0,682
1110,297;  672,717;    1,000;   -0,682
1110,836;  621,717;   -0,727;    0,955
1111,375;  786,626;   -2,545;    0,409
1111,913;  796,808;   -1,000;    0,773
1112,452;  724,626;   -0,273;    0,136
1112,991;  603,990;    1,091;    1,955
1113,529;  555,626;   -0,818;   -0,045
1114,068;  630,808;   -0,273;    2,955
1114,606;  524,717;   -0,364;   -0,955
1115,144;  708,990;   -1,273;    1,045
1115,683;  636,899;   -0,727;    0,318
1116,221;  671,535;   -0,455;   -0,864
1116,759;  584,626;    0,636;   -0,864
1117,297;  795,717;    0,000;    1,864
1117,836;  594,626;   -2,182;   -1,227
1118,374;  598,717;    0,182;   -0,682
1118,912;  538,899;    0,909;    2,682
1119,450;  533,444;    1,000;    0,864
1119,988;  587,354;    1,545;    2,136
1120,525; 1055,808;    5,091;    3,318
1121,063;  754,899;    1,182;    1,864
1121,601;  550,354;   -0,909;   -1,227
1122,139;  505,808;   -0,727;   -2,045
1122,676;  722,081;   -0,727;    2,773
1123,214;  643,899;   -1,182;    4,409
1123,751;  437,990;    1,727;    2,227
1124,289;  582,990;   -0,091;   -0,409
1124,826;  435,172;    1,727;    0,227
1125,364;  354,808;    1,727;   -0,955
1125,901;  562,444;    1,182;    1,227
1126,438;  680,081;    0,818;    0,955
1126,975;  389,081;   -0,727;   -0,773
1127,513;  465,172;    0,273;    2,136
1128,050;  360,990;    1,636;   -0,682
1128,587;  471,717;    2,000;   -0,227
1129,124;  518,808;    0,091;    1,318
1129,661;  368,172;    0,273;    0,227
1130,198;  544,717;    1,636;    0,773
1130,734;  484,354;    0,182;    1,409
1131,271;  339,172;   -0,909;    0,864
1131,808;  515,899;    2,909;    3,045
1132,345;  383,172;    1,545;    0,318
1132,881;  237,444;   -1,545;   -1,864
1133,418;  400,535;    0,727;   -1,136
1133,954;  332,626;    2,455;   -2,682
1134,491;  419,535;    1,364;   -0,773
1135,027;  309,808;    2,364;    0,864
1135,564;  401,081;    0,273;    2,955
1136,100;  381,990;    0,364;    2,136
1136,636;  256,808;   -1,273;   -1,045
1137,172;  370,444;    0,000;   -1,045
1137,708;  289,444;   -1,364;   -1,045
1138,245;  302,081;    1,273;   -1,227
1138,781;  245,626;    1,091;   -3,318
1139,317;  311,626;    1,273;   -1,409
1139,852;  301,717;    3,091;    0,136
1140,388;  441,081;   -1,182;   -0,409
1140,924;  308,899;   -1,091;   -2,227
1141,460;  237,899;   -1,636;    0,136
1141,996;  163,354;   -1,364;    2,682
1142,531;  227,626;    1,364;    3,318
1143,067;  454,717;    1,182;    1,045
1143,602;  516,626;   -0,091;   -0,318
1144,138;  348,081;   -2,636;    1,045
1144,673;  203,990;   -1,455;    1,409
1145,209;  269,172;   -1,909;   -0,318
1145,744;  184,899;   -0,727;    0,864
1146,279;  343,444;    1,818;   -0,136
1146,815;  248,444;    1,545;   -2,682
1147,350;  289,263;   -1,364;    0,045
1147,885;  189,717;   -0,818;   -1,318
1148,420;  186,808;   -2,273;    0,773
1148,955;  172,717;   -1,727;    1,864
1149,490;  207,081;   -0,909;   -1,591
1150,025;  189,899;    0,455;   -1,773
1150,560;  301,899;    1,091;   -0,955
1151,094;  275,172;    1,455;   -0,591
1151,629;  284,263;    1,636;    0,864
1152,164;  200,899;    1,364;    1,318
1152,698;  151,081;   -0,182;   -0,136
1153,233;  105,354;    0,091;   -0,682
1153,767;  160,899;   -3,000;   -2,318
1154,302;  214,354;   -1,455;    1,773
1154,836;  209,172;   -0,455;   -2,136
1155,371;  268,354;   -1,364;    3,682
1155,905;  216,626;   -0,636;    1,682
1156,439;  184,899;   -0,636;   -0,500
1156,973;  225,172;    0,364;    0,318
1157,507;  149,717;   -0,364;    0,682
1158,042;  183,626;   -0,727;    1,045
1158,576;  237,354;    0,182;    1,773
1159,110;  221,172;   -0,818;    2,409
1159,643;  190,990;    0,636;   -0,045
1160,177;  124,717;   -1,545;    1,500

