
Integration time [ms]:   0,040
Averaging Nr. [scans]: 11
Smoothing Nr. [pixels]: 0
Data measured with spectrometer [name]: 7318044SP
Wave   ;Sample   ;Dark     ;Reference
[nm]   ;[counts] ;[counts] ;[counts] 

186,757;    6,930;   31,551;    1,318
187,357;   35,796;   22,551;    0,955
187,958;   14,168;   15,460;   -1,591
188,558;   42,959;    8,915;   -1,227
189,159;   13,208;    6,733;   -4,500
189,759;   -1,804;    7,278;   -3,591
190,360;  -10,306;    2,824;   -2,136
190,960;   21,247;    2,915;   -4,136
191,560;   26,764;    3,189;   -6,591
192,161;  222,614;    4,372;   -3,500
192,761;   96,358;    4,010;   -3,227
193,361;   34,018;    1,556;   -3,773
193,962;   75,381;    2,010;   -2,682
194,562;   14,384;    1,189;   -3,955
195,162;   21,297;   -2,448;   -2,227
195,762;  122,115;   -3,176;   -0,045
196,362;   84,035;    1,370;   -2,500
196,963;    3,181;    2,006;   -0,864
197,563;   45,490;    1,551;   -0,955
198,163;   -1,439;    0,096;   -0,682
198,763;   13,556;    1,733;   -0,500
199,363;   56,397;    3,096;   -0,500
199,963;   30,031;    0,369;    0,409
200,563;   18,870;    2,823;   -1,409
201,163;    1,485;    3,277;   -0,227
201,763;   26,284;    3,732;    0,318
202,363;    3,948;    1,459;    1,500
202,963;   33,134;    1,459;    1,045
203,563;   86,135;    0,277;    0,500
204,162;   16,532;    2,096;   -1,864
204,762;   16,009;    0,550;    0,591
205,362;   -4,410;    3,004;    1,955
205,962;   22,136;    3,096;    1,955
206,562;   14,108;    1,823;    2,318
207,161;    2,099;   -0,087;    0,318
207,761;   74,042;    1,277;    2,409
208,361;   10,777;   -0,268;    1,409
208,960;   28,685;    0,459;    1,500
209,560;   24,693;    1,277;    1,591
210,160;   34,075;    0,550;    1,864
210,759;   16,335;    4,186;    1,227
211,359;    2,479;    1,459;    1,045
211,958;   90,123;    1,277;    2,045
212,558;   98,300;    1,732;    1,864
213,157;   35,569;    1,822;    1,500
213,757;  166,302;    3,822;   -0,227
214,356;   57,466;    1,277;   -0,409
214,956;  139,945;    3,095;    0,409
215,555;   41,049;    2,095;    2,136
216,154;   11,074;   -2,723;   -0,591
216,754;    6,012;    0,277;    0,773
217,353;   25,650;   -0,268;   -1,045
217,952;  -19,640;   -0,178;    0,318
218,552;   35,436;    1,368;   -0,773
219,151;    8,836;    0,277;    0,955
219,750;   -1,748;    0,004;   -0,227
220,349;  -11,479;   -0,451;    1,045
220,948;   43,776;   -1,360;    1,136
221,548;   -4,023;    0,913;    1,227
222,147;    9,255;   -0,087;   -0,409
222,746;   78,455;   -0,451;   -0,955
223,345;   26,292;    0,731;    0,500
223,944;   28,175;   -0,451;    0,773
224,543;   30,997;    1,004;   -1,409
225,142;   11,163;    0,094;    0,136
225,741;   20,322;   -0,814;    1,045
226,340;   14,821;   -0,451;   -0,955
226,939;   65,375;   -0,996;   -0,136
227,538;    4,118;   -0,360;   -0,773
228,137;   71,191;   -0,814;    0,864
228,735;   42,751;   -0,541;    1,227
229,334;  -18,130;   -0,905;   -0,227
229,933;   63,893;    0,459;    0,591
230,532;   65,519;    1,186;   -0,409
231,131;   99,659;    1,732;    0,318
231,729;   43,873;   -2,450;   -2,318
232,328;    9,527;   -0,723;   -1,500
232,927;   22,355;    1,004;   -0,500
233,525;   16,235;    3,640;    0,045
234,124;   32,584;    2,368;   -1,591
234,723;   -0,894;    0,913;   -1,045
235,321;  -10,330;    2,277;    0,136
235,920;    1,586;    1,186;   -1,227
236,518;   64,877;    3,459;    0,318
237,117;    3,209;    0,004;   -0,227
237,715;   19,376;    0,640;   -0,500
238,314;   21,567;   -0,087;   -2,318
238,912;   72,320;   -0,723;   -1,409
239,510;   33,013;    0,459;   -1,227
240,109;   80,313;    0,004;    3,773
240,707;   59,125;   -0,996;    1,227
241,305;    6,960;    0,550;    0,136
241,904;   32,233;   -0,178;   -2,045
242,502;   95,008;   -0,632;   -0,227
243,100;   48,859;   -0,087;   -0,955
243,698;    5,662;    0,732;    1,682
244,297;   18,401;   -0,632;    0,682
244,895;   12,790;   -0,269;   -2,318
245,493;   83,076;    2,186;   -0,591
246,091;   85,471;    1,368;   -1,318
246,689;   48,940;    1,004;    0,591
247,287;   40,292;    0,822;   -1,136
247,885;   23,370;   -1,451;    1,227
248,483;    5,008;    1,822;   -0,500
249,081;   40,073;    0,185;    1,591
249,679;   45,247;   -0,178;    1,682
250,277;    6,834;   -1,723;    0,864
250,875;   45,754;   -1,087;   -1,045
251,473;   10,584;   -1,178;    0,500
252,071;   55,008;    1,459;    1,045
252,669;   18,266;   -1,814;    0,318
253,267;    1,962;   -0,087;    0,773
253,864;   16,292;   -0,360;    0,682
254,462;   59,140;    1,640;    1,591
255,060;    4,393;   -0,269;    1,318
255,658;    2,448;    0,822;   -0,136
256,255;   14,397;    0,186;   -2,045
256,853;   29,643;   -0,269;    1,409
257,451;   12,741;    0,822;    1,864
258,048;  156,903;    1,822;    1,864
258,646;   66,518;    1,731;   -1,045
259,243;  100,370;   -0,087;    2,227
259,841;   56,408;   -0,814;    0,318
260,438;   10,148;   -0,087;    0,864
261,036;   41,776;   -1,905;    1,409
261,633;    7,419;   -0,087;    2,227
262,231;   -5,848;    2,731;   -0,045
262,828;  -12,760;   -0,905;    1,136
263,425;   -0,796;    0,913;   -0,591
264,023;   -4,334;    0,186;    0,045
264,620;   51,274;   -0,360;   -0,318
265,217;   87,524;   -2,087;    3,136
265,815;   16,101;   -1,905;    2,136
266,412;   44,041;    0,731;    0,136
267,009;   26,391;   -1,451;    0,773
267,606;   59,427;    0,822;   -0,955
268,203;   16,926;   -0,269;   -0,591
268,801;   15,033;    1,731;    0,591
269,398;   -4,193;   -0,360;    2,500
269,995;   36,331;    0,277;    1,591
270,592;   15,805;   -0,632;   -0,500
271,189;  -10,622;    0,186;    0,409
271,786;  -17,512;   -0,632;    1,227
272,383;   52,293;   -1,087;    0,227
272,980;   19,428;    0,277;    0,318
273,577;    0,794;    0,004;    1,227
274,174;   -0,964;    0,822;    2,591
274,771;   38,902;   -0,814;   -0,773
275,367;  180,172;    2,277;    1,409
275,964;   83,779;    0,731;   -0,500
276,561;   21,405;    1,549;   -1,045
277,158;  -11,481;    0,095;   -1,773
277,755;   73,891;    2,185;    0,409
278,351;   42,169;   -0,451;   -1,500
278,948;   44,062;   -0,815;    0,045
279,545;   34,441;   -1,360;    2,318
280,141;   70,161;   -1,723;   -2,045
280,738;   78,840;   -0,451;   -0,136
281,334;   18,080;   -1,633;    0,591
281,931;    4,583;   -0,087;   -1,318
282,528;   50,407;    0,822;   -0,500
283,124;   79,504;   -1,087;   -0,500
283,721;   66,822;   -0,451;    1,409
284,317;   22,710;    0,185;    2,500
284,913;   79,040;   -1,360;    0,591
285,510;  124,768;    0,640;   -0,318
286,106;   78,110;   -2,269;   -0,955
286,703;   40,534;   -0,360;    1,955
287,299;   14,135;   -1,451;   -0,591
287,895;   13,299;    0,822;   -1,045
288,491;    7,444;    0,186;    2,136
289,088;   37,926;   -2,360;    2,409
289,684;   41,811;   -1,723;    1,500
290,280;   92,477;    0,368;    0,682
290,876;   78,626;    1,822;    5,500
291,472;   48,999;    1,276;    2,227
292,068;   65,354;    1,367;    0,227
292,665;   27,317;    2,095;    0,773
293,261;    3,259;    0,276;    2,136
293,857;   53,506;    2,913;    2,136
294,453;   30,816;    3,550;    0,955
295,049;  104,835;   -0,268;    1,955
295,644;   55,318;    0,095;    0,136
296,240;   -1,373;   -0,905;   -0,136
296,836;   23,850;   -0,995;    0,318
297,432;   69,133;    1,096;   -0,500
298,028;   71,366;    0,732;    0,773
298,624;   33,444;    1,459;    1,864
299,220;   40,183;    2,368;    0,591
299,815;   30,790;    1,005;   -0,409
300,411;   56,562;    0,914;    1,773
301,007;   77,227;    1,368;    0,227
301,602;   28,251;   -0,541;   -2,318
302,198;   77,915;    0,732;   -0,773
302,794;   24,019;    1,187;   -0,500
303,389;   -7,297;   -1,177;    1,045
303,985;    8,816;    0,550;    1,409
304,580;   70,942;    1,459;    1,591
305,176;   30,082;   -3,086;    0,136
305,771;  -17,566;   -1,268;   -1,227
306,367;  133,399;    4,095;    0,136
306,962;   48,251;    0,641;    1,500
307,558;   62,290;   -0,450;    0,136
308,153;   47,886;    1,095;   -1,136
308,748;   -1,417;   -0,814;    1,682
309,344;  131,061;   -0,632;   -1,318
309,939;  114,851;   -1,905;   -1,318
310,534;   32,911;   -0,086;   -1,682
311,130;   16,347;    0,459;   -2,500
311,725;    8,323;    1,004;   -0,500
312,320;   22,469;    2,459;    0,045
312,915;   51,624;    1,459;   -1,045
313,510;  126,880;    1,550;   -0,500
314,105;   24,261;    1,096;    1,409
314,700;   -5,581;   -3,086;   -1,045
315,295;   14,578;   -0,904;    0,045
315,890;   -0,812;    1,277;    0,864
316,485;   40,022;   -0,359;   -0,318
317,080;    4,767;   -3,086;    1,591
317,675;  124,819;    2,005;   -0,682
318,270;  210,935;    5,550;    3,318
318,865;  139,040;    3,278;    3,045
319,460;   80,225;   -0,904;    0,591
320,055;   14,234;   -0,541;   -1,227
320,650;   16,189;   -1,995;   -0,591
321,244;   22,981;   -0,177;   -1,409
321,839;   12,558;   -1,541;   -0,227
322,434;   34,833;   -1,086;   -1,591
323,029;   12,071;    1,732;    1,591
323,623;    1,128;    1,550;    0,773
324,218;   89,716;    2,368;    1,409
324,812;   60,368;    1,096;    1,591
325,407;   49,316;   -0,814;    2,045
326,002;  106,171;    0,277;   -0,409
326,596;   71,462;    0,914;    1,318
327,191;   24,152;    0,823;   -1,045
327,785;   33,462;   -0,813;   -0,227
328,379;    8,995;    1,368;    0,136
328,974;   25,475;    0,914;   -3,955
329,568;   42,379;    0,186;   -2,409
330,163;   75,886;    2,096;    1,045
330,757;   15,863;    2,459;    1,591
331,351;   -0,136;    0,459;    0,682
331,945;   -2,967;    0,914;    1,409
332,540;   37,486;   -1,723;   -0,591
333,134;   30,172;   -1,086;    0,773
333,728;   38,460;    0,005;    0,318
334,322;    3,686;   -1,177;   -0,864
334,916;   10,898;    0,277;    0,955
335,510;   58,372;   -0,450;   -0,136
336,105;   39,970;   -1,086;    1,591
336,699;    6,534;   -1,086;    0,591
337,293;   24,629;   -1,723;    0,318
337,887;    5,949;   -2,723;    1,955
338,481;   45,616;    0,459;    0,591
339,074;   91,276;   -0,359;    2,682
339,668;   82,595;   -1,632;    1,227
340,262;  328,365;    1,732;    3,227
340,856;  144,457;    1,822;   -0,682
341,450;   24,121;    1,004;    1,864
342,044;   42,720;    1,459;    0,136
342,637;   80,404;    0,913;   -2,136
343,231;   38,155;   -2,360;    0,682
343,825;   18,730;   -1,086;   -0,591
344,419;   21,584;   -1,995;    0,500
345,012;  269,556;    2,459;    4,045
345,606;  168,071;    4,641;    1,591
346,199;   45,100;   -1,813;   -0,227
346,793;   79,510;    1,914;    2,045
347,386;   12,084;   -0,813;   -1,136
347,980;  -15,566;   -0,268;   -0,045
348,573;   18,910;    2,278;    0,409
349,167;  178,232;    5,278;    4,773
349,760;   83,502;    2,914;    2,682
350,354;   71,290;   -0,813;    1,136
350,947;   87,925;    1,096;    1,682
351,540;   40,161;   -0,358;   -1,409
352,134;   10,437;    1,096;    1,136
352,727;    6,596;   -0,086;    1,136
353,320;   11,755;    0,005;    0,591
353,913;  -10,215;   -1,995;    1,864
354,507;   68,350;    0,823;   -1,227
355,100;   23,436;    0,460;    0,864
355,693;  236,419;    2,005;    2,409
356,286;  100,633;    0,823;    2,773
356,879;   38,292;   -0,722;    1,227
357,472;   44,456;   -0,904;    1,500
358,065;   46,841;   -0,722;    2,500
358,658;    1,761;   -0,540;    2,318
359,251;   -7,086;   -1,631;   -0,591
359,844;   65,884;   -1,904;   -1,136
360,437;   91,109;   -2,995;    0,045
361,030;   21,797;    1,369;   -0,682
361,623;   32,754;    2,824;    0,318
362,215;  146,001;   -0,086;    2,045
362,808;   54,551;   -2,358;   -1,682
363,401;   25,116;   -2,449;    0,136
363,994;  134,673;   -0,631;   -1,500
364,586;   37,295;    0,824;   -1,500
365,179;   14,669;   -0,449;   -1,136
365,772;  -33,965;   -1,995;    2,045
366,364;   23,915;    1,915;   -3,227
366,957;   42,663;    2,279;   -0,045
367,549;   27,588;    2,188;   -0,864
368,142;   38,763;    1,825;   -1,500
368,734;   22,412;    0,734;   -2,136
369,327;  -15,952;    1,643;   -0,500
369,919;   14,857;   -1,538;    0,409
370,512;   25,751;   -1,083;   -0,500
371,104;  206,863;   -0,901;    1,591
371,696;  211,437;    1,191;   -0,955
372,289;  114,403;    0,373;    1,136
372,881;   84,174;   -2,080;    1,318
373,473;   15,685;   -2,170;    1,136
374,066;   74,172;   -0,169;    0,500
374,658;   67,794;    0,378;    1,136
375,250;   17,441;    0,653;   -1,409
375,842;   51,775;    0,473;   -0,045
376,434;   20,703;   -0,435;   -0,409
377,026;  -12,404;    0,204;   -2,500
377,618;   39,720;   -0,158;   -0,682
378,210;  -18,206;   -0,338;   -1,955
378,802;  -19,505;    0,754;   -0,591
379,394;  338,756;    1,846;    0,682
379,986;   97,404;    1,393;   -0,955
380,578;   18,688;   -0,153;    0,773
381,170;  256,873;   -0,972;    0,045
381,762;  163,575;    0,755;    1,409
382,354;  130,610;   -0,065;   -1,318
382,945;   56,991;   -2,976;    0,318
383,537;    2,971;   -2,705;   -1,955
384,129;    5,201;   -2,160;   -1,136
384,721;  111,179;   -0,252;    0,955
385,312;   55,738;   -0,161;   -0,955
385,904;  121,051;   -2,706;    1,591
386,496;   58,173;   -0,979;    1,045
387,087;  177,499;    1,022;    2,500
387,679;  115,368;   -1,160;    0,045
388,270;   87,424;    2,840;    2,045
388,862;   62,766;    1,295;   -0,318
389,453;   62,091;   -0,887;    1,045
390,045;   56,520;   -0,705;   -2,682
390,636;  -39,483;    0,204;   -0,591
391,227;   26,667;   -0,523;   -0,045
391,819;   -1,212;    0,204;    0,773
392,410;  226,238;    1,022;    0,045
393,001;   56,885;   -0,979;   -1,591
393,593;  111,969;    1,930;   -0,045
394,184;  152,493;    1,385;   -0,409
394,775;   45,958;    1,839;    2,136
395,366;  -37,644;    1,385;    0,773
395,957;  123,416;    0,113;    0,136
396,548;   18,045;   -0,342;    2,682
397,139;  123,889;   -2,433;    0,591
397,730;   52,450;   -1,888;    0,955
398,321;   67,744;   -1,252;    0,955
398,912;   14,110;   -0,615;    0,136
399,503;    3,709;   -3,524;   -1,409
400,094;   57,779;    0,294;    1,682
400,685;   43,736;   -0,433;    0,045
401,276;    1,123;    0,930;   -0,955
401,867;  -19,331;   -0,888;    0,773
402,458;  -55,056;   -2,251;   -2,318
403,048;   69,842;    1,112;    0,591
403,639;   31,740;    0,840;    0,864
404,230;  122,384;    2,476;    0,318
404,821;  173,709;   -0,615;    0,045
405,411;  101,750;    1,203;   -2,591
406,002;   18,203;   -1,252;   -1,136
406,592;  216,391;    2,294;    0,045
407,183;   85,036;    0,566;   -1,500
407,774;   79,287;    3,475;   -0,136
408,364;   28,844;    0,930;    0,409
408,954;  132,298;    0,384;    1,227
409,545;  129,704;    1,021;    1,045
410,135;  106,304;    1,293;    0,500
410,726;   56,252;    1,838;    0,318
411,316;  225,559;    0,111;    0,773
411,906;   75,997;   -0,253;   -0,409
412,497;   85,642;   -1,070;   -0,045
413,087;   38,483;   -1,980;   -0,227
413,677;  -28,541;   -0,707;    3,864
414,267;  -28,600;    0,656;    1,409
414,857;  -46,322;   -2,980;    4,227
415,448;  -48,290;    0,839;    0,500
416,038;  -22,700;    0,020;   -0,591
416,628;   30,956;   -0,889;    0,409
417,218;   68,367;    0,565;    3,318
417,808;  215,463;    0,202;   -0,409
418,398;  102,656;    0,020;    2,682
418,988;   -6,168;    2,020;    0,591
419,578;   86,893;   -0,707;    1,409
420,168;   15,787;   -1,343;   -0,955
420,757;  152,917;   -1,343;   -1,500
421,347;   54,790;    0,111;   -0,227
421,937;   26,313;    2,292;    1,409
422,527;  153,128;    0,838;   -0,773
423,116;  279,242;   -0,253;   -0,045
423,706;   26,939;   -1,889;    0,318
424,296;  -14,850;    1,384;    0,682
424,885;   97,695;   -0,071;   -3,045
425,475;   74,935;    1,474;   -2,864
426,065;  -21,101;   -0,980;   -0,318
426,654;  -37,636;   -0,435;   -0,318
427,244;  197,176;    0,020;    1,409
427,833;  176,004;    1,383;   -0,500
428,423;   61,859;   -0,526;    1,136
429,012;   59,473;   -0,344;   -1,136
429,601;  179,390;   -1,344;    0,136
430,191;   72,423;    1,292;    4,318
430,780;  -18,013;   -0,344;   -0,409
431,369;  153,557;    0,746;   -0,045
431,959;   44,238;   -1,254;    0,500
432,548;   -4,506;   -1,163;   -0,045
433,137;  -58,587;   -1,254;   -1,318
433,726;    4,724;    0,292;    0,500
434,315;   24,570;   -0,526;    2,409
434,905;  132,751;   -1,254;    1,409
435,494;  123,698;    0,746;    0,955
436,083;   -0,646;   -0,981;   -0,955
436,672;   85,637;    0,110;    0,500
437,261;   35,115;    0,292;   -1,955
437,850;  255,505;    1,383;    0,682
438,439;  304,951;    3,291;    1,955
439,027;  409,928;    3,655;    1,773
439,616;  339,031;    2,927;    1,227
440,205;  119,913;    0,200;   -2,136
440,794;   71,869;    2,109;   -0,045
441,383;   14,122;   -1,346;   -0,591
441,971;  -14,093;   -2,436;    0,591
442,560;   -2,775;    0,563;   -1,773
443,149;  -85,597;    0,379;   -1,318
443,737;  -41,471;   -0,074;   -2,318
444,326;  -19,272;    0,018;    0,318
444,915;   23,370;   -1,982;    0,864
445,503;   32,255;   -2,891;   -0,318
446,092;  276,686;    0,382;    2,136
446,680;  210,199;    0,382;    0,318
447,269;  118,045;   -0,346;   -0,318
447,857;   99,123;    0,018;   -1,773
448,445;   61,321;    0,563;    1,318
449,034;    9,069;   -1,528;   -1,136
449,622;   17,054;   -1,073;    3,500
450,210;  267,712;    2,017;    2,227
450,799;  192,431;    0,290;   -0,591
451,387;  160,615;    1,381;   -0,591
451,975;  146,772;    2,654;    0,864
452,563;  217,458;    3,472;    2,318
453,151;   60,044;   -0,528;   -1,227
453,739;   91,705;   -1,347;    0,136
454,328;  195,229;    2,381;   -2,136
454,916;  132,844;    2,562;   -0,136
455,504;  155,265;    1,017;    1,227
456,092;   37,477;    0,017;   -1,591
456,679;   13,408;    1,472;    0,682
457,267;  407,850;    4,017;    1,045
457,855;   94,744;    1,017;    1,409
458,443;  -36,327;   -0,165;    1,682
459,031;  115,888;    0,108;    2,409
459,619;   74,775;   -1,801;    2,864
460,206;  -18,237;    0,835;    2,045
460,794;  -19,411;   -2,983;   -0,227
461,382;   20,822;   -0,529;   -0,864
461,970;   35,680;    1,198;    1,864
462,557;  -26,812;   -0,711;   -0,682
463,145;   78,047;   -3,165;   -1,682
463,732;  311,408;    2,016;   -1,045
464,320;   92,182;   -0,075;   -3,045
464,907;  224,739;    2,743;   -0,773
465,495;  143,573;    0,743;   -1,227
466,082;   62,705;   -1,984;   -0,045
466,670;   88,738;   -2,529;    1,227
467,257;   -8,041;   -1,711;    2,045
467,844;   91,674;   -0,075;    0,045
468,432;   63,915;    0,834;    3,500
469,019;   19,581;    0,925;   -1,773
469,606;  104,147;    0,470;    3,682
470,193;  137,516;   -1,439;    0,227
470,780;   89,269;   -2,075;    0,864
471,368;   20,674;   -1,257;   -0,773
471,955;  125,257;    1,379;   -0,682
472,542;   80,092;    0,652;   -1,136
473,129;  -18,582;   -0,166;    0,136
473,716;  -12,416;    1,470;    0,591
474,303;   23,646;    0,652;   -0,864
474,890;   27,182;   -1,439;   -0,500
475,477;  118,425;   -1,621;    0,409
476,064;   27,192;    1,106;   -1,591
476,650;  144,382;    0,288;    0,318
477,237;   56,564;   -0,258;    0,955
477,824;   42,322;   -1,076;    0,864
478,411;  -40,258;   -1,894;   -0,318
478,997;  -47,223;    0,560;   -0,773
479,584;  -89,859;    1,196;   -0,409
480,171;   71,313;   -0,440;   -0,773
480,757;  126,862;    2,651;    0,773
481,344;   25,168;    0,469;    0,409
481,931;  -56,834;    1,105;    1,045
482,517;   64,471;   -1,258;    0,318
483,104;  141,389;    1,106;    2,864
483,690;   17,437;   -1,804;    0,045
484,276;   -5,852;   -0,895;    0,227
484,863;  189,879;    2,469;    1,136
485,449;   45,618;   -0,077;    0,318
486,035;    8,677;   -1,986;   -0,136
486,622;   88,886;   -0,895;    0,045
487,208;   13,024;    1,378;    1,500
487,794;  -56,858;    0,741;    0,318
488,380;  -50,336;    0,105;   -1,409
488,967;  -56,166;   -1,168;   -0,409
489,553;  -41,639;   -1,895;   -1,409
490,139;   34,216;    1,559;    0,773
490,725;  -33,310;    0,741;   -0,227
491,311;   10,736;    3,287;    3,045
491,897;   -3,398;   -0,986;    1,500
492,483;    5,149;    0,105;    1,227
493,069;  409,610;    3,923;    0,864
493,655;  146,364;    1,650;    0,682
494,241;   21,955;    1,377;   -0,955
494,826;   29,284;    0,287;   -1,045
495,412;   86,673;    2,559;   -0,682
495,998;   -0,328;   -0,805;   -0,318
496,584;   61,247;    0,377;    1,045
497,169;   77,791;    1,014;   -0,682
497,755;   17,251;    0,650;    1,227
498,341;  137,715;    0,559;    0,318
498,926;  255,097;    1,832;    1,955
499,512;   10,266;    1,286;    2,955
500,097;   11,297;    0,195;   -0,318
500,683;   33,287;   -0,350;    2,136
501,268;  -19,716;   -0,169;   -0,955
501,854;    9,178;   -0,169;    1,227
502,439;   -2,222;   -0,624;   -1,773
503,024;   15,220;    0,195;    0,500
503,610;   35,015;   -0,078;   -0,682
504,195;   -5,207;    0,558;    1,955
504,780;   80,772;    2,922;    1,227
505,366;  159,767;    3,013;    2,864
505,951;   87,031;    0,740;    1,045
506,536;   21,415;   -3,260;   -3,682
507,121;   73,703;    0,285;   -0,318
507,706;   31,206;    2,376;    1,045
508,291;  -22,983;    2,649;    1,136
508,876;  -32,925;   -0,988;    2,591
509,461;   16,284;   -0,169;   -0,773
510,046;   46,821;    0,194;    0,318
510,631;   62,428;   -0,351;   -0,773
511,216;   -7,525;    2,467;   -0,500
511,801;   42,529;   -0,442;    2,591
512,386;   54,197;    0,740;    0,500
512,971;   66,888;   -2,988;    0,955
513,555;   88,770;   -0,897;   -1,500
514,140;   45,241;   -0,442;   -3,136
514,725;  161,122;   -0,715;   -1,136
515,309;   72,935;   -0,533;    0,318
515,894;    5,469;   -0,624;   -2,227
516,479;   37,871;   -0,624;   -0,955
517,063;   36,455;    0,376;    1,227
517,648;   -4,148;    1,012;   -1,136
518,232;  -32,459;   -0,261;   -1,409
518,817;   44,578;   -0,079;    1,682
519,401;  137,820;    2,194;    0,591
519,985;  123,389;    1,103;    1,136
520,570;   18,975;    0,830;   -1,955
521,154;  101,295;    2,102;    0,591
521,738;  244,895;   -2,352;    2,409
522,323;  111,835;   -0,170;    1,682
522,907;  147,367;    0,466;   -0,136
523,491;   95,778;    0,557;    0,955
524,075;   99,088;    2,284;    0,591
524,659;  331,084;    1,466;    0,591
525,243;  315,234;    1,739;    0,409
525,827;  311,503;    0,648;   -0,045
526,411;  379,902;   -1,989;   -0,136
526,995;  601,461;   -0,352;    1,409
527,579;  781,841;   -0,443;   -1,045
528,163;  795,001;    0,375;   -1,500
528,747; 1095,982;    2,466;   -0,773
529,331; 1167,624;   -0,080;   -1,409
529,915; 1079,726;    1,738;    0,955
530,499; 1406,973;   -0,807;    1,227
531,082; 1714,960;   -0,534;    1,591
531,666; 1931,746;    1,374;    0,773
532,250; 2162,746;    1,284;    2,682
532,833; 2581,701;    0,920;    2,773
533,417; 2684,789;   -1,807;    0,864
534,001; 2965,634;    1,647;   -0,318
534,584; 3500,269;    0,374;    0,500
535,168; 3690,843;    0,465;    1,409
535,751; 4191,485;    0,647;    0,045
536,334; 4115,538;   -0,898;   -0,409
536,918; 4752,061;    0,011;    1,591
537,501; 5070,225;   -0,899;    1,318
538,085; 5424,488;   -0,444;    1,045
538,668; 5777,070;    0,829;    2,409
539,251; 6408,016;    1,829;    3,773
539,834; 6718,619;    0,101;    0,773
540,418; 7010,153;   -1,990;    4,318
541,001; 7331,969;   -0,990;    1,773
541,584; 7513,363;    2,101;    2,227
542,167; 7561,031;    1,374;    2,955
542,750; 7818,110;    1,919;   -0,773
543,333; 7695,340;    0,555;    2,136
543,916; 8525,043;    0,192;    2,500
544,499; 9073,966;   -1,354;    0,227
545,082; 9332,625;    1,374;    3,591
545,665; 9654,855;    1,919;    1,500
546,248;10025,431;    1,010;   -0,318
546,830; 9884,295;   -0,445;    1,955
547,413;10419,759;    1,010;   -0,773
547,996;10977,820;    0,555;    0,500
548,579;10872,370;    0,919;    0,955
549,161;10898,119;    1,828;    2,682
549,744;10774,669;   -0,809;    0,409
550,326;11291,459;   -0,809;   -1,136
550,909;11301,506;    2,737;    0,591
551,492;11719,999;   -0,263;    0,227
552,074;11619,781;   -0,173;   -1,318
552,657;12203,105;    2,373;    0,045
553,239;12099,669;   -0,173;   -0,773
553,821;12106,228;   -1,082;    1,045
554,404;11724,184;    1,282;    1,136
554,986;12139,649;    0,464;    1,045
555,568;12672,668;    1,191;   -0,955
556,151;12094,705;    1,191;   -0,227
556,733;12322,721;   -0,264;   -0,864
557,315;12799,627;    0,100;    0,500
557,897;12610,386;    0,554;   -0,500
558,479;12753,019;   -1,991;    1,318
559,061;12946,590;   -0,719;   -0,864
559,643;13290,765;   -0,264;    0,045
560,225;13596,418;    1,645;    2,864
560,807;13663,310;    0,918;    0,318
561,389;13262,563;    0,554;    2,318
561,971;13956,929;    0,463;    2,136
562,553;13833,692;   -1,628;    1,591
563,135;13969,761;   -0,537;    1,136
563,717;13668,931;    3,372;    1,136
564,298;14264,087;    3,645;   -0,045
564,880;14059,356;    0,645;   -1,409
565,462;14178,356;    0,645;    1,318
566,043;15222,035;   -0,446;    2,318
566,625;14851,504;    1,918;    1,227
567,207;14720,519;    1,099;    1,682
567,788;15696,811;   -1,264;    1,500
568,370;16400,883;    1,917;   -0,500
568,951;16216,958;    0,190;    0,227
569,533;16979,228;   -0,628;   -0,500
570,114;17358,568;   -0,446;    0,682
570,695;17814,738;   -0,174;   -1,318
571,277;18201,566;   -0,265;   -1,682
571,858;18818,826;    2,008;   -1,136
572,439;19579,895;    1,554;   -1,045
573,021;19671,436;    2,099;   -2,773
573,602;20064,985;   -1,265;    0,318
574,183;20895,320;   -2,083;    2,227
574,764;20956,155;   -1,629;    0,409
575,345;21417,452;    0,917;   -0,136
575,926;21856,810;   -0,356;    0,136
576,507;21837,909;    1,099;   -0,227
577,088;22867,520;    3,099;    1,682
577,669;22921,495;    0,735;    1,955
578,250;23672,865;    0,644;   -1,045
578,831;24169,899;   -1,356;   -2,227
579,412;24346,532;   -0,810;    0,955
579,993;25088,191;    1,008;    0,227
580,573;25390,566;   -0,629;   -0,955
581,154;24457,961;    0,735;   -0,591
581,735;25373,939;    0,644;    0,773
582,315;24901,120;   -0,629;    2,136
582,896;25101,246;   -0,174;    1,227
583,477;24610,994;    0,189;    1,227
584,057;24865,984;    0,553;    0,955
584,638;25170,191;    2,553;    2,318
585,218;25232,921;   -0,538;    2,682
585,799;25348,334;    0,281;   -0,227
586,379;25277,065;    0,372;    1,591
586,959;24211,734;    0,735;    0,318
587,540;23622,320;   -0,629;    2,227
588,120;23334,036;    1,007;   -0,045
588,700;22571,118;    2,553;    2,136
589,281;22989,151;    0,462;   -0,955
589,861;22896,545;    0,099;   -1,682
590,441;22731,577;    2,371;   -2,682
591,021;21824,842;   -0,265;   -2,591
591,601;22071,463;   -0,537;    0,500
592,181;22156,364;   -0,719;   -0,773
592,761;21531,654;    0,007;    1,409
593,341;21487,996;   -0,901;    0,045
593,921;21546,585;   -0,265;    1,591
594,501;21471,760;   -0,538;    1,318
595,081;21303,639;    0,917;   -0,318
595,661;21684,093;   -1,447;    0,955
596,240;22173,034;   -0,537;    0,136
596,820;21882,150;    0,372;    1,955
597,400;21955,434;    2,008;    0,773
597,980;22149,265;    2,008;    1,045
598,559;22224,295;    2,735;   -0,227
599,139;21940,936;   -0,174;   -1,227
599,718;21856,027;   -0,174;   -0,409
600,298;22174,957;    0,735;    0,682
600,877;22465,222;    2,917;    1,409
601,457;22629,065;    2,281;    1,136
602,036;22614,569;    0,190;    2,045
602,616;22758,007;    0,644;    1,682
603,195;23116,988;   -0,355;    3,500
603,774;22679,968;   -0,901;    2,045
604,354;22485,186;    0,826;   -0,500
604,933;22123,052;    0,463;    1,864
605,512;22237,209;    3,554;    0,591
606,091;22276,335;   -0,537;    3,773
606,671;23033,661;    0,281;    0,773
607,250;22289,178;    1,644;    3,136
607,829;22501,689;    2,372;    3,227
608,408;22406,157;    1,190;    2,591
608,987;21503,509;    1,281;    3,409
609,566;21756,351;   -1,265;   -2,500
610,145;21947,699;   -1,082;    0,682
610,723;22330,849;    4,372;    6,864
611,302;21620,274;   -0,446;    1,682
611,881;21217,341;    5,008;   11,227
612,460;21979,909;    1,645;    3,955
613,039;22340,948;   -0,082;    2,045
613,617;21154,293;    1,736;    4,773
614,196;21363,389;    1,099;    1,227
614,775;21718,496;    1,009;    2,409
615,353;21621,537;    0,736;    0,864
615,932;21475,651;    0,100;    2,409
616,510;21995,965;    0,554;    0,591
617,089;21634,218;    7,100;   17,591
617,667;21430,727;    2,372;    6,136
618,246;21286,470;   -1,537;    1,318
618,824;21438,660;   -3,355;   -0,955
619,402;21023,009;   -2,900;   -1,773
619,981;21493,649;   -0,173;   -1,045
620,559;21366,116;    0,009;    1,682
621,137;20960,823;   -0,718;    1,864
621,715;20985,519;   -1,173;   -0,682
622,293;20936,812;   -0,537;   -0,773
622,871;21321,718;   -0,718;    0,500
623,450;20982,956;    0,373;   -0,864
624,028;20884,701;    0,191;   -0,955
624,606;20570,520;   -1,718;    1,682
625,183;20920,059;   -1,536;   -1,136
625,761;20629,164;    1,009;    1,136
626,339;20964,969;    1,373;    2,591
626,917;21260,100;   -0,172;   -0,045
627,495;21265,901;   -0,354;    1,318
628,073;20769,232;   -0,263;    2,864
628,650;20509,591;    0,100;    2,136
629,228;20943,220;    0,373;    4,409
629,806;20397,926;    2,282;    1,136
630,383;20583,416;    1,464;   -0,318
630,961;20436,679;    2,555;   -0,955
631,539;20209,692;    2,464;    0,227
632,116;19734,860;   11,373;   15,409
632,694;20186,842;    2,555;    6,500
633,271;20456,779;    0,828;    2,682
633,848;20459,034;    1,828;    2,045
634,426;20419,897;   -1,081;    1,773
635,003;19618,113;    1,101;   -0,409
635,580;19933,261;    1,192;    3,682
636,158;20447,381;    3,737;    1,227
636,735;20408,259;    0,555;   -0,500
637,312;20519,755;   -0,809;   -0,682
637,889;20608,397;   -4,354;   -0,682
638,466;20189,256;   -3,990;   -0,409
639,043;20185,968;    2,101;   -1,136
639,620;20444,594;   -2,262;   -0,955
640,197;20750,837;    1,100;    1,682
640,774;20888,301;   -0,172;    1,136
641,351;21279,674;    0,737;    1,136
641,928;20795,320;   -0,627;    1,409
642,505;20504,329;    0,828;   -0,500
643,082;20590,702;   -1,718;    1,227
643,658;19653,985;   -0,718;    1,500
644,235;20335,540;    1,191;    2,500
644,812;20616,004;    1,918;    0,773
645,388;20387,195;   -0,991;    1,409
645,965;20476,205;   -0,809;    1,682
646,542;20538,305;   -1,445;   -0,227
647,118;20606,405;    1,009;   -0,955
647,695;20869,051;   -0,263;    1,136
648,271;20761,152;   -0,536;    0,500
648,848;20995,343;    0,736;    2,227
649,424;20876,716;    0,827;    1,318
650,000;20631,544;   -0,354;   -1,045
650,577;20453,463;   -0,627;   -0,955
651,153;20808,381;   -1,809;    0,955
651,729;21733,573;    1,191;    0,864
652,305;22323,400;    0,645;    2,773
652,881;26683,228;   -0,082;    1,136
653,458;32238,147;    1,100;    0,227
654,034;34750,065;    0,282;    1,591
654,610;35665,711;    0,554;    0,773
655,186;36779,175;    0,645;    3,045
655,762;36422,185;   -0,991;    0,409
656,338;36471,376;    0,100;    0,136
656,913;37387,113;   -0,082;    0,409
657,489;36698,850;    0,827;   -0,318
658,065;36711,768;   -0,173;   -1,591
658,641;37361,142;   -0,900;   -0,864
659,217;36743,969;   -0,991;    0,409
659,792;36217,706;    0,645;   -0,409
660,368;36441,807;   -2,173;   -0,682
660,944;35934,998;   -2,082;    1,227
661,519;31300,280;   -0,628;    0,409
662,095;26379,290;   -1,719;    0,591
662,670;23120,299;    1,281;   -0,136
663,246;22502,309;    1,009;   -0,409
663,821;22058,318;    0,281;    1,682
664,396;21565,146;    0,009;    1,864
664,972;21813,883;    0,009;   -0,500
665,547;22136,529;    1,372;    0,136
666,122;22194,084;   -1,082;    0,318
666,698;22435,002;   -0,173;    0,318
667,273;21808,194;   -0,173;    0,136
667,848;22541,112;    2,372;    1,500
668,423;22372,849;    2,190;    2,318
668,998;22798,677;    2,827;   -0,682
669,573;23354,595;   -3,264;   -1,500
670,148;23213,605;   -1,446;   -0,682
670,723;22983,433;   -1,810;    0,318
671,298;23334,260;    2,372;    1,045
671,873;23398,815;   -0,082;   -0,136
672,448;23348,461;    0,645;    0,136
673,023;23634,289;   -1,992;   -0,227
673,597;24002,480;    0,827;    2,318
674,172;23816,944;   -0,355;    0,318
674,747;23272,409;    0,372;   -1,045
675,321;23039,782;   -0,628;    3,318
675,896;22676,791;    0,645;    1,045
676,471;23616,528;    2,645;    1,591
677,045;23346,810;   -1,264;    0,682
677,620;23354,456;    0,190;    1,136
678,194;23659,829;   -2,628;    1,136
678,769;23344,566;   -1,083;   -0,318
679,343;23601,394;   -0,628;    1,773
679,917;23519,767;   -1,446;    1,955
680,492;23541,867;    0,826;    3,227
681,066;23633,150;    3,372;    0,409
681,640;23712,159;    1,463;   -0,318
682,214;24454,714;    0,735;    0,500
682,788;24069,906;   -1,356;   -0,773
683,363;23936,370;   -1,810;    1,682
683,937;23620,288;   -1,719;   -0,318
684,511;24291,934;    0,463;   -0,591
685,085;24072,580;   -1,356;    0,318
685,659;23797,044;   -2,538;    0,864
686,232;24125,963;   -0,356;   -0,318
686,806;23817,154;   -0,901;    0,409
687,380;24380,800;   -0,174;    0,591
687,954;24530,082;   -1,174;    1,136
688,528;24271,274;   -0,719;    1,955
689,101;25016,192;   -3,992;    1,045
689,675;24644,565;   -0,356;   -0,136
690,249;24045,848;   -0,719;    0,409
690,822;24395,948;    0,280;    0,318
691,396;24541,321;   -0,265;    1,227
691,969;23988,422;    1,280;    0,136
692,543;24385,068;   -0,447;   -1,955
693,116;24079,895;   -0,265;   -1,409
693,690;23976,450;    0,099;    0,500
694,263;24500,005;   -1,083;    2,955
694,836;24520,924;    1,371;    3,591
695,410;23268,661;   -0,265;    1,773
695,983;23716,761;    0,189;    0,591
696,556;23671,498;   -0,447;   -1,045
697,129;24053,508;   -0,356;    1,409
697,703;23723,972;   -1,629;    1,955
698,276;23715,345;    1,462;   -0,773
698,849;23558,173;    1,280;    1,409
699,422;23898,182;   -1,083;    0,591
699,995;23640,464;    0,007;    0,136
700,568;24069,474;   -0,629;    3,045
701,140;24054,938;   -2,811;    1,682
701,713;23846,220;   -0,174;    2,409
702,286;23646,412;   -0,538;    0,864
702,859;23495,967;   -0,902;   -0,591
703,432;22819,885;    0,825;    0,682
704,004;23185,713;    0,462;    0,318
704,577;23074,541;   -0,629;    0,136
705,150;23609,277;    0,189;    2,500
705,722;23376,378;   -0,356;   -3,227
706,295;23235,478;   -0,175;   -0,591
706,867;23111,761;   -0,175;    1,955
707,440;23382,952;   -1,720;   -0,409
708,012;23628,871;    0,462;    0,591
708,584;23496,062;    2,462;    0,227
709,157;23718,344;    1,825;   -0,591
709,729;23412,535;    2,280;    2,045
710,301;24178,363;    0,734;    0,045
710,874;24181,464;   -1,447;   -0,227
711,446;23073,019;    0,371;    0,864
712,018;22993,119;    0,098;    0,500
712,590;22815,856;   -1,993;    1,682
713,162;23296,502;    0,825;    1,318
713,734;23526,420;    1,825;   -2,045
714,306;23422,157;   -1,902;   -0,409
714,878;22208,621;    0,825;    0,864
715,450;23055,904;    0,643;    0,864
716,022;23245,822;    1,552;    1,318
716,593;23391,377;    0,189;    0,591
717,165;23366,023;   -3,175;   -1,227
717,737;23136,669;    0,280;    0,409
718,309;22790,769;    0,280;   -0,045
718,880;22730,233;   -0,539;   -1,409
719,452;22934,243;   -0,175;   -1,591
720,024;22570,162;    0,734;   -0,591
720,595;23116,898;   -2,902;    0,955
721,167;22720,544;    0,370;   -2,045
721,738;22331,099;   -0,812;   -1,045
722,309;22331,109;   -0,993;   -1,227
722,881;22081,300;   -1,357;    0,773
723,452;22670,037;   -2,630;    2,864
724,023;22844,865;   -0,721;    2,682
724,595;22610,238;    0,007;    0,682
725,166;22341,520;    0,007;   -0,409
725,737;22068,257;    1,734;    0,227
726,308;22181,812;   -0,266;    0,318
726,879;22583,185;   -1,630;    1,227
727,450;22424,831;    0,552;   -0,045
728,021;22389,022;    3,097;    0,682
728,592;22199,577;    0,734;    0,500
729,163;22559,041;    0,643;   -0,136
729,734;22571,415;    0,188;   -0,227
730,305;22887,242;    1,734;    0,136
730,876;23178,252;    0,188;    2,955
731,447;22926,443;    2,188;    2,682
732,017;23023,180;    1,097;    1,864
732,588;22543,644;    0,734;    1,227
733,159;22769,108;    0,643;   -1,045
733,729;22553,936;    0,006;    0,409
734,300;21906,218;    0,915;    0,864
734,870;22240,773;    3,461;    0,591
735,441;22753,964;    0,370;   -0,591
736,011;22580,610;    0,643;   -1,591
736,582;22488,620;   -0,812;    0,045
737,152;21945,811;   -1,721;   -2,045
737,722;22396,821;   -0,267;   -0,682
738,293;22090,376;   -1,358;    1,318
738,863;22089,840;    2,461;    2,318
739,433;21969,122;    5,279;    0,318
740,003;22505,950;   -0,994;   -0,682
740,573;22008,414;    2,097;   -1,591
741,143;21942,969;   -1,085;    0,318
741,713;22616,615;    1,188;   -0,500
742,283;22384,079;    0,915;    1,591
742,853;22179,634;    1,915;    1,591
743,423;21648,916;    1,733;    0,045
743,993;21755,107;   -0,358;    1,500
744,563;21229,390;    0,097;   -0,864
745,133;21185,490;   -0,812;   -0,864
745,702;21782,863;   -0,267;    1,773
746,272;21112,600;   -0,176;    0,591
746,842;20938,610;   -1,358;   -0,591
747,411;21321,983;   -0,267;   -0,318
747,981;21426,356;    0,097;    0,500
748,551;21458,366;    2,278;   -1,045
749,120;21374,193;    0,642;   -0,227
749,690;21690,476;   -0,631;    2,409
750,259;21990,576;    1,369;    2,955
750,828;21910,858;    1,551;   -1,955
751,398;22122,595;    1,278;   -0,045
751,967;21743,241;    2,187;    0,409
752,536;21876,705;   -0,813;   -0,227
753,105;22307,805;    0,096;    0,227
753,675;22074,451;    0,096;    1,773
754,244;22037,279;   -0,904;    3,591
754,813;22059,652;    0,551;    1,227
755,382;21669,298;    0,460;    0,955
755,951;22200,035;    1,551;    3,682
756,520;21758,954;   -0,085;    1,864
757,089;22320,872;    0,278;    0,500
757,658;22377,427;    1,733;    1,227
758,227;22392,255;    1,096;    0,318
758,795;22662,628;    1,187;    1,136
759,364;22913,547;   -0,086;   -0,591
759,933;22001,374;   -1,176;   -0,045
760,501;21514,748;    0,733;   -1,318
761,070;21926,303;   -2,813;   -1,409
761,639;22659,767;   -1,904;    1,318
762,207;22044,503;    1,551;   -0,955
762,776;21988,877;    0,369;    0,864
763,344;21970,068;   -0,995;    0,591
763,913;20973,623;   -0,722;    1,409
764,481;21740,905;    1,005;   -0,136
765,049;21617,824;   -1,358;    1,409
765,618;21475,197;   -0,086;    0,318
766,186;21551,570;    0,278;    0,136
766,754;21721,762;    0,005;    1,864
767,322;20837,680;   -1,995;    0,409
767,890;20828,962;   -0,722;   -1,773
768,459;21258,699;   -2,177;   -0,318
769,027;21417,345;    1,641;    3,409
769,595;20421,264;    3,278;    2,591
770,163;20826,546;    3,823;    2,955
770,730;20625,465;    0,732;   -0,136
771,298;20482,565;    0,187;   -1,409
771,866;20592,575;   -1,541;    4,955
772,434;20901,220;   -0,631;   -1,864
773,002;21035,685;    0,005;    0,682
773,569;20773,330;    0,914;    1,682
774,137;20612,613;   -0,268;   -0,045
774,705;21305,986;    0,278;   -0,136
775,272;20851,814;    0,641;    0,682
775,840;20672,096;   -0,177;    2,682
776,407;20231,651;    0,277;    1,955
776,975;19825,751;   -0,632;    0,318
777,542;20767,579;   -1,086;   -0,045
778,110;20606,498;   -1,268;   -0,045
778,677;20293,598;   -2,359;   -0,864
779,244;20070,789;    2,186;    1,045
779,812;20217,254;    1,823;    0,864
780,379;20085,990;    0,005;    1,136
780,946;20293,273;    1,005;   -0,773
781,513;20609,464;   -1,450;    0,318
782,080;20042,019;   -0,086;    2,864
782,647;20713,938;   -0,268;    3,045
783,214;20399,311;   -0,177;    3,864
783,781;20031,684;   -0,723;   -0,682
784,348;19836,057;   -0,632;    1,500
784,915;20255,794;   -3,177;    0,318
785,482;20090,531;    1,368;    2,591
786,049;20476,722;    0,186;   -0,591
786,615;20584,368;    0,277;   -0,955
787,182;20344,196;    0,186;   -0,682
787,749;20057,387;   -2,814;    1,409
788,315;19454,760;   -1,632;   -0,409
788,882;19713,497;    1,550;   -1,227
789,448;20442,506;    1,732;   -0,955
790,015;20391,607;    1,095;    3,227
790,581;19999,071;    1,459;    0,227
791,148;19883,171;    0,641;    1,045
791,714;20033,908;   -0,541;    3,136
792,280;19797,100;    0,186;    1,591
792,847;19407,836;    0,550;    2,500
793,413;19840,937;   -0,269;   -0,318
793,979;19499,037;    3,459;   -1,318
794,545;19626,410;    4,459;    2,682
795,111;19101,511;    2,186;    1,318
795,678;19264,793;    0,731;   -1,682
796,244;18947,894;    3,368;    0,136
796,810;19413,721;    1,731;    0,773
797,375;19152,913;    0,549;   -2,136
797,941;19164,104;   -0,541;    0,591
798,507;19307,568;   -0,451;   -0,955
799,073;18846,123;   -0,360;    0,591
799,639;18922,587;   -2,632;    3,136
800,205;18952,142;    0,095;    2,682
800,770;18554,152;    0,640;    1,773
801,336;18603,798;    1,368;   -0,955
801,901;18410,898;    4,549;    3,136
802,467;18953,453;   -0,542;    2,045
803,033;18276,008;   -0,087;    0,864
803,598;18460,199;    1,913;   -1,045
804,163;18540,300;    1,095;   -0,318
804,729;18496,037;   -0,178;    1,136
805,294;18806,683;    0,822;    2,227
805,859;18634,147;    0,731;   -0,409
806,425;18211,883;    1,186;    2,682
806,990;17896,257;    2,186;    4,318
807,555;18288,448;   -1,451;    2,591
808,120;18238,912;    0,822;   -0,409
808,685;18292,194;    0,185;   -2,500
809,250;17852,567;    0,004;   -0,500
809,815;18077,213;    1,913;    0,682
810,380;18577,405;   -0,269;    1,591
810,945;19082,596;   -1,087;    2,045
811,510;18302,333;    2,094;    1,591
812,075;18067,615;   -0,633;   -1,409
812,640;18099,170;    2,003;    1,409
813,204;18150,543;    0,822;   -0,227
813,769;18635,189;    2,094;   -0,045
814,334;18104,835;    0,458;    0,864
814,898;18138,026;    0,367;    0,591
815,463;17952,036;    1,276;   -0,773
816,027;17980,682;   -0,724;   -2,318
816,592;18102,600;    0,640;   -2,045
817,156;17673,065;    2,094;    1,136
817,721;17597,347;    4,276;    2,318
818,285;17555,447;    2,912;    1,500
818,849;18092,457;   -1,451;    1,682
819,414;17949,466;   -0,269;    2,955
819,978;17548,839;   -1,269;    1,773
820,542;18138,394;    2,003;    0,500
821,106;17896,859;   -0,815;    0,682
821,670;18023,777;   -0,815;    2,591
822,234;17726,059;   -0,270;    1,409
822,798;17148,523;    0,003;    0,500
823,362;17148,351;   -0,633;    4,227
823,926;16565,724;    0,094;    1,136
824,490;16771,370;   -0,997;   -0,682
825,054;17169,107;   -0,088;   -1,136
825,618;16852,753;   -1,542;   -1,500
826,181;16811,672;    0,458;   -1,318
826,745;16789,227;    1,367;   -1,045
827,309;17106,327;    1,185;    1,318
827,872;16567,427;    1,367;    0,955
828,436;17455,346;    1,185;   -0,773
828,999;17534,628;   -0,997;    1,227
829,563;16414,092;   -0,179;    1,136
830,126;16260,466;   -0,179;   -0,591
830,690;16323,021;   -1,997;    2,864
831,253;15833,303;   -0,543;    2,227
831,816;16010,131;   -1,906;    0,500
832,380;15965,686;    0,185;    0,864
832,943;16210,604;   -1,361;   -0,500
833,506;15709,250;    2,639;   -1,227
834,069;16451,896;    3,912;   -0,955
834,632;16525,269;    1,730;    1,318
835,195;16416,006;    1,003;    0,955
835,758;15690,015;   -0,997;    1,955
836,321;15533,661;    0,730;   -1,045
836,884;15634,216;   -0,725;   -0,955
837,447;15659,953;   -2,816;    1,773
838,010;15952,054;    0,366;    3,227
838,573;16211,700;   -1,179;    0,773
839,135;16154,073;   -1,361;   -0,955
839,698;15664,628;    1,275;    0,409
840,261;15222,183;    1,003;   -0,227
840,823;15084,738;   -0,543;    0,864
841,386;15330,474;   -0,452;   -2,409
841,948;15308,848;   -1,361;    1,773
842,511;15020,675;    0,912;    1,682
843,073;15167,139;    1,912;    0,227
843,636;14956,876;   -0,361;   -0,227
844,198;14919,158;    0,911;    0,591
844,760;15015,713;    1,093;    1,955
845,322;14661,905;    0,548;    1,136
845,885;15112,642;    0,730;    0,591
846,447;15541,015;   -1,998;    0,227
847,009;15182,570;    1,911;   -0,682
847,571;15414,579;    0,820;   -2,045
848,133;15528,225;   -1,089;   -1,864
848,695;15355,507;   -0,543;    1,409
849,257;14948,699;   -1,089;   -1,682
849,819;15162,072;   -0,998;   -0,409
850,381;15127,263;   -0,725;   -0,864
850,942;15482,727;    1,093;   -0,591
851,504;15470,010;    1,184;    0,227
852,066;15428,928;    1,275;   -1,591
852,628;15041,392;   -0,180;    1,955
853,189;14577,493;    1,638;    2,682
853,751;14745,321;   -0,907;    1,409
854,312;14572,421;   -0,453;   -1,682
854,874;15035,885;   -2,089;   -0,773
855,435;15479,349;   -0,907;   -1,682
855,997;15682,813;   -1,816;   -0,136
856,558;15041,823;    0,366;    1,773
857,119;15111,287;    0,820;    2,864
857,681;14780,115;    0,002;    0,318
858,242;14863,760;    1,911;   -2,136
858,803;15273,861;    0,456;   -0,773
859,364;15791,234;    0,184;   -4,773
859,925;15163,789;   -2,453;   -0,955
860,486;15072,344;   -0,453;   -0,955
861,047;14814,899;   -0,544;   -1,227
861,608;14654,818;   -1,089;   -0,773
862,169;14800,009;    0,638;   -0,045
862,730;14551,655;    0,456;    1,409
863,291;14813,755;   -0,635;   -0,500
863,852;15132,765;   -0,635;    1,955
864,412;14615,229;   -0,271;   -0,864
864,973;13338,875;   -0,089;    0,500
865,534;13251,612;   -1,726;    0,227
866,094;14581,712;    1,820;    0,227
866,655;14298,722;    1,274;    3,318
867,215;14576,277;    0,274;    0,136
867,776;14405,195;    0,547;   -0,136
868,336;14508,023;   -1,453;    0,136
868,897;14114,487;    2,638;    1,682
869,457;13806,769;    1,365;    0,318
870,017;14018,597;    0,547;   -1,227
870,578;14535,788;   -0,817;    0,773
871,138;14190,162;   -2,089;   -0,955
871,698;13755,262;   -0,817;   -1,318
872,258;13680,272;   -0,453;   -2,864
872,818;14045,372;    2,729;    0,045
873,378;13997,472;    0,638;    1,045
873,938;13569,482;    0,547;    0,500
874,498;13877,401;    0,274;   -1,955
875,058;13827,046;    2,183;    1,773
875,618;13653,147;    1,910;   -2,682
876,177;13608,156;    1,274;    0,136
876,737;13250,620;   -0,090;    1,955
877,297;13343,266;    0,183;    1,955
877,856;13373,821;   -0,362;    0,318
878,416;13283,104;    1,183;   -0,136
878,976;13527,113;   -1,817;    0,409
879,535;13639,850;    0,092;    3,136
880,095;13438,587;   -0,544;    0,045
880,654;13562,142;   -1,090;    1,318
881,213;13721,060;    2,456;    1,500
881,773;13338,888;    2,637;    2,682
882,332;13704,898;    3,365;    5,136
882,891;13541,180;    3,092;    2,136
883,451;13951,189;   -1,272;    1,682
884,010;13386,472;   -2,908;   -0,409
884,569;13483,572;   -0,999;   -0,045
885,128;13652,673;    2,819;   -1,864
885,687;13735,955;    4,455;    0,682
886,246;13460,783;    1,455;    2,136
886,805;13207,974;    2,455;    2,045
887,364;13415,893;   -0,999;   -0,500
887,922;13778,993;   -1,181;    0,045
888,481;13335,730;   -1,545;    0,591
889,040;13596,376;    1,183;    2,136
889,599;14162,203;    2,455;    1,409
890,157;14226,577;    1,455;    2,409
890,716;13892,950;   -0,090;    0,227
891,274;13721,505;    0,092;   -1,136
891,833;14138,060;    1,546;    0,864
892,391;14036,342;   -0,454;    0,500
892,950;14081,352;    1,819;   -0,773
893,508;14429,725;    0,455;   -0,409
894,067;13803,007;    0,637;    0,136
894,625;13660,653;   -0,636;   -1,500
895,183;13843,571;   -0,363;   -0,682
895,741;13838,036;    1,728;   -1,773
896,299;13664,409;   -0,545;   -2,409
896,858;13840,418;    0,819;   -1,591
897,416;13970,428;    2,728;   -1,318
897,974;13722,801;    1,819;    0,318
898,532;13946,901;    6,091;    2,682
899,089;13807,456;    2,091;   -0,682
899,647;13831,466;   -1,454;    1,318
900,205;13603,839;    1,182;    1,045
900,763;13773,849;   -0,454;    0,227
901,321;13809,858;    2,364;   -1,409
901,878;13253,686;   -1,000;   -0,773
902,436;13189,968;   -1,363;    1,318
902,994;13643,978;    4,728;    3,682
903,551;13085,987;    0,728;    0,409
904,109;13433,997;    0,182;   -1,409
904,666;13028,643;    2,455;    1,045
905,224;12920,561;    0,182;   -0,409
905,781;12726,116;    0,727;   -0,318
906,338;12760,126;   -1,363;    1,045
906,895;12702,863;    0,637;    2,045
907,453;12645,963;    1,727;    1,136
908,010;12650,791;   -0,909;    0,409
908,567;12375,891;    1,273;    0,591
909,124;11883,992;    0,364;   -1,500
909,681;11960,456;   -2,909;    0,682
910,238;12133,465;    0,636;   -1,318
910,795;12415,202;   -0,273;   -1,136
911,352;12102,384;   -2,909;   -2,682
911,909;11640,475;   -1,364;   -0,864
912,466;12102,747;   -3,182;    1,500
913,022;11629,111;   -1,636;    0,500
913,579;11970,929;   -0,909;    2,045
914,136;11685,657;    1,636;    0,955
914,692;11997,384;    0,091;   -1,227
915,249;11660,657;    1,455;    0,409
915,806;11875,384;    0,182;    1,955
916,362;11693,929;    1,909;    1,864
916,918;11276,384;    2,000;    1,045
917,475;11304,747;   -1,182;    0,955
918,031;11325,202;    3,364;   -0,045
918,587;10834,111;   -0,909;   -0,318
919,144;11056,747;   -2,273;    0,227
919,700;11348,747;    1,727;    0,773
920,256;10966,111;    0,727;    0,045
920,812;10632,657;   -0,727;   -1,045
921,368;10666,929;   -1,727;   -1,045
921,924;10332,111;    0,182;   -0,136
922,480; 9980,566;   -0,545;    1,227
923,036;10578,566;    1,273;    1,955
923,592;10521,838;    0,455;    0,318
924,148;10478,475;    0,455;   -0,955
924,704; 9874,929;   -1,364;   -0,409
925,259;10079,020;   -0,273;    0,591
925,815; 9913,929;    1,455;    0,500
926,371; 9493,838;    2,909;    1,409
926,926; 9409,293;    2,091;    0,591
927,482; 9112,657;   -1,364;    0,773
928,037; 9014,020;    0,909;    2,045
928,593; 9324,657;    1,636;    1,045
929,148; 9150,747;   -1,818;   -1,500
929,704; 8679,384;   -1,455;   -0,500
930,259; 8873,929;    0,091;   -0,136
930,814; 8090,020;   -0,818;    1,955
931,369; 7801,111;    1,091;   -0,773
931,925; 7701,747;   -0,091;    0,136
932,480; 7644,747;   -2,818;   -2,591
933,035; 7598,566;    0,545;   -0,318
933,590; 7439,111;    0,364;   -1,773
934,145; 7100,475;   -1,364;   -0,318
934,700; 7370,384;    0,455;   -0,591
935,255; 7237,475;   -0,091;    0,045
935,809; 6728,384;    3,182;    0,864
936,364; 5926,838;   -0,455;   -0,136
936,919; 5953,475;    0,455;   -1,773
937,474; 5838,384;    1,455;    0,136
938,028; 5647,566;   -1,636;    1,136
938,583; 5261,838;    1,818;    4,682
939,138; 5486,747;    2,091;    2,136
939,692; 4969,747;    1,636;   -1,136
940,247; 4762,838;   -0,727;   -1,045
940,801; 4450,293;   -0,636;    0,227
941,355; 4351,838;   -0,364;    2,591
941,910; 4016,929;   -0,273;   -2,136
942,464; 4136,384;   -0,818;   -0,318
943,018; 4041,747;    1,000;   -0,227
943,572; 3969,747;    2,545;   -0,682
944,126; 3519,020;    0,091;   -0,409
944,681; 3404,202;    3,091;    0,227
945,235; 3378,202;    1,000;   -0,591
945,789; 3323,020;    0,364;   -1,864
946,342; 3491,475;    0,455;   -0,591
946,896; 3262,202;   -2,273;    0,955
947,450; 3026,293;    1,545;   -0,227
948,004; 3299,111;    1,727;   -0,045
948,558; 3236,384;    0,273;   -0,864
949,111; 3170,657;   -0,273;   -0,318
949,665; 3281,929;    1,636;   -0,682
950,219; 3162,202;   -0,091;   -1,045
950,772; 3200,384;   -1,909;    1,864
951,326; 3121,384;    0,545;   -0,955
951,879; 3180,384;    0,727;   -2,318
952,433; 3218,838;    0,000;    2,227
952,986; 3040,293;    2,909;    0,682
953,539; 3003,475;   -0,273;    0,591
954,093; 2971,838;    0,545;   -1,318
954,646; 3106,202;    0,909;    1,318
955,199; 2912,747;    0,000;   -0,500
955,752; 2866,384;   -0,455;    1,773
956,305; 2799,747;   -0,091;    2,955
956,858; 2944,929;    0,818;   -0,318
957,411; 3093,566;   -0,545;    2,136
957,964; 2937,747;    1,364;    2,136
958,517; 2912,293;   -1,545;    3,136
959,070; 2793,747;   -0,455;    1,955
959,623; 2935,202;    1,091;    1,500
960,176; 2712,202;    1,727;    2,045
960,728; 2704,020;   -2,727;    0,773
961,281; 2741,566;    0,545;    0,500
961,834; 2764,475;   -0,909;    0,864
962,386; 2662,475;    1,727;    1,045
962,939; 2622,929;    0,364;   -0,318
963,491; 2727,202;    0,455;    1,136
964,043; 2614,838;    1,182;    2,409
964,596; 2770,293;   -1,000;    2,227
965,148; 2612,293;   -1,000;    1,773
965,700; 2507,747;    1,091;   -0,227
966,253; 2660,475;   -0,636;    0,318
966,805; 2531,566;   -2,273;    0,773
967,357; 2553,475;    1,091;   -1,500
967,909; 2567,020;    0,455;   -1,227
968,461; 2608,838;    0,545;    3,136
969,013; 2543,293;   -0,182;   -0,864
969,565; 2647,384;   -0,455;   -1,136
970,117; 2820,202;   -0,364;    1,045
970,669; 2566,747;    0,182;   -0,136
971,220; 2395,020;   -0,455;   -1,500
971,772; 2348,020;   -0,636;   -0,318
972,324; 2488,384;    0,091;   -0,500
972,876; 2403,747;    0,818;   -0,045
973,427; 2570,566;    1,909;   -1,045
973,979; 2558,566;   -0,727;   -2,500
974,530; 2520,566;    1,818;    1,318
975,082; 2529,657;   -0,545;    1,682
975,633; 2460,657;    1,091;    1,682
976,184; 2604,293;    0,909;    0,773
976,736; 2430,929;    0,091;    0,227
977,287; 2283,657;   -0,909;   -0,500
977,838; 2411,475;    0,909;   -0,318
978,389; 2467,747;   -1,000;   -0,500
978,940; 2307,657;    0,545;   -0,409
979,491; 2338,566;    0,091;   -0,500
980,042; 2330,293;    0,182;    3,045
980,593; 2361,475;   -2,545;    0,227
981,144; 2435,747;    2,545;   -0,500
981,695; 2453,566;    1,455;    1,500
982,246; 2396,384;   -0,273;    1,045
982,797; 2478,657;   -1,727;    0,682
983,347; 2589,566;    0,364;    0,591
983,898; 2792,020;    3,091;    0,409
984,449; 2629,475;    2,182;    0,773
984,999; 2491,202;    1,455;   -1,136
985,550; 2322,293;    0,182;   -0,318
986,100; 2303,020;   -0,455;   -0,318
986,651; 2323,202;   -0,818;    0,045
987,201; 2309,111;   -1,000;   -0,591
987,751; 2383,202;    0,818;    2,864
988,302; 2399,929;    2,636;    1,500
988,852; 2422,566;    0,455;   -1,136
989,402; 2491,293;    0,091;    0,682
989,952; 2437,929;   -2,182;    0,864
990,502; 2454,657;   -0,091;    0,682
991,052; 2393,384;   -0,727;    0,045
991,602; 2302,566;   -2,909;    1,318
992,152; 2321,111;    0,455;    0,682
992,702; 2307,111;    1,364;   -0,045
993,252; 2236,475;   -3,000;   -0,500
993,802; 2349,475;   -0,273;    1,318
994,352; 2506,020;   -1,545;    1,136
994,901; 2534,020;   -0,182;    3,227
995,451; 2468,929;   -0,182;    0,318
996,000; 2559,657;    1,636;    0,318
996,550; 2328,657;    2,273;    0,227
997,100; 2345,020;    1,273;   -0,045
997,649; 2620,384;    2,182;    0,955
998,198; 2279,747;    1,727;   -1,500
998,748; 2475,657;    1,091;   -2,318
999,297; 2346,747;   -0,818;   -0,409
999,846; 2447,929;    1,000;   -0,773
1000,395; 2439,566;   -0,818;    0,500
1000,945; 2468,657;    1,818;   -0,773
1001,494; 2555,747;    2,364;    0,682
1002,043; 2521,202;    4,636;    0,864
1002,592; 2322,202;   -1,091;    1,955
1003,141; 2461,929;   -0,455;   -0,682
1003,690; 2382,475;    1,727;    0,500
1004,238; 2404,020;    1,455;   -0,045
1004,787; 2076,838;    1,364;    1,227
1005,336; 2347,111;    0,364;    0,682
1005,885; 2441,838;    1,364;   -2,773
1006,433; 2539,566;    0,545;    0,955
1006,982; 2668,384;    0,455;    1,682
1007,531; 2524,293;   -1,818;   -0,227
1008,079; 2457,020;   -2,273;    0,500
1008,627; 2552,020;   -1,455;    0,409
1009,176; 2341,657;    0,000;   -1,955
1009,724; 2388,202;    1,091;    0,864
1010,273; 2488,566;    1,273;    0,500
1010,821; 2516,566;    0,091;    1,409
1011,369; 2287,838;   -1,364;    1,318
1011,917; 2288,293;   -1,364;   -0,591
1012,465; 2541,657;    1,273;   -1,591
1013,013; 2619,929;    2,091;   -1,682
1013,561; 2569,929;    0,455;   -0,773
1014,109; 2632,657;   -1,909;    1,682
1014,657; 2485,838;    0,364;    0,591
1015,205; 2556,747;    1,636;   -0,955
1015,753; 2554,838;   -0,545;   -1,409
1016,301; 2606,747;   -2,636;    3,045
1016,848; 2618,293;   -1,273;    0,409
1017,396; 2675,384;    2,545;    0,045
1017,944; 2767,838;    1,182;    1,864
1018,491; 2545,747;    0,273;    1,409
1019,039; 2788,747;    0,455;    0,591
1019,586; 2602,293;   -1,364;    1,682
1020,134; 2666,838;    0,455;    1,500
1020,681; 2702,475;    0,182;   -1,136
1021,228; 2677,657;    2,909;   -2,227
1021,776; 2521,475;    1,182;   -1,136
1022,323; 2791,475;    0,455;    0,773
1022,870; 2713,747;   -1,000;   -0,045
1023,417; 2646,929;    2,636;    1,864
1023,964; 2703,384;    2,636;    1,227
1024,511; 2584,384;    1,000;    0,773
1025,058; 2414,475;    3,182;   -0,045
1025,605; 2460,747;   -2,273;    3,136
1026,152; 2703,929;    1,727;   -0,591
1026,699; 2436,747;    1,818;    1,318
1027,245; 2572,657;   -0,091;    0,318
1027,792; 2687,929;   -1,000;    1,409
1028,339; 2672,293;    2,364;   -0,045
1028,885; 2512,929;    1,000;   -0,227
1029,432; 2458,293;   -0,091;    0,227
1029,978; 2557,475;   -1,000;   -1,591
1030,525; 2452,657;    1,000;    0,409
1031,071; 2620,111;   -1,364;    1,136
1031,618; 2820,202;    0,364;    1,682
1032,164; 2575,202;   -0,091;    3,045
1032,710; 2619,657;    1,636;   -1,500
1033,256; 2526,657;   -0,636;   -0,136
1033,803; 2459,475;   -0,545;    1,500
1034,349; 2213,020;   -1,364;    0,136
1034,895; 2359,111;    0,000;   -0,318
1035,441; 2356,566;   -0,818;    0,318
1035,987; 2370,747;   -2,364;   -0,682
1036,533; 2407,202;   -1,455;   -0,955
1037,078; 2623,657;    1,455;    1,682
1037,624; 2422,202;    2,455;   -0,955
1038,170; 2409,111;    0,455;   -0,318
1038,716; 2390,747;    1,636;   -0,409
1039,261; 2259,566;   -2,273;   -0,773
1039,807; 2210,929;   -0,091;    3,409
1040,352; 2288,929;   -1,909;   -0,318
1040,898; 2321,020;   -1,545;   -0,682
1041,443; 2218,929;   -1,455;   -2,591
1041,989; 2349,566;    1,091;    1,591
1042,534; 2164,838;   -0,364;    2,591
1043,079; 2217,838;    2,909;    0,955
1043,625; 2088,384;    1,818;    0,500
1044,170; 2151,020;   -1,364;    1,045
1044,715; 2401,566;    2,455;    0,955
1045,260; 2217,293;    2,182;   -0,955
1045,805; 2219,747;    1,182;   -0,591
1046,350; 2149,384;    1,364;   -0,409
1046,895; 2190,929;    2,909;    1,591
1047,440; 2169,657;    5,364;    0,409
1047,985; 2028,657;    2,818;   -0,955
1048,530; 1933,384;    1,545;    1,227
1049,074; 2031,111;    0,000;    0,318
1049,619; 1972,293;   -1,364;    1,955
1050,164; 1807,657;    0,455;    0,227
1050,708; 1865,566;   -0,455;    0,045
1051,253; 2270,747;    1,273;   -2,227
1051,797; 1976,838;    0,818;   -1,318
1052,342; 1931,020;   -1,182;    1,045
1052,886; 1944,929;    0,364;   -1,409
1053,430; 1802,475;   -1,364;    0,136
1053,975; 1840,566;   -0,818;   -0,318
1054,519; 1829,475;   -0,727;    3,227
1055,063; 1898,111;    0,909;    1,318
1055,607; 1795,929;   -0,182;    0,227
1056,151; 1808,202;    2,909;    1,682
1056,695; 1678,111;    2,273;   -1,136
1057,239; 1755,838;   -1,727;   -0,682
1057,783; 1795,657;    0,818;   -1,500
1058,327; 1779,929;    0,000;    1,409
1058,871; 2028,475;   -0,545;    1,318
1059,415; 1754,657;   -0,818;   -0,045
1059,958; 2029,111;    1,455;    2,591
1060,502; 1715,929;   -1,000;   -0,773
1061,046; 1585,202;    0,364;   -0,955
1061,589; 1552,384;   -3,000;   -1,136
1062,133; 1453,293;   -1,273;    1,864
1062,676; 1430,566;    1,182;    0,864
1063,220; 1465,111;    1,091;    0,500
1063,763; 1502,929;    0,909;    1,136
1064,306; 1578,929;   -0,909;    1,864
1064,849; 1478,475;   -0,909;    0,591
1065,393; 1492,475;    2,000;   -1,500
1065,936; 1561,657;    0,182;   -0,409
1066,479; 1425,838;   -1,455;    1,318
1067,022; 1464,475;   -0,273;   -0,227
1067,565; 1373,929;   -0,091;   -1,318
1068,108; 1387,111;    0,727;   -0,591
1068,651; 1341,020;   -0,636;    1,409
1069,194; 1289,747;   -0,455;   -1,682
1069,736; 1304,566;   -1,273;    0,955
1070,279; 1265,657;   -1,364;   -0,500
1070,822; 1358,111;   -2,000;   -0,318
1071,364; 1498,293;   -0,364;    1,318
1071,907; 1290,475;   -0,727;    3,227
1072,450; 1143,929;    0,000;   -0,045
1072,992; 1193,384;   -0,273;    3,136
1073,535; 1346,202;    2,091;    2,136
1074,077; 1131,929;   -0,727;    2,045
1074,619; 1110,111;   -1,364;    0,591
1075,161; 1158,020;   -1,091;    1,500
1075,704; 1356,747;    1,545;    1,227
1076,246; 1114,929;   -0,182;    0,682
1076,788; 1030,657;   -0,364;    1,773
1077,330; 1092,384;    1,273;    2,136
1077,872; 1090,747;    0,909;    0,955
1078,414; 1355,838;    2,727;    0,773
1078,956; 1083,657;    1,273;   -0,227
1079,498; 1353,929;    1,636;    0,318
1080,040; 1066,111;    1,909;   -1,318
1080,581;  971,566;    1,636;   -0,318
1081,123;  887,657;    0,091;   -0,773
1081,665;  950,566;   -1,182;   -0,955
1082,206; 1279,202;    1,364;   -0,500
1082,748; 1125,020;    0,727;    2,045
1083,289;  984,747;   -2,000;    1,318
1083,831;  916,293;   -0,545;    0,227
1084,372;  972,657;    0,000;    0,591
1084,913;  964,747;    1,091;    0,864
1085,455;  917,293;   -1,909;   -2,045
1085,996;  912,838;   -2,273;    0,136
1086,537;  949,838;   -0,091;    0,864
1087,078;  964,838;   -0,909;   -2,136
1087,619; 1016,202;   -1,273;    0,227
1088,160;  924,293;    0,000;    1,318
1088,701;  903,475;   -1,091;    0,682
1089,242;  853,384;    1,364;   -2,227
1089,783;  953,657;   -0,273;    1,409
1090,324;  932,020;    0,455;    0,682
1090,865;  798,929;    2,727;   -0,409
1091,405;  757,747;    0,727;    2,227
1091,946;  795,657;    0,182;   -0,955
1092,487;  719,111;    0,818;   -1,409
1093,027;  904,475;   -1,364;   -1,500
1093,568;  770,020;   -0,364;    1,227
1094,108;  872,293;    0,273;    1,773
1094,649;  794,566;   -1,182;    0,136
1095,189;  727,657;   -0,636;   -0,682
1095,729;  705,293;   -0,091;    0,955
1096,269;  695,929;    0,727;   -0,955
1096,810; 1015,384;   -1,364;    0,500
1097,350;  851,838;    1,364;   -0,773
1097,890;  744,838;    0,364;    1,227
1098,430; 1019,475;    2,364;    2,864
1098,970;  889,657;    2,182;    1,682
1099,510;  725,202;    0,545;   -2,318
1100,050;  654,020;    1,000;   -1,591
1100,589;  640,384;   -0,727;   -0,318
1101,129;  769,929;    0,818;   -0,955
1101,669;  932,838;    1,727;    2,136
1102,209;  756,384;   -0,091;    2,227
1102,748;  706,566;    0,000;    0,955
1103,288;  702,202;    1,273;   -1,227
1103,827;  727,384;    3,091;   -2,227
1104,367;  598,747;   -0,091;   -2,409
1104,906;  574,020;    1,364;   -1,136
1105,445;  652,657;    0,636;   -1,136
1105,985;  611,111;   -0,727;    1,500
1106,524;  641,111;   -1,727;   -0,682
1107,063;  619,747;   -2,727;    1,409
1107,602;  581,202;   -1,909;   -1,500
1108,141;  513,384;   -1,909;    1,500
1108,680;  642,384;   -3,455;   -0,591
1109,219;  563,747;   -0,909;   -0,500
1109,758;  558,293;    0,455;    0,682
1110,297;  535,747;    1,000;   -0,682
1110,836;  484,020;   -0,727;    0,955
1111,375;  645,475;   -2,545;    0,409
1111,913;  675,111;   -1,000;    0,773
1112,452;  595,475;   -0,273;    0,136
1112,991;  477,657;    1,091;    1,955
1113,529;  453,202;   -0,818;   -0,045
1114,068;  525,293;   -0,273;    2,955
1114,606;  423,838;   -0,364;   -0,955
1115,144;  586,566;   -1,273;    1,045
1115,683;  517,111;   -0,727;    0,318
1116,221;  569,293;   -0,455;   -0,864
1116,759;  482,020;    0,636;   -0,864
1117,297;  686,657;    0,000;    1,864
1117,836;  493,293;   -2,182;   -1,227
1118,374;  501,020;    0,182;   -0,682
1118,912;  453,202;    0,909;    2,682
1119,450;  448,111;    1,000;    0,864
1119,988;  495,384;    1,545;    2,136
1120,525;  937,747;    5,091;    3,318
1121,063;  636,838;    1,182;    1,864
1121,601;  458,293;   -0,909;   -1,227
1122,139;  410,384;   -0,727;   -2,045
1122,676;  610,202;   -0,727;    2,773
1123,214;  545,202;   -1,182;    4,409
1123,751;  358,293;    1,727;    2,227
1124,289;  484,111;   -0,091;   -0,409
1124,826;  363,111;    1,727;    0,227
1125,364;  282,566;    1,727;   -0,955
1125,901;  475,111;    1,182;    1,227
1126,438;  576,929;    0,818;    0,955
1126,975;  313,384;   -0,727;   -0,773
1127,513;  388,838;    0,273;    2,136
1128,050;  291,747;    1,636;   -0,682
1128,587;  394,747;    2,000;   -0,227
1129,124;  441,202;    0,091;    1,318
1129,661;  296,657;    0,273;    0,227
1130,198;  473,929;    1,636;    0,773
1130,734;  406,747;    0,182;    1,409
1131,271;  275,657;   -0,909;    0,864
1131,808;  445,475;    2,909;    3,045
1132,345;  322,475;    1,545;    0,318
1132,881;  199,475;   -1,545;   -1,864
1133,418;  346,747;    0,727;   -1,136
1133,954;  277,020;    2,455;   -2,682
1134,491;  352,202;    1,364;   -0,773
1135,027;  243,566;    2,364;    0,864
1135,564;  331,202;    0,273;    2,955
1136,100;  325,929;    0,364;    2,136
1136,636;  201,293;   -1,273;   -1,045
1137,172;  307,384;    0,000;   -1,045
1137,708;  237,929;   -1,364;   -1,045
1138,245;  241,657;    1,273;   -1,227
1138,781;  193,747;    1,091;   -3,318
1139,317;  260,202;    1,273;   -1,409
1139,852;  251,384;    3,091;    0,136
1140,388;  361,202;   -1,182;   -0,409
1140,924;  248,838;   -1,091;   -2,227
1141,460;  186,929;   -1,636;    0,136
1141,996;  127,657;   -1,364;    2,682
1142,531;  182,111;    1,364;    3,318
1143,067;  392,020;    1,182;    1,045
1143,602;  444,747;   -0,091;   -0,318
1144,138;  289,020;   -2,636;    1,045
1144,673;  164,293;   -1,455;    1,409
1145,209;  220,384;   -1,909;   -0,318
1145,744;  146,293;   -0,727;    0,864
1146,279;  293,020;    1,818;   -0,136
1146,815;  201,020;    1,545;   -2,682
1147,350;  242,838;   -1,364;    0,045
1147,885;  162,475;   -0,818;   -1,318
1148,420;  164,384;   -2,273;    0,773
1148,955;  143,657;   -1,727;    1,864
1149,490;  163,384;   -0,909;   -1,591
1150,025;  148,747;    0,455;   -1,773
1150,560;  261,747;    1,091;   -0,955
1151,094;  231,293;    1,455;   -0,591
1151,629;  235,657;    1,636;    0,864
1152,164;  160,747;    1,364;    1,318
1152,698;  122,838;   -0,182;   -0,136
1153,233;   78,657;    0,091;   -0,682
1153,767;  129,202;   -3,000;   -2,318
1154,302;  179,020;   -1,455;    1,773
1154,836;  173,202;   -0,455;   -2,136
1155,371;  233,202;   -1,364;    3,682
1155,905;  176,475;   -0,636;    1,682
1156,439;  147,747;   -0,636;   -0,500
1156,973;  185,566;    0,364;    0,318
1157,507;  124,384;   -0,364;    0,682
1158,042;  153,747;   -0,727;    1,045
1158,576;  198,202;    0,182;    1,773
1159,110;  184,566;   -0,818;    2,409
1159,643;  158,202;    0,636;   -0,045
1160,177;   95,657;   -1,545;    1,500

