
Integration time [ms]:   0,040
Averaging Nr. [scans]: 11
Smoothing Nr. [pixels]: 0
Data measured with spectrometer [name]: 7318044SP
Wave   ;Sample   ;Dark     ;Reference
[nm]   ;[counts] ;[counts] ;[counts] 

186,757;    6,096;   31,551;    1,318
187,357;   27,428;   22,551;    0,955
187,958;    5,344;   15,460;   -1,591
188,558;   41,762;    8,915;   -1,227
189,159;   10,929;    6,733;   -4,500
189,759;  -13,990;    7,278;   -3,591
190,360;   -7,110;    2,824;   -2,136
190,960;   19,916;    2,915;   -4,136
191,560;   32,566;    3,189;   -6,591
192,161;  224,777;    4,372;   -3,500
192,761;   97,331;    4,010;   -3,227
193,361;   45,363;    1,556;   -3,773
193,962;   76,587;    2,010;   -2,682
194,562;    1,844;    1,189;   -3,955
195,162;   17,338;   -2,448;   -2,227
195,762;  127,404;   -3,176;   -0,045
196,362;   87,681;    1,370;   -2,500
196,963;    0,366;    2,006;   -0,864
197,563;   41,020;    1,551;   -0,955
198,163;    0,894;    0,096;   -0,682
198,763;   12,079;    1,733;   -0,500
199,363;   51,373;    3,096;   -0,500
199,963;   28,174;    0,369;    0,409
200,563;   16,554;    2,823;   -1,409
201,163;    0,344;    3,277;   -0,227
201,763;   31,508;    3,732;    0,318
202,363;   -0,195;    1,459;    1,500
202,963;   36,165;    1,459;    1,045
203,563;   80,171;    0,277;    0,500
204,162;   20,567;    2,096;   -1,864
204,762;   11,933;    0,550;    0,591
205,362;   -6,660;    3,004;    1,955
205,962;   11,540;    3,096;    1,955
206,562;   11,316;    1,823;    2,318
207,161;    0,564;   -0,087;    0,318
207,761;   70,978;    1,277;    2,409
208,361;   10,537;   -0,268;    1,409
208,960;   26,713;    0,459;    1,500
209,560;   16,708;    1,277;    1,591
210,160;   35,277;    0,550;    1,864
210,759;    9,450;    4,186;    1,227
211,359;    5,305;    1,459;    1,045
211,958;   92,415;    1,277;    2,045
212,558;  106,049;    1,732;    1,864
213,157;   32,857;    1,822;    1,500
213,757;  163,489;    3,822;   -0,227
214,356;   50,114;    1,277;   -0,409
214,956;  145,424;    3,095;    0,409
215,555;   39,325;    2,095;    2,136
216,154;    9,986;   -2,723;   -0,591
216,754;   10,834;    0,277;    0,773
217,353;   27,845;   -0,268;   -1,045
217,952;  -19,283;   -0,178;    0,318
218,552;   35,066;    1,368;   -0,773
219,151;    4,915;    0,277;    0,955
219,750;   -2,041;    0,004;   -0,227
220,349;  -13,214;   -0,451;    1,045
220,948;   49,488;   -1,360;    1,136
221,548;    4,246;    0,913;    1,227
222,147;   10,254;   -0,087;   -0,409
222,746;   71,351;   -0,451;   -0,955
223,345;   20,368;    0,731;    0,500
223,944;   30,804;   -0,451;    0,773
224,543;   31,177;    1,004;   -1,409
225,142;   10,230;    0,094;    0,136
225,741;   26,767;   -0,814;    1,045
226,340;   16,991;   -0,451;   -0,955
226,939;   62,829;   -0,996;   -0,136
227,538;   13,200;   -0,360;   -0,773
228,137;   73,648;   -0,814;    0,864
228,735;   47,118;   -0,541;    1,227
229,334;  -14,217;   -0,905;   -0,227
229,933;   66,077;    0,459;    0,591
230,532;   65,345;    1,186;   -0,409
231,131;  102,034;    1,732;    0,318
231,729;   49,424;   -2,450;   -2,318
232,328;   13,352;   -0,723;   -1,500
232,927;   17,642;    1,004;   -0,500
233,525;    9,322;    3,640;    0,045
234,124;   24,774;    2,368;   -1,591
234,723;    2,202;    0,913;   -1,045
235,321;   -6,968;    2,277;    0,136
235,920;    0,318;    1,186;   -1,227
236,518;   71,603;    3,459;    0,318
237,117;    5,933;    0,004;   -0,227
237,715;   19,289;    0,640;   -0,500
238,314;   21,028;   -0,087;   -2,318
238,912;   70,053;   -0,723;   -1,409
239,510;   30,294;    0,459;   -1,227
240,109;   79,422;    0,004;    3,773
240,707;   60,868;   -0,996;    1,227
241,305;   -2,573;    0,550;    0,136
241,904;   32,608;   -0,178;   -2,045
242,502;   90,473;   -0,632;   -0,227
243,100;   44,864;   -0,087;   -0,955
243,698;    7,674;    0,732;    1,682
244,297;   18,496;   -0,632;    0,682
244,895;   14,879;   -0,269;   -2,318
245,493;   86,616;    2,186;   -0,591
246,091;   90,013;    1,368;   -1,318
246,689;   45,937;    1,004;    0,591
247,287;   43,381;    0,822;   -1,136
247,885;   21,359;   -1,451;    1,227
248,483;    2,552;    1,822;   -0,500
249,081;   38,872;    0,185;    1,591
249,679;   42,684;   -0,178;    1,682
250,277;    3,189;   -1,723;    0,864
250,875;   46,303;   -1,087;   -1,045
251,473;   15,125;   -1,178;    0,500
252,071;   49,279;    1,459;    1,045
252,669;   20,986;   -1,814;    0,318
253,267;   -0,424;   -0,087;    0,773
253,864;   12,926;   -0,360;    0,682
254,462;   61,949;    1,640;    1,591
255,060;    5,840;   -0,269;    1,318
255,658;    2,713;    0,822;   -0,136
256,255;   15,304;    0,186;   -2,045
256,853;   34,904;   -0,269;    1,409
257,451;    7,736;    0,822;    1,864
258,048;  161,173;    1,822;    1,864
258,646;   64,691;    1,731;   -1,045
259,243;  101,723;   -0,087;    2,227
259,841;   51,764;   -0,814;    0,318
260,438;   16,955;   -0,087;    0,864
261,036;   45,052;   -1,905;    1,409
261,633;    4,411;   -0,087;    2,227
262,231;   -0,217;    2,731;   -0,045
262,828;   -6,481;   -0,905;    1,136
263,425;    5,567;    0,913;   -0,591
264,023;    3,295;    0,186;    0,045
264,620;   43,265;   -0,360;   -0,318
265,217;   82,426;   -2,087;    3,136
265,815;   13,629;   -1,905;    2,136
266,412;   40,215;    0,731;    0,136
267,009;   37,115;   -1,451;    0,773
267,606;   70,236;    0,822;   -0,955
268,203;   13,655;   -0,269;   -0,591
268,801;   12,753;    1,731;    0,591
269,398;   -7,023;   -0,360;    2,500
269,995;   33,246;    0,277;    1,591
270,592;   14,263;   -0,632;   -0,500
271,189;   -6,725;    0,186;    0,409
271,786;  -18,059;   -0,632;    1,227
272,383;   45,568;   -1,087;    0,227
272,980;   16,605;    0,277;    0,318
273,577;   -4,833;    0,004;    1,227
274,174;   -2,684;    0,822;    2,591
274,771;   38,804;   -0,814;   -0,773
275,367;  175,091;    2,277;    1,409
275,964;   79,783;    0,731;   -0,500
276,561;    9,124;    1,549;   -1,045
277,158;  -16,135;    0,095;   -1,773
277,755;   62,599;    2,185;    0,409
278,351;   36,342;   -0,451;   -1,500
278,948;   56,043;   -0,815;    0,045
279,545;   38,700;   -1,360;    2,318
280,141;   67,704;   -1,723;   -2,045
280,738;   80,016;   -0,451;   -0,136
281,334;   16,613;   -1,633;    0,591
281,931;    5,829;   -0,087;   -1,318
282,528;   57,837;    0,822;   -0,500
283,124;   68,130;   -1,087;   -0,500
283,721;   62,251;   -0,451;    1,409
284,317;   19,865;    0,185;    2,500
284,913;   70,197;   -1,360;    0,591
285,510;  122,742;    0,640;   -0,318
286,106;   76,181;   -2,269;   -0,955
286,703;   39,244;   -0,360;    1,955
287,299;   21,128;   -1,451;   -0,591
287,895;   12,927;    0,822;   -1,045
288,491;    2,977;    0,186;    2,136
289,088;   37,728;   -2,360;    2,409
289,684;   41,532;   -1,723;    1,500
290,280;  101,930;    0,368;    0,682
290,876;   75,891;    1,822;    5,500
291,472;   62,527;    1,276;    2,227
292,068;   63,879;    1,367;    0,227
292,665;   24,855;    2,095;    0,773
293,261;    0,609;    0,276;    2,136
293,857;   54,869;    2,913;    2,136
294,453;   29,819;    3,550;    0,955
295,049;   98,044;   -0,268;    1,955
295,644;   47,970;    0,095;    0,136
296,240;   -2,896;   -0,905;   -0,136
296,836;   29,518;   -0,995;    0,318
297,432;   71,445;    1,096;   -0,500
298,028;   61,587;    0,732;    0,773
298,624;   31,929;    1,459;    1,864
299,220;   28,763;    2,368;    0,591
299,815;   19,274;    1,005;   -0,409
300,411;   58,407;    0,914;    1,773
301,007;   78,904;    1,368;    0,227
301,602;   20,282;   -0,541;   -2,318
302,198;   78,415;    0,732;   -0,773
302,794;   27,145;    1,187;   -0,500
303,389;   -2,171;   -1,177;    1,045
303,985;   13,668;    0,550;    1,409
304,580;   71,160;    1,459;    1,591
305,176;   26,836;   -3,086;    0,136
305,771;  -18,998;   -1,268;   -1,227
306,367;  134,783;    4,095;    0,136
306,962;   49,463;    0,641;    1,500
307,558;   66,776;   -0,450;    0,136
308,153;   50,549;    1,095;   -1,136
308,748;    1,612;   -0,814;    1,682
309,344;  120,990;   -0,632;   -1,318
309,939;  117,420;   -1,905;   -1,318
310,534;   33,569;   -0,086;   -1,682
311,130;   17,830;    0,459;   -2,500
311,725;    9,257;    1,004;   -0,500
312,320;   18,045;    2,459;    0,045
312,915;   50,281;    1,459;   -1,045
313,510;  132,359;    1,550;   -0,500
314,105;   23,299;    1,096;    1,409
314,700;   -6,364;   -3,086;   -1,045
315,295;   21,069;   -0,904;    0,045
315,890;    0,675;    1,277;    0,864
316,485;   45,682;   -0,359;   -0,318
317,080;    6,798;   -3,086;    1,591
317,675;  117,121;    2,005;   -0,682
318,270;  211,523;    5,550;    3,318
318,865;  145,447;    3,278;    3,045
319,460;   80,984;   -0,904;    0,591
320,055;   17,645;   -0,541;   -1,227
320,650;   19,329;   -1,995;   -0,591
321,244;   26,207;   -0,177;   -1,409
321,839;   18,592;   -1,541;   -0,227
322,434;   35,590;   -1,086;   -1,591
323,029;   14,202;    1,732;    1,591
323,623;   14,521;    1,550;    0,773
324,218;   93,214;    2,368;    1,409
324,812;   53,949;    1,096;    1,591
325,407;   50,529;   -0,814;    2,045
326,002;  116,474;    0,277;   -0,409
326,596;   75,317;    0,914;    1,318
327,191;   16,275;    0,823;   -1,045
327,785;   16,498;   -0,813;   -0,227
328,379;    7,028;    1,368;    0,136
328,974;   22,962;    0,914;   -3,955
329,568;   44,505;    0,186;   -2,409
330,163;   78,925;    2,096;    1,045
330,757;   19,522;    2,459;    1,591
331,351;   -2,018;    0,459;    0,682
331,945;   -4,113;    0,914;    1,409
332,540;   38,967;   -1,723;   -0,591
333,134;   33,558;   -1,086;    0,773
333,728;   46,033;    0,005;    0,318
334,322;    5,719;   -1,177;   -0,864
334,916;    2,371;    0,277;    0,955
335,510;   59,128;   -0,450;   -0,136
336,105;   42,548;   -1,086;    1,591
336,699;    3,196;   -1,086;    0,591
337,293;   27,648;   -1,723;    0,318
337,887;    2,252;   -2,723;    1,955
338,481;   51,462;    0,459;    0,591
339,074;   91,295;   -0,359;    2,682
339,668;   79,343;   -1,632;    1,227
340,262;  329,932;    1,732;    3,227
340,856;  134,198;    1,822;   -0,682
341,450;   18,858;    1,004;    1,864
342,044;   40,557;    1,459;    0,136
342,637;   80,058;    0,913;   -2,136
343,231;   35,332;   -2,360;    0,682
343,825;   16,302;   -1,086;   -0,591
344,419;   21,254;   -1,995;    0,500
345,012;  259,139;    2,459;    4,045
345,606;  157,929;    4,641;    1,591
346,199;   28,873;   -1,813;   -0,227
346,793;   77,830;    1,914;    2,045
347,386;   16,938;   -0,813;   -1,136
347,980;  -16,967;   -0,268;   -0,045
348,573;   20,334;    2,278;    0,409
349,167;  180,937;    5,278;    4,773
349,760;   94,660;    2,914;    2,682
350,354;   65,832;   -0,813;    1,136
350,947;   85,912;    1,096;    1,682
351,540;   47,876;   -0,358;   -1,409
352,134;    7,776;    1,096;    1,136
352,727;    9,197;   -0,086;    1,136
353,320;   14,728;    0,005;    0,591
353,913;   -6,698;   -1,995;    1,864
354,507;   76,137;    0,823;   -1,227
355,100;   14,316;    0,460;    0,864
355,693;  231,679;    2,005;    2,409
356,286;  103,518;    0,823;    2,773
356,879;   34,449;   -0,722;    1,227
357,472;   44,248;   -0,904;    1,500
358,065;   60,640;   -0,722;    2,500
358,658;    8,191;   -0,540;    2,318
359,251;   -1,111;   -1,631;   -0,591
359,844;   68,230;   -1,904;   -1,136
360,437;   93,534;   -2,995;    0,045
361,030;   25,590;    1,369;   -0,682
361,623;   29,468;    2,824;    0,318
362,215;  145,346;   -0,086;    2,045
362,808;   45,530;   -2,358;   -1,682
363,401;   18,560;   -2,449;    0,136
363,994;  133,667;   -0,631;   -1,500
364,586;   45,665;    0,824;   -1,500
365,179;   27,501;   -0,449;   -1,136
365,772;  -24,980;   -1,995;    2,045
366,364;   23,379;    1,915;   -3,227
366,957;   43,511;    2,279;   -0,045
367,549;   26,531;    2,188;   -0,864
368,142;   37,627;    1,825;   -1,500
368,734;   15,115;    0,734;   -2,136
369,327;  -11,787;    1,643;   -0,500
369,919;   12,856;   -1,538;    0,409
370,512;   21,497;   -1,083;   -0,500
371,104;  197,646;   -0,901;    1,591
371,696;  217,083;    1,191;   -0,955
372,289;  123,439;    0,373;    1,136
372,881;   75,259;   -2,080;    1,318
373,473;    8,083;   -2,170;    1,136
374,066;   78,736;   -0,169;    0,500
374,658;   64,092;    0,378;    1,136
375,250;   12,651;    0,653;   -1,409
375,842;   49,272;    0,473;   -0,045
376,434;   18,558;   -0,435;   -0,409
377,026;   -2,344;    0,204;   -2,500
377,618;   50,890;   -0,158;   -0,682
378,210;  -12,394;   -0,338;   -1,955
378,802;  -19,624;    0,754;   -0,591
379,394;  335,421;    1,846;    0,682
379,986;  101,293;    1,393;   -0,955
380,578;   16,316;   -0,153;    0,773
381,170;  259,641;   -0,972;    0,045
381,762;  171,105;    0,755;    1,409
382,354;  138,608;   -0,065;   -1,318
382,945;   50,727;   -2,976;    0,318
383,537;    5,255;   -2,705;   -1,955
384,129;    2,143;   -2,160;   -1,136
384,721;  109,914;   -0,252;    0,955
385,312;   57,547;   -0,161;   -0,955
385,904;  120,236;   -2,706;    1,591
386,496;   61,010;   -0,979;    1,045
387,087;  170,544;    1,022;    2,500
387,679;  118,971;   -1,160;    0,045
388,270;   94,401;    2,840;    2,045
388,862;   63,827;    1,295;   -0,318
389,453;   55,519;   -0,887;    1,045
390,045;   58,312;   -0,705;   -2,682
390,636;  -42,861;    0,204;   -0,591
391,227;   15,638;   -0,523;   -0,045
391,819;    0,024;    0,204;    0,773
392,410;  224,646;    1,022;    0,045
393,001;   50,717;   -0,979;   -1,591
393,593;  112,521;    1,930;   -0,045
394,184;  151,505;    1,385;   -0,409
394,775;   38,971;    1,839;    2,136
395,366;  -36,070;    1,385;    0,773
395,957;  122,823;    0,113;    0,136
396,548;   22,350;   -0,342;    2,682
397,139;  128,030;   -2,433;    0,591
397,730;   51,479;   -1,888;    0,955
398,321;   55,126;   -1,252;    0,955
398,912;    7,852;   -0,615;    0,136
399,503;   12,179;   -3,524;   -1,409
400,094;   49,424;    0,294;    1,682
400,685;   44,210;   -0,433;    0,045
401,276;   10,510;    0,930;   -0,955
401,867;  -12,315;   -0,888;    0,773
402,458;  -47,304;   -2,251;   -2,318
403,048;   67,582;    1,112;    0,591
403,639;   23,402;    0,840;    0,864
404,230;  120,123;    2,476;    0,318
404,821;  173,270;   -0,615;    0,045
405,411;   92,576;    1,203;   -2,591
406,002;   17,759;   -1,252;   -1,136
406,592;  224,028;    2,294;    0,045
407,183;   98,567;    0,566;   -1,500
407,774;   73,279;    3,475;   -0,136
408,364;   31,022;    0,930;    0,409
408,954;  131,653;    0,384;    1,227
409,545;  131,334;    1,021;    1,045
410,135;   99,921;    1,293;    0,500
410,726;   53,756;    1,838;    0,318
411,316;  222,533;    0,111;    0,773
411,906;   81,144;   -0,253;   -0,409
412,497;   84,532;   -1,070;   -0,045
413,087;   44,463;   -1,980;   -0,227
413,677;  -26,128;   -0,707;    3,864
414,267;  -25,549;    0,656;    1,409
414,857;  -44,364;   -2,980;    4,227
415,448;  -44,495;    0,839;    0,500
416,038;  -10,088;    0,020;   -0,591
416,628;   27,644;   -0,889;    0,409
417,218;   77,594;    0,565;    3,318
417,808;  208,051;    0,202;   -0,409
418,398;   97,607;    0,020;    2,682
418,988;   -9,401;    2,020;    0,591
419,578;   78,304;   -0,707;    1,409
420,168;   16,751;   -1,343;   -0,955
420,757;  149,349;   -1,343;   -1,500
421,347;   45,730;    0,111;   -0,227
421,937;   25,254;    2,292;    1,409
422,527;  160,063;    0,838;   -0,773
423,116;  278,193;   -0,253;   -0,045
423,706;   17,067;   -1,889;    0,318
424,296;  -14,722;    1,384;    0,682
424,885;  100,915;   -0,071;   -3,045
425,475;   68,967;    1,474;   -2,864
426,065;  -24,160;   -0,980;   -0,318
426,654;  -37,077;   -0,435;   -0,318
427,244;  208,206;    0,020;    1,409
427,833;  175,218;    1,383;   -0,500
428,423;   51,423;   -0,526;    1,136
429,012;   49,571;   -0,344;   -1,136
429,601;  175,572;   -1,344;    0,136
430,191;   77,344;    1,292;    4,318
430,780;  -14,177;   -0,344;   -0,409
431,369;  157,649;    0,746;   -0,045
431,959;   54,146;   -1,254;    0,500
432,548;   -3,964;   -1,163;   -0,045
433,137;  -59,050;   -1,254;   -1,318
433,726;    2,265;    0,292;    0,500
434,315;   27,289;   -0,526;    2,409
434,905;  131,907;   -1,254;    1,409
435,494;  119,136;    0,746;    0,955
436,083;   -4,380;   -0,981;   -0,955
436,672;   82,625;    0,110;    0,500
437,261;   37,640;    0,292;   -1,955
437,850;  254,943;    1,383;    0,682
438,439;  306,919;    3,291;    1,955
439,027;  409,346;    3,655;    1,773
439,616;  332,350;    2,927;    1,227
440,205;  114,695;    0,200;   -2,136
440,794;   79,913;    2,109;   -0,045
441,383;   15,701;   -1,346;   -0,591
441,971;   -9,785;   -2,436;    0,591
442,560;   -0,477;    0,563;   -1,773
443,149;  -90,421;    0,379;   -1,318
443,737;  -55,116;   -0,074;   -2,318
444,326;  -21,157;    0,018;    0,318
444,915;   29,942;   -1,982;    0,864
445,503;   39,376;   -2,891;   -0,318
446,092;  280,804;    0,382;    2,136
446,680;  209,856;    0,382;    0,318
447,269;  115,243;   -0,346;   -0,318
447,857;  106,858;    0,018;   -1,773
448,445;   65,508;    0,563;    1,318
449,034;   11,076;   -1,528;   -1,136
449,622;   16,243;   -1,073;    3,500
450,210;  264,883;    2,017;    2,227
450,799;  189,052;    0,290;   -0,591
451,387;  158,414;    1,381;   -0,591
451,975;  144,395;    2,654;    0,864
452,563;  221,998;    3,472;    2,318
453,151;   54,298;   -0,528;   -1,227
453,739;   90,487;   -1,347;    0,136
454,328;  192,472;    2,381;   -2,136
454,916;  131,625;    2,562;   -0,136
455,504;  151,962;    1,017;    1,227
456,092;   44,724;    0,017;   -1,591
456,679;    7,928;    1,472;    0,682
457,267;  389,633;    4,017;    1,045
457,855;   95,431;    1,017;    1,409
458,443;  -36,286;   -0,165;    1,682
459,031;  113,571;    0,108;    2,409
459,619;   72,192;   -1,801;    2,864
460,206;  -18,279;    0,835;    2,045
460,794;  -19,278;   -2,983;   -0,227
461,382;   25,760;   -0,529;   -0,864
461,970;   35,710;    1,198;    1,864
462,557;  -39,690;   -0,711;   -0,682
463,145;   71,901;   -3,165;   -1,682
463,732;  307,521;    2,016;   -1,045
464,320;   91,466;   -0,075;   -3,045
464,907;  232,845;    2,743;   -0,773
465,495;  139,204;    0,743;   -1,227
466,082;   68,262;   -1,984;   -0,045
466,670;   92,567;   -2,529;    1,227
467,257;   -6,489;   -1,711;    2,045
467,844;   91,495;   -0,075;    0,045
468,432;   57,552;    0,834;    3,500
469,019;   22,205;    0,925;   -1,773
469,606;  101,052;    0,470;    3,682
470,193;  130,769;   -1,439;    0,227
470,780;   90,807;   -2,075;    0,864
471,368;   25,568;   -1,257;   -0,773
471,955;  123,609;    1,379;   -0,682
472,542;   82,524;    0,652;   -1,136
473,129;  -23,323;   -0,166;    0,136
473,716;  -13,609;    1,470;    0,591
474,303;   20,362;    0,652;   -0,864
474,890;   23,332;   -1,439;   -0,500
475,477;  128,206;   -1,621;    0,409
476,064;   20,506;    1,106;   -1,591
476,650;  140,707;    0,288;    0,318
477,237;   52,798;   -0,258;    0,955
477,824;   37,917;   -1,076;    0,864
478,411;  -43,933;   -1,894;   -0,318
478,997;  -51,636;    0,560;   -0,773
479,584;  -87,921;    1,196;   -0,409
480,171;   75,529;   -0,440;   -0,773
480,757;  132,611;    2,651;    0,773
481,344;   27,837;    0,469;    0,409
481,931;  -59,199;    1,105;    1,045
482,517;   59,029;   -1,258;    0,318
483,104;  140,508;    1,106;    2,864
483,690;   18,100;   -1,804;    0,045
484,276;   -0,562;   -0,895;    0,227
484,863;  193,630;    2,469;    1,136
485,449;   50,901;   -0,077;    0,318
486,035;    2,231;   -1,986;   -0,136
486,622;  100,085;   -0,895;    0,045
487,208;   21,308;    1,378;    1,500
487,794;  -61,310;    0,741;    0,318
488,380;  -62,791;    0,105;   -1,409
488,967;  -55,820;   -1,168;   -0,409
489,553;  -38,741;   -1,895;   -1,409
490,139;   35,205;    1,559;    0,773
490,725;  -28,051;    0,741;   -0,227
491,311;    9,361;    3,287;    3,045
491,897;   -7,501;   -0,986;    1,500
492,483;   -6,412;    0,105;    1,227
493,069;  411,869;    3,923;    0,864
493,655;  142,706;    1,650;    0,682
494,241;   16,936;    1,377;   -0,955
494,826;   30,001;    0,287;   -1,045
495,412;   85,481;    2,559;   -0,682
495,998;   -3,724;   -0,805;   -0,318
496,584;   62,311;    0,377;    1,045
497,169;   77,396;    1,014;   -0,682
497,755;   15,477;    0,650;    1,227
498,341;  138,320;    0,559;    0,318
498,926;  255,514;    1,832;    1,955
499,512;    9,831;    1,286;    2,955
500,097;    7,240;    0,195;   -0,318
500,683;   27,690;   -0,350;    2,136
501,268;  -20,042;   -0,169;   -0,955
501,854;    7,029;   -0,169;    1,227
502,439;    4,708;   -0,624;   -1,773
503,024;   11,431;    0,195;    0,500
503,610;   40,683;   -0,078;   -0,682
504,195;    0,546;    0,558;    1,955
504,780;   85,354;    2,922;    1,227
505,366;  155,624;    3,013;    2,864
505,951;   83,132;    0,740;    1,045
506,536;   15,064;   -3,260;   -3,682
507,121;   67,266;    0,285;   -0,318
507,706;   28,404;    2,376;    1,045
508,291;  -25,428;    2,649;    1,136
508,876;  -25,394;   -0,988;    2,591
509,461;   11,188;   -0,169;   -0,773
510,046;   52,909;    0,194;    0,318
510,631;   63,432;   -0,351;   -0,773
511,216;  -14,618;    2,467;   -0,500
511,801;   32,995;   -0,442;    2,591
512,386;   45,743;    0,740;    0,500
512,971;   58,967;   -2,988;    0,955
513,555;   86,585;   -0,897;   -1,500
514,140;   47,962;   -0,442;   -3,136
514,725;  148,011;   -0,715;   -1,136
515,309;   73,827;   -0,533;    0,318
515,894;    0,634;   -0,624;   -2,227
516,479;   32,669;   -0,624;   -0,955
517,063;   38,165;    0,376;    1,227
517,648;   -5,167;    1,012;   -1,136
518,232;  -27,954;   -0,261;   -1,409
518,817;   46,537;   -0,079;    1,682
519,401;  135,327;    2,194;    0,591
519,985;  122,990;    1,103;    1,136
520,570;   22,205;    0,830;   -1,955
521,154;   93,337;    2,102;    0,591
521,738;  233,289;   -2,352;    2,409
522,323;  109,880;   -0,170;    1,682
522,907;  140,217;    0,466;   -0,136
523,491;   96,536;    0,557;    0,955
524,075;  102,845;    2,284;    0,591
524,659;  331,030;    1,466;    0,591
525,243;  328,087;    1,739;    0,409
525,827;  313,168;    0,648;   -0,045
526,411;  382,939;   -1,989;   -0,136
526,995;  610,130;   -0,352;    1,409
527,579;  782,131;   -0,443;   -1,045
528,163;  796,375;    0,375;   -1,500
528,747; 1105,085;    2,466;   -0,773
529,331; 1175,366;   -0,080;   -1,409
529,915; 1093,189;    1,738;    0,955
530,499; 1404,527;   -0,807;    1,227
531,082; 1710,433;   -0,534;    1,591
531,666; 1920,108;    1,374;    0,773
532,250; 2152,939;    1,284;    2,682
532,833; 2592,248;    0,920;    2,773
533,417; 2661,516;   -1,807;    0,864
534,001; 2934,626;    1,647;   -0,318
534,584; 3489,978;    0,374;    0,500
535,168; 3668,280;    0,465;    1,409
535,751; 4191,937;    0,647;    0,045
536,334; 4103,987;   -0,898;   -0,409
536,918; 4756,056;    0,011;    1,591
537,501; 5083,214;   -0,899;    1,318
538,085; 5418,020;   -0,444;    1,045
538,668; 5766,329;    0,829;    2,409
539,251; 6364,092;    1,829;    3,773
539,834; 6663,151;    0,101;    0,773
540,418; 6980,037;   -1,990;    4,318
541,001; 7271,220;   -0,990;    1,773
541,584; 7478,866;    2,101;    2,227
542,167; 7504,821;    1,374;    2,955
542,750; 7756,805;    1,919;   -0,773
543,333; 7650,021;    0,555;    2,136
543,916; 8501,371;    0,192;    2,500
544,499; 9025,016;   -1,354;    0,227
545,082; 9263,765;    1,374;    3,591
545,665; 9562,726;    1,919;    1,500
546,248; 9941,112;    1,010;   -0,318
546,830; 9829,069;   -0,445;    1,955
547,413;10349,978;    1,010;   -0,773
547,996;10907,125;    0,555;    0,500
548,579;10808,304;    0,919;    0,955
549,161;10770,780;    1,828;    2,682
549,744;10682,231;   -0,809;    0,409
550,326;11234,656;   -0,809;   -1,136
550,909;11211,152;    2,737;    0,591
551,492;11635,654;   -0,263;    0,227
552,074;11566,423;   -0,173;   -1,318
552,657;12119,747;    2,373;    0,045
553,239;12047,764;   -0,173;   -0,773
553,821;12002,695;   -1,082;    1,045
554,404;11657,918;    1,282;    1,136
554,986;12044,014;    0,464;    1,045
555,568;12607,941;    1,191;   -0,955
556,151;12043,795;    1,191;   -0,227
556,733;12243,633;   -0,264;   -0,864
557,315;12702,253;    0,100;    0,500
557,897;12498,559;    0,554;   -0,500
558,479;12674,737;   -1,991;    1,318
559,061;12903,204;   -0,719;   -0,864
559,643;13233,203;   -0,264;    0,045
560,225;13535,144;    1,645;    2,864
560,807;13542,931;    0,918;    0,318
561,389;13153,726;    0,554;    2,318
561,971;13829,985;    0,463;    2,136
562,553;13743,488;   -1,628;    1,591
563,135;13896,376;   -0,537;    1,136
563,717;13570,365;    3,372;    1,136
564,298;14150,879;    3,645;   -0,045
564,880;13923,403;    0,645;   -1,409
565,462;14064,039;    0,645;    1,318
566,043;15121,005;   -0,446;    2,318
566,625;14765,020;    1,918;    1,227
567,207;14618,209;    1,099;    1,682
567,788;15566,499;   -1,264;    1,500
568,370;16267,742;    1,917;   -0,500
568,951;16061,462;    0,190;    0,227
569,533;16809,263;   -0,628;   -0,500
570,114;17200,807;   -0,446;    0,682
570,695;17637,869;   -0,174;   -1,318
571,277;18005,056;   -0,265;   -1,682
571,858;18675,320;    2,008;   -1,136
572,439;19394,304;    1,554;   -1,045
573,021;19518,276;    2,099;   -2,773
573,602;19956,559;   -1,265;    0,318
574,183;20768,160;   -2,083;    2,227
574,764;20834,542;   -1,629;    0,409
575,345;21270,471;    0,917;   -0,136
575,926;21719,658;   -0,356;    0,136
576,507;21678,664;    1,099;   -0,227
577,088;22704,730;    3,099;    1,682
577,669;22756,243;    0,735;    1,955
578,250;23504,705;    0,644;   -1,045
578,831;23983,361;   -1,356;   -2,227
579,412;24071,552;   -0,810;    0,955
579,993;24933,755;    1,008;    0,227
580,573;25229,674;   -0,629;   -0,955
581,154;24283,890;    0,735;   -0,591
581,735;25152,505;    0,644;    0,773
582,315;24703,778;   -0,629;    2,136
582,896;24885,633;   -0,174;    1,227
583,477;24382,825;    0,189;    1,227
584,057;24643,002;    0,553;    0,955
584,638;24945,300;    2,553;    2,318
585,218;24988,850;   -0,538;    2,682
585,799;25120,811;    0,281;   -0,227
586,379;25166,548;    0,372;    1,591
586,959;24075,483;    0,735;    0,318
587,540;23498,511;   -0,629;    2,227
588,120;23164,488;    1,007;   -0,045
588,700;22396,579;    2,553;    2,136
589,281;22792,169;    0,462;   -0,955
589,861;22741,561;    0,099;   -1,682
590,441;22561,685;    2,371;   -2,682
591,021;21661,497;   -0,265;   -2,591
591,601;21888,676;   -0,537;    0,500
592,181;22007,851;   -0,719;   -0,773
592,761;21338,840;    0,007;    1,409
593,341;21318,018;   -0,901;    0,045
593,921;21365,522;   -0,265;    1,591
594,501;21350,600;   -0,538;    1,318
595,081;21159,395;    0,917;   -0,318
595,661;21537,390;   -1,447;    0,955
596,240;22028,429;   -0,537;    0,136
596,820;21686,370;    0,372;    1,955
597,400;21807,460;    2,008;    0,773
597,980;21957,481;    2,008;    1,045
598,559;22026,685;    2,735;   -0,227
599,139;21847,597;   -0,174;   -1,227
599,718;21738,052;   -0,174;   -0,409
600,298;21974,256;    0,735;    0,682
600,877;22286,892;    2,917;    1,409
601,457;22471,469;    2,281;    1,136
602,036;22444,964;    0,190;    2,045
602,616;22584,314;    0,644;    1,682
603,195;22951,939;   -0,355;    3,500
603,774;22479,007;   -0,901;    2,045
604,354;22326,407;    0,826;   -0,500
604,933;21935,357;    0,463;    1,864
605,512;22119,337;    3,554;    0,591
606,091;22198,835;   -0,537;    3,773
606,671;22909,702;    0,281;    0,773
607,250;22179,218;    1,644;    3,136
607,829;22343,920;    2,372;    3,227
608,408;22195,930;    1,190;    2,591
608,987;21354,840;    1,281;    3,409
609,566;21640,921;   -1,265;   -2,500
610,145;21786,483;   -1,082;    0,682
610,723;22125,541;    4,372;    6,864
611,302;21468,518;   -0,446;    1,682
611,881;21081,037;    5,008;   11,227
612,460;21833,786;    1,645;    3,955
613,039;22207,651;   -0,082;    2,045
613,617;21043,432;    1,736;    4,773
614,196;21217,175;    1,099;    1,227
614,775;21543,382;    1,009;    2,409
615,353;21484,973;    0,736;    0,864
615,932;21340,449;    0,100;    2,409
616,510;21871,942;    0,554;    0,591
617,089;21488,380;    7,100;   17,591
617,667;21285,253;    2,372;    6,136
618,246;21142,273;   -1,537;    1,318
618,824;21297,280;   -3,355;   -0,955
619,402;20858,265;   -2,900;   -1,773
619,981;21357,820;   -0,173;   -1,045
620,559;21192,109;    0,009;    1,682
621,137;20756,904;   -0,718;    1,864
621,715;20838,507;   -1,173;   -0,682
622,293;20776,439;   -0,537;   -0,773
622,871;21163,980;   -0,718;    0,500
623,450;20830,592;    0,373;   -0,864
624,028;20735,149;    0,191;   -0,955
624,606;20413,154;   -1,718;    1,682
625,183;20795,517;   -1,536;   -1,136
625,761;20484,895;    1,009;    1,136
626,339;20795,328;    1,373;    2,591
626,917;21094,750;   -0,172;   -0,045
627,495;21134,549;   -0,354;    1,318
628,073;20635,796;   -0,263;    2,864
628,650;20331,053;    0,100;    2,136
629,228;20806,131;    0,373;    4,409
629,806;20240,297;    2,282;    1,136
630,383;20500,249;    1,464;   -0,318
630,961;20339,958;    2,555;   -0,955
631,539;20064,435;    2,464;    0,227
632,116;19608,231;   11,373;   15,409
632,694;20107,219;    2,555;    6,500
633,271;20325,352;    0,828;    2,682
633,848;20338,782;    1,828;    2,045
634,426;20291,747;   -1,081;    1,773
635,003;19488,615;    1,101;   -0,409
635,580;19800,856;    1,192;    3,682
636,158;20279,963;    3,737;    1,227
636,735;20268,377;    0,555;   -0,500
637,312;20414,683;   -0,809;   -0,682
637,889;20507,613;   -4,354;   -0,682
638,466;20079,217;   -3,990;   -0,409
639,043;20050,578;    2,101;   -1,136
639,620;20324,931;   -2,262;   -0,955
640,197;20604,951;    1,100;    1,682
640,774;20732,323;   -0,172;    1,136
641,351;21080,695;    0,737;    1,136
641,928;20679,431;   -0,627;    1,409
642,505;20299,803;    0,828;   -0,500
643,082;20400,993;   -1,718;    1,227
643,658;19528,820;   -0,718;    1,500
644,235;20211,283;    1,191;    2,500
644,812;20472,928;    1,918;    0,773
645,388;20240,754;   -0,991;    1,409
645,965;20311,581;   -0,809;    1,682
646,542;20428,771;   -1,445;   -0,227
647,118;20470,689;    1,009;   -0,955
647,695;20687,334;   -0,263;    1,136
648,271;20595,251;   -0,536;    0,500
648,848;20894,350;    0,736;    2,227
649,424;20723,904;    0,827;    1,318
650,000;20460,549;   -0,354;   -1,045
650,577;20319,830;   -0,627;   -0,955
651,153;20691,384;   -1,809;    0,955
651,729;21593,575;    1,191;    0,864
652,305;22220,401;    0,645;    2,773
652,881;26525,137;   -0,082;    1,136
653,458;32056,782;    1,100;    0,227
654,034;34537,336;    0,282;    1,591
654,610;35440,708;    0,554;    0,773
655,186;36592,444;    0,645;    3,045
655,762;36179,452;   -0,991;    0,409
656,338;36223,551;    0,100;    0,136
656,913;37212,560;   -0,082;    0,409
657,489;36506,023;    0,827;   -0,318
658,065;36544,486;   -0,173;   -1,591
658,641;37162,949;   -0,900;   -0,864
659,217;36566,139;   -0,991;    0,409
659,792;36033,057;    0,645;   -0,409
660,368;36261,792;   -2,173;   -0,682
660,944;35742,619;   -2,082;    1,227
661,519;31143,264;   -0,628;    0,409
662,095;26279,000;   -1,719;    0,591
662,670;22981,190;    1,281;   -0,136
663,246;22370,926;    1,009;   -0,409
663,821;21898,934;    0,281;    1,682
664,396;21452,124;    0,009;    1,864
664,972;21702,587;    0,009;   -0,500
665,547;22001,868;    1,372;    0,136
666,122;22027,422;   -1,082;    0,318
666,698;22271,522;   -0,173;    0,318
667,273;21696,985;   -0,173;    0,136
667,848;22408,720;    2,372;    1,500
668,423;22185,820;    2,190;    2,318
668,998;22663,737;    2,827;   -0,682
669,573;23219,746;   -3,264;   -1,500
670,148;23062,391;   -1,446;   -0,682
670,723;22767,399;   -1,810;    0,318
671,298;23161,317;    2,372;    1,045
671,873;23241,325;   -0,082;   -0,136
672,448;23233,334;    0,645;    0,136
673,023;23518,797;   -1,992;   -0,227
673,597;23838,896;    0,827;    2,318
674,172;23655,450;   -0,355;    0,318
674,747;23126,186;    0,372;   -1,045
675,321;22873,103;   -0,628;    3,318
675,896;22499,112;    0,645;    1,045
676,471;23464,847;    2,645;    1,591
677,045;23215,492;   -1,264;    0,682
677,620;23248,319;    0,190;    1,136
678,194;23550,145;   -2,628;    1,136
678,769;23218,154;   -1,083;   -0,318
679,343;23515,617;   -0,628;    1,773
679,917;23334,625;   -1,446;    1,955
680,492;23340,088;    0,826;    3,227
681,066;23482,097;    3,372;    0,409
681,640;23553,833;    1,463;   -0,318
682,214;24248,750;    0,735;    0,500
682,788;23833,668;   -1,356;   -0,773
683,363;23791,312;   -1,810;    1,682
683,937;23507,866;   -1,719;   -0,318
684,511;24184,238;    0,463;   -0,591
685,085;23938,883;   -1,356;    0,318
685,659;23616,892;   -2,538;    0,864
686,232;23952,264;   -0,356;   -0,318
686,806;23724,363;   -0,901;    0,409
687,380;24268,281;   -0,174;    0,591
687,954;24421,744;   -1,174;    1,136
688,528;24138,298;   -0,719;    1,955
689,101;24890,942;   -3,992;    1,045
689,675;24463,951;   -0,356;   -0,136
690,249;23916,778;   -0,719;    0,409
690,822;24280,786;    0,280;    0,318
691,396;24353,431;   -0,265;    1,227
691,969;23828,167;    1,280;    0,136
692,543;24284,539;   -0,447;   -1,955
693,116;23960,729;   -0,265;   -1,409
693,690;23788,283;    0,099;    0,500
694,263;24363,837;   -1,083;    2,955
694,836;24445,482;    1,371;    3,591
695,410;23198,308;   -0,265;    1,773
695,983;23585,498;    0,189;    0,591
696,556;23585,780;   -0,447;   -1,045
697,129;23888,879;   -0,356;    1,409
697,703;23584,160;   -1,629;    1,955
698,276;23558,441;    1,462;   -0,773
698,849;23418,995;    1,280;    1,409
699,422;23741,731;   -1,083;    0,591
699,995;23505,012;    0,007;    0,136
700,568;23956,930;   -0,629;    3,045
701,140;23955,302;   -2,811;    1,682
701,713;23735,583;   -0,174;    2,409
702,286;23533,773;   -0,538;    0,864
702,859;23389,327;   -0,902;   -0,591
703,432;22634,881;    0,825;    0,682
704,004;23010,071;    0,462;    0,318
704,577;22943,898;   -0,629;    0,136
705,150;23468,543;    0,189;    2,500
705,722;23283,460;   -0,356;   -3,227
706,295;23061,833;   -0,175;   -0,591
706,867;22972,114;   -0,175;    1,955
707,440;23181,304;   -1,720;   -0,409
708,012;23400,676;    0,462;    0,591
708,584;23370,412;    2,462;    0,227
709,157;23545,784;    1,825;   -0,591
709,729;23260,338;    2,280;    2,045
710,301;24050,892;    0,734;    0,045
710,874;24087,264;   -1,447;   -0,227
711,446;23012,090;    0,371;    0,864
712,018;22902,190;    0,098;    0,500
712,590;22680,744;   -1,993;    1,682
713,162;23160,298;    0,825;    1,318
713,734;23372,488;    1,825;   -2,045
714,306;23282,587;   -1,902;   -0,409
714,878;22080,959;    0,825;    0,864
715,450;22918,695;    0,643;    0,864
716,022;23128,431;    1,552;    1,318
716,593;23218,621;    0,189;    0,591
717,165;23160,357;   -3,175;   -1,227
717,737;22960,365;    0,280;    0,409
718,309;22611,828;    0,280;   -0,045
718,880;22572,382;   -0,539;   -1,409
719,452;22781,572;   -0,175;   -1,591
720,024;22452,945;    0,734;   -0,591
720,595;23005,589;   -2,902;    0,955
721,167;22565,689;    0,370;   -2,045
721,738;22120,152;   -0,812;   -1,045
722,309;22187,888;   -0,993;   -1,227
722,881;21949,623;   -1,357;    0,773
723,452;22510,177;   -2,630;    2,864
724,023;22647,186;   -0,721;    2,682
724,595;22497,285;    0,007;    0,682
725,166;22194,021;    0,007;   -0,409
725,737;21926,847;    1,734;    0,227
726,308;21983,219;   -0,266;    0,318
726,879;22387,228;   -1,630;    1,227
727,450;22239,782;    0,552;   -0,045
728,021;22194,972;    3,097;    0,682
728,592;22043,344;    0,734;    0,500
729,163;22371,262;    0,643;   -0,136
729,734;22407,997;    0,188;   -0,227
730,305;22741,097;    1,734;    0,136
730,876;23016,469;    0,188;    2,955
731,447;22805,386;    2,188;    2,682
732,017;22948,577;    1,097;    1,864
732,588;22428,312;    0,734;    1,227
733,159;22616,503;    0,643;   -1,045
733,729;22402,238;    0,006;    0,409
734,300;21737,247;    0,915;    0,864
734,870;22096,710;    3,461;    0,591
735,441;22624,809;    0,370;   -0,591
736,011;22443,181;    0,643;   -1,591
736,582;22384,735;   -0,812;    0,045
737,152;21854,471;   -1,721;   -2,045
737,722;22318,661;   -0,267;   -0,682
738,293;21996,942;   -1,358;    1,318
738,863;21937,405;    2,461;    2,318
739,433;21792,868;    5,279;    0,318
740,003;22391,241;   -0,994;   -0,682
740,573;21838,067;    2,097;   -1,591
741,143;21818,985;   -1,085;    0,318
741,713;22532,175;    1,188;   -0,500
742,283;22257,820;    0,915;    1,591
742,853;22043,283;    1,915;    1,591
743,423;21535,019;    1,733;    0,045
743,993;21637,027;   -0,358;    1,500
744,563;21126,126;    0,097;   -0,864
745,133;21084,317;   -0,812;   -0,864
745,702;21685,234;   -0,267;    1,773
746,272;20933,788;   -0,176;    0,591
746,842;20818,342;   -1,358;   -0,591
747,411;21184,351;   -0,267;   -0,318
747,981;21339,177;    0,097;    0,500
748,551;21327,731;    2,278;   -1,045
749,120;21211,740;    0,642;   -0,227
749,690;21570,384;   -0,631;    2,409
750,259;21898,484;    1,369;    2,955
750,828;21793,401;    1,551;   -1,955
751,398;22031,137;    1,278;   -0,045
751,967;21633,964;    2,187;    0,409
752,536;21780,063;   -0,813;   -0,227
753,105;22184,435;    0,096;    0,227
753,675;21975,807;    0,096;    1,773
754,244;21886,361;   -0,904;    3,591
754,813;21901,097;    0,551;    1,227
755,382;21515,014;    0,460;    0,955
755,951;22035,114;    1,551;    3,682
756,520;21619,759;   -0,085;    1,864
757,089;22180,858;    0,278;    0,500
757,658;22301,139;    1,733;    1,227
758,227;22284,784;    1,096;    0,318
758,795;22531,065;    1,187;    1,136
759,364;22797,074;   -0,086;   -0,591
759,933;21877,355;   -1,176;   -0,045
760,501;21386,454;    0,733;   -1,318
761,070;21827,917;   -2,813;   -1,409
761,639;22505,198;   -1,904;    1,318
762,207;21917,661;    1,551;   -0,955
762,776;21819,852;    0,369;    0,864
763,344;21799,678;   -0,995;    0,591
763,913;20856,596;   -0,722;    1,409
764,481;21638,695;    1,005;   -0,136
765,049;21479,067;   -1,358;    1,409
765,618;21337,530;   -0,086;    0,318
766,186;21414,448;    0,278;    0,136
766,754;21596,456;    0,005;    1,864
767,322;20712,101;   -1,995;    0,409
767,890;20710,564;   -0,722;   -1,773
768,459;21134,118;   -2,177;   -0,318
769,027;21311,308;    1,641;    3,409
769,595;20303,499;    3,278;    2,591
770,163;20715,780;    3,823;    2,955
770,730;20522,970;    0,732;   -0,136
771,298;20332,797;    0,187;   -1,409
771,866;20462,169;   -1,541;    4,955
772,434;20791,359;   -0,631;   -1,864
773,002;20962,549;    0,005;    0,682
773,569;20595,285;    0,914;    1,682
774,137;20418,203;   -0,268;   -0,045
774,705;21215,029;    0,278;   -0,136
775,272;20727,129;    0,641;    0,682
775,840;20482,046;   -0,177;    2,682
776,407;20107,691;    0,277;    1,955
776,975;19716,608;   -0,632;    0,318
777,542;20622,617;   -1,086;   -0,045
778,110;20479,534;   -1,268;   -0,045
778,677;20186,997;   -2,359;   -0,864
779,244;19964,915;    2,186;    1,045
779,812;20097,287;    1,823;    0,864
780,379;19964,659;    0,005;    1,136
780,946;20183,304;    1,005;   -0,773
781,513;20455,949;   -1,450;    0,318
782,080;19888,412;   -0,086;    2,864
782,647;20601,875;   -0,268;    3,045
783,214;20266,883;   -0,177;    3,864
783,781;19872,892;   -0,723;   -0,682
784,348;19718,627;   -0,632;    1,500
784,915;20162,909;   -3,177;    0,318
785,482;19983,008;    1,368;    2,591
786,049;20365,107;    0,186;   -0,591
786,615;20464,661;    0,277;   -0,955
787,182;20176,215;    0,186;   -0,682
787,749;19928,224;   -2,814;    1,409
788,315;19360,869;   -1,632;   -0,409
788,882;19638,695;    1,550;   -1,227
789,448;20305,795;    1,732;   -0,955
790,015;20228,439;    1,095;    3,227
790,581;19896,266;    1,459;    0,227
791,148;19785,820;    0,641;    1,045
791,714;19957,919;   -0,541;    3,136
792,280;19670,291;    0,186;    1,591
792,847;19267,845;    0,550;    2,500
793,413;19737,308;   -0,269;   -0,318
793,979;19380,135;    3,459;   -1,318
794,545;19499,507;    4,459;    2,682
795,111;19007,788;    2,186;    1,318
795,678;19131,160;    0,731;   -1,682
796,244;18838,896;    3,368;    0,136
796,810;19305,814;    1,731;    0,773
797,375;19065,095;    0,549;   -2,136
797,941;19065,558;   -0,541;    0,591
798,507;19201,475;   -0,451;   -0,955
799,073;18763,666;   -0,360;    0,591
799,639;18822,583;   -2,632;    3,136
800,205;18843,228;    0,095;    2,682
800,770;18466,873;    0,640;    1,773
801,336;18496,608;    1,368;   -0,955
801,901;18327,799;    4,549;    3,136
802,467;18831,262;   -0,542;    2,045
803,033;18164,907;   -0,087;    0,864
803,598;18379,642;    1,913;   -1,045
804,163;18405,014;    1,095;   -0,318
804,729;18407,932;   -0,178;    1,136
805,294;18762,759;    0,822;    2,227
805,859;18570,858;    0,731;   -0,409
806,425;18111,139;    1,186;    2,682
806,990;17788,875;    2,186;    4,318
807,555;18194,429;   -1,451;    2,591
808,120;18137,074;    0,822;   -0,409
808,685;18168,446;    0,185;   -2,500
809,250;17725,818;    0,004;   -0,500
809,815;17954,008;    1,913;    0,682
810,380;18488,017;   -0,269;    1,591
810,945;18987,298;   -1,087;    2,045
811,510;18185,397;    2,094;    1,591
812,075;17949,133;   -0,633;   -1,409
812,640;17989,869;    2,003;    1,409
813,204;18063,695;    0,822;   -0,227
813,769;18516,976;    2,094;   -0,045
814,334;17990,258;    0,458;    0,864
814,898;18070,357;    0,367;    0,591
815,463;17894,547;    1,276;   -0,773
816,027;17891,465;   -0,724;   -2,318
816,592;17996,473;    0,640;   -2,045
817,156;17605,482;    2,094;    1,136
817,721;17535,763;    4,276;    2,318
818,285;17436,771;    2,912;    1,500
818,849;17985,962;   -1,451;    1,682
819,414;17867,243;   -0,269;    2,955
819,978;17477,706;   -1,269;    1,773
820,542;18029,987;    2,003;    0,500
821,106;17768,086;   -0,815;    0,682
821,670;17919,277;   -0,815;    2,591
822,234;17626,285;   -0,270;    1,409
822,798;17031,384;    0,003;    0,500
823,362;17084,847;   -0,633;    4,227
823,926;16461,765;    0,094;    1,136
824,490;16680,501;   -0,997;   -0,682
825,054;17085,691;   -0,088;   -1,136
825,618;16827,972;   -1,542;   -1,500
826,181;16754,617;    0,458;   -1,318
826,745;16700,444;    1,367;   -1,045
827,309;17013,543;    1,185;    1,318
827,872;16460,006;    1,367;    0,955
828,436;17346,287;    1,185;   -0,773
828,999;17405,387;   -0,997;    1,227
829,563;16321,031;   -0,179;    1,136
830,126;16173,222;   -0,179;   -0,591
830,690;16219,412;   -1,997;    2,864
831,253;15762,511;   -0,543;    2,227
831,816;15930,338;   -1,906;    0,500
832,380;15876,165;    0,185;    0,864
832,943;16137,809;   -1,361;   -0,500
833,506;15622,545;    2,639;   -1,227
834,069;16361,008;    3,912;   -0,955
834,632;16408,835;    1,730;    1,318
835,195;16339,570;    1,003;    0,955
835,758;15635,033;   -0,997;    1,955
836,321;15485,224;    0,730;   -1,045
836,884;15556,050;   -0,725;   -0,955
837,447;15532,241;   -2,816;    1,773
838,010;15822,522;    0,366;    3,227
838,573;16091,803;   -1,179;    0,773
839,135;16149,539;   -1,361;   -0,955
839,698;15634,547;    1,275;    0,409
840,261;15152,647;    1,003;   -0,227
840,823;14976,019;   -0,543;    0,864
841,386;15278,209;   -0,452;   -2,409
841,948;15208,945;   -1,361;    1,773
842,511;14914,499;    0,912;    1,682
843,073;15080,325;    1,912;    0,227
843,636;14848,697;   -0,361;   -0,227
844,198;14824,888;    0,911;    0,591
844,760;14947,078;    1,093;    1,955
845,322;14617,541;    0,548;    1,136
845,885;14997,367;    0,730;    0,591
846,447;15412,467;   -1,998;    0,227
847,009;15104,930;    1,911;   -0,682
847,571;15360,120;    0,820;   -2,045
848,133;15466,401;   -1,089;   -1,864
848,695;15274,592;   -0,543;    1,409
849,257;14868,691;   -1,089;   -1,682
849,819;15065,972;   -0,998;   -0,409
850,381;15043,435;   -0,725;   -0,864
850,942;15359,807;    1,093;   -0,591
851,504;15387,361;    1,184;    0,227
852,066;15360,551;    1,275;   -1,591
852,628;14961,924;   -0,180;    1,955
853,189;14542,659;    1,638;    2,682
853,751;14678,486;   -0,907;    1,409
854,312;14491,040;   -0,453;   -1,682
854,874;14952,957;   -2,089;   -0,773
855,435;15417,329;   -0,907;   -1,682
855,997;15600,702;   -1,816;   -0,136
856,558;14939,710;    0,366;    1,773
857,119;15033,446;    0,820;    2,864
857,681;14717,272;    0,002;    0,318
858,242;14785,826;    1,911;   -2,136
858,803;15160,107;    0,456;   -0,773
859,364;15719,298;    0,184;   -4,773
859,925;15124,761;   -2,453;   -0,955
860,486;15015,587;   -0,453;   -0,955
861,047;14730,323;   -0,544;   -1,227
861,608;14562,786;   -1,089;   -0,773
862,169;14674,249;    0,638;   -0,045
862,730;14458,167;    0,456;    1,409
863,291;14733,084;   -0,635;   -0,500
863,852;15038,184;   -0,635;    1,955
864,412;14555,101;   -0,271;   -0,864
864,973;13310,291;   -0,089;    0,500
865,534;13156,663;   -1,726;    0,227
866,094;14500,217;    1,820;    0,227
866,655;14198,953;    1,274;    3,318
867,215;14485,598;    0,274;    0,136
867,776;14330,970;    0,547;   -0,136
868,336;14413,978;   -1,453;    0,136
868,897;14060,805;    2,638;    1,682
869,457;13787,177;    1,365;    0,318
870,017;14008,004;    0,547;   -1,227
870,578;14461,012;   -0,817;    0,773
871,138;14129,293;   -2,089;   -0,955
871,698;13709,757;   -0,817;   -1,318
872,258;13610,765;   -0,453;   -2,864
872,818;14023,410;    2,729;    0,045
873,378;14000,691;    0,638;    1,045
873,938;13521,699;    0,547;    0,500
874,498;13809,344;    0,274;   -1,955
875,058;13741,807;    2,183;    1,773
875,618;13589,088;    1,910;   -2,682
876,177;13527,097;    1,274;    0,136
876,737;13208,105;   -0,090;    1,955
877,297;13288,932;    0,183;    1,955
877,856;13297,940;   -0,362;    0,318
878,416;13205,403;    1,183;   -0,136
878,976;13423,685;   -1,817;    0,409
879,535;13576,602;    0,092;    3,136
880,095;13343,156;   -0,544;    0,045
880,654;13459,801;   -1,090;    1,318
881,213;13591,628;    2,456;    1,500
881,773;13235,545;    2,637;    2,682
882,332;13631,826;    3,365;    5,136
882,891;13450,835;    3,092;    2,136
883,451;13858,207;   -1,272;    1,682
884,010;13319,579;   -2,908;   -0,409
884,569;13418,315;   -0,999;   -0,045
885,128;13570,232;    2,819;   -1,864
885,687;13653,786;    4,455;    0,682
886,246;13431,976;    1,455;    2,136
886,805;13158,621;    2,455;    2,045
887,364;13347,448;   -0,999;   -0,500
887,922;13722,820;   -1,181;    0,045
888,481;13248,101;   -1,545;    0,591
889,040;13512,382;    1,183;    2,136
889,599;14103,845;    2,455;    1,409
890,157;14186,672;    1,455;    2,409
890,716;13815,953;   -0,090;    0,227
891,274;13643,962;    0,092;   -1,136
891,833;14044,152;    1,546;    0,864
892,391;13902,615;   -0,454;    0,500
892,950;13965,987;    1,819;   -0,773
893,508;14357,541;    0,455;   -0,409
894,067;13720,186;    0,637;    0,136
894,625;13627,467;   -0,636;   -1,500
895,183;13812,294;   -0,363;   -0,682
895,741;13731,757;    1,728;   -1,773
896,299;13556,129;   -0,545;   -2,409
896,858;13716,319;    0,819;   -1,591
897,416;13869,055;    2,728;   -1,318
897,974;13622,518;    1,819;    0,318
898,532;13831,526;    6,091;    2,682
899,089;13718,353;    2,091;   -0,682
899,647;13735,998;   -1,454;    1,318
900,205;13543,824;    1,182;    1,045
900,763;13722,742;   -0,454;    0,227
901,321;13748,114;    2,364;   -1,409
901,878;13176,850;   -1,000;   -0,773
902,436;13140,313;   -1,363;    1,318
902,994;13554,594;    4,728;    3,682
903,551;13018,148;    0,728;    0,409
904,109;13401,247;    0,182;   -1,409
904,666;13023,619;    2,455;    1,045
905,224;12848,718;    0,182;   -0,409
905,781;12657,000;    0,727;   -0,318
906,338;12700,008;   -1,363;    1,045
906,895;12623,289;    0,637;    2,045
907,453;12582,116;    1,727;    1,136
908,010;12602,488;   -0,909;    0,409
908,567;12289,224;    1,273;    0,591
909,124;11811,869;    0,364;   -1,500
909,681;11912,604;   -2,909;    0,682
910,238;12099,067;    0,636;   -1,318
910,795;12415,258;   -0,273;   -1,136
911,352;12028,894;   -2,909;   -2,682
911,909;11514,530;   -1,364;   -0,864
912,466;12011,167;   -3,182;    1,500
913,022;11557,621;   -1,636;    0,500
913,579;11894,439;   -0,909;    2,045
914,136;11651,985;    1,636;    0,955
914,692;12016,439;    0,091;   -1,227
915,249;11622,894;    1,455;    0,409
915,806;11817,621;    0,182;    1,955
916,362;11672,439;    1,909;    1,864
916,918;11193,076;    2,000;    1,045
917,475;11177,803;   -1,182;    0,955
918,031;11227,348;    3,364;   -0,045
918,587;10773,985;   -0,909;   -0,318
919,144;11017,076;   -2,273;    0,227
919,700;11282,439;    1,727;    0,773
920,256;10900,621;    0,727;    0,045
920,812;10589,894;   -0,727;   -1,045
921,368;10632,167;   -1,727;   -1,045
921,924;10290,167;    0,182;   -0,136
922,480; 9934,167;   -0,545;    1,227
923,036;10511,348;    1,273;    1,955
923,592;10487,985;    0,455;    0,318
924,148;10429,439;    0,455;   -0,955
924,704; 9824,712;   -1,364;   -0,409
925,259;10076,439;   -0,273;    0,591
925,815; 9855,530;    1,455;    0,500
926,371; 9393,348;    2,909;    1,409
926,926; 9319,076;    2,091;    0,591
927,482; 9043,712;   -1,364;    0,773
928,037; 8953,348;    0,909;    2,045
928,593; 9242,530;    1,636;    1,045
929,148; 9074,530;   -1,818;   -1,500
929,704; 8651,076;   -1,455;   -0,500
930,259; 8839,439;    0,091;   -0,136
930,814; 8063,439;   -0,818;    1,955
931,369; 7742,439;    1,091;   -0,773
931,925; 7667,985;   -0,091;    0,136
932,480; 7605,712;   -2,818;   -2,591
933,035; 7565,348;    0,545;   -0,318
933,590; 7379,894;    0,364;   -1,773
934,145; 7070,712;   -1,364;   -0,318
934,700; 7365,167;    0,455;   -0,591
935,255; 7191,439;   -0,091;    0,045
935,809; 6667,894;    3,182;    0,864
936,364; 5870,712;   -0,455;   -0,136
936,919; 5909,258;    0,455;   -1,773
937,474; 5822,985;    1,455;    0,136
938,028; 5603,894;   -1,636;    1,136
938,583; 5230,894;    1,818;    4,682
939,138; 5423,348;    2,091;    2,136
939,692; 4949,530;    1,636;   -1,136
940,247; 4740,985;   -0,727;   -1,045
940,801; 4431,258;   -0,636;    0,227
941,355; 4333,985;   -0,364;    2,591
941,910; 4014,076;   -0,273;   -2,136
942,464; 4118,530;   -0,818;   -0,318
943,018; 4016,348;    1,000;   -0,227
943,572; 3968,985;    2,545;   -0,682
944,126; 3485,076;    0,091;   -0,409
944,681; 3387,167;    3,091;    0,227
945,235; 3373,167;    1,000;   -0,591
945,789; 3317,894;    0,364;   -1,864
946,342; 3496,712;    0,455;   -0,591
946,896; 3249,712;   -2,273;    0,955
947,450; 3018,439;    1,545;   -0,227
948,004; 3270,621;    1,727;   -0,045
948,558; 3221,439;    0,273;   -0,864
949,111; 3157,894;   -0,273;   -0,318
949,665; 3270,439;    1,636;   -0,682
950,219; 3143,439;   -0,091;   -1,045
950,772; 3178,712;   -1,909;    1,864
951,326; 3109,894;    0,545;   -0,955
951,879; 3175,712;    0,727;   -2,318
952,433; 3205,439;    0,000;    2,227
952,986; 3013,076;    2,909;    0,682
953,539; 2995,803;   -0,273;    0,591
954,093; 2941,530;    0,545;   -1,318
954,646; 3092,985;    0,909;    1,318
955,199; 2919,348;    0,000;   -0,500
955,752; 2879,076;   -0,455;    1,773
956,305; 2793,530;   -0,091;    2,955
956,858; 2956,712;    0,818;   -0,318
957,411; 3100,894;   -0,545;    2,136
957,964; 2935,439;    1,364;    2,136
958,517; 2907,894;   -1,545;    3,136
959,070; 2761,894;   -0,455;    1,955
959,623; 2915,530;    1,091;    1,500
960,176; 2709,621;    1,727;    2,045
960,728; 2678,894;   -2,727;    0,773
961,281; 2737,167;    0,545;    0,500
961,834; 2745,621;   -0,909;    0,864
962,386; 2655,712;    1,727;    1,045
962,939; 2591,076;    0,364;   -0,318
963,491; 2723,167;    0,455;    1,136
964,043; 2603,530;    1,182;    2,409
964,596; 2734,258;   -1,000;    2,227
965,148; 2583,621;   -1,000;    1,773
965,700; 2498,530;    1,091;   -0,227
966,253; 2667,258;   -0,636;    0,318
966,805; 2541,439;   -2,273;    0,773
967,357; 2558,985;    1,091;   -1,500
967,909; 2558,530;    0,455;   -1,227
968,461; 2607,258;    0,545;    3,136
969,013; 2547,258;   -0,182;   -0,864
969,565; 2645,621;   -0,455;   -1,136
970,117; 2810,439;   -0,364;    1,045
970,669; 2550,167;    0,182;   -0,136
971,220; 2383,439;   -0,455;   -1,500
971,772; 2339,985;   -0,636;   -0,318
972,324; 2477,894;    0,091;   -0,500
972,876; 2408,258;    0,818;   -0,045
973,427; 2588,258;    1,909;   -1,045
973,979; 2542,258;   -0,727;   -2,500
974,530; 2489,439;    1,818;    1,318
975,082; 2510,621;   -0,545;    1,682
975,633; 2451,621;    1,091;    1,682
976,184; 2579,530;    0,909;    0,773
976,736; 2428,348;    0,091;    0,227
977,287; 2280,530;   -0,909;   -0,500
977,838; 2422,439;    0,909;   -0,318
978,389; 2460,439;   -1,000;   -0,500
978,940; 2309,621;    0,545;   -0,409
979,491; 2317,621;    0,091;   -0,500
980,042; 2323,439;    0,182;    3,045
980,593; 2330,621;   -2,545;    0,227
981,144; 2423,985;    2,545;   -0,500
981,695; 2433,894;    1,455;    1,500
982,246; 2384,348;   -0,273;    1,045
982,797; 2465,258;   -1,727;    0,682
983,347; 2577,621;    0,364;    0,591
983,898; 2791,712;    3,091;    0,409
984,449; 2634,167;    2,182;    0,773
984,999; 2471,894;    1,455;   -1,136
985,550; 2311,985;    0,182;   -0,318
986,100; 2279,530;   -0,455;   -0,318
986,651; 2293,076;   -0,818;    0,045
987,201; 2297,167;   -1,000;   -0,591
987,751; 2383,894;    0,818;    2,864
988,302; 2392,985;    2,636;    1,500
988,852; 2395,712;    0,455;   -1,136
989,402; 2484,530;    0,091;    0,682
989,952; 2411,985;   -2,182;    0,864
990,502; 2449,167;   -0,091;    0,682
991,052; 2385,712;   -0,727;    0,045
991,602; 2278,894;   -2,909;    1,318
992,152; 2306,167;    0,455;    0,682
992,702; 2285,076;    1,364;   -0,045
993,252; 2227,803;   -3,000;   -0,500
993,802; 2345,076;   -0,273;    1,318
994,352; 2504,894;   -1,545;    1,136
994,901; 2532,167;   -0,182;    3,227
995,451; 2481,530;   -0,182;    0,318
996,000; 2550,258;    1,636;    0,318
996,550; 2322,348;    2,273;    0,227
997,100; 2321,167;    1,273;   -0,045
997,649; 2577,258;    2,182;    0,955
998,198; 2243,530;    1,727;   -1,500
998,748; 2472,985;    1,091;   -2,318
999,297; 2346,894;   -0,818;   -0,409
999,846; 2436,076;    1,000;   -0,773
1000,395; 2429,076;   -0,818;    0,500
1000,945; 2457,439;    1,818;   -0,773
1001,494; 2528,985;    2,364;    0,682
1002,043; 2491,167;    4,636;    0,864
1002,592; 2305,621;   -1,091;    1,955
1003,141; 2456,439;   -0,455;   -0,682
1003,690; 2365,348;    1,727;    0,500
1004,238; 2390,076;    1,455;   -0,045
1004,787; 2063,712;    1,364;    1,227
1005,336; 2342,439;    0,364;    0,682
1005,885; 2436,167;    1,364;   -2,773
1006,433; 2520,803;    0,545;    0,955
1006,982; 2669,258;    0,455;    1,682
1007,531; 2518,712;   -1,818;   -0,227
1008,079; 2425,803;   -2,273;    0,500
1008,627; 2516,894;   -1,455;    0,409
1009,176; 2326,621;    0,000;   -1,955
1009,724; 2364,167;    1,091;    0,864
1010,273; 2479,894;    1,273;    0,500
1010,821; 2499,803;    0,091;    1,409
1011,369; 2285,348;   -1,364;    1,318
1011,917; 2267,621;   -1,364;   -0,591
1012,465; 2523,712;    1,273;   -1,591
1013,013; 2595,258;    2,091;   -1,682
1013,561; 2553,985;    0,455;   -0,773
1014,109; 2640,439;   -1,909;    1,682
1014,657; 2492,894;    0,364;    0,591
1015,205; 2550,439;    1,636;   -0,955
1015,753; 2547,167;   -0,545;   -1,409
1016,301; 2584,530;   -2,636;    3,045
1016,848; 2611,803;   -1,273;    0,409
1017,396; 2660,076;    2,545;    0,045
1017,944; 2758,439;    1,182;    1,864
1018,491; 2515,530;    0,273;    1,409
1019,039; 2783,439;    0,455;    0,591
1019,586; 2591,530;   -1,364;    1,682
1020,134; 2649,803;    0,455;    1,500
1020,681; 2689,712;    0,182;   -1,136
1021,228; 2661,439;    2,909;   -2,227
1021,776; 2526,712;    1,182;   -1,136
1022,323; 2790,076;    0,455;    0,773
1022,870; 2692,439;   -1,000;   -0,045
1023,417; 2630,258;    2,636;    1,864
1023,964; 2699,894;    2,636;    1,227
1024,511; 2582,258;    1,000;    0,773
1025,058; 2406,348;    3,182;   -0,045
1025,605; 2448,894;   -2,273;    3,136
1026,152; 2707,167;    1,727;   -0,591
1026,699; 2427,439;    1,818;    1,318
1027,245; 2558,076;   -0,091;    0,318
1027,792; 2696,712;   -1,000;    1,409
1028,339; 2655,621;    2,364;   -0,045
1028,885; 2500,621;    1,000;   -0,227
1029,432; 2450,803;   -0,091;    0,227
1029,978; 2542,621;   -1,000;   -1,591
1030,525; 2441,076;    1,000;    0,409
1031,071; 2603,712;   -1,364;    1,136
1031,618; 2801,258;    0,364;    1,682
1032,164; 2541,076;   -0,091;    3,045
1032,710; 2605,348;    1,636;   -1,500
1033,256; 2495,894;   -0,636;   -0,136
1033,803; 2437,258;   -0,545;    1,500
1034,349; 2205,076;   -1,364;    0,136
1034,895; 2326,439;    0,000;   -0,318
1035,441; 2331,621;   -0,818;    0,318
1035,987; 2362,076;   -2,364;   -0,682
1036,533; 2381,348;   -1,455;   -0,955
1037,078; 2599,167;    1,455;    1,682
1037,624; 2392,076;    2,455;   -0,955
1038,170; 2397,803;    0,455;   -0,318
1038,716; 2381,894;    1,636;   -0,409
1039,261; 2250,076;   -2,273;   -0,773
1039,807; 2193,803;   -0,091;    3,409
1040,352; 2279,985;   -1,909;   -0,318
1040,898; 2303,167;   -1,545;   -0,682
1041,443; 2195,712;   -1,455;   -2,591
1041,989; 2342,348;    1,091;    1,591
1042,534; 2157,712;   -0,364;    2,591
1043,079; 2199,803;    2,909;    0,955
1043,625; 2080,803;    1,818;    0,500
1044,170; 2124,258;   -1,364;    1,045
1044,715; 2400,439;    2,455;    0,955
1045,260; 2199,712;    2,182;   -0,955
1045,805; 2187,712;    1,182;   -0,591
1046,350; 2121,439;    1,364;   -0,409
1046,895; 2177,258;    2,909;    1,591
1047,440; 2154,803;    5,364;    0,409
1047,985; 2003,348;    2,818;   -0,955
1048,530; 1937,348;    1,545;    1,227
1049,074; 2032,985;    0,000;    0,318
1049,619; 1974,076;   -1,364;    1,955
1050,164; 1805,712;    0,455;    0,227
1050,708; 1872,621;   -0,455;    0,045
1051,253; 2267,258;    1,273;   -2,227
1051,797; 1968,712;    0,818;   -1,318
1052,342; 1901,167;   -1,182;    1,045
1052,886; 1933,712;    0,364;   -1,409
1053,430; 1796,985;   -1,364;    0,136
1053,975; 1833,712;   -0,818;   -0,318
1054,519; 1839,530;   -0,727;    3,227
1055,063; 1900,167;    0,909;    1,318
1055,607; 1795,712;   -0,182;    0,227
1056,151; 1800,712;    2,909;    1,682
1056,695; 1691,985;    2,273;   -1,136
1057,239; 1756,621;   -1,727;   -0,682
1057,783; 1790,894;    0,818;   -1,500
1058,327; 1771,985;    0,000;    1,409
1058,871; 2018,076;   -0,545;    1,318
1059,415; 1726,076;   -0,818;   -0,045
1059,958; 2024,894;    1,455;    2,591
1060,502; 1724,712;   -1,000;   -0,773
1061,046; 1594,258;    0,364;   -0,955
1061,589; 1560,803;   -3,000;   -1,136
1062,133; 1453,167;   -1,273;    1,864
1062,676; 1443,439;    1,182;    0,864
1063,220; 1460,076;    1,091;    0,500
1063,763; 1484,985;    0,909;    1,136
1064,306; 1577,894;   -0,909;    1,864
1064,849; 1475,530;   -0,909;    0,591
1065,393; 1461,803;    2,000;   -1,500
1065,936; 1556,076;    0,182;   -0,409
1066,479; 1417,530;   -1,455;    1,318
1067,022; 1450,803;   -0,273;   -0,227
1067,565; 1363,985;   -0,091;   -1,318
1068,108; 1377,439;    0,727;   -0,591
1068,651; 1324,439;   -0,636;    1,409
1069,194; 1286,258;   -0,455;   -1,682
1069,736; 1315,348;   -1,273;    0,955
1070,279; 1263,621;   -1,364;   -0,500
1070,822; 1354,985;   -2,000;   -0,318
1071,364; 1490,712;   -0,364;    1,318
1071,907; 1283,348;   -0,727;    3,227
1072,450; 1144,439;    0,000;   -0,045
1072,992; 1167,530;   -0,273;    3,136
1073,535; 1329,258;    2,091;    2,136
1074,077; 1117,439;   -0,727;    2,045
1074,619; 1114,167;   -1,364;    0,591
1075,161; 1148,439;   -1,091;    1,500
1075,704; 1337,621;    1,545;    1,227
1076,246; 1102,439;   -0,182;    0,682
1076,788; 1014,258;   -0,364;    1,773
1077,330; 1080,530;    1,273;    2,136
1077,872; 1086,348;    0,909;    0,955
1078,414; 1337,076;    2,727;    0,773
1078,956; 1064,894;    1,273;   -0,227
1079,498; 1352,530;    1,636;    0,318
1080,040; 1058,894;    1,909;   -1,318
1080,581;  989,348;    1,636;   -0,318
1081,123;  896,258;    0,091;   -0,773
1081,665;  943,894;   -1,182;   -0,955
1082,206; 1269,530;    1,364;   -0,500
1082,748; 1117,803;    0,727;    2,045
1083,289;  980,712;   -2,000;    1,318
1083,831;  909,348;   -0,545;    0,227
1084,372;  961,258;    0,000;    0,591
1084,913;  957,803;    1,091;    0,864
1085,455;  904,167;   -1,909;   -2,045
1085,996;  901,803;   -2,273;    0,136
1086,537;  946,530;   -0,091;    0,864
1087,078;  964,621;   -0,909;   -2,136
1087,619; 1020,076;   -1,273;    0,227
1088,160;  919,348;    0,000;    1,318
1088,701;  898,985;   -1,091;    0,682
1089,242;  853,530;    1,364;   -2,227
1089,783;  957,530;   -0,273;    1,409
1090,324;  924,439;    0,455;    0,682
1090,865;  795,076;    2,727;   -0,409
1091,405;  739,439;    0,727;    2,227
1091,946;  788,894;    0,182;   -0,955
1092,487;  708,803;    0,818;   -1,409
1093,027;  907,076;   -1,364;   -1,500
1093,568;  762,985;   -0,364;    1,227
1094,108;  870,530;    0,273;    1,773
1094,649;  797,439;   -1,182;    0,136
1095,189;  720,712;   -0,636;   -0,682
1095,729;  696,712;   -0,091;    0,955
1096,269;  680,894;    0,727;   -0,955
1096,810; 1000,167;   -1,364;    0,500
1097,350;  844,348;    1,364;   -0,773
1097,890;  744,712;    0,364;    1,227
1098,430; 1007,439;    2,364;    2,864
1098,970;  888,621;    2,182;    1,682
1099,510;  723,348;    0,545;   -2,318
1100,050;  656,985;    1,000;   -1,591
1100,589;  635,167;   -0,727;   -0,318
1101,129;  759,621;    0,818;   -0,955
1101,669;  928,348;    1,727;    2,136
1102,209;  756,076;   -0,091;    2,227
1102,748;  712,258;    0,000;    0,955
1103,288;  700,985;    1,273;   -1,227
1103,827;  723,712;    3,091;   -2,227
1104,367;  609,621;   -0,091;   -2,409
1104,906;  570,076;    1,364;   -1,136
1105,445;  650,803;    0,636;   -1,136
1105,985;  601,167;   -0,727;    1,500
1106,524;  646,803;   -1,727;   -0,682
1107,063;  625,076;   -2,727;    1,409
1107,602;  586,803;   -1,909;   -1,500
1108,141;  509,076;   -1,909;    1,500
1108,680;  625,530;   -3,455;   -0,591
1109,219;  567,076;   -0,909;   -0,500
1109,758;  568,894;    0,455;    0,682
1110,297;  542,712;    1,000;   -0,682
1110,836;  488,439;   -0,727;    0,955
1111,375;  649,258;   -2,545;    0,409
1111,913;  674,167;   -1,000;    0,773
1112,452;  600,348;   -0,273;    0,136
1112,991;  477,712;    1,091;    1,955
1113,529;  443,167;   -0,818;   -0,045
1114,068;  516,348;   -0,273;    2,955
1114,606;  421,258;   -0,364;   -0,955
1115,144;  592,530;   -1,273;    1,045
1115,683;  525,439;   -0,727;    0,318
1116,221;  576,076;   -0,455;   -0,864
1116,759;  481,076;    0,636;   -0,864
1117,297;  676,167;    0,000;    1,864
1117,836;  476,258;   -2,182;   -1,227
1118,374;  495,530;    0,182;   -0,682
1118,912;  447,894;    0,909;    2,682
1119,450;  436,258;    1,000;    0,864
1119,988;  475,530;    1,545;    2,136
1120,525;  931,348;    5,091;    3,318
1121,063;  635,439;    1,182;    1,864
1121,601;  454,803;   -0,909;   -1,227
1122,139;  408,985;   -0,727;   -2,045
1122,676;  608,894;   -0,727;    2,773
1123,214;  543,985;   -1,182;    4,409
1123,751;  351,621;    1,727;    2,227
1124,289;  482,894;   -0,091;   -0,409
1124,826;  366,167;    1,727;    0,227
1125,364;  279,803;    1,727;   -0,955
1125,901;  475,985;    1,182;    1,227
1126,438;  587,348;    0,818;    0,955
1126,975;  313,258;   -0,727;   -0,773
1127,513;  385,712;    0,273;    2,136
1128,050;  287,348;    1,636;   -0,682
1128,587;  389,439;    2,000;   -0,227
1129,124;  444,258;    0,091;    1,318
1129,661;  313,621;    0,273;    0,227
1130,198;  466,167;    1,636;    0,773
1130,734;  408,439;    0,182;    1,409
1131,271;  277,621;   -0,909;    0,864
1131,808;  452,167;    2,909;    3,045
1132,345;  324,985;    1,545;    0,318
1132,881;  196,439;   -1,545;   -1,864
1133,418;  340,530;    0,727;   -1,136
1133,954;  275,985;    2,455;   -2,682
1134,491;  350,076;    1,364;   -0,773
1135,027;  246,439;    2,364;    0,864
1135,564;  347,985;    0,273;    2,955
1136,100;  330,985;    0,364;    2,136
1136,636;  219,439;   -1,273;   -1,045
1137,172;  306,076;    0,000;   -1,045
1137,708;  240,621;   -1,364;   -1,045
1138,245;  236,894;    1,273;   -1,227
1138,781;  188,803;    1,091;   -3,318
1139,317;  260,167;    1,273;   -1,409
1139,852;  252,530;    3,091;    0,136
1140,388;  363,985;   -1,182;   -0,409
1140,924;  249,894;   -1,091;   -2,227
1141,460;  187,712;   -1,636;    0,136
1141,996;  132,167;   -1,364;    2,682
1142,531;  175,258;    1,364;    3,318
1143,067;  390,167;    1,182;    1,045
1143,602;  445,348;   -0,091;   -0,318
1144,138;  290,167;   -2,636;    1,045
1144,673;  157,985;   -1,455;    1,409
1145,209;  228,167;   -1,909;   -0,318
1145,744;  151,076;   -0,727;    0,864
1146,279;  295,348;    1,818;   -0,136
1146,815;  202,439;    1,545;   -2,682
1147,350;  237,439;   -1,364;    0,045
1147,885;  150,894;   -0,818;   -1,318
1148,420;  153,621;   -2,273;    0,773
1148,955;  145,985;   -1,727;    1,864
1149,490;  168,076;   -0,909;   -1,591
1150,025;  142,712;    0,455;   -1,773
1150,560;  256,712;    1,091;   -0,955
1151,094;  231,530;    1,455;   -0,591
1151,629;  232,167;    1,636;    0,864
1152,164;  155,439;    1,364;    1,318
1152,698;  119,894;   -0,182;   -0,136
1153,233;   76,348;    0,091;   -0,682
1153,767;  133,076;   -3,000;   -2,318
1154,302;  180,167;   -1,455;    1,773
1154,836;  172,439;   -0,455;   -2,136
1155,371;  220,348;   -1,364;    3,682
1155,905;  177,803;   -0,636;    1,682
1156,439;  147,530;   -0,636;   -0,500
1156,973;  187,258;    0,364;    0,318
1157,507;  119,348;   -0,364;    0,682
1158,042;  141,621;   -0,727;    1,045
1158,576;  193,167;    0,182;    1,773
1159,110;  186,348;   -0,818;    2,409
1159,643;  160,530;    0,636;   -0,045
1160,177;   94,258;   -1,545;    1,500

