
Integration time [ms]:   0,040
Averaging Nr. [scans]: 11
Smoothing Nr. [pixels]: 0
Data measured with spectrometer [name]: 7318044SP
Wave   ;Sample   ;Dark     ;Reference
[nm]   ;[counts] ;[counts] ;[counts] 

186,757;   26,409;   31,551;    1,318
187,357;   67,973;   22,551;    0,955
187,958;   39,982;   15,460;   -1,591
188,558;   90,569;    8,915;   -1,227
189,159;   56,914;    6,733;   -4,500
189,759;   27,506;    7,278;   -3,591
190,360;   22,741;    2,824;   -2,136
190,960;   69,534;    2,915;   -4,136
191,560;   88,979;    3,189;   -6,591
192,161;  362,021;    4,372;   -3,500
192,761;  180,430;    4,010;   -3,227
193,361;  125,716;    1,556;   -3,773
193,962;  172,194;    2,010;   -2,682
194,562;   91,410;    1,189;   -3,955
195,162;  133,218;   -2,448;   -2,227
195,762;  324,426;   -3,176;   -0,045
196,362;  263,826;    1,370;   -2,500
196,963;  114,314;    2,006;   -0,864
197,563;  195,943;    1,551;   -0,955
198,163;  141,259;    0,096;   -0,682
198,763;  148,476;    1,733;   -0,500
199,363;  269,201;    3,096;   -0,500
199,963;  231,542;    0,369;    0,409
200,563;  191,078;    2,823;   -1,409
201,163;  167,737;    3,277;   -0,227
201,763;  281,138;    3,732;    0,318
202,363;  212,291;    1,459;    1,500
202,963;  335,620;    1,459;    1,045
203,563;  449,719;    0,277;    0,500
204,162;  277,398;    2,096;   -1,864
204,762;  264,401;    0,550;    0,591
205,362;  228,823;    3,004;    1,955
205,962;  352,363;    3,096;    1,955
206,562;  349,124;    1,823;    2,318
207,161;  309,939;   -0,087;    0,318
207,761;  474,340;    1,277;    2,409
208,361;  351,510;   -0,268;    1,409
208,960;  468,048;    0,459;    1,500
209,560;  544,160;    1,277;    1,591
210,160;  516,920;    0,550;    1,864
210,759;  476,484;    4,186;    1,227
211,359;  481,229;    1,459;    1,045
211,958;  767,589;    1,277;    2,045
212,558;  860,161;    1,732;    1,864
213,157;  685,027;    1,822;    1,500
213,757; 1175,930;    3,822;   -0,227
214,356;  850,429;    1,277;   -0,409
214,956; 1210,268;    3,095;    0,409
215,555;  808,801;    2,095;    2,136
216,154;  736,744;   -2,723;   -0,591
216,754;  741,359;    0,277;    0,773
217,353;  907,556;   -0,268;   -1,045
217,952;  755,536;   -0,178;    0,318
218,552;  997,547;    1,368;   -0,773
219,151;  891,072;    0,277;    0,955
219,750;  887,524;    0,004;   -0,227
220,349; 1052,748;   -0,451;    1,045
220,948; 1090,079;   -1,360;    1,136
221,548; 1141,301;    0,913;    1,227
222,147; 1277,464;   -0,087;   -0,409
222,746; 1553,502;   -0,451;   -0,955
223,345; 1432,737;    0,731;    0,500
223,944; 1439,682;   -0,451;    0,773
224,543; 1625,544;    1,004;   -1,409
225,142; 1733,734;    0,094;    0,136
225,741; 1654,450;   -0,814;    1,045
226,340; 1690,174;   -0,451;   -0,955
226,939; 2157,624;   -0,996;   -0,136
227,538; 2134,089;   -0,360;   -0,773
228,137; 2299,869;   -0,814;    0,864
228,735; 2478,222;   -0,541;    1,227
229,334; 2199,655;   -0,905;   -0,227
229,933; 2577,744;    0,459;    0,591
230,532; 2720,798;    1,186;   -0,409
231,131; 2752,747;    1,732;    0,318
231,729; 2924,509;   -2,450;   -2,318
232,328; 3088,625;   -0,723;   -1,500
232,927; 3169,376;    1,004;   -0,500
233,525; 3310,221;    3,640;    0,045
234,124; 3542,764;    2,368;   -1,591
234,723; 3554,031;    0,913;   -1,045
235,321; 3711,259;    2,277;    0,136
235,920; 3980,792;    1,186;   -1,227
236,518; 4236,293;    3,459;    0,318
237,117; 4444,824;    0,004;   -0,227
237,715; 4636,450;    0,640;   -0,500
238,314; 4651,012;   -0,087;   -2,318
238,912; 4780,137;   -0,723;   -1,409
239,510; 4845,912;    0,459;   -1,227
240,109; 5045,507;    0,004;    3,773
240,707; 5055,253;   -0,996;    1,227
241,305; 5452,907;    0,550;    0,136
241,904; 5692,725;   -0,178;   -2,045
242,502; 5646,757;   -0,632;   -0,227
243,100; 5588,520;   -0,087;   -0,955
243,698; 5847,782;    0,732;    1,682
244,297; 6042,120;   -0,632;    0,682
244,895; 5870,692;   -0,269;   -2,318
245,493; 6260,583;    2,186;   -0,591
246,091; 6277,506;    1,368;   -1,318
246,689; 6248,405;    1,004;    0,591
247,287; 6420,724;    0,822;   -1,136
247,885; 6723,664;   -1,451;    1,227
248,483; 6854,225;    1,822;   -0,500
249,081; 7014,106;    0,185;    1,591
249,679; 7170,642;   -0,178;    1,682
250,277; 7416,772;   -1,723;    0,864
250,875; 7420,621;   -1,087;   -1,045
251,473; 7480,323;   -1,178;    0,500
252,071; 7666,770;    1,459;    1,045
252,669; 7867,501;   -1,814;    0,318
253,267; 8111,317;   -0,087;    0,773
253,864; 8080,906;   -0,360;    0,682
254,462; 7934,269;    1,640;    1,591
255,060; 7881,397;   -0,269;    1,318
255,658; 8229,319;    0,822;   -0,136
256,255; 8704,350;    0,186;   -2,045
256,853; 8570,028;   -0,269;    1,409
257,451; 8542,471;    0,822;    1,864
258,048; 8834,054;    1,822;    1,864
258,646; 8570,622;    1,731;   -1,045
259,243; 8789,119;   -0,087;    2,227
259,841; 8838,841;   -0,814;    0,318
260,438; 8708,550;   -0,087;    0,864
261,036; 9483,801;   -1,905;    1,409
261,633; 9354,977;   -0,087;    2,227
262,231; 9115,321;    2,731;   -0,045
262,828; 9179,817;   -0,905;    1,136
263,425; 9227,305;    0,913;   -0,591
264,023; 9533,034;    0,186;    0,045
264,620; 9094,328;   -0,360;   -0,318
265,217; 9460,057;   -2,087;    3,136
265,815; 9562,357;   -1,905;    2,136
266,412; 9332,896;    0,731;    0,136
267,009; 9433,096;   -1,451;    0,773
267,606; 9287,985;    0,822;   -0,955
268,203; 9253,787;   -0,269;   -0,591
268,801; 9573,978;    1,731;    0,591
269,398; 9854,639;   -0,360;    2,500
269,995; 9867,817;    0,277;    1,591
270,592; 9633,416;   -0,632;   -0,500
271,189; 9826,582;    0,186;    0,409
271,786; 9985,531;   -0,632;    1,227
272,383; 9794,095;   -1,087;    0,227
272,980;10011,993;    0,277;    0,318
273,577;10511,288;    0,004;    1,227
274,174;10072,365;    0,822;    2,591
274,771;10054,864;   -0,814;   -0,773
275,367;10260,641;    2,277;    1,409
275,964;10188,928;    0,731;   -0,500
276,561;10291,714;    1,549;   -1,045
277,158;10516,460;    0,095;   -1,773
277,755;10653,287;    2,185;    0,409
278,351;10054,975;   -0,451;   -1,500
278,948;10381,697;   -0,815;    0,045
279,545;10409,967;   -1,360;    2,318
280,141;11070,155;   -1,723;   -2,045
280,738;10983,116;   -0,451;   -0,136
281,334;11273,912;   -1,633;    0,591
281,931;10644,593;   -0,087;   -1,318
282,528;10699,301;    0,822;   -0,500
283,124;11471,814;   -1,087;   -0,500
283,721;11396,914;   -0,451;    1,409
284,317;11202,308;    0,185;    2,500
284,913;11772,174;   -1,360;    0,591
285,510;12003,538;    0,640;   -0,318
286,106;12054,366;   -2,269;   -0,955
286,703;11657,450;   -0,360;    1,955
287,299;11844,023;   -1,451;   -0,591
287,895;12074,634;    0,822;   -1,045
288,491;12668,730;    0,186;    2,136
289,088;12386,156;   -2,360;    2,409
289,684;12505,501;   -1,723;    1,500
290,280;12502,487;    0,368;    0,682
290,876;12634,465;    1,822;    5,500
291,472;12486,312;    1,276;    2,227
292,068;12588,660;    1,367;    0,227
292,665;12292,841;    2,095;    0,773
293,261;11872,513;    0,276;    2,136
293,857;12345,375;    2,913;    2,136
294,453;12297,915;    3,550;    0,955
295,049;12148,942;   -0,268;    1,955
295,644;12158,570;    0,095;    0,136
296,240;12080,810;   -0,905;   -0,136
296,836;12149,030;   -0,995;    0,318
297,432;12447,418;    1,096;   -0,500
298,028;12479,031;    0,732;    0,773
298,624;12903,880;    1,459;    1,864
299,220;13185,023;    2,368;    0,591
299,815;12846,946;    1,005;   -0,409
300,411;12614,488;    0,914;    1,773
301,007;12658,090;    1,368;    0,227
301,602;12706,836;   -0,541;   -2,318
302,198;12895,620;    0,732;   -0,773
302,794;13248,957;    1,187;   -0,500
303,389;13353,989;   -1,177;    1,045
303,985;13436,624;    0,550;    1,409
304,580;13433,674;    1,459;    1,591
305,176;13374,090;   -3,086;    0,136
305,771;13312,584;   -1,268;   -1,227
306,367;13200,170;    4,095;    0,136
306,962;13529,836;    0,641;    1,500
307,558;13275,950;   -0,450;    0,136
308,153;13207,010;    1,095;   -1,136
308,748;13436,549;   -0,814;    1,682
309,344;13430,840;   -0,632;   -1,318
309,939;13511,323;   -1,905;   -1,318
310,534;13797,673;   -0,086;   -1,682
311,130;13759,900;    0,459;   -2,500
311,725;13487,439;    1,004;   -0,500
312,320;13826,823;    2,459;    0,045
312,915;13611,774;    1,459;   -1,045
313,510;13766,029;    1,550;   -0,500
314,105;14295,223;    1,096;    1,409
314,700;13620,399;   -3,086;   -1,045
315,295;13193,038;   -0,904;    0,045
315,890;12745,905;    1,277;    0,864
316,485;13130,188;   -0,359;   -0,318
317,080;13226,948;   -3,086;    1,591
317,675;13843,016;    2,005;   -0,682
318,270;13197,037;    5,550;    3,318
318,865;13184,753;    3,278;    3,045
319,460;13026,620;   -0,904;    0,591
320,055;13262,351;   -0,541;   -1,227
320,650;12927,900;   -1,995;   -0,591
321,244;12959,677;   -0,177;   -1,409
321,839;13960,522;   -1,541;   -0,227
322,434;13873,460;   -1,086;   -1,591
323,029;13480,396;    1,732;    1,591
323,623;13292,549;    1,550;    0,773
324,218;13061,231;    2,368;    1,409
324,812;12940,695;    1,096;    1,591
325,407;12747,438;   -0,814;    2,045
326,002;12692,608;    0,277;   -0,409
326,596;13006,640;    0,914;    1,318
327,191;13196,918;    0,823;   -1,045
327,785;12769,186;   -0,813;   -0,227
328,379;12995,952;    1,368;    0,136
328,974;12798,713;    0,914;   -3,955
329,568;12981,376;    0,186;   -2,409
330,163;12849,270;    2,096;    1,045
330,757;13255,641;    2,459;    1,591
331,351;12549,739;    0,459;    0,682
331,945;12829,947;    0,914;    1,409
332,540;12396,386;   -1,723;   -0,591
333,134;12559,810;   -1,086;    0,773
333,728;12845,716;    0,005;    0,318
334,322;13185,237;   -1,177;   -0,864
334,916;12450,439;    0,277;    0,955
335,510;12807,297;   -0,450;   -0,136
336,105;13058,191;   -1,086;    1,591
336,699;12795,873;   -1,086;    0,591
337,293;12683,838;   -1,723;    0,318
337,887;12835,312;   -2,723;    1,955
338,481;12983,137;    0,459;    0,591
339,074;13111,428;   -0,359;    2,682
339,668;12938,705;   -1,632;    1,227
340,262;13186,673;    1,732;    3,227
340,856;12692,421;    1,822;   -0,682
341,450;12004,664;    1,004;    1,864
342,044;12974,656;    1,459;    0,136
342,637;12723,143;    0,913;   -2,136
343,231;12598,902;   -2,360;    0,682
343,825;12604,498;   -1,086;   -0,591
344,419;12499,283;   -1,995;    0,500
345,012;12259,585;    2,459;    4,045
345,606;12289,305;    4,641;    1,591
346,199;12121,383;   -1,813;   -0,227
346,793;11563,932;    1,914;    2,045
347,386;11780,105;   -0,813;   -1,136
347,980;11796,292;   -0,268;   -0,045
348,573;11563,179;    2,278;    0,409
349,167;11201,681;    5,278;    4,773
349,760;11562,827;    2,914;    2,682
350,354;11584,360;   -0,813;    1,136
350,947;11317,163;    1,096;    1,682
351,540;10935,357;   -0,358;   -1,409
352,134;10863,406;    1,096;    1,136
352,727;10945,239;   -0,086;    1,136
353,320;10719,311;    0,005;    0,591
353,913;10572,682;   -1,995;    1,864
354,507;10763,553;    0,823;   -1,227
355,100;10758,762;    0,460;    0,864
355,693; 9958,641;    2,005;    2,409
356,286; 9951,577;    0,823;    2,773
356,879;10342,666;   -0,722;    1,227
357,472; 9905,096;   -0,904;    1,500
358,065;10111,982;   -0,722;    2,500
358,658;10046,383;   -0,540;    2,318
359,251; 9664,495;   -1,631;   -0,591
359,844; 9104,314;   -1,904;   -1,136
360,437; 9292,659;   -2,995;    0,045
361,030; 9557,370;    1,369;   -0,682
361,623; 9115,935;    2,824;    0,318
362,215; 9235,984;   -0,086;    2,045
362,808; 9022,412;   -2,358;   -1,682
363,401; 9216,270;   -2,449;    0,136
363,994; 8948,686;   -0,631;   -1,500
364,586; 8820,592;    0,824;   -1,500
365,179; 9086,071;   -0,449;   -1,136
365,772; 8553,489;   -1,995;    2,045
366,364; 8862,666;    1,915;   -3,227
366,957; 9044,448;    2,279;   -0,045
367,549; 9094,900;    2,188;   -0,864
368,142; 8738,634;    1,825;   -1,500
368,734; 8929,862;    0,734;   -2,136
369,327; 8877,296;    1,643;   -0,500
369,919; 8788,092;   -1,538;    0,409
370,512; 8570,706;   -1,083;   -0,500
371,104; 8339,846;   -0,901;    1,591
371,696; 8513,430;    1,191;   -0,955
372,289; 8617,361;    0,373;    1,136
372,881; 8779,214;   -2,080;    1,318
373,473; 8700,314;   -2,170;    1,136
374,066; 8505,369;   -0,169;    0,500
374,658; 8328,395;    0,378;    1,136
375,250; 8700,537;    0,653;   -1,409
375,842; 8557,643;    0,473;   -0,045
376,434; 8425,542;   -0,435;   -0,409
377,026; 9022,345;    0,204;   -2,500
377,618; 8942,116;   -0,158;   -0,682
378,210; 8738,106;   -0,338;   -1,955
378,802; 8576,378;    0,754;   -0,591
379,394; 8557,016;    1,846;    0,682
379,986; 9205,938;    1,393;   -0,955
380,578; 9307,515;   -0,153;    0,773
381,170; 8583,582;   -0,972;    0,045
381,762; 8560,047;    0,755;    1,409
382,354; 8796,714;   -0,065;   -1,318
382,945; 8917,901;   -2,976;    0,318
383,537; 9022,903;   -2,705;   -1,955
384,129; 9018,538;   -2,160;   -1,136
384,721; 9257,293;   -0,252;    0,955
385,312; 9200,834;   -0,161;   -0,955
385,904; 9299,480;   -2,706;    1,591
386,496; 8620,391;   -0,979;    1,045
387,087; 8769,650;    1,022;    2,500
387,679; 8831,523;   -1,160;    0,045
388,270; 8950,550;    2,840;    2,045
388,862; 9087,209;    1,295;   -0,318
389,453; 8985,921;   -0,887;    1,045
390,045; 9285,978;   -0,705;   -2,682
390,636; 9200,202;    0,204;   -0,591
391,227; 9041,382;   -0,523;   -0,045
391,819; 9132,472;    0,204;    0,773
392,410; 9235,513;    1,022;    0,045
393,001; 9151,030;   -0,979;   -1,591
393,593; 9476,497;    1,930;   -0,045
394,184; 9338,324;    1,385;   -0,409
394,775; 9264,914;    1,839;    2,136
395,366; 9467,860;    1,385;    0,773
395,957; 9511,295;    0,113;    0,136
396,548; 9810,572;   -0,342;    2,682
397,139;10134,055;   -2,433;    0,591
397,730; 9859,805;   -1,888;    0,955
398,321; 9927,152;   -1,252;    0,955
398,912; 9950,453;   -0,615;    0,136
399,503; 9999,283;   -3,524;   -1,409
400,094; 9415,306;    0,294;    1,682
400,685; 9249,052;   -0,433;    0,045
401,276; 9373,331;    0,930;   -0,955
401,867; 9743,351;   -0,888;    0,773
402,458; 9785,094;   -2,251;   -2,318
403,048; 9764,244;    1,112;    0,591
403,639; 9368,368;    0,840;    0,864
404,230; 9595,663;    2,476;    0,318
404,821; 9538,556;   -0,615;    0,045
405,411; 9645,600;    1,203;   -2,591
406,002; 9238,663;   -1,252;   -1,136
406,592; 9050,838;    2,294;    0,045
407,183; 9371,860;    0,566;   -1,500
407,774; 9285,142;    3,475;   -0,136
408,364; 9664,194;    0,930;    0,409
408,954; 9211,096;    0,384;    1,227
409,545; 9251,064;    1,021;    1,045
410,135; 8767,271;    1,293;    0,500
410,726; 8963,656;    1,838;    0,318
411,316; 9376,966;    0,111;    0,773
411,906; 9003,234;   -0,253;   -0,409
412,497; 8439,783;   -1,070;   -0,045
413,087; 9089,054;   -1,980;   -0,227
413,677; 9541,235;   -0,707;    3,864
414,267; 9353,795;    0,656;    1,409
414,857; 9358,223;   -2,980;    4,227
415,448; 9661,686;    0,839;    0,500
416,038; 9334,501;    0,020;   -0,591
416,628; 9322,385;   -0,889;    0,409
417,218; 8702,955;    0,565;    3,318
417,808; 8984,655;    0,202;   -0,409
418,398; 9534,063;    0,020;    2,682
418,988; 9573,265;    2,020;    0,591
419,578; 9850,993;   -0,707;    1,409
420,168;10210,892;   -1,343;   -0,955
420,757; 9732,266;   -1,343;   -1,500
421,347; 9413,681;    0,111;   -0,227
421,937; 9596,137;    2,292;    1,409
422,527; 9530,003;    0,838;   -0,773
423,116; 9335,723;   -0,253;   -0,045
423,706; 9691,555;   -1,889;    0,318
424,296; 9692,443;    1,384;    0,682
424,885;10105,806;   -0,071;   -3,045
425,475;10414,512;    1,474;   -2,864
426,065;10305,706;   -0,980;   -0,318
426,654; 9890,756;   -0,435;   -0,318
427,244;10072,406;    0,020;    1,409
427,833; 9479,332;    1,383;   -0,500
428,423;10002,150;   -0,526;    1,136
429,012;10771,438;   -0,344;   -1,136
429,601;10239,348;   -1,344;    0,136
430,191;10501,560;    1,292;    4,318
430,780;10108,683;   -0,344;   -0,409
431,369;10030,905;    0,746;   -0,045
431,959;10671,992;   -1,254;    0,500
432,548;10487,603;   -1,163;   -0,045
433,137;10608,549;   -1,254;   -1,318
433,726;11165,180;    0,292;    0,500
434,315;10454,879;   -0,526;    2,409
434,905;10529,702;   -1,254;    1,409
435,494;10408,250;    0,746;    0,955
436,083;10899,018;   -0,981;   -0,955
436,672;10775,509;    0,110;    0,500
437,261;10299,437;    0,292;   -1,955
437,850;10468,206;    1,383;    0,682
438,439;10461,566;    3,291;    1,955
439,027;10263,924;    3,655;    1,773
439,616;10640,808;    2,927;    1,227
440,205;10493,389;    0,200;   -2,136
440,794;10582,043;    2,109;   -0,045
441,383;10880,912;   -1,346;   -0,591
441,971;10706,869;   -2,436;    0,591
442,560;10571,158;    0,563;   -1,773
443,149;10328,652;    0,379;   -1,318
443,737;10447,911;   -0,074;   -2,318
444,326;10737,554;    0,018;    0,318
444,915;10782,989;   -1,982;    0,864
445,503;11219,963;   -2,891;   -0,318
446,092;10392,412;    0,382;    2,136
446,680;10966,663;    0,382;    0,318
447,269;11149,815;   -0,346;   -0,318
447,857;10892,665;    0,018;   -1,773
448,445;11001,773;    0,563;    1,318
449,034;11217,380;   -1,528;   -1,136
449,622;11348,845;   -1,073;    3,500
450,210;10532,576;    2,017;    2,227
450,799;11114,650;    0,290;   -0,591
451,387;11060,042;    1,381;   -0,591
451,975;10692,652;    2,654;    0,864
452,563;10745,063;    3,472;    2,318
453,151;10784,281;   -0,528;   -1,227
453,739;10756,320;   -1,347;    0,136
454,328;10587,966;    2,381;   -2,136
454,916;10251,352;    2,562;   -0,136
455,504;10428,045;    1,017;    1,227
456,092;10592,303;    0,017;   -1,591
456,679;10611,211;    1,472;    0,682
457,267;10565,424;    4,017;    1,045
457,855;10709,518;    1,017;    1,409
458,443;10454,046;   -0,165;    1,682
459,031;10599,250;    0,108;    2,409
459,619;11043,623;   -1,801;    2,864
460,206;11203,026;    0,835;    2,045
460,794;11255,936;   -2,983;   -0,227
461,382;11526,380;   -0,529;   -0,864
461,970;11080,313;    1,198;    1,864
462,557;11098,962;   -0,711;   -0,682
463,145;11321,901;   -3,165;   -1,682
463,732;11487,606;    2,016;   -1,045
464,320;11406,805;   -0,075;   -3,045
464,907;11048,948;    2,743;   -0,773
465,495;10929,607;    0,743;   -1,227
466,082;11116,716;   -1,984;   -0,045
466,670;10997,395;   -2,529;    1,227
467,257;11409,956;   -1,711;    2,045
467,844;11563,358;   -0,075;    0,045
468,432;11572,071;    0,834;    3,500
469,019;11018,154;    0,925;   -1,773
469,606;11518,949;    0,470;    3,682
470,193;11355,390;   -1,439;    0,227
470,780;10902,047;   -2,075;    0,864
471,368;11247,182;   -1,257;   -0,773
471,955;10997,359;    1,379;   -0,682
472,542;10619,124;    0,652;   -1,136
473,129;10872,752;   -0,166;    0,136
473,716;10579,735;    1,470;    0,591
474,303;10784,302;    0,652;   -0,864
474,890;11111,382;   -1,439;   -0,500
475,477;11133,123;   -1,621;    0,409
476,064;11039,977;    1,106;   -1,591
476,650;10978,791;    0,288;    0,318
477,237;10800,155;   -0,258;    0,955
477,824;10970,707;   -1,076;    0,864
478,411;10978,664;   -1,894;   -0,318
478,997;11187,273;    0,560;   -0,773
479,584;11254,104;    1,196;   -0,409
480,171;11992,704;   -0,440;   -0,773
480,757;11607,753;    2,651;    0,773
481,344;11935,964;    0,469;    0,409
481,931;11434,157;    1,105;    1,045
482,517;12602,522;   -1,258;    0,318
483,104;13285,252;    1,106;    2,864
483,690;13600,375;   -1,804;    0,045
484,276;13947,098;   -0,895;    0,227
484,863;13673,232;    2,469;    1,136
485,449;14257,017;   -0,077;    0,318
486,035;14280,093;   -1,986;   -0,136
486,622;14719,324;   -0,895;    0,045
487,208;14644,621;    1,378;    1,500
487,794;14468,494;    0,741;    0,318
488,380;14589,852;    0,105;   -1,409
488,967;14701,449;   -1,168;   -0,409
489,553;14741,495;   -1,895;   -1,409
490,139;14937,664;    1,559;    0,773
490,725;14277,990;    0,741;   -0,227
491,311;13736,994;    3,287;    3,045
491,897;13029,935;   -0,986;    1,500
492,483;12796,417;    0,105;    1,227
493,069;12664,125;    3,923;    0,864
493,655;12687,725;    1,650;    0,682
494,241;12574,456;    1,377;   -0,955
494,826;12981,120;    0,287;   -1,045
495,412;12452,791;    2,559;   -0,682
495,998;12619,788;   -0,805;   -0,318
496,584;12775,957;    0,377;    1,045
497,169;12818,040;    1,014;   -0,682
497,755;12776,208;    0,650;    1,227
498,341;13397,120;    0,559;    0,318
498,926;12987,711;    1,832;    1,955
499,512;13182,405;    1,286;    2,955
500,097;13319,406;    0,195;   -0,318
500,683;13286,369;   -0,350;    2,136
501,268;13664,970;   -0,169;   -0,955
501,854;13381,700;   -0,169;    1,227
502,439;13312,908;   -0,624;   -1,773
503,024;13544,388;    0,195;    0,500
503,610;13658,663;   -0,078;   -0,682
504,195;13712,723;    0,558;    1,955
504,780;13827,013;    2,922;    1,227
505,366;13676,494;    3,013;    2,864
505,951;13401,322;    0,740;    1,045
506,536;13412,656;   -3,260;   -3,682
507,121;13368,653;    0,285;   -0,318
507,706;13944,321;    2,376;    1,045
508,291;14394,151;    2,649;    1,136
508,876;13862,407;   -0,988;    2,591
509,461;13301,274;   -0,169;   -0,773
510,046;13702,720;    0,194;    0,318
510,631;13984,630;   -0,351;   -0,773
511,216;13611,563;    2,467;   -0,500
511,801;13981,018;   -0,442;    2,591
512,386;14360,136;    0,740;    0,500
512,971;14306,980;   -2,988;    0,955
513,555;13842,562;   -0,897;   -1,500
514,140;14703,306;   -0,442;   -3,136
514,725;14704,159;   -0,715;   -1,136
515,309;14835,550;   -0,533;    0,318
515,894;14256,051;   -0,624;   -2,227
516,479;14707,975;   -0,624;   -0,955
517,063;14586,788;    0,376;    1,227
517,648;14697,922;    1,012;   -1,136
518,232;14362,023;   -0,261;   -1,409
518,817;14736,556;   -0,079;    1,682
519,401;14960,095;    2,194;    0,591
519,985;14425,555;    1,103;    1,136
520,570;14292,781;    0,830;   -1,955
521,154;14601,441;    2,102;    0,591
521,738;14782,831;   -2,352;    2,409
522,323;15374,923;   -0,170;    1,682
522,907;15082,129;    0,466;   -0,136
523,491;14789,706;    0,557;    0,955
524,075;14816,512;    2,284;    0,591
524,659;14897,092;    1,466;    0,591
525,243;14343,804;    1,739;    0,409
525,827;14640,943;    0,648;   -0,045
526,411;15493,182;   -1,989;   -0,136
526,995;15778,255;   -0,352;    1,409
527,579;15321,195;   -0,443;   -1,045
528,163;15630,308;    0,375;   -1,500
528,747;15523,891;    2,466;   -0,773
529,331;15883,236;   -0,080;   -1,409
529,915;16077,909;    1,738;    0,955
530,499;16047,239;   -0,807;    1,227
531,082;15759,901;   -0,534;    1,591
531,666;15160,256;    1,374;    0,773
532,250;15885,152;    1,284;    2,682
532,833;16270,441;    0,920;    2,773
533,417;16104,678;   -1,807;    0,864
534,001;16089,914;    1,647;   -0,318
534,584;16875,808;    0,374;    0,500
535,168;16658,514;    0,465;    1,409
535,751;16746,300;    0,647;    0,045
536,334;16168,032;   -0,898;   -0,409
536,918;16726,216;    0,011;    1,591
537,501;16877,638;   -0,899;    1,318
538,085;16875,258;   -0,444;    1,045
538,668;17059,427;    0,829;    2,409
539,251;17441,778;    1,829;    3,773
539,834;17374,372;    0,101;    0,773
540,418;17344,977;   -1,990;    4,318
541,001;17487,949;   -0,990;    1,773
541,584;17456,961;    2,101;    2,227
542,167;17152,417;    1,374;    2,955
542,750;17320,547;    1,919;   -0,773
543,333;16917,592;    0,555;    2,136
543,916;17735,664;    0,192;    2,500
544,499;18443,009;   -1,354;    0,227
545,082;18425,189;    1,374;    3,591
545,665;18569,683;    1,919;    1,500
546,248;18959,410;    1,010;   -0,318
546,830;18555,323;   -0,445;    1,955
547,413;19009,534;    1,010;   -0,773
547,996;19539,366;    0,555;    0,500
548,579;19300,968;    0,919;    0,955
549,161;19074,239;    1,828;    2,682
549,744;18888,113;   -0,809;    0,409
550,326;19404,498;   -0,809;   -1,136
550,909;19213,250;    2,737;    0,591
551,492;19591,980;   -0,263;    0,227
552,074;19374,278;   -0,173;   -1,318
552,657;19984,073;    2,373;    0,045
553,239;19690,854;   -0,173;   -0,773
553,821;19586,731;   -1,082;    1,045
554,404;19123,665;    1,282;    1,136
554,986;19543,247;    0,464;    1,045
555,568;20147,301;    1,191;   -0,955
556,151;19308,106;    1,191;   -0,227
556,733;19518,012;   -0,264;   -0,864
557,315;19997,626;    0,100;    0,500
557,897;19868,368;    0,554;   -0,500
558,479;19958,423;   -1,991;    1,318
559,061;20117,015;   -0,719;   -0,864
559,643;20496,832;   -0,264;    0,045
560,225;20888,935;    1,645;    2,864
560,807;20900,105;    0,918;    0,318
561,389;20303,862;    0,554;    2,318
561,971;21113,903;    0,463;    2,136
562,553;20881,787;   -1,628;    1,591
563,135;21077,425;   -0,537;    1,136
563,717;20671,199;    3,372;    1,136
564,298;21474,521;    3,645;   -0,045
564,880;21204,400;    0,645;   -1,409
565,462;21378,763;    0,645;    1,318
566,043;22600,718;   -0,446;    2,318
566,625;22165,890;    1,918;    1,227
567,207;22034,718;    1,099;    1,682
567,788;23236,044;   -1,264;    1,500
568,370;24135,913;    1,917;   -0,500
568,951;24052,630;    0,190;    0,227
569,533;25002,789;   -0,628;   -0,500
570,114;25498,212;   -0,446;    0,682
570,695;26122,082;   -0,174;   -1,318
571,277;26688,664;   -0,265;   -1,682
571,858;27499,864;    2,008;   -1,136
572,439;28473,692;    1,554;   -1,045
573,021;28715,745;    2,099;   -2,773
573,602;29256,061;   -1,265;    0,318
574,183;30306,802;   -2,083;    2,227
574,764;30512,827;   -1,629;    0,409
575,345;31167,854;    0,917;   -0,136
575,926;31791,496;   -0,356;    0,136
576,507;31721,232;    1,099;   -0,227
577,088;32926,562;    3,099;    1,682
577,669;32979,094;    0,735;    1,955
578,250;33895,802;    0,644;   -1,045
578,831;34639,040;   -1,356;   -2,227
579,412;34891,173;   -0,810;    0,955
579,993;35692,534;    1,008;    0,227
580,573;36112,852;   -0,629;   -0,955
581,154;35090,139;    0,735;   -0,591
581,735;36014,322;    0,644;    0,773
582,315;35511,413;   -0,629;    2,136
582,896;35694,827;   -0,174;    1,227
583,477;35094,992;    0,189;    1,227
584,057;35359,046;    0,553;    0,955
584,638;35669,716;    2,553;    2,318
585,218;35607,116;   -0,538;    2,682
585,799;35751,973;    0,281;   -0,227
586,379;35643,835;    0,372;    1,591
586,959;34276,779;    0,735;    0,318
587,540;33469,633;   -0,629;    2,227
588,120;32988,147;    1,007;   -0,045
588,700;31887,573;    2,553;    2,136
589,281;32235,329;    0,462;   -0,955
589,861;32227,245;    0,099;   -1,682
590,441;31997,260;    2,371;   -2,682
591,021;30894,433;   -0,265;   -2,591
591,601;31077,521;   -0,537;    0,500
592,181;31051,422;   -0,719;   -0,773
592,761;30298,011;    0,007;    1,409
593,341;30205,371;   -0,901;    0,045
593,921;30167,165;   -0,265;    1,591
594,501;30095,722;   -0,538;    1,318
595,081;29941,177;    0,917;   -0,318
595,661;30339,624;   -1,447;    0,955
596,240;30880,464;   -0,537;    0,136
596,820;30618,750;    0,372;    1,955
597,400;30775,626;    2,008;    0,773
597,980;30911,504;    2,008;    1,045
598,559;30907,867;    2,735;   -0,227
599,139;30533,567;   -0,174;   -1,227
599,718;30471,203;   -0,174;   -0,409
600,298;30765,355;    0,735;    0,682
600,877;31050,718;    2,917;    1,409
601,457;31307,640;    2,281;    1,136
602,036;31209,420;    0,190;    2,045
602,616;31487,948;    0,644;    1,682
603,195;31808,902;   -0,355;    3,500
603,774;31346,387;   -0,901;    2,045
604,354;31228,920;    0,826;   -0,500
604,933;30643,944;    0,463;    1,864
605,512;30760,736;    3,554;    0,591
606,091;30785,066;   -0,537;    3,773
606,671;31628,799;    0,281;    0,773
607,250;30672,911;    1,644;    3,136
607,829;30936,938;    2,372;    3,227
608,408;30795,193;    1,190;    2,591
608,987;29736,681;    1,281;    3,409
609,566;30097,817;   -1,265;   -2,500
610,145;30181,780;   -1,082;    0,682
610,723;30565,675;    4,372;    6,864
611,302;29839,949;   -0,446;    1,682
611,881;29309,125;    5,008;   11,227
612,460;30149,759;    1,645;    3,955
613,039;30572,671;   -0,082;    2,045
613,617;29197,742;    1,736;    4,773
614,196;29418,157;    1,099;    1,227
614,775;29769,070;    1,009;    2,409
615,353;29679,556;    0,736;    0,864
615,932;29392,917;    0,100;    2,409
616,510;29998,060;    0,554;    0,591
617,089;29490,915;    7,100;   17,591
617,667;29167,928;    2,372;    6,136
618,246;28991,198;   -1,537;    1,318
618,824;29183,934;   -3,355;   -0,955
619,402;28794,490;   -2,900;   -1,773
619,981;29284,624;   -0,173;   -1,045
620,559;29067,312;    0,009;    1,682
621,137;28503,797;   -0,718;    1,864
621,715;28558,692;   -1,173;   -0,682
622,293;28535,752;   -0,537;   -0,773
622,871;28929,262;   -0,718;    0,500
623,450;28497,381;    0,373;   -0,864
624,028;28397,608;    0,191;   -0,955
624,606;28016,616;   -1,718;    1,682
625,183;28445,251;   -1,536;   -1,136
625,761;28001,968;    1,009;    1,136
626,339;28368,181;    1,373;    2,591
626,917;28701,835;   -0,172;   -0,045
627,495;28751,173;   -0,354;    1,318
628,073;28176,593;   -0,263;    2,864
628,650;27824,360;    0,100;    2,136
629,228;28248,736;    0,373;    4,409
629,806;27602,654;    2,282;    1,136
630,383;27842,348;    1,464;   -0,318
630,961;27670,233;    2,555;   -0,955
631,539;27416,020;    2,464;    0,227
632,116;26768,688;   11,373;   15,409
632,694;27286,370;    2,555;    6,500
633,271;27642,972;    0,828;    2,682
633,848;27537,939;    1,828;    2,045
634,426;27589,649;   -1,081;    1,773
635,003;26665,050;    1,101;   -0,409
635,580;27040,008;    1,192;    3,682
636,158;27556,090;    3,737;    1,227
636,735;27540,460;    0,555;   -0,500
637,312;27718,231;   -0,809;   -0,682
637,889;27809,926;   -4,354;   -0,682
638,466;27244,853;   -3,990;   -0,409
639,043;27256,305;    2,101;   -1,136
639,620;27587,533;   -2,262;   -0,955
640,197;27938,709;    1,100;    1,682
640,774;27962,236;   -0,172;    1,136
641,351;28378,035;    0,737;    1,136
641,928;27834,470;   -0,627;    1,409
642,505;27517,906;    0,828;   -0,500
643,082;27569,250;   -1,718;    1,227
643,658;26579,868;   -0,718;    1,500
644,235;27386,030;    1,191;    2,500
644,812;27712,829;    1,918;    0,773
645,388;27478,447;   -0,991;    1,409
645,965;27545,337;   -0,809;    1,682
646,542;27609,499;   -1,445;   -0,227
647,118;27579,208;    1,009;   -0,955
647,695;27932,098;   -0,263;    1,136
648,271;27810,715;   -0,536;    0,500
648,848;28112,605;    0,736;    2,227
649,424;27935,677;    0,827;    1,318
650,000;27708,294;   -0,354;   -1,045
650,577;27491,002;   -0,627;   -0,955
651,153;28022,438;   -1,809;    0,955
651,729;29070,873;    1,191;    0,864
652,305;29922,491;    0,645;    2,773
652,881;35852,562;   -0,082;    1,136
653,458;43368,725;    1,100;    0,227
654,034;46837,342;    0,282;    1,591
654,610;48141,687;    0,554;    0,773
655,186;49440,759;    0,645;    3,045
655,762;49163,558;   -0,991;    0,409
656,338;49282,993;    0,100;    0,136
656,913;50229,611;   -0,082;    0,409
657,489;49410,955;    0,827;   -0,318
658,065;49348,663;   -0,173;   -1,591
658,641;50085,281;   -0,900;   -0,864
659,217;49413,262;   -0,991;    0,409
659,792;48785,243;    0,645;   -0,409
660,368;48961,314;   -2,173;   -0,682
660,944;48030,568;   -2,082;    1,227
661,519;41912,913;   -0,628;    0,409
662,095;35328,348;   -1,719;    0,591
662,670;30841,147;    1,281;   -0,136
663,246;29876,219;    1,009;   -0,409
663,821;29270,382;    0,281;    1,682
664,396;28782,635;    0,009;    1,864
664,972;29125,707;    0,009;   -0,500
665,547;29445,415;    1,372;    0,136
666,122;29465,942;   -1,082;    0,318
666,698;29763,014;   -0,173;    0,318
667,273;29090,449;   -0,173;    0,136
667,848;29925,521;    2,372;    1,500
668,423;29756,320;    2,190;    2,318
668,998;30354,937;    2,827;   -0,682
669,573;30890,009;   -3,264;   -1,500
670,148;30701,536;   -1,446;   -0,682
670,723;30536,153;   -1,810;    0,318
671,298;30922,861;    2,372;    1,045
671,873;31102,115;   -0,082;   -0,136
672,448;30976,096;    0,645;    0,136
673,023;31324,804;   -1,992;   -0,227
673,597;31697,876;    0,827;    2,318
674,172;31447,675;   -0,355;    0,318
674,747;30910,110;    0,372;   -1,045
675,321;30716,364;   -0,628;    3,318
675,896;30299,708;    0,645;    1,045
676,471;31398,962;    2,645;    1,591
677,045;31097,943;   -1,264;    0,682
677,620;31220,742;    0,190;    1,136
678,194;31480,359;   -2,628;    1,136
678,769;30995,522;   -1,083;   -0,318
679,343;31273,867;   -0,628;    1,773
679,917;31194,575;   -1,446;    1,955
680,492;31298,647;    0,826;    3,227
681,066;31456,537;    3,372;    0,409
681,640;31487,245;    1,463;   -0,318
682,214;32338,226;    0,735;    0,500
682,788;31865,571;   -1,356;   -0,773
683,363;31879,733;   -1,810;    1,682
683,937;31530,078;   -1,719;   -0,318
684,511;32251,422;    0,463;   -0,591
685,085;31981,131;   -1,356;    0,318
685,659;31707,475;   -2,538;    0,864
686,232;32019,092;   -0,356;   -0,318
686,806;31660,073;   -0,901;    0,409
687,380;32302,236;   -0,174;    0,591
687,954;32535,126;   -1,174;    1,136
688,528;32292,925;   -0,719;    1,955
689,101;33068,088;   -3,992;    1,045
689,675;32598,342;   -0,356;   -0,136
690,249;31983,050;   -0,719;    0,409
690,822;32319,758;    0,280;    0,318
691,396;32394,103;   -0,265;    1,227
691,969;31807,538;    1,280;    0,136
692,543;32291,155;   -0,447;   -1,955
693,116;31928,136;   -0,265;   -1,409
693,690;31752,844;    0,099;    0,500
694,263;32309,735;   -1,083;    2,955
694,836;32426,261;    1,371;    3,591
695,410;31018,151;   -0,265;    1,773
695,983;31495,495;    0,189;    0,591
696,556;31439,658;   -0,447;   -1,045
697,129;31871,912;   -0,356;    1,409
697,703;31506,711;   -1,629;    1,955
698,276;31399,874;    1,462;   -0,773
698,849;31292,582;    1,280;    1,409
699,422;31624,745;   -1,083;    0,591
699,995;31285,180;    0,007;    0,136
700,568;31817,434;   -0,629;    3,045
701,140;31878,778;   -2,811;    1,682
701,713;31602,123;   -0,174;    2,409
702,286;31306,013;   -0,538;    0,864
702,859;31248,812;   -0,902;   -0,591
703,432;30332,066;    0,825;    0,682
704,004;30780,592;    0,462;    0,318
704,577;30685,846;   -0,629;    0,136
705,150;31327,008;    0,189;    2,500
705,722;31087,171;   -0,356;   -3,227
706,295;30832,061;   -0,175;   -0,591
706,867;30766,951;   -0,175;    1,955
707,440;30939,114;   -1,720;   -0,409
708,012;31199,095;    0,462;    0,591
708,584;31095,894;    2,462;    0,227
709,157;31333,329;    1,825;   -0,591
709,729;31021,310;    2,280;    2,045
710,301;31881,200;    0,734;    0,045
710,874;31860,363;   -1,447;   -0,227
711,446;30745,526;    0,371;    0,864
712,018;30608,780;    0,098;    0,500
712,590;30392,579;   -1,993;    1,682
713,162;30939,832;    0,825;    1,318
713,734;31137,541;    1,825;   -2,045
714,306;31037,976;   -1,902;   -0,409
714,878;29697,502;    0,825;    0,864
715,450;30493,029;    0,643;    0,864
716,022;30744,282;    1,552;    1,318
716,593;30890,263;    0,189;    0,591
717,165;30792,426;   -3,175;   -1,227
717,737;30545,680;    0,280;    0,409
718,309;30165,024;    0,280;   -0,045
718,880;30092,733;   -0,539;   -1,409
719,452;30314,986;   -0,175;   -1,591
720,024;29956,058;    0,734;   -0,591
720,595;30525,221;   -2,902;    0,955
721,167;30027,293;    0,370;   -2,045
721,738;29588,183;   -0,812;   -1,045
722,309;29556,073;   -0,993;   -1,227
722,881;29336,326;   -1,357;    0,773
723,452;29947,034;   -2,630;    2,864
724,023;30135,288;   -0,721;    2,682
724,595;29854,269;    0,007;    0,682
725,166;29602,250;    0,007;   -0,409
725,737;29300,413;    1,734;    0,227
726,308;29337,485;   -0,266;    0,318
726,879;29794,556;   -1,630;    1,227
727,450;29705,719;    0,552;   -0,045
728,021;29697,700;    3,097;    0,682
728,592;29418,045;    0,734;    0,500
729,163;29789,662;    0,643;   -0,136
729,734;29798,643;    0,188;   -0,227
730,305;30151,987;    1,734;    0,136
730,876;30550,696;    0,188;    2,955
731,447;30255,495;    2,188;    2,682
732,017;30368,748;    1,097;    1,864
732,588;29867,275;    0,734;    1,227
733,159;30067,256;    0,643;   -1,045
733,729;29873,782;    0,006;    0,409
734,300;29101,399;    0,915;    0,864
734,870;29539,108;    3,461;    0,591
735,441;30148,634;    0,370;   -0,591
736,011;29875,433;    0,643;   -1,591
736,582;29819,232;   -0,812;    0,045
737,152;29307,849;   -1,721;   -2,045
737,722;29720,649;   -0,267;   -0,682
738,293;29417,448;   -1,358;    1,318
738,863;29320,429;    2,461;    2,318
739,433;29137,137;    5,279;    0,318
740,003;29707,481;   -0,994;   -0,682
740,573;29094,190;    2,097;   -1,591
741,143;29045,989;   -1,085;    0,318
741,713;29862,151;    1,188;   -0,500
742,283;29541,860;    0,915;    1,591
742,853;29240,295;    1,915;    1,591
743,423;28709,276;    1,733;    0,045
743,993;28890,439;   -0,358;    1,500
744,563;28245,511;    0,097;   -0,864
745,133;28163,855;   -0,812;   -0,864
745,702;28884,018;   -0,267;    1,773
746,272;28099,908;   -0,176;    0,591
746,842;27821,525;   -1,358;   -0,591
747,411;28249,324;   -0,267;   -0,318
747,981;28420,123;    0,097;    0,500
748,551;28399,923;    2,278;   -1,045
749,120;28279,358;    0,642;   -0,227
749,690;28669,793;   -0,631;    2,409
750,259;29077,138;    1,369;    2,955
750,828;29001,937;    1,551;   -1,955
751,398;29206,463;    1,278;   -0,045
751,967;28784,626;    2,187;    0,409
752,536;28979,425;   -0,813;   -0,227
753,105;29425,770;    0,096;    0,227
753,675;29197,660;    0,096;    1,773
754,244;29097,095;   -0,904;    3,591
754,813;29168,531;    0,551;    1,227
755,382;28775,421;    0,460;    0,955
755,951;29372,856;    1,551;    3,682
756,520;28887,746;   -0,085;    1,864
757,089;29444,364;    0,278;    0,500
757,658;29646,254;    1,733;    1,227
758,227;29618,871;    1,096;    0,318
758,795;29955,125;    1,187;    1,136
759,364;30141,651;   -0,086;   -0,591
759,933;29131,177;   -1,176;   -0,045
760,501;28602,431;    0,733;   -1,318
761,070;29105,776;   -2,813;   -1,409
761,639;29841,847;   -1,904;    1,318
762,207;29209,737;    1,551;   -0,955
762,776;29163,900;    0,369;    0,864
763,344;29085,154;   -0,995;    0,591
763,913;28158,498;   -0,722;    1,409
764,481;28887,298;    1,005;   -0,136
765,049;28579,278;   -1,358;    1,409
765,618;28427,805;   -0,086;    0,318
766,186;28533,149;    0,278;    0,136
766,754;28736,130;    0,005;    1,864
767,322;27682,475;   -1,995;    0,409
767,890;27731,910;   -0,722;   -1,773
768,459;28179,891;   -2,177;   -0,318
769,027;28352,690;    1,641;    3,409
769,595;27293,762;    3,278;    2,591
770,163;27709,289;    3,823;    2,955
770,730;27391,270;    0,732;   -0,136
771,298;27176,796;    0,187;   -1,409
771,866;27295,595;   -1,541;    4,955
772,434;27697,485;   -0,631;   -1,864
773,002;27882,284;    0,005;    0,682
773,569;27521,901;    0,914;    1,682
774,137;27333,519;   -0,268;   -0,045
774,705;28121,136;    0,278;   -0,136
775,272;27612,935;    0,641;    0,682
775,840;27281,643;   -0,177;    2,682
776,407;26853,261;    0,277;    1,955
776,975;26459,605;   -0,632;    0,318
777,542;27501,677;   -1,086;   -0,045
778,110;27311,840;   -1,268;   -0,045
778,677;26937,639;   -2,359;   -0,864
779,244;26699,983;    2,186;    1,045
779,812;26817,237;    1,823;    0,864
780,379;26681,127;    0,005;    1,136
780,946;26889,563;    1,005;   -0,773
781,513;27240,453;   -1,450;    0,318
782,080;26577,434;   -0,086;    2,864
782,647;27408,869;   -0,268;    3,045
783,214;26932,850;   -0,177;    3,864
783,781;26555,740;   -0,723;   -0,682
784,348;26406,448;   -0,632;    1,500
784,915;26855,429;   -3,177;    0,318
785,482;26668,865;    1,368;    2,591
786,049;27085,482;    0,186;   -0,591
786,615;27203,826;    0,277;   -0,955
787,182;26902,535;    0,186;   -0,682
787,749;26565,334;   -2,814;    1,409
788,315;25913,860;   -1,632;   -0,409
788,882;26213,386;    1,550;   -1,227
789,448;26926,186;    1,732;   -0,955
790,015;26904,076;    1,095;    3,227
790,581;26518,693;    1,459;    0,227
791,148;26401,219;    0,641;    1,045
791,714;26593,746;   -0,541;    3,136
792,280;26257,454;    0,186;    1,591
792,847;25776,253;    0,550;    2,500
793,413;26383,507;   -0,269;   -0,318
793,979;25904,760;    3,459;   -1,318
794,545;26010,741;    4,459;    2,682
795,111;25385,995;    2,186;    1,318
795,678;25599,703;    0,731;   -1,682
796,244;25155,775;    3,368;    0,136
796,810;25707,210;    1,731;    0,773
797,375;25423,828;    0,549;   -2,136
797,941;25398,718;   -0,541;    0,591
798,507;25607,517;   -0,451;   -0,955
799,073;25135,679;   -0,360;    0,591
799,639;25162,206;   -2,632;    3,136
800,205;25191,550;    0,095;    2,682
800,770;24670,350;    0,640;    1,773
801,336;24826,603;    1,368;   -0,955
801,901;24532,402;    4,549;    3,136
802,467;25082,929;   -0,542;    2,045
803,033;24410,001;   -0,087;    0,864
803,598;24655,436;    1,913;   -1,045
804,163;24647,962;    1,095;   -0,318
804,729;24566,307;   -0,178;    1,136
805,294;25054,197;    0,822;    2,227
805,859;24842,632;    0,731;   -0,409
806,425;24232,977;    1,186;    2,682
806,990;23919,412;    2,186;    4,318
807,555;24397,757;   -1,451;    2,591
808,120;24346,738;    0,822;   -0,409
808,685;24344,355;    0,185;   -2,500
809,250;23781,609;    0,004;   -0,500
809,815;24089,590;    1,913;    0,682
810,380;24668,753;   -0,269;    1,591
810,945;25255,461;   -1,087;    2,045
811,510;24340,805;    2,094;    1,591
812,075;24062,332;   -0,633;   -1,409
812,640;24083,131;    2,003;    1,409
813,204;24168,294;    0,822;   -0,227
813,769;24693,365;    2,094;   -0,045
814,334;24021,892;    0,458;    0,864
814,898;24112,055;    0,367;    0,591
815,463;23959,854;    1,276;   -0,773
816,027;23896,744;   -0,724;   -2,318
816,592;23942,270;    0,640;   -2,045
817,156;23489,796;    2,094;    1,136
817,721;23404,323;    4,276;    2,318
818,285;23331,940;    2,912;    1,500
818,849;23971,194;   -1,451;    1,682
819,414;23845,629;   -0,269;    2,955
819,978;23418,883;   -1,269;    1,773
820,542;24053,955;    2,003;    0,500
821,106;23697,481;   -0,815;    0,682
821,670;23826,098;   -0,815;    2,591
822,234;23575,261;   -0,270;    1,409
822,798;22864,787;    0,003;    0,500
823,362;22858,314;   -0,633;    4,227
823,926;22124,295;    0,094;    1,136
824,490;22346,821;   -0,997;   -0,682
825,054;22873,529;   -0,088;   -1,136
825,618;22445,238;   -1,542;   -1,500
826,181;22418,219;    0,458;   -1,318
826,745;22284,836;    1,367;   -1,045
827,309;22650,180;    1,185;    1,318
827,872;22028,343;    1,367;    0,955
828,436;23018,051;    1,185;   -0,773
828,999;23070,123;   -0,997;    1,227
829,563;21846,831;   -0,179;    1,136
830,126;21665,358;   -0,179;   -0,591
830,690;21682,430;   -1,997;    2,864
831,253;21167,683;   -0,543;    2,227
831,816;21345,573;   -1,906;    0,500
832,380;21235,372;    0,185;    0,864
832,943;21469,899;   -1,361;   -0,500
833,506;20940,607;    2,639;   -1,227
834,069;21721,770;    3,912;   -0,955
834,632;21782,387;    1,730;    1,318
835,195;21706,641;    1,003;    0,955
835,758;20877,531;   -0,997;    1,955
836,321;20749,693;    0,730;   -1,045
836,884;20824,947;   -0,725;   -0,955
837,447;20817,928;   -2,816;    1,773
838,010;21152,182;    0,366;    3,227
838,573;21383,890;   -1,179;    0,773
839,135;21330,143;   -1,361;   -0,955
839,698;20779,215;    1,275;    0,409
840,261;20289,560;    1,003;   -0,227
840,823;20088,268;   -0,543;    0,864
841,386;20391,431;   -0,452;   -2,409
841,948;20263,321;   -1,361;    1,773
842,511;20022,665;    0,912;    1,682
843,073;20188,374;    1,912;    0,227
843,636;19929,536;   -0,361;   -0,227
844,198;19878,154;    0,911;    0,591
844,760;20000,498;    1,093;    1,955
845,322;19689,752;    0,548;    1,136
845,885;20111,551;    0,730;    0,591
846,447;20540,441;   -1,998;    0,227
847,009;20124,058;    1,911;   -0,682
847,571;20450,312;    0,820;   -2,045
848,133;20549,384;   -1,089;   -1,864
848,695;20376,819;   -0,543;    1,409
849,257;19891,891;   -1,089;   -1,682
849,819;20056,327;   -0,998;   -0,409
850,381;20103,762;   -0,725;   -0,864
850,942;20510,561;    1,093;   -0,591
851,504;20484,178;    1,184;    0,227
852,066;20526,705;    1,275;   -1,591
852,628;19969,777;   -0,180;    1,955
853,189;19538,303;    1,638;    2,682
853,751;19647,557;   -0,907;    1,409
854,312;19434,083;   -0,453;   -1,682
854,874;19977,337;   -2,089;   -0,773
855,435;20512,681;   -0,907;   -1,682
855,997;20696,208;   -1,816;   -0,136
856,558;19968,916;    0,366;    1,773
857,119;20055,806;    0,820;    2,864
857,681;19755,878;    0,002;    0,318
858,242;19840,222;    1,911;   -2,136
858,803;20222,385;    0,456;   -0,773
859,364;20797,184;    0,184;   -4,773
859,925;20103,620;   -2,453;   -0,955
860,486;19986,600;   -0,453;   -0,955
861,047;19677,581;   -0,544;   -1,227
861,608;19468,744;   -1,089;   -0,773
862,169;19624,907;    0,638;   -0,045
862,730;19388,979;    0,456;    1,409
863,291;19695,596;   -0,635;   -0,500
863,852;20086,213;   -0,635;    1,955
864,412;19474,194;   -0,271;   -0,864
864,973;17994,812;   -0,089;    0,500
865,534;17896,974;   -1,726;    0,227
866,094;19451,592;    1,820;    0,227
866,655;19035,027;    1,274;    3,318
867,215;19293,372;    0,274;    0,136
867,776;19137,534;    0,547;   -0,136
868,336;19290,788;   -1,453;    0,136
868,897;18757,496;    2,638;    1,682
869,457;18448,568;    1,365;    0,318
870,017;18671,003;    0,547;   -1,227
870,578;19248,712;   -0,817;    0,773
871,138;18939,511;   -2,089;   -0,955
871,698;18424,310;   -0,817;   -1,318
872,258;18304,927;   -0,453;   -2,864
872,818;18714,363;    2,729;    0,045
873,378;18643,434;    0,638;    1,045
873,938;18178,052;    0,547;    0,500
874,498;18524,487;    0,274;   -1,955
875,058;18445,105;    2,183;    1,773
875,618;18270,358;    1,910;   -2,682
876,177;18180,521;    1,274;    0,136
876,737;17757,775;   -0,090;    1,955
877,297;17805,756;    0,183;    1,955
877,856;17815,191;   -0,362;    0,318
878,416;17773,263;    1,183;   -0,136
878,976;18004,335;   -1,817;    0,409
879,535;18174,407;    0,092;    3,136
880,095;17895,024;   -0,544;    0,045
880,654;18058,914;   -1,090;    1,318
881,213;18154,349;    2,456;    1,500
881,773;17734,603;    2,637;    2,682
882,332;18113,402;    3,365;    5,136
882,891;17953,747;    3,092;    2,136
883,451;18432,364;   -1,272;    1,682
884,010;17850,708;   -2,908;   -0,409
884,569;17952,780;   -0,999;   -0,045
885,128;18094,488;    2,819;   -1,864
885,687;18213,106;    4,455;    0,682
886,246;17888,450;    1,455;    2,136
886,805;17664,613;    2,455;    2,045
887,364;17944,594;   -0,999;   -0,500
887,922;18303,393;   -1,181;    0,045
888,481;17810,192;   -1,545;    0,591
889,040;18139,264;    1,183;    2,136
889,599;18833,881;    2,455;    1,409
890,157;18904,499;    1,455;    2,409
890,716;18552,843;   -0,090;    0,227
891,274;18359,915;    0,092;   -1,136
891,833;18824,351;    1,546;    0,864
892,391;18687,877;   -0,454;    0,500
892,950;18735,858;    1,819;   -0,773
893,508;19117,748;    0,455;   -0,409
894,067;18431,638;    0,637;    0,136
894,625;18313,437;   -0,636;   -1,500
895,183;18558,691;   -0,363;   -0,682
895,741;18456,762;    1,728;   -1,773
896,299;18286,471;   -0,545;   -2,409
896,858;18464,179;    0,819;   -1,591
897,416;18583,251;    2,728;   -1,318
897,974;18302,959;    1,819;    0,318
898,532;18497,849;    6,091;    2,682
899,089;18353,284;    2,091;   -0,682
899,647;18409,447;   -1,454;    1,318
900,205;18120,246;    1,182;    1,045
900,763;18309,318;   -0,454;    0,227
901,321;18322,117;    2,364;   -1,409
901,878;17688,734;   -1,000;   -0,773
902,436;17561,534;   -1,363;    1,318
902,994;18022,696;    4,728;    3,682
903,551;17373,314;    0,728;    0,409
904,109;17794,749;    0,182;   -1,409
904,666;17340,457;    2,455;    1,045
905,224;17147,347;    0,182;   -0,409
905,781;16917,692;    0,727;   -0,318
906,338;16996,582;   -1,363;    1,045
906,895;16930,836;    0,637;    2,045
907,453;16867,362;    1,727;    1,136
908,010;16895,161;   -0,909;    0,409
908,567;16534,960;    1,273;    0,591
909,124;15986,214;    0,364;   -1,500
909,681;16092,740;   -2,909;    0,682
910,238;16193,357;    0,636;   -1,318
910,795;16501,884;   -0,273;   -1,136
911,352;16099,520;   -2,909;   -2,682
911,909;15502,975;   -1,364;   -0,864
912,466;16025,247;   -3,182;    1,500
913,022;15594,429;   -1,636;    0,500
913,579;15957,793;   -0,909;    2,045
914,136;15603,702;    1,636;    0,955
914,692;15958,429;    0,091;   -1,227
915,249;15551,975;    1,455;    0,409
915,806;15755,975;    0,182;    1,955
916,362;15492,429;    1,909;    1,864
916,918;15064,247;    2,000;    1,045
917,475;15034,975;   -1,182;    0,955
918,031;15136,975;    3,364;   -0,045
918,587;14554,520;   -0,909;   -0,318
919,144;14752,611;   -2,273;    0,227
919,700;15067,884;    1,727;    0,773
920,256;14642,975;    0,727;    0,045
920,812;14277,702;   -0,727;   -1,045
921,368;14304,702;   -1,727;   -1,045
921,924;13892,338;    0,182;   -0,136
922,480;13500,066;   -0,545;    1,227
923,036;14074,793;    1,273;    1,955
923,592;14009,975;    0,455;    0,318
924,148;13922,338;    0,455;   -0,955
924,704;13192,066;   -1,364;   -0,409
925,259;13439,338;   -0,273;    0,591
925,815;13242,611;    1,455;    0,500
926,371;12703,975;    2,909;    1,409
926,926;12557,884;    2,091;    0,591
927,482;12194,793;   -1,364;    0,773
928,037;12069,247;    0,909;    2,045
928,593;12404,338;    1,636;    1,045
929,148;12180,338;   -1,818;   -1,500
929,704;11646,429;   -1,455;   -0,500
930,259;11865,338;    0,091;   -0,136
930,814;10918,066;   -0,818;    1,955
931,369;10566,520;    1,091;   -0,773
931,925;10426,429;   -0,091;    0,136
932,480;10338,611;   -2,818;   -2,591
933,035;10184,611;    0,545;   -0,318
933,590; 9949,975;    0,364;   -1,773
934,145; 9554,429;   -1,364;   -0,318
934,700; 9865,702;    0,455;   -0,591
935,255; 9672,429;   -0,091;    0,045
935,809; 8945,793;    3,182;    0,864
936,364; 8018,793;   -0,455;   -0,136
936,919; 7974,975;    0,455;   -1,773
937,474; 7841,247;    1,455;    0,136
938,028; 7567,884;   -1,636;    1,136
938,583; 7060,338;    1,818;    4,682
939,138; 7298,429;    2,091;    2,136
939,692; 6696,338;    1,636;   -1,136
940,247; 6414,157;   -0,727;   -1,045
940,801; 5943,429;   -0,636;    0,227
941,355; 5815,338;   -0,364;    2,591
941,910; 5438,066;   -0,273;   -2,136
942,464; 5540,338;   -0,818;   -0,318
943,018; 5311,611;    1,000;   -0,227
943,572; 5267,520;    2,545;   -0,682
944,126; 4653,702;    0,091;   -0,409
944,681; 4546,157;    3,091;    0,227
945,235; 4529,247;    1,000;   -0,591
945,789; 4453,520;    0,364;   -1,864
946,342; 4542,247;    0,455;   -0,591
946,896; 4344,975;   -2,273;    0,955
947,450; 4104,429;    1,545;   -0,227
948,004; 4297,429;    1,727;   -0,045
948,558; 4308,520;    0,273;   -0,864
949,111; 4254,520;   -0,273;   -0,318
949,665; 4252,884;    1,636;   -0,682
950,219; 4103,702;   -0,091;   -1,045
950,772; 4218,793;   -1,909;    1,864
951,326; 4108,157;    0,545;   -0,955
951,879; 4218,975;    0,727;   -2,318
952,433; 4246,429;    0,000;    2,227
952,986; 4069,702;    2,909;    0,682
953,539; 4039,429;   -0,273;    0,591
954,093; 3939,702;    0,545;   -1,318
954,646; 4064,702;    0,909;    1,318
955,199; 3889,157;    0,000;   -0,500
955,752; 3781,338;   -0,455;    1,773
956,305; 3724,338;   -0,091;    2,955
956,858; 3902,066;    0,818;   -0,318
957,411; 4077,338;   -0,545;    2,136
957,964; 3917,066;    1,364;    2,136
958,517; 3899,338;   -1,545;    3,136
959,070; 3707,157;   -0,455;    1,955
959,623; 3772,611;    1,091;    1,500
960,176; 3530,975;    1,727;    2,045
960,728; 3528,247;   -2,727;    0,773
961,281; 3579,066;    0,545;    0,500
961,834; 3646,611;   -0,909;    0,864
962,386; 3538,884;    1,727;    1,045
962,939; 3471,520;    0,364;   -0,318
963,491; 3623,157;    0,455;    1,136
964,043; 3486,702;    1,182;    2,409
964,596; 3605,975;   -1,000;    2,227
965,148; 3461,338;   -1,000;    1,773
965,700; 3338,702;    1,091;   -0,227
966,253; 3510,611;   -0,636;    0,318
966,805; 3354,611;   -2,273;    0,773
967,357; 3397,884;    1,091;   -1,500
967,909; 3347,247;    0,455;   -1,227
968,461; 3464,611;    0,545;    3,136
969,013; 3408,702;   -0,182;   -0,864
969,565; 3500,157;   -0,455;   -1,136
970,117; 3535,338;   -0,364;    1,045
970,669; 3355,884;    0,182;   -0,136
971,220; 3228,884;   -0,455;   -1,500
971,772; 3154,702;   -0,636;   -0,318
972,324; 3271,429;    0,091;   -0,500
972,876; 3220,702;    0,818;   -0,045
973,427; 3370,429;    1,909;   -1,045
973,979; 3308,793;   -0,727;   -2,500
974,530; 3377,520;    1,818;    1,318
975,082; 3373,429;   -0,545;    1,682
975,633; 3274,157;    1,091;    1,682
976,184; 3401,338;    0,909;    0,773
976,736; 3187,793;    0,091;    0,227
977,287; 3010,066;   -0,909;   -0,500
977,838; 3188,429;    0,909;   -0,318
978,389; 3227,702;   -1,000;   -0,500
978,940; 3102,247;    0,545;   -0,409
979,491; 3110,520;    0,091;   -0,500
980,042; 3076,702;    0,182;    3,045
980,593; 3141,338;   -2,545;    0,227
981,144; 3181,975;    2,545;   -0,500
981,695; 3140,520;    1,455;    1,500
982,246; 3105,793;   -0,273;    1,045
982,797; 3268,338;   -1,727;    0,682
983,347; 3388,066;    0,364;    0,591
983,898; 3586,066;    3,091;    0,409
984,449; 3378,429;    2,182;    0,773
984,999; 3270,066;    1,455;   -1,136
985,550; 3035,702;    0,182;   -0,318
986,100; 3069,157;   -0,455;   -0,318
986,651; 3117,520;   -0,818;    0,045
987,201; 3097,338;   -1,000;   -0,591
987,751; 3173,520;    0,818;    2,864
988,302; 3146,338;    2,636;    1,500
988,852; 3177,702;    0,455;   -1,136
989,402; 3232,429;    0,091;    0,682
989,952; 3142,066;   -2,182;    0,864
990,502; 3242,702;   -0,091;    0,682
991,052; 3208,066;   -0,727;    0,045
991,602; 3050,975;   -2,909;    1,318
992,152; 3065,520;    0,455;    0,682
992,702; 3034,066;    1,364;   -0,045
993,252; 2946,975;   -3,000;   -0,500
993,802; 3042,520;   -0,273;    1,318
994,352; 3290,975;   -1,545;    1,136
994,901; 3392,157;   -0,182;    3,227
995,451; 3302,975;   -0,182;    0,318
996,000; 3390,338;    1,636;    0,318
996,550; 3086,793;    2,273;    0,227
997,100; 3084,702;    1,273;   -0,045
997,649; 3380,066;    2,182;    0,955
998,198; 3007,429;    1,727;   -1,500
998,748; 3204,975;    1,091;   -2,318
999,297; 3120,338;   -0,818;   -0,409
999,846; 3175,884;    1,000;   -0,773
1000,395; 3223,066;   -0,818;    0,500
1000,945; 3159,520;    1,818;   -0,773
1001,494; 3252,429;    2,364;    0,682
1002,043; 3245,066;    4,636;    0,864
1002,592; 3088,429;   -1,091;    1,955
1003,141; 3243,247;   -0,455;   -0,682
1003,690; 3073,157;    1,727;    0,500
1004,238; 3183,611;    1,455;   -0,045
1004,787; 2804,975;    1,364;    1,227
1005,336; 3048,884;    0,364;    0,682
1005,885; 3196,975;    1,364;   -2,773
1006,433; 3345,338;    0,545;    0,955
1006,982; 3365,520;    0,455;    1,682
1007,531; 3295,338;   -1,818;   -0,227
1008,079; 3245,247;   -2,273;    0,500
1008,627; 3406,157;   -1,455;    0,409
1009,176; 3108,429;    0,000;   -1,955
1009,724; 3165,429;    1,091;    0,864
1010,273; 3207,793;    1,273;    0,500
1010,821; 3332,793;    0,091;    1,409
1011,369; 3071,520;   -1,364;    1,318
1011,917; 3044,247;   -1,364;   -0,591
1012,465; 3320,157;    1,273;   -1,591
1013,013; 3438,520;    2,091;   -1,682
1013,561; 3307,975;    0,455;   -0,773
1014,109; 3360,884;   -1,909;    1,682
1014,657; 3248,702;    0,364;    0,591
1015,205; 3358,157;    1,636;   -0,955
1015,753; 3406,157;   -0,545;   -1,409
1016,301; 3453,520;   -2,636;    3,045
1016,848; 3426,157;   -1,273;    0,409
1017,396; 3507,793;    2,545;    0,045
1017,944; 3606,884;    1,182;    1,864
1018,491; 3370,066;    0,273;    1,409
1019,039; 3518,702;    0,455;    0,591
1019,586; 3435,884;   -1,364;    1,682
1020,134; 3533,066;    0,455;    1,500
1020,681; 3568,429;    0,182;   -1,136
1021,228; 3552,793;    2,909;   -2,227
1021,776; 3385,157;    1,182;   -1,136
1022,323; 3601,793;    0,455;    0,773
1022,870; 3522,157;   -1,000;   -0,045
1023,417; 3414,157;    2,636;    1,864
1023,964; 3581,429;    2,636;    1,227
1024,511; 3388,247;    1,000;    0,773
1025,058; 3189,338;    3,182;   -0,045
1025,605; 3258,793;   -2,273;    3,136
1026,152; 3487,066;    1,727;   -0,591
1026,699; 3193,793;    1,818;    1,318
1027,245; 3360,611;   -0,091;    0,318
1027,792; 3575,611;   -1,000;    1,409
1028,339; 3448,066;    2,364;   -0,045
1028,885; 3308,793;    1,000;   -0,227
1029,432; 3257,520;   -0,091;    0,227
1029,978; 3307,520;   -1,000;   -1,591
1030,525; 3200,975;    1,000;    0,409
1031,071; 3433,884;   -1,364;    1,136
1031,618; 3550,429;    0,364;    1,682
1032,164; 3340,793;   -0,091;    3,045
1032,710; 3392,702;    1,636;   -1,500
1033,256; 3303,066;   -0,636;   -0,136
1033,803; 3283,520;   -0,545;    1,500
1034,349; 2983,520;   -1,364;    0,136
1034,895; 3127,884;    0,000;   -0,318
1035,441; 3114,611;   -0,818;    0,318
1035,987; 3121,157;   -2,364;   -0,682
1036,533; 3121,975;   -1,455;   -0,955
1037,078; 3336,793;    1,455;    1,682
1037,624; 3148,429;    2,455;   -0,955
1038,170; 3176,338;    0,455;   -0,318
1038,716; 3068,975;    1,636;   -0,409
1039,261; 2970,793;   -2,273;   -0,773
1039,807; 2925,611;   -0,091;    3,409
1040,352; 2972,884;   -1,909;   -0,318
1040,898; 3014,338;   -1,545;   -0,682
1041,443; 2921,429;   -1,455;   -2,591
1041,989; 2944,157;    1,091;    1,591
1042,534; 2831,884;   -0,364;    2,591
1043,079; 2963,429;    2,909;    0,955
1043,625; 2754,793;    1,818;    0,500
1044,170; 2784,338;   -1,364;    1,045
1044,715; 3036,520;    2,455;    0,955
1045,260; 2851,520;    2,182;   -0,955
1045,805; 2900,975;    1,182;   -0,591
1046,350; 2833,247;    1,364;   -0,409
1046,895; 2783,157;    2,909;    1,591
1047,440; 2723,157;    5,364;    0,409
1047,985; 2626,338;    2,818;   -0,955
1048,530; 2531,066;    1,545;    1,227
1049,074; 2621,702;    0,000;    0,318
1049,619; 2580,793;   -1,364;    1,955
1050,164; 2381,884;    0,455;    0,227
1050,708; 2423,520;   -0,455;    0,045
1051,253; 2790,247;    1,273;   -2,227
1051,797; 2475,702;    0,818;   -1,318
1052,342; 2500,157;   -1,182;    1,045
1052,886; 2501,429;    0,364;   -1,409
1053,430; 2399,429;   -1,364;    0,136
1053,975; 2408,247;   -0,818;   -0,318
1054,519; 2378,975;   -0,727;    3,227
1055,063; 2399,884;    0,909;    1,318
1055,607; 2273,702;   -0,182;    0,227
1056,151; 2294,066;    2,909;    1,682
1056,695; 2192,520;    2,273;   -1,136
1057,239; 2267,066;   -1,727;   -0,682
1057,783; 2286,793;    0,818;   -1,500
1058,327; 2218,520;    0,000;    1,409
1058,871; 2461,884;   -0,545;    1,318
1059,415; 2165,975;   -0,818;   -0,045
1059,958; 2436,702;    1,455;    2,591
1060,502; 2153,520;   -1,000;   -0,773
1061,046; 2038,611;    0,364;   -0,955
1061,589; 2039,247;   -3,000;   -1,136
1062,133; 1909,520;   -1,273;    1,864
1062,676; 1837,793;    1,182;    0,864
1063,220; 1842,702;    1,091;    0,500
1063,763; 1867,975;    0,909;    1,136
1064,306; 1961,611;   -0,909;    1,864
1064,849; 1829,429;   -0,909;    0,591
1065,393; 1849,793;    2,000;   -1,500
1065,936; 1961,611;    0,182;   -0,409
1066,479; 1841,157;   -1,455;    1,318
1067,022; 1864,793;   -0,273;   -0,227
1067,565; 1748,066;   -0,091;   -1,318
1068,108; 1777,793;    0,727;   -0,591
1068,651; 1742,520;   -0,636;    1,409
1069,194; 1671,793;   -0,455;   -1,682
1069,736; 1682,338;   -1,273;    0,955
1070,279; 1666,157;   -1,364;   -0,500
1070,822; 1718,702;   -2,000;   -0,318
1071,364; 1806,247;   -0,364;    1,318
1071,907; 1620,338;   -0,727;    3,227
1072,450; 1497,247;    0,000;   -0,045
1072,992; 1498,975;   -0,273;    3,136
1073,535; 1670,429;    2,091;    2,136
1074,077; 1436,247;   -0,727;    2,045
1074,619; 1407,793;   -1,364;    0,591
1075,161; 1435,611;   -1,091;    1,500
1075,704; 1628,702;    1,545;    1,227
1076,246; 1422,884;   -0,182;    0,682
1076,788; 1353,793;   -0,364;    1,773
1077,330; 1436,611;    1,273;    2,136
1077,872; 1387,884;    0,909;    0,955
1078,414; 1633,247;    2,727;    0,773
1078,956; 1346,611;    1,273;   -0,227
1079,498; 1617,702;    1,636;    0,318
1080,040; 1319,338;    1,909;   -1,318
1080,581; 1241,793;    1,636;   -0,318
1081,123; 1165,702;    0,091;   -0,773
1081,665; 1224,793;   -1,182;   -0,955
1082,206; 1538,338;    1,364;   -0,500
1082,748; 1374,884;    0,727;    2,045
1083,289; 1259,975;   -2,000;    1,318
1083,831; 1156,611;   -0,545;    0,227
1084,372; 1211,975;    0,000;    0,591
1084,913; 1207,611;    1,091;    0,864
1085,455; 1178,157;   -1,909;   -2,045
1085,996; 1141,611;   -2,273;    0,136
1086,537; 1157,611;   -0,091;    0,864
1087,078; 1199,884;   -0,909;   -2,136
1087,619; 1244,884;   -1,273;    0,227
1088,160; 1157,702;    0,000;    1,318
1088,701; 1144,702;   -1,091;    0,682
1089,242; 1078,247;    1,364;   -2,227
1089,783; 1187,157;   -0,273;    1,409
1090,324; 1138,975;    0,455;    0,682
1090,865; 1014,975;    2,727;   -0,409
1091,405;  983,066;    0,727;    2,227
1091,946; 1010,611;    0,182;   -0,955
1092,487;  933,611;    0,818;   -1,409
1093,027; 1112,157;   -1,364;   -1,500
1093,568;  960,066;   -0,364;    1,227
1094,108; 1068,066;    0,273;    1,773
1094,649; 1013,157;   -1,182;    0,136
1095,189;  931,338;   -0,636;   -0,682
1095,729;  886,520;   -0,091;    0,955
1096,269;  889,520;    0,727;   -0,955
1096,810; 1210,611;   -1,364;    0,500
1097,350; 1021,611;    1,364;   -0,773
1097,890;  926,702;    0,364;    1,227
1098,430; 1200,975;    2,364;    2,864
1098,970; 1071,611;    2,182;    1,682
1099,510;  914,157;    0,545;   -2,318
1100,050;  842,884;    1,000;   -1,591
1100,589;  806,884;   -0,727;   -0,318
1101,129;  948,611;    0,818;   -0,955
1101,669; 1100,429;    1,727;    2,136
1102,209;  907,702;   -0,091;    2,227
1102,748;  859,975;    0,000;    0,955
1103,288;  861,338;    1,273;   -1,227
1103,827;  896,975;    3,091;   -2,227
1104,367;  758,611;   -0,091;   -2,409
1104,906;  729,702;    1,364;   -1,136
1105,445;  795,793;    0,636;   -1,136
1105,985;  745,066;   -0,727;    1,500
1106,524;  791,975;   -1,727;   -0,682
1107,063;  752,338;   -2,727;    1,409
1107,602;  728,066;   -1,909;   -1,500
1108,141;  643,884;   -1,909;    1,500
1108,680;  770,338;   -3,455;   -0,591
1109,219;  689,338;   -0,909;   -0,500
1109,758;  689,247;    0,455;    0,682
1110,297;  662,884;    1,000;   -0,682
1110,836;  604,702;   -0,727;    0,955
1111,375;  784,793;   -2,545;    0,409
1111,913;  792,157;   -1,000;    0,773
1112,452;  719,429;   -0,273;    0,136
1112,991;  597,247;    1,091;    1,955
1113,529;  552,793;   -0,818;   -0,045
1114,068;  635,066;   -0,273;    2,955
1114,606;  521,611;   -0,364;   -0,955
1115,144;  707,702;   -1,273;    1,045
1115,683;  639,157;   -0,727;    0,318
1116,221;  690,157;   -0,455;   -0,864
1116,759;  589,520;    0,636;   -0,864
1117,297;  813,247;    0,000;    1,864
1117,836;  604,520;   -2,182;   -1,227
1118,374;  610,520;    0,182;   -0,682
1118,912;  545,611;    0,909;    2,682
1119,450;  548,338;    1,000;    0,864
1119,988;  594,247;    1,545;    2,136
1120,525; 1055,884;    5,091;    3,318
1121,063;  758,066;    1,182;    1,864
1121,601;  557,884;   -0,909;   -1,227
1122,139;  507,520;   -0,727;   -2,045
1122,676;  713,793;   -0,727;    2,773
1123,214;  645,066;   -1,182;    4,409
1123,751;  442,338;    1,727;    2,227
1124,289;  576,611;   -0,091;   -0,409
1124,826;  441,520;    1,727;    0,227
1125,364;  362,247;    1,727;   -0,955
1125,901;  563,157;    1,182;    1,227
1126,438;  679,429;    0,818;    0,955
1126,975;  393,520;   -0,727;   -0,773
1127,513;  463,611;    0,273;    2,136
1128,050;  360,429;    1,636;   -0,682
1128,587;  472,793;    2,000;   -0,227
1129,124;  520,884;    0,091;    1,318
1129,661;  371,520;    0,273;    0,227
1130,198;  554,157;    1,636;    0,773
1130,734;  500,520;    0,182;    1,409
1131,271;  344,702;   -0,909;    0,864
1131,808;  523,702;    2,909;    3,045
1132,345;  395,066;    1,545;    0,318
1132,881;  253,338;   -1,545;   -1,864
1133,418;  413,975;    0,727;   -1,136
1133,954;  346,611;    2,455;   -2,682
1134,491;  418,338;    1,364;   -0,773
1135,027;  309,793;    2,364;    0,864
1135,564;  404,975;    0,273;    2,955
1136,100;  387,338;    0,364;    2,136
1136,636;  271,066;   -1,273;   -1,045
1137,172;  378,066;    0,000;   -1,045
1137,708;  293,793;   -1,364;   -1,045
1138,245;  304,066;    1,273;   -1,227
1138,781;  246,066;    1,091;   -3,318
1139,317;  322,702;    1,273;   -1,409
1139,852;  307,884;    3,091;    0,136
1140,388;  432,884;   -1,182;   -0,409
1140,924;  309,611;   -1,091;   -2,227
1141,460;  237,702;   -1,636;    0,136
1141,996;  168,520;   -1,364;    2,682
1142,531;  227,520;    1,364;    3,318
1143,067;  454,975;    1,182;    1,045
1143,602;  518,066;   -0,091;   -0,318
1144,138;  348,520;   -2,636;    1,045
1144,673;  203,702;   -1,455;    1,409
1145,209;  287,520;   -1,909;   -0,318
1145,744;  197,157;   -0,727;    0,864
1146,279;  340,066;    1,818;   -0,136
1146,815;  248,793;    1,545;   -2,682
1147,350;  300,066;   -1,364;    0,045
1147,885;  205,884;   -0,818;   -1,318
1148,420;  207,884;   -2,273;    0,773
1148,955;  180,884;   -1,727;    1,864
1149,490;  205,066;   -0,909;   -1,591
1150,025;  190,157;    0,455;   -1,773
1150,560;  316,611;    1,091;   -0,955
1151,094;  278,429;    1,455;   -0,591
1151,629;  284,975;    1,636;    0,864
1152,164;  201,975;    1,364;    1,318
1152,698;  153,247;   -0,182;   -0,136
1153,233;  111,702;    0,091;   -0,682
1153,767;  161,975;   -3,000;   -2,318
1154,302;  217,338;   -1,455;    1,773
1154,836;  214,066;   -0,455;   -2,136
1155,371;  277,975;   -1,364;    3,682
1155,905;  226,338;   -0,636;    1,682
1156,439;  193,157;   -0,636;   -0,500
1156,973;  228,975;    0,364;    0,318
1157,507;  159,884;   -0,364;    0,682
1158,042;  185,611;   -0,727;    1,045
1158,576;  240,338;    0,182;    1,773
1159,110;  223,338;   -0,818;    2,409
1159,643;  199,884;    0,636;   -0,045
1160,177;  125,066;   -1,545;    1,500

