
Integration time [ms]:   0,040
Averaging Nr. [scans]: 11
Smoothing Nr. [pixels]: 0
Data measured with spectrometer [name]: 7318044SP
Wave   ;Sample   ;Dark     ;Reference
[nm]   ;[counts] ;[counts] ;[counts] 

186,757;   32,121;   31,551;    1,318
187,357;   24,666;   22,551;    0,955
187,958;   17,575;   15,460;   -1,591
188,558;   11,757;    8,915;   -1,227
189,159;    6,030;    6,733;   -4,500
189,759;    7,302;    7,278;   -3,591
190,360;    4,029;    2,824;   -2,136
190,960;    4,574;    2,915;   -4,136
191,560;    2,665;    3,189;   -6,591
192,161;    5,481;    4,372;   -3,500
192,761;    5,389;    4,010;   -3,227
193,361;    2,752;    1,556;   -3,773
193,962;   -0,520;    2,010;   -2,682
194,562;   -0,336;    1,189;   -3,955
195,162;    1,029;   -2,448;   -2,227
195,762;    0,757;   -3,176;   -0,045
196,362;    1,484;    1,370;   -2,500
196,963;    1,211;    2,006;   -0,864
197,563;    2,303;    1,551;   -0,955
198,163;    0,121;    0,096;   -0,682
198,763;    1,939;    1,733;   -0,500
199,363;    2,939;    3,096;   -0,500
199,963;    3,121;    0,369;    0,409
200,563;    3,394;    2,823;   -1,409
201,163;    3,394;    3,277;   -0,227
201,763;    4,576;    3,732;    0,318
202,363;    2,394;    1,459;    1,500
202,963;    1,667;    1,459;    1,045
203,563;    0,576;    0,277;    0,500
204,162;    2,849;    2,096;   -1,864
204,762;    3,758;    0,550;    0,591
205,362;    3,213;    3,004;    1,955
205,962;    4,212;    3,096;    1,955
206,562;    2,394;    1,823;    2,318
207,161;    2,940;   -0,087;    0,318
207,761;    3,849;    1,277;    2,409
208,361;    3,122;   -0,268;    1,409
208,960;    1,576;    0,459;    1,500
209,560;    2,122;    1,277;    1,591
210,160;    2,304;    0,550;    1,864
210,759;    1,940;    4,186;    1,227
211,359;   -0,242;    1,459;    1,045
211,958;    6,486;    1,277;    2,045
212,558;    4,849;    1,732;    1,864
213,157;    0,758;    1,822;    1,500
213,757;    2,668;    3,822;   -0,227
214,356;    2,122;    1,277;   -0,409
214,956;    4,758;    3,095;    0,409
215,555;    1,668;    2,095;    2,136
216,154;   -1,423;   -2,723;   -0,591
216,754;   -0,605;    0,277;    0,773
217,353;    2,304;   -0,268;   -1,045
217,952;    1,304;   -0,178;    0,318
218,552;    0,850;    1,368;   -0,773
219,151;    1,122;    0,277;    0,955
219,750;   -1,786;    0,004;   -0,227
220,349;   -1,787;   -0,451;    1,045
220,948;    3,032;   -1,360;    1,136
221,548;    2,395;    0,913;    1,227
222,147;   -0,605;   -0,087;   -0,409
222,746;    0,122;   -0,451;   -0,955
223,345;   -0,150;    0,731;    0,500
223,944;    1,122;   -0,451;    0,773
224,543;   -0,423;    1,004;   -1,409
225,142;   -0,423;    0,094;    0,136
225,741;    2,486;   -0,814;    1,045
226,340;    3,032;   -0,451;   -0,955
226,939;    1,486;   -0,996;   -0,136
227,538;    2,031;   -0,360;   -0,773
228,137;    1,395;   -0,814;    0,864
228,735;    3,759;   -0,541;    1,227
229,334;    2,031;   -0,905;   -0,227
229,933;    0,759;    0,459;    0,591
230,532;    3,122;    1,186;   -0,409
231,131;    1,849;    1,732;    0,318
231,729;    1,668;   -2,450;   -2,318
232,328;    2,577;   -0,723;   -1,500
232,927;    0,213;    1,004;   -0,500
233,525;    0,031;    3,640;    0,045
234,124;   -0,605;    2,368;   -1,591
234,723;   -0,696;    0,913;   -1,045
235,321;   -1,241;    2,277;    0,136
235,920;    0,940;    1,186;   -1,227
236,518;    1,850;    3,459;    0,318
237,117;    0,668;    0,004;   -0,227
237,715;    2,395;    0,640;   -0,500
238,314;    2,668;   -0,087;   -2,318
238,912;    2,758;   -0,723;   -1,409
239,510;    2,122;    0,459;   -1,227
240,109;    1,940;    0,004;    3,773
240,707;   -2,787;   -0,996;    1,227
241,305;   -0,969;    0,550;    0,136
241,904;    2,213;   -0,178;   -2,045
242,502;    2,395;   -0,632;   -0,227
243,100;    0,486;   -0,087;   -0,955
243,698;   -1,060;    0,732;    1,682
244,297;   -0,696;   -0,632;    0,682
244,895;    0,122;   -0,269;   -2,318
245,493;    0,941;    2,186;   -0,591
246,091;    0,213;    1,368;   -1,318
246,689;    0,668;    1,004;    0,591
247,287;    1,031;    0,822;   -1,136
247,885;    0,486;   -1,451;    1,227
248,483;    0,213;    1,822;   -0,500
249,081;    2,941;    0,185;    1,591
249,679;    1,850;   -0,178;    1,682
250,277;    3,031;   -1,723;    0,864
250,875;    2,849;   -1,087;   -1,045
251,473;    1,213;   -1,178;    0,500
252,071;    2,759;    1,459;    1,045
252,669;    1,668;   -1,814;    0,318
253,267;   -0,241;   -0,087;    0,773
253,864;    0,668;   -0,360;    0,682
254,462;   -0,787;    1,640;    1,591
255,060;   -1,059;   -0,269;    1,318
255,658;    0,213;    0,822;   -0,136
256,255;    0,759;    0,186;   -2,045
256,853;    0,759;   -0,269;    1,409
257,451;   -0,332;    0,822;    1,864
258,048;    1,395;    1,822;    1,864
258,646;    1,122;    1,731;   -1,045
259,243;    1,941;   -0,087;    2,227
259,841;    0,941;   -0,814;    0,318
260,438;    1,032;   -0,087;    0,864
261,036;    1,213;   -1,905;    1,409
261,633;    1,486;   -0,087;    2,227
262,231;    1,668;    2,731;   -0,045
262,828;    0,304;   -0,905;    1,136
263,425;    0,940;    0,913;   -0,591
264,023;    1,304;    0,186;    0,045
264,620;    2,941;   -0,360;   -0,318
265,217;    0,486;   -2,087;    3,136
265,815;    2,304;   -1,905;    2,136
266,412;    1,759;    0,731;    0,136
267,009;   -0,150;   -1,451;    0,773
267,606;    3,032;    0,822;   -0,955
268,203;   -0,151;   -0,269;   -0,591
268,801;    0,213;    1,731;    0,591
269,398;    0,850;   -0,360;    2,500
269,995;   -0,060;    0,277;    1,591
270,592;   -0,605;   -0,632;   -0,500
271,189;    3,032;    0,186;    0,409
271,786;    1,304;   -0,632;    1,227
272,383;    1,940;   -1,087;    0,227
272,980;    2,122;    0,277;    0,318
273,577;    2,031;    0,004;    1,227
274,174;    1,486;    0,822;    2,591
274,771;    0,395;   -0,814;   -0,773
275,367;    3,304;    2,277;    1,409
275,964;    0,122;    0,731;   -0,500
276,561;    0,395;    1,549;   -1,045
277,158;    2,304;    0,095;   -1,773
277,755;   -0,423;    2,185;    0,409
278,351;   -0,150;   -0,451;   -1,500
278,948;    3,486;   -0,815;    0,045
279,545;    1,032;   -1,360;    2,318
280,141;   -1,696;   -1,723;   -2,045
280,738;    0,122;   -0,451;   -0,136
281,334;    0,577;   -1,633;    0,591
281,931;   -0,150;   -0,087;   -1,318
282,528;    4,032;    0,822;   -0,500
283,124;    2,304;   -1,087;   -0,500
283,721;   -0,968;   -0,451;    1,409
284,317;   -0,514;    0,185;    2,500
284,913;    1,941;   -1,360;    0,591
285,510;    2,759;    0,640;   -0,318
286,106;   -0,150;   -2,269;   -0,955
286,703;    1,213;   -0,360;    1,955
287,299;    1,668;   -1,451;   -0,591
287,895;   -0,514;    0,822;   -1,045
288,491;    2,304;    0,186;    2,136
289,088;    2,486;   -2,360;    2,409
289,684;    2,850;   -1,723;    1,500
290,280;    1,213;    0,368;    0,682
290,876;    0,577;    1,822;    5,500
291,472;    3,668;    1,276;    2,227
292,068;    1,395;    1,367;    0,227
292,665;    1,304;    2,095;    0,773
293,261;    0,122;    0,276;    2,136
293,857;    2,940;    2,913;    2,136
294,453;    0,122;    3,550;    0,955
295,049;    3,031;   -0,268;    1,955
295,644;    0,213;    0,095;    0,136
296,240;    1,758;   -0,905;   -0,136
296,836;    1,667;   -0,995;    0,318
297,432;    0,667;    1,096;   -0,500
298,028;    1,667;    0,732;    0,773
298,624;    1,758;    1,459;    1,864
299,220;    1,758;    2,368;    0,591
299,815;    2,758;    1,005;   -0,409
300,411;   -0,424;    0,914;    1,773
301,007;   -0,424;    1,368;    0,227
301,602;   -1,060;   -0,541;   -2,318
302,198;    2,212;    0,732;   -0,773
302,794;    1,394;    1,187;   -0,500
303,389;    0,667;   -1,177;    1,045
303,985;    2,213;    0,550;    1,409
304,580;    1,758;    1,459;    1,591
305,176;    0,213;   -3,086;    0,136
305,771;    1,485;   -1,268;   -1,227
306,367;    6,304;    4,095;    0,136
306,962;    2,213;    0,641;    1,500
307,558;    2,485;   -0,450;    0,136
308,153;    0,122;    1,095;   -1,136
308,748;    0,849;   -0,814;    1,682
309,344;    0,940;   -0,632;   -1,318
309,939;    0,758;   -1,905;   -1,318
310,534;    1,213;   -0,086;   -1,682
311,130;    0,576;    0,459;   -2,500
311,725;   -0,787;    1,004;   -0,500
312,320;    0,122;    2,459;    0,045
312,915;    1,485;    1,459;   -1,045
313,510;    2,849;    1,550;   -0,500
314,105;   -0,878;    1,096;    1,409
314,700;    0,031;   -3,086;   -1,045
315,295;    0,122;   -0,904;    0,045
315,890;    0,031;    1,277;    0,864
316,485;   -2,969;   -0,359;   -0,318
317,080;   -1,878;   -3,086;    1,591
317,675;    1,122;    2,005;   -0,682
318,270;    4,667;    5,550;    3,318
318,865;    1,031;    3,278;    3,045
319,460;    1,576;   -0,904;    0,591
320,055;    1,394;   -0,541;   -1,227
320,650;    1,667;   -1,995;   -0,591
321,244;    1,031;   -0,177;   -1,409
321,839;    2,213;   -1,541;   -0,227
322,434;    1,303;   -1,086;   -1,591
323,029;    1,849;    1,732;    1,591
323,623;    0,849;    1,550;    0,773
324,218;    2,303;    2,368;    1,409
324,812;    1,758;    1,096;    1,591
325,407;    0,394;   -0,814;    2,045
326,002;   -0,606;    0,277;   -0,409
326,596;   -0,878;    0,914;    1,318
327,191;    0,667;    0,823;   -1,045
327,785;   -1,424;   -0,813;   -0,227
328,379;   -0,878;    1,368;    0,136
328,974;   -0,333;    0,914;   -3,955
329,568;    1,031;    0,186;   -2,409
330,163;    0,940;    2,096;    1,045
330,757;    2,122;    2,459;    1,591
331,351;   -0,060;    0,459;    0,682
331,945;    1,212;    0,914;    1,409
332,540;    0,849;   -1,723;   -0,591
333,134;    1,304;   -1,086;    0,773
333,728;    1,031;    0,005;    0,318
334,322;    0,031;   -1,177;   -0,864
334,916;    0,213;    0,277;    0,955
335,510;    1,940;   -0,450;   -0,136
336,105;   -0,515;   -1,086;    1,591
336,699;    1,394;   -1,086;    0,591
337,293;    1,486;   -1,723;    0,318
337,887;    1,394;   -2,723;    1,955
338,481;    1,304;    0,459;    0,591
339,074;    0,940;   -0,359;    2,682
339,668;    3,576;   -1,632;    1,227
340,262;    5,122;    1,732;    3,227
340,856;    2,213;    1,822;   -0,682
341,450;   -0,151;    1,004;    1,864
342,044;    0,122;    1,459;    0,136
342,637;    1,667;    0,913;   -2,136
343,231;   -1,332;   -2,360;    0,682
343,825;    3,213;   -1,086;   -0,591
344,419;   -0,333;   -1,995;    0,500
345,012;    1,758;    2,459;    4,045
345,606;    3,212;    4,641;    1,591
346,199;    0,394;   -1,813;   -0,227
346,793;    0,849;    1,914;    2,045
347,386;   -1,424;   -0,813;   -1,136
347,980;    0,939;   -0,268;   -0,045
348,573;    1,576;    2,278;    0,409
349,167;    3,666;    5,278;    4,773
349,760;    1,485;    2,914;    2,682
350,354;    0,666;   -0,813;    1,136
350,947;    3,030;    1,096;    1,682
351,540;    2,030;   -0,358;   -1,409
352,134;    3,666;    1,096;    1,136
352,727;    1,667;   -0,086;    1,136
353,320;    0,667;    0,005;    0,591
353,913;    1,030;   -1,995;    1,864
354,507;   -1,424;    0,823;   -1,227
355,100;    0,848;    0,460;    0,864
355,693;    4,848;    2,005;    2,409
356,286;    2,939;    0,823;    2,773
356,879;    0,848;   -0,722;    1,227
357,472;    1,394;   -0,904;    1,500
358,065;    1,666;   -0,722;    2,500
358,658;    1,485;   -0,540;    2,318
359,251;    0,576;   -1,631;   -0,591
359,844;    1,303;   -1,904;   -1,136
360,437;    0,303;   -2,995;    0,045
361,030;    1,303;    1,369;   -0,682
361,623;    0,848;    2,824;    0,318
362,215;    1,212;   -0,086;    2,045
362,808;    3,212;   -2,358;   -1,682
363,401;    0,939;   -2,449;    0,136
363,994;    1,666;   -0,631;   -1,500
364,586;    1,939;    0,824;   -1,500
365,179;    1,029;   -0,449;   -1,136
365,772;    2,030;   -1,995;    2,045
366,364;   -0,061;    1,915;   -3,227
366,957;    0,393;    2,279;   -0,045
367,549;    1,756;    2,188;   -0,864
368,142;    1,574;    1,825;   -1,500
368,734;    4,301;    0,734;   -2,136
369,327;    1,937;    1,643;   -0,500
369,919;   -1,972;   -1,538;    0,409
370,512;    0,119;   -1,083;   -0,500
371,104;    1,209;   -0,901;    1,591
371,696;    2,753;    1,191;   -0,955
372,289;    0,480;    0,373;    1,136
372,881;   -0,339;   -2,080;    1,318
373,473;   -0,794;   -2,170;    1,136
374,066;    0,386;   -0,169;    0,500
374,658;    0,748;    0,378;    1,136
375,250;   -0,617;    0,653;   -1,409
375,842;    1,017;    0,473;   -0,045
376,434;    2,834;   -0,435;   -0,409
377,026;    0,286;    0,204;   -2,500
377,618;    0,830;   -0,158;   -0,682
378,210;   -0,718;   -0,338;   -1,955
378,802;   -1,083;    0,754;   -0,591
379,394;    3,280;    1,846;    0,682
379,986;    1,916;    1,393;   -0,955
380,578;    1,915;   -0,153;    0,773
381,170;    3,371;   -0,972;    0,045
381,762;    1,463;    0,755;    1,409
382,354;   -0,627;   -0,065;   -1,318
382,945;    0,556;   -2,976;    0,318
383,537;   -0,442;   -2,705;   -1,955
384,129;    0,014;   -2,160;   -1,136
384,721;   -0,622;   -0,252;    0,955
385,312;   -0,713;   -0,161;   -0,955
385,904;    1,560;   -2,706;    1,591
386,496;    0,923;   -0,979;    1,045
387,087;    0,923;    1,022;    2,500
387,679;    1,468;   -1,160;    0,045
388,270;   -1,350;    2,840;    2,045
388,862;   -0,623;    1,295;   -0,318
389,453;    0,468;   -0,887;    1,045
390,045;    1,195;   -0,705;   -2,682
390,636;   -1,623;    0,204;   -0,591
391,227;    0,195;   -0,523;   -0,045
391,819;   -0,168;    0,204;    0,773
392,410;    1,105;    1,022;    0,045
393,001;   -1,349;   -0,979;   -1,591
393,593;   -0,440;    1,930;   -0,045
394,184;    1,560;    1,385;   -0,409
394,775;    0,651;    1,839;    2,136
395,366;    0,014;    1,385;    0,773
395,957;   -0,441;    0,113;    0,136
396,548;   -1,168;   -0,342;    2,682
397,139;   -0,168;   -2,433;    0,591
397,730;   -1,259;   -1,888;    0,955
398,321;    2,560;   -1,252;    0,955
398,912;   -0,895;   -0,615;    0,136
399,503;   -0,531;   -3,524;   -1,409
400,094;   -1,258;    0,294;    1,682
400,685;    2,196;   -0,433;    0,045
401,276;    1,105;    0,930;   -0,955
401,867;    0,287;   -0,888;    0,773
402,458;    1,559;   -2,251;   -2,318
403,048;    3,378;    1,112;    0,591
403,639;    1,832;    0,840;    0,864
404,230;    0,378;    2,476;    0,318
404,821;    0,105;   -0,615;    0,045
405,411;    1,651;    1,203;   -2,591
406,002;    0,469;   -1,252;   -1,136
406,592;    1,196;    2,294;    0,045
407,183;   -0,076;    0,566;   -1,500
407,774;    4,196;    3,475;   -0,136
408,364;    2,105;    0,930;    0,409
408,954;    0,924;    0,384;    1,227
409,545;   -0,076;    1,021;    1,045
410,135;   -1,167;    1,293;    0,500
410,726;   -0,076;    1,838;    0,318
411,316;   -0,803;    0,111;    0,773
411,906;    4,470;   -0,253;   -0,409
412,497;    4,651;   -1,070;   -0,045
413,087;    2,924;   -1,980;   -0,227
413,677;    1,743;   -0,707;    3,864
414,267;   -0,530;    0,656;    1,409
414,857;    0,561;   -2,980;    4,227
415,448;    0,106;    0,839;    0,500
416,038;    0,106;    0,020;   -0,591
416,628;    1,833;   -0,889;    0,409
417,218;    0,288;    0,565;    3,318
417,808;    0,743;    0,202;   -0,409
418,398;    1,379;    0,020;    2,682
418,988;    0,470;    2,020;    0,591
419,578;    0,561;   -0,707;    1,409
420,168;    2,379;   -1,343;   -0,955
420,757;   -0,894;   -1,343;   -1,500
421,347;    0,107;    0,111;   -0,227
421,937;    0,288;    2,292;    1,409
422,527;    2,743;    0,838;   -0,773
423,116;    1,561;   -0,253;   -0,045
423,706;    1,925;   -1,889;    0,318
424,296;    3,288;    1,384;    0,682
424,885;    2,561;   -0,071;   -3,045
425,475;   -0,803;    1,474;   -2,864
426,065;    0,561;   -0,980;   -0,318
426,654;    0,561;   -0,435;   -0,318
427,244;    1,470;    0,020;    1,409
427,833;    1,561;    1,383;   -0,500
428,423;   -0,257;   -0,526;    1,136
429,012;   -0,438;   -0,344;   -1,136
429,601;    3,016;   -1,344;    0,136
430,191;    0,380;    1,292;    4,318
430,780;    2,470;   -0,344;   -0,409
431,369;    0,198;    0,746;   -0,045
431,959;   -0,802;   -1,254;    0,500
432,548;    0,107;   -1,163;   -0,045
433,137;    0,653;   -1,254;   -1,318
433,726;    1,834;    0,292;    0,500
434,315;   -0,075;   -0,526;    2,409
434,905;   -0,983;   -1,254;    1,409
435,494;    1,926;    0,746;    0,955
436,083;   -0,166;   -0,981;   -0,955
436,672;    1,744;    0,110;    0,500
437,261;    0,653;    0,292;   -1,955
437,850;    1,835;    1,383;    0,682
438,439;    2,835;    3,291;    1,955
439,027;    2,835;    3,655;    1,773
439,616;    3,108;    2,927;    1,227
440,205;    1,562;    0,200;   -2,136
440,794;    2,199;    2,109;   -0,045
441,383;   -0,710;   -1,346;   -0,591
441,971;    1,381;   -2,436;    0,591
442,560;   -0,164;    0,563;   -1,773
443,149;   -1,344;    0,379;   -1,318
443,737;    2,382;   -0,074;   -2,318
444,326;    1,290;    0,018;    0,318
444,915;    1,926;   -1,982;    0,864
445,503;   -0,528;   -2,891;   -0,318
446,092;    2,836;    0,382;    2,136
446,680;    0,836;    0,382;    0,318
447,269;    2,199;   -0,346;   -0,318
447,857;   -0,528;    0,018;   -1,773
448,445;   -0,800;    0,563;    1,318
449,034;   -0,346;   -1,528;   -1,136
449,622;    1,200;   -1,073;    3,500
450,210;    2,836;    2,017;    2,227
450,799;    3,291;    0,290;   -0,591
451,387;    3,018;    1,381;   -0,591
451,975;    2,018;    2,654;    0,864
452,563;    2,563;    3,472;    2,318
453,151;    3,291;   -0,528;   -1,227
453,739;    0,928;   -1,347;    0,136
454,328;    1,564;    2,381;   -2,136
454,916;    0,655;    2,562;   -0,136
455,504;    2,473;    1,017;    1,227
456,092;    0,746;    0,017;   -1,591
456,679;    0,837;    1,472;    0,682
457,267;    1,109;    4,017;    1,045
457,855;    0,019;    1,017;    1,409
458,443;    0,292;   -0,165;    1,682
459,031;    0,291;    0,108;    2,409
459,619;    0,655;   -1,801;    2,864
460,206;    4,655;    0,835;    2,045
460,794;   -0,254;   -2,983;   -0,227
461,382;    0,201;   -0,529;   -0,864
461,970;    0,474;    1,198;    1,864
462,557;   -2,799;   -0,711;   -0,682
463,145;    1,746;   -3,165;   -1,682
463,732;    1,110;    2,016;   -1,045
464,320;    0,292;   -0,075;   -3,045
464,907;    2,110;    2,743;   -0,773
465,495;    2,292;    0,743;   -1,227
466,082;    2,474;   -1,984;   -0,045
466,670;    2,110;   -2,529;    1,227
467,257;    1,656;   -1,711;    2,045
467,844;    1,838;   -0,075;    0,045
468,432;    1,474;    0,834;    3,500
469,019;    0,383;    0,925;   -1,773
469,606;    2,383;    0,470;    3,682
470,193;    2,202;   -1,439;    0,227
470,780;   -0,071;   -2,075;    0,864
471,368;    2,202;   -1,257;   -0,773
471,955;   -1,435;    1,379;   -0,682
472,542;   -0,162;    0,652;   -1,136
473,129;    0,656;   -0,166;    0,136
473,716;    1,565;    1,470;    0,591
474,303;   -0,071;    0,652;   -0,864
474,890;    0,566;   -1,439;   -0,500
475,477;    1,929;   -1,621;    0,409
476,064;    1,111;    1,106;   -1,591
476,650;    2,657;    0,288;    0,318
477,237;    0,202;   -0,258;    0,955
477,824;    4,293;   -1,076;    0,864
478,411;    2,111;   -1,894;   -0,318
478,997;    3,839;    0,560;   -0,773
479,584;   -0,979;    1,196;   -0,409
480,171;   -1,979;   -0,440;   -0,773
480,757;    0,203;    2,651;    0,773
481,344;    0,748;    0,469;    0,409
481,931;    0,839;    1,105;    1,045
482,517;    0,748;   -1,258;    0,318
483,104;    0,475;    1,106;    2,864
483,690;    0,475;   -1,804;    0,045
484,276;    0,930;   -0,895;    0,227
484,863;    3,384;    2,469;    1,136
485,449;   -0,615;   -0,077;    0,318
486,035;   -0,343;   -1,986;   -0,136
486,622;    0,839;   -0,895;    0,045
487,208;    0,748;    1,378;    1,500
487,794;   -1,797;    0,741;    0,318
488,380;    1,658;    0,105;   -1,409
488,967;    1,294;   -1,168;   -0,409
489,553;    0,385;   -1,895;   -1,409
490,139;    3,931;    1,559;    0,773
490,725;    1,749;    0,741;   -0,227
491,311;    2,021;    3,287;    3,045
491,897;   -1,524;   -0,986;    1,500
492,483;   -0,433;    0,105;    1,227
493,069;    2,021;    3,923;    0,864
493,655;    1,749;    1,650;    0,682
494,241;    0,022;    1,377;   -0,955
494,826;    0,931;    0,287;   -1,045
495,412;   -1,160;    2,559;   -0,682
495,998;   -1,251;   -0,805;   -0,318
496,584;    1,931;    0,377;    1,045
497,169;    1,113;    1,014;   -0,682
497,755;    1,658;    0,650;    1,227
498,341;   -0,433;    0,559;    0,318
498,926;    2,749;    1,832;    1,955
499,512;    1,295;    1,286;    2,955
500,097;    0,659;    0,195;   -0,318
500,683;    0,931;   -0,350;    2,136
501,268;   -1,341;   -0,169;   -0,955
501,854;    0,113;   -0,169;    1,227
502,439;   -2,432;   -0,624;   -1,773
503,024;    1,295;    0,195;    0,500
503,610;   -1,523;   -0,078;   -0,682
504,195;   -2,614;    0,558;    1,955
504,780;    4,386;    2,922;    1,227
505,366;    2,749;    3,013;    2,864
505,951;   -0,068;    0,740;    1,045
506,536;    2,477;   -3,260;   -3,682
507,121;    0,659;    0,285;   -0,318
507,706;    0,204;    2,376;    1,045
508,291;   -0,068;    2,649;    1,136
508,876;   -0,159;   -0,988;    2,591
509,461;    0,205;   -0,169;   -0,773
510,046;    0,205;    0,194;    0,318
510,631;    0,750;   -0,351;   -0,773
511,216;    3,387;    2,467;   -0,500
511,801;    2,295;   -0,442;    2,591
512,386;   -1,977;    0,740;    0,500
512,971;    0,659;   -2,988;    0,955
513,555;    0,387;   -0,897;   -1,500
514,140;   -1,795;   -0,442;   -3,136
514,725;    0,841;   -0,715;   -1,136
515,309;    2,478;   -0,533;    0,318
515,894;    0,660;   -0,624;   -2,227
516,479;   -1,431;   -0,624;   -0,955
517,063;    0,751;    0,376;    1,227
517,648;    1,205;    1,012;   -1,136
518,232;    2,205;   -0,261;   -1,409
518,817;    0,387;   -0,079;    1,682
519,401;    0,569;    2,194;    0,591
519,985;    0,478;    1,103;    1,136
520,570;    1,387;    0,830;   -1,955
521,154;   -0,340;    2,102;    0,591
521,738;    1,115;   -2,352;    2,409
522,323;   -0,067;   -0,170;    1,682
522,907;   -1,249;    0,466;   -0,136
523,491;   -1,158;    0,557;    0,955
524,075;    1,479;    2,284;    0,591
524,659;    1,115;    1,466;    0,591
525,243;   -0,703;    1,739;    0,409
525,827;   -0,430;    0,648;   -0,045
526,411;   -0,340;   -1,989;   -0,136
526,995;    1,660;   -0,352;    1,409
527,579;    2,570;   -0,443;   -1,045
528,163;   -0,521;    0,375;   -1,500
528,747;    0,297;    2,466;   -0,773
529,331;    4,479;   -0,080;   -1,409
529,915;    1,206;    1,738;    0,955
530,499;   -0,885;   -0,807;    1,227
531,082;    4,842;   -0,534;    1,591
531,666;    2,116;    1,374;    0,773
532,250;    0,933;    1,284;    2,682
532,833;    2,025;    0,920;    2,773
533,417;    1,388;   -1,807;    0,864
534,001;   -0,430;    1,647;   -0,318
534,584;    2,298;    0,374;    0,500
535,168;    3,025;    0,465;    1,409
535,751;   -0,157;    0,647;    0,045
536,334;    1,297;   -0,898;   -0,409
536,918;    2,025;    0,011;    1,591
537,501;    1,570;   -0,899;    1,318
538,085;    2,934;   -0,444;    1,045
538,668;    0,752;    0,829;    2,409
539,251;   -0,430;    1,829;    3,773
539,834;    0,843;    0,101;    0,773
540,418;    2,025;   -1,990;    4,318
541,001;    3,025;   -0,990;    1,773
541,584;    2,389;    2,101;    2,227
542,167;    3,843;    1,374;    2,955
542,750;    1,662;    1,919;   -0,773
543,333;   -0,884;    0,555;    2,136
543,916;    0,662;    0,192;    2,500
544,499;    1,389;   -1,354;    0,227
545,082;    0,844;    1,374;    3,591
545,665;   -1,429;    1,919;    1,500
546,248;    1,662;    1,010;   -0,318
546,830;    1,298;   -0,445;    1,955
547,413;    0,389;    1,010;   -0,773
547,996;   -1,974;    0,555;    0,500
548,579;   -1,974;    0,919;    0,955
549,161;    0,662;    1,828;    2,682
549,744;    0,753;   -0,809;    0,409
550,326;    1,026;   -0,809;   -1,136
550,909;    1,935;    2,737;    0,591
551,492;    0,844;   -0,263;    0,227
552,074;    1,753;   -0,173;   -1,318
552,657;    0,299;    2,373;    0,045
553,239;   -0,974;   -0,173;   -0,773
553,821;    0,390;   -1,082;    1,045
554,404;    1,753;    1,282;    1,136
554,986;    2,026;    0,464;    1,045
555,568;   -2,974;    1,191;   -0,955
556,151;   -0,519;    1,191;   -0,227
556,733;    1,208;   -0,264;   -0,864
557,315;    1,845;    0,100;    0,500
557,897;    4,026;    0,554;   -0,500
558,479;    3,026;   -1,991;    1,318
559,061;    0,572;   -0,719;   -0,864
559,643;    0,299;   -0,264;    0,045
560,225;    0,844;    1,645;    2,864
560,807;    0,027;    0,918;    0,318
561,389;    2,027;    0,554;    2,318
561,971;   -0,700;    0,463;    2,136
562,553;   -0,701;   -1,628;    1,591
563,135;    0,572;   -0,537;    1,136
563,717;    2,390;    3,372;    1,136
564,298;    1,027;    3,645;   -0,045
564,880;    0,300;    0,645;   -1,409
565,462;    1,936;    0,645;    1,318
566,043;    1,481;   -0,446;    2,318
566,625;    4,754;    1,918;    1,227
567,207;    3,482;    1,099;    1,682
567,788;    2,027;   -1,264;    1,500
568,370;    1,209;    1,917;   -0,500
568,951;   -1,518;    0,190;    0,227
569,533;   -1,791;   -0,628;   -0,500
570,114;    1,481;   -0,446;    0,682
570,695;    1,482;   -0,174;   -1,318
571,277;    0,936;   -0,265;   -1,682
571,858;   -0,518;    2,008;   -1,136
572,439;    2,663;    1,554;   -1,045
573,021;    1,300;    2,099;   -2,773
573,602;    3,482;   -1,265;    0,318
574,183;    2,118;   -2,083;    2,227
574,764;    2,300;   -1,629;    0,409
575,345;   -1,336;    0,917;   -0,136
575,926;    1,027;   -0,356;    0,136
576,507;    0,573;    1,099;   -0,227
577,088;   -0,518;    3,099;    1,682
577,669;    0,028;    0,735;    1,955
578,250;    1,664;    0,644;   -1,045
578,831;    1,028;   -1,356;   -2,227
579,412;    1,209;   -0,810;    0,955
579,993;    0,846;    1,008;    0,227
580,573;    0,937;   -0,629;   -0,955
581,154;    0,209;    0,735;   -0,591
581,735;    2,028;    0,644;    0,773
582,315;    0,755;   -0,629;    2,136
582,896;    1,300;   -0,174;    1,227
583,477;    0,664;    0,189;    1,227
584,057;   -0,245;    0,553;    0,955
584,638;   -1,063;    2,553;    2,318
585,218;    0,846;   -0,538;    2,682
585,799;    2,664;    0,281;   -0,227
586,379;    2,482;    0,372;    1,591
586,959;    3,482;    0,735;    0,318
587,540;    3,028;   -0,629;    2,227
588,120;    2,301;    1,007;   -0,045
588,700;    0,482;    2,553;    2,136
589,281;   -0,609;    0,462;   -0,955
589,861;   -2,245;    0,099;   -1,682
590,441;    0,482;    2,371;   -2,682
591,021;    1,300;   -0,265;   -2,591
591,601;    1,209;   -0,537;    0,500
592,181;    3,027;   -0,719;   -0,773
592,761;    3,028;    0,007;    1,409
593,341;    0,573;   -0,901;    0,045
593,921;    0,209;   -0,265;    1,591
594,501;    2,846;   -0,538;    1,318
595,081;    0,573;    0,917;   -0,318
595,661;    0,664;   -1,447;    0,955
596,240;    0,664;   -0,537;    0,136
596,820;    1,936;    0,372;    1,955
597,400;    3,664;    2,008;    0,773
597,980;   -0,882;    2,008;    1,045
598,559;    1,118;    2,735;   -0,227
599,139;    0,573;   -0,174;   -1,227
599,718;    1,300;   -0,174;   -0,409
600,298;   -1,336;    0,735;    0,682
600,877;    3,027;    2,917;    1,409
601,457;    1,482;    2,281;    1,136
602,036;    1,846;    0,190;    2,045
602,616;   -1,791;    0,644;    1,682
603,195;    0,754;   -0,355;    3,500
603,774;    2,573;   -0,901;    2,045
604,354;    2,573;    0,826;   -0,500
604,933;    0,755;    0,463;    1,864
605,512;    0,391;    3,554;    0,591
606,091;   -1,518;   -0,537;    3,773
606,671;    1,300;    0,281;    0,773
607,250;    4,573;    1,644;    3,136
607,829;    2,300;    2,372;    3,227
608,408;    2,936;    1,190;    2,591
608,987;    1,209;    1,281;    3,409
609,566;    0,300;   -1,265;   -2,500
610,145;    2,300;   -1,082;    0,682
610,723;    4,209;    4,372;    6,864
611,302;    3,300;   -0,446;    1,682
611,881;    4,391;    5,008;   11,227
612,460;    1,300;    1,645;    3,955
613,039;    1,027;   -0,082;    2,045
613,617;    0,936;    1,736;    4,773
614,196;    3,754;    1,099;    1,227
614,775;   -1,064;    1,009;    2,409
615,353;    1,299;    0,736;    0,864
615,932;    1,481;    0,100;    2,409
616,510;   -0,337;    0,554;    0,591
617,089;    7,299;    7,100;   17,591
617,667;    2,663;    2,372;    6,136
618,246;    0,299;   -1,537;    1,318
618,824;    1,299;   -3,355;   -0,955
619,402;    0,936;   -2,900;   -1,773
619,981;    0,754;   -0,173;   -1,045
620,559;    2,754;    0,009;    1,682
621,137;    0,299;   -0,718;    1,864
621,715;    1,117;   -1,173;   -0,682
622,293;   -0,610;   -0,537;   -0,773
622,871;    1,117;   -0,718;    0,500
623,450;    2,299;    0,373;   -0,864
624,028;    1,117;    0,191;   -0,955
624,606;    0,845;   -1,718;    1,682
625,183;    2,026;   -1,536;   -1,136
625,761;    1,935;    1,009;    1,136
626,339;    4,754;    1,373;    2,591
626,917;    0,753;   -0,172;   -0,045
627,495;    1,935;   -0,354;    1,318
628,073;    0,026;   -0,263;    2,864
628,650;    0,299;    0,100;    2,136
629,228;   -0,610;    0,373;    4,409
629,806;   -0,519;    2,282;    1,136
630,383;    1,299;    1,464;   -0,318
630,961;   -0,428;    2,555;   -0,955
631,539;    1,026;    2,464;    0,227
632,116;    7,663;   11,373;   15,409
632,694;    1,662;    2,555;    6,500
633,271;    0,935;    0,828;    2,682
633,848;    2,662;    1,828;    2,045
634,426;    2,298;   -1,081;    1,773
635,003;    3,389;    1,101;   -0,409
635,580;    2,934;    1,192;    3,682
636,158;    0,480;    3,737;    1,227
636,735;   -0,156;    0,555;   -0,500
637,312;    2,208;   -0,809;   -0,682
637,889;   -1,520;   -4,354;   -0,682
638,466;   -0,520;   -3,990;   -0,409
639,043;    2,389;    2,101;   -1,136
639,620;   -0,520;   -2,262;   -0,955
640,197;    0,299;    1,100;    1,682
640,774;    0,753;   -0,172;    1,136
641,351;    0,117;    0,737;    1,136
641,928;    0,844;   -0,627;    1,409
642,505;   -0,338;    0,828;   -0,500
643,082;   -2,610;   -1,718;    1,227
643,658;    0,208;   -0,718;    1,500
644,235;    1,299;    1,191;    2,500
644,812;   -1,610;    1,918;    0,773
645,388;    1,299;   -0,991;    1,409
645,965;    2,935;   -0,809;    1,682
646,542;    1,117;   -1,445;   -0,227
647,118;    1,844;    1,009;   -0,955
647,695;    0,481;   -0,263;    1,136
648,271;   -0,701;   -0,536;    0,500
648,848;    2,481;    0,736;    2,227
649,424;    5,663;    0,827;    1,318
650,000;    2,935;   -0,354;   -1,045
650,577;    1,935;   -0,627;   -0,955
651,153;   -1,428;   -1,809;    0,955
651,729;   -0,610;    1,191;    0,864
652,305;    2,481;    0,645;    2,773
652,881;    3,481;   -0,082;    1,136
653,458;   -0,156;    1,100;    0,227
654,034;    2,117;    0,282;    1,591
654,610;   -1,883;    0,554;    0,773
655,186;    0,208;    0,645;    3,045
655,762;    1,663;   -0,991;    0,409
656,338;   -0,792;    0,100;    0,136
656,913;    0,936;   -0,082;    0,409
657,489;    1,663;    0,827;   -0,318
658,065;    1,572;   -0,173;   -1,591
658,641;    1,663;   -0,900;   -0,864
659,217;    1,027;   -0,991;    0,409
659,792;    2,481;    0,645;   -0,409
660,368;   -0,428;   -2,173;   -0,682
660,944;   -0,792;   -2,082;    1,227
661,519;    0,299;   -0,628;    0,409
662,095;   -0,882;   -1,719;    0,591
662,670;    0,208;    1,281;   -0,136
663,246;    0,118;    1,009;   -0,409
663,821;    1,936;    0,281;    1,682
664,396;    0,845;    0,009;    1,864
664,972;   -0,791;    0,009;   -0,500
665,547;    0,845;    1,372;    0,136
666,122;    0,209;   -1,082;    0,318
666,698;    2,390;   -0,173;    0,318
667,273;    2,663;   -0,173;    0,136
667,848;    1,118;    2,372;    1,500
668,423;   -0,882;    2,190;    2,318
668,998;   -0,428;    2,827;   -0,682
669,573;    1,390;   -3,264;   -1,500
670,148;    1,391;   -1,446;   -0,682
670,723;    2,572;   -1,810;    0,318
671,298;    0,663;    2,372;    1,045
671,873;    2,936;   -0,082;   -0,136
672,448;    0,754;    0,645;    0,136
673,023;   -0,518;   -1,992;   -0,227
673,597;    1,754;    0,827;    2,318
674,172;   -1,246;   -0,355;    0,318
674,747;   -1,428;    0,372;   -1,045
675,321;   -0,791;   -0,628;    3,318
675,896;   -0,427;    0,645;    1,045
676,471;    1,118;    2,645;    1,591
677,045;    0,845;   -1,264;    0,682
677,620;    0,118;    0,190;    1,136
678,194;    0,936;   -2,628;    1,136
678,769;    3,118;   -1,083;   -0,318
679,343;    0,482;   -0,628;    1,773
679,917;    1,664;   -1,446;    1,955
680,492;    0,936;    0,826;    3,227
681,066;    1,936;    3,372;    0,409
681,640;    0,936;    1,463;   -0,318
682,214;    2,027;    0,735;    0,500
682,788;    1,846;   -1,356;   -0,773
683,363;    0,664;   -1,810;    1,682
683,937;    2,482;   -1,719;   -0,318
684,511;   -1,791;    0,463;   -0,591
685,085;   -0,518;   -1,356;    0,318
685,659;    0,391;   -2,538;    0,864
686,232;    3,300;   -0,356;   -0,318
686,806;    1,482;   -0,901;    0,409
687,380;    1,118;   -0,174;    0,591
687,954;    2,755;   -1,174;    1,136
688,528;    0,118;   -0,719;    1,955
689,101;    0,482;   -3,992;    1,045
689,675;    0,482;   -0,356;   -0,136
690,249;   -0,518;   -0,719;    0,409
690,822;    0,028;    0,280;    0,318
691,396;    1,755;   -0,265;    1,227
691,969;    1,119;    1,280;    0,136
692,543;    3,119;   -0,447;   -1,955
693,116;    5,028;   -0,265;   -1,409
693,690;    1,755;    0,099;    0,500
694,263;   -0,518;   -1,083;    2,955
694,836;   -1,245;    1,371;    3,591
695,410;   -1,154;   -0,265;    1,773
695,983;    0,937;    0,189;    0,591
696,556;    3,028;   -0,447;   -1,045
697,129;    0,755;   -0,356;    1,409
697,703;   -0,245;   -1,629;    1,955
698,276;    0,482;    1,462;   -0,773
698,849;    1,210;    1,280;    1,409
699,422;    0,573;   -1,083;    0,591
699,995;    1,755;    0,007;    0,136
700,568;    1,937;   -0,629;    3,045
701,140;   -0,608;   -2,811;    1,682
701,713;   -0,336;   -0,174;    2,409
702,286;    1,210;   -0,538;    0,864
702,859;    2,028;   -0,902;   -0,591
703,432;    1,028;    0,825;    0,682
704,004;    1,664;    0,462;    0,318
704,577;    0,937;   -0,629;    0,136
705,150;    0,028;    0,189;    2,500
705,722;    2,028;   -0,356;   -3,227
706,295;   -0,790;   -0,175;   -0,591
706,867;   -0,063;   -0,175;    1,955
707,440;    0,392;   -1,720;   -0,409
708,012;    1,210;    0,462;    0,591
708,584;    0,665;    2,462;    0,227
709,157;    0,392;    1,825;   -0,591
709,729;    0,937;    2,280;    2,045
710,301;    0,210;    0,734;    0,045
710,874;    1,392;   -1,447;   -0,227
711,446;   -0,881;    0,371;    0,864
712,018;   -0,244;    0,098;    0,500
712,590;    2,210;   -1,993;    1,682
713,162;    0,756;    0,825;    1,318
713,734;    0,028;    1,825;   -2,045
714,306;    0,028;   -1,902;   -0,409
714,878;   -0,517;    0,825;    0,864
715,450;   -0,426;    0,643;    0,864
716,022;   -1,608;    1,552;    1,318
716,593;   -1,335;    0,189;    0,591
717,165;    0,756;   -3,175;   -1,227
717,737;    2,301;    0,280;    0,409
718,309;   -0,244;    0,280;   -0,045
718,880;   -1,244;   -0,539;   -1,409
719,452;    2,301;   -0,175;   -1,591
720,024;    1,847;    0,734;   -0,591
720,595;    1,847;   -2,902;    0,955
721,167;   -0,699;    0,370;   -2,045
721,738;   -0,062;   -0,812;   -1,045
722,309;   -0,244;   -0,993;   -1,227
722,881;   -0,699;   -1,357;    0,773
723,452;    1,483;   -2,630;    2,864
724,023;    0,938;   -0,721;    2,682
724,595;    0,847;    0,007;    0,682
725,166;    2,847;    0,007;   -0,409
725,737;    2,211;    1,734;    0,227
726,308;    3,029;   -0,266;    0,318
726,879;   -0,335;   -1,630;    1,227
727,450;   -0,153;    0,552;   -0,045
728,021;   -0,517;    3,097;    0,682
728,592;   -1,244;    0,734;    0,500
729,163;    0,302;    0,643;   -0,136
729,734;   -0,062;    0,188;   -0,227
730,305;   -0,153;    1,734;    0,136
730,876;   -1,426;    0,188;    2,955
731,447;    3,393;    2,188;    2,682
732,017;    2,665;    1,097;    1,864
732,588;    1,938;    0,734;    1,227
733,159;    2,029;    0,643;   -1,045
733,729;    0,029;    0,006;    0,409
734,300;    1,756;    0,915;    0,864
734,870;    0,847;    3,461;    0,591
735,441;    1,393;    0,370;   -0,591
736,011;    2,847;    0,643;   -1,591
736,582;   -0,425;   -0,812;    0,045
737,152;   -0,334;   -1,721;   -2,045
737,722;   -0,334;   -0,267;   -0,682
738,293;   -1,698;   -1,358;    1,318
738,863;   -0,516;    2,461;    2,318
739,433;    3,211;    5,279;    0,318
740,003;    1,757;   -0,994;   -0,682
740,573;    0,848;    2,097;   -1,591
741,143;    3,757;   -1,085;    0,318
741,713;    3,484;    1,188;   -0,500
742,283;    1,484;    0,915;    1,591
742,853;    0,666;    1,915;    1,591
743,423;   -0,152;    1,733;    0,045
743,993;    0,666;   -0,358;    1,500
744,563;    2,484;    0,097;   -0,864
745,133;   -0,334;   -0,812;   -0,864
745,702;    2,302;   -0,267;    1,773
746,272;    1,302;   -0,176;    0,591
746,842;    0,393;   -1,358;   -0,591
747,411;    2,666;   -0,267;   -0,318
747,981;    2,030;    0,097;    0,500
748,551;    0,575;    2,278;   -1,045
749,120;   -0,425;    0,642;   -0,227
749,690;   -0,516;   -0,631;    2,409
750,259;   -1,970;    1,369;    2,955
750,828;   -0,061;    1,551;   -1,955
751,398;    0,393;    1,278;   -0,045
751,967;    3,121;    2,187;    0,409
752,536;   -0,152;   -0,813;   -0,227
753,105;    2,030;    0,096;    0,227
753,675;   -2,879;    0,096;    1,773
754,244;    1,575;   -0,904;    3,591
754,813;    1,121;    0,551;    1,227
755,382;    1,757;    0,460;    0,955
755,951;   -0,243;    1,551;    3,682
756,520;    0,212;   -0,085;    1,864
757,089;    1,575;    0,278;    0,500
757,658;    1,575;    1,733;    1,227
758,227;    2,212;    1,096;    0,318
758,795;    1,303;    1,187;    1,136
759,364;    3,394;   -0,086;   -0,591
759,933;    1,485;   -1,176;   -0,045
760,501;   -1,152;    0,733;   -1,318
761,070;    1,485;   -2,813;   -1,409
761,639;   -0,606;   -1,904;    1,318
762,207;    2,576;    1,551;   -0,955
762,776;    1,485;    0,369;    0,864
763,344;    1,303;   -0,995;    0,591
763,913;    1,394;   -0,722;    1,409
764,481;    0,667;    1,005;   -0,136
765,049;    1,121;   -1,358;    1,409
765,618;    0,121;   -0,086;    0,318
766,186;    0,030;    0,278;    0,136
766,754;    0,667;    0,005;    1,864
767,322;   -1,152;   -1,995;    0,409
767,890;   -0,152;   -0,722;   -1,773
768,459;    1,030;   -2,177;   -0,318
769,027;    2,576;    1,641;    3,409
769,595;    3,849;    3,278;    2,591
770,163;    2,939;    3,823;    2,955
770,730;    0,667;    0,732;   -0,136
771,298;    2,121;    0,187;   -1,409
771,866;    3,485;   -1,541;    4,955
772,434;    2,758;   -0,631;   -1,864
773,002;    2,485;    0,005;    0,682
773,569;    3,758;    0,914;    1,682
774,137;   -0,424;   -0,268;   -0,045
774,705;   -0,515;    0,278;   -0,136
775,272;    0,849;    0,641;    0,682
775,840;   -0,969;   -0,177;    2,682
776,407;    1,758;    0,277;    1,955
776,975;    1,394;   -0,632;    0,318
777,542;    1,485;   -1,086;   -0,045
778,110;    2,758;   -1,268;   -0,045
778,677;    1,394;   -2,359;   -0,864
779,244;    2,031;    2,186;    1,045
779,812;    0,213;    1,823;    0,864
780,379;   -0,606;    0,005;    1,136
780,946;   -0,242;    1,005;   -0,773
781,513;    0,758;   -1,450;    0,318
782,080;    2,485;   -0,086;    2,864
782,647;    1,576;   -0,268;    3,045
783,214;   -0,151;   -0,177;    3,864
783,781;    1,213;   -0,723;   -0,682
784,348;    2,576;   -0,632;    1,500
784,915;    2,304;   -3,177;    0,318
785,482;    1,940;    1,368;    2,591
786,049;   -0,333;    0,186;   -0,591
786,615;   -0,969;    0,277;   -0,955
787,182;    0,395;    0,186;   -0,682
787,749;    0,122;   -2,814;    1,409
788,315;    0,849;   -1,632;   -0,409
788,882;   -1,696;    1,550;   -1,227
789,448;    0,758;    1,732;   -0,955
790,015;   -0,333;    1,095;    3,227
790,581;    1,849;    1,459;    0,227
791,148;   -0,151;    0,641;    1,045
791,714;    0,940;   -0,541;    3,136
792,280;   -0,242;    0,186;    1,591
792,847;   -0,514;    0,550;    2,500
793,413;    2,031;   -0,269;   -0,318
793,979;    2,577;    3,459;   -1,318
794,545;    4,849;    4,459;    2,682
795,111;    2,668;    2,186;    1,318
795,678;   -1,060;    0,731;   -1,682
796,244;    2,486;    3,368;    0,136
796,810;    0,486;    1,731;    0,773
797,375;    1,759;    0,549;   -2,136
797,941;    1,031;   -0,541;    0,591
798,507;    0,850;   -0,451;   -0,955
799,073;    0,850;   -0,360;    0,591
799,639;    2,577;   -2,632;    3,136
800,205;    1,668;    0,095;    2,682
800,770;    1,668;    0,640;    1,773
801,336;    2,304;    1,368;   -0,955
801,901;    3,304;    4,549;    3,136
802,467;   -0,423;   -0,542;    2,045
803,033;    2,668;   -0,087;    0,864
803,598;   -1,241;    1,913;   -1,045
804,163;   -0,605;    1,095;   -0,318
804,729;    2,213;   -0,178;    1,136
805,294;   -2,241;    0,822;    2,227
805,859;    0,850;    0,731;   -0,409
806,425;    2,395;    1,186;    2,682
806,990;    3,213;    2,186;    4,318
807,555;    1,486;   -1,451;    2,591
808,120;    1,395;    0,822;   -0,409
808,685;    1,395;    0,185;   -2,500
809,250;    4,123;    0,004;   -0,500
809,815;    1,668;    1,913;    0,682
810,380;    0,032;   -0,269;    1,591
810,945;   -0,786;   -1,087;    2,045
811,510;    1,486;    2,094;    1,591
812,075;    0,214;   -0,633;   -1,409
812,640;    2,396;    2,003;    1,409
813,204;    1,396;    0,822;   -0,227
813,769;    2,032;    2,094;   -0,045
814,334;    0,668;    0,458;    0,864
814,898;    2,123;    0,367;    0,591
815,463;   -0,059;    1,276;   -0,773
816,027;    0,759;   -0,724;   -2,318
816,592;   -2,241;    0,640;   -2,045
817,156;    1,487;    2,094;    1,136
817,721;    1,668;    4,276;    2,318
818,285;    2,214;    2,912;    1,500
818,849;    1,305;   -1,451;    1,682
819,414;    2,941;   -0,269;    2,955
819,978;   -0,695;   -1,269;    1,773
820,542;    0,123;    2,003;    0,500
821,106;    1,850;   -0,815;    0,682
821,670;   -0,059;   -0,815;    2,591
822,234;   -0,513;   -0,270;    1,409
822,798;   -0,968;    0,003;    0,500
823,362;    0,396;   -0,633;    4,227
823,926;    1,941;    0,094;    1,136
824,490;    3,669;   -0,997;   -0,682
825,054;    1,669;   -0,088;   -1,136
825,618;    3,851;   -1,542;   -1,500
826,181;   -0,331;    0,458;   -1,318
826,745;    0,851;    1,367;   -1,045
827,309;    3,669;    1,185;    1,318
827,872;    3,396;    1,367;    0,955
828,436;    1,032;    1,185;   -0,773
828,999;    1,032;   -0,997;    1,227
829,563;    1,760;   -0,179;    1,136
830,126;   -0,240;   -0,179;   -0,591
830,690;    0,305;   -1,997;    2,864
831,253;   -1,149;   -0,543;    2,227
831,816;    3,487;   -1,906;    0,500
832,380;    0,305;    0,185;    0,864
832,943;    0,033;   -1,361;   -0,500
833,506;    0,396;    2,639;   -1,227
834,069;    2,214;    3,912;   -0,955
834,632;    1,033;    1,730;    1,318
835,195;    1,124;    1,003;    0,955
835,758;   -1,513;   -0,997;    1,955
836,321;    2,033;    0,730;   -1,045
836,884;    2,851;   -0,725;   -0,955
837,447;    0,487;   -2,816;    1,773
838,010;   -0,240;    0,366;    3,227
838,573;    0,760;   -1,179;    0,773
839,135;    0,669;   -1,361;   -0,955
839,698;   -0,240;    1,275;    0,409
840,261;    2,942;    1,003;   -0,227
840,823;    2,760;   -0,543;    0,864
841,386;   -0,331;   -0,452;   -2,409
841,948;    1,124;   -1,361;    1,773
842,511;    1,669;    0,912;    1,682
843,073;   -1,513;    1,912;    0,227
843,636;   -0,967;   -0,361;   -0,227
844,198;    1,488;    0,911;    0,591
844,760;    1,033;    1,093;    1,955
845,322;   -2,785;    0,548;    1,136
845,885;    2,306;    0,730;    0,591
846,447;    2,033;   -1,998;    0,227
847,009;    1,397;    1,911;   -0,682
847,571;    0,760;    0,820;   -2,045
848,133;   -1,331;   -1,089;   -1,864
848,695;    1,033;   -0,543;    1,409
849,257;    1,397;   -1,089;   -1,682
849,819;    0,942;   -0,998;   -0,409
850,381;    3,670;   -0,725;   -0,864
850,942;    2,942;    1,093;   -0,591
851,504;   -1,058;    1,184;    0,227
852,066;    1,306;    1,275;   -1,591
852,628;    2,306;   -0,180;    1,955
853,189;    5,397;    1,638;    2,682
853,751;    2,761;   -0,907;    1,409
854,312;    1,306;   -0,453;   -1,682
854,874;    1,215;   -2,089;   -0,773
855,435;   -1,512;   -0,907;   -1,682
855,997;    1,670;   -1,816;   -0,136
856,558;    2,215;    0,366;    1,773
857,119;   -0,876;    0,820;    2,864
857,681;    1,579;    0,002;    0,318
858,242;    3,852;    1,911;   -2,136
858,803;    4,215;    0,456;   -0,773
859,364;    3,670;    0,184;   -4,773
859,925;   -0,239;   -2,453;   -0,955
860,486;   -0,603;   -0,453;   -0,955
861,047;   -2,330;   -0,544;   -1,227
861,608;   -0,694;   -1,089;   -0,773
862,169;   -0,148;    0,638;   -0,045
862,730;    0,852;    0,456;    1,409
863,291;    1,579;   -0,635;   -0,500
863,852;   -1,057;   -0,635;    1,955
864,412;   -0,239;   -0,271;   -0,864
864,973;    2,125;   -0,089;    0,500
865,534;    0,216;   -1,726;    0,227
866,094;    1,397;    1,820;    0,227
866,655;    4,579;    1,274;    3,318
867,215;    0,125;    0,274;    0,136
867,776;    0,216;    0,547;   -0,136
868,336;   -0,966;   -1,453;    0,136
868,897;   -0,875;    2,638;    1,682
869,457;    1,488;    1,365;    0,318
870,017;    0,761;    0,547;   -1,227
870,578;   -0,602;   -0,817;    0,773
871,138;   -0,512;   -2,089;   -0,955
871,698;   -0,330;   -0,817;   -1,318
872,258;   -0,602;   -0,453;   -2,864
872,818;    1,216;    2,729;    0,045
873,378;    1,307;    0,638;    1,045
873,938;   -1,421;    0,547;    0,500
874,498;   -1,784;    0,274;   -1,955
875,058;    2,852;    2,183;    1,773
875,618;    0,943;    1,910;   -2,682
876,177;    1,761;    1,274;    0,136
876,737;    0,125;   -0,090;    1,955
877,297;    1,216;    0,183;    1,955
877,856;    1,034;   -0,362;    0,318
878,416;   -0,148;    1,183;   -0,136
878,976;    1,307;   -1,817;    0,409
879,535;    1,489;    0,092;    3,136
880,095;    1,307;   -0,544;    0,045
880,654;   -1,602;   -1,090;    1,318
881,213;    1,580;    2,456;    1,500
881,773;    1,943;    2,637;    2,682
882,332;    4,489;    3,365;    5,136
882,891;    0,853;    3,092;    2,136
883,451;   -0,875;   -1,272;    1,682
884,010;   -0,875;   -2,908;   -0,409
884,569;    1,034;   -0,999;   -0,045
885,128;    0,671;    2,819;   -1,864
885,687;    0,944;    4,455;    0,682
886,246;    3,034;    1,455;    2,136
886,805;    1,125;    2,455;    2,045
887,364;   -0,693;   -0,999;   -0,500
887,922;   -0,147;   -1,181;    0,045
888,481;    1,307;   -1,545;    0,591
889,040;    0,489;    1,183;    2,136
889,599;    0,126;    2,455;    1,409
890,157;    2,671;    1,455;    2,409
890,716;    0,489;   -0,090;    0,227
891,274;   -0,056;    0,092;   -1,136
891,833;    1,307;    1,546;    0,864
892,391;   -2,420;   -0,454;    0,500
892,950;    2,035;    1,819;   -0,773
893,508;   -0,511;    0,455;   -0,409
894,067;    0,217;    0,637;    0,136
894,625;    2,217;   -0,636;   -1,500
895,183;    2,035;   -0,363;   -0,682
895,741;   -1,238;    1,728;   -1,773
896,299;    2,217;   -0,545;   -2,409
896,858;   -2,329;    0,819;   -1,591
897,416;    2,035;    2,728;   -1,318
897,974;    2,762;    1,819;    0,318
898,532;    6,035;    6,091;    2,682
899,089;    1,035;    2,091;   -0,682
899,647;    1,762;   -1,454;    1,318
900,205;    1,490;    1,182;    1,045
900,763;    0,217;   -0,454;    0,227
901,321;    1,217;    2,364;   -1,409
901,878;    0,399;   -1,000;   -0,773
902,436;   -0,783;   -1,363;    1,318
902,994;    3,671;    4,728;    3,682
903,551;    1,490;    0,728;    0,409
904,109;   -0,056;    0,182;   -1,409
904,666;    1,944;    2,455;    1,045
905,224;    0,672;    0,182;   -0,409
905,781;    1,762;    0,727;   -0,318
906,338;    1,126;   -1,363;    1,045
906,895;    0,853;    0,637;    2,045
907,453;   -0,328;    1,727;    1,136
908,010;    0,853;   -0,909;    0,409
908,567;    1,035;    1,273;    0,591
909,124;    0,490;    0,364;   -1,500
909,681;    0,399;   -2,909;    0,682
910,238;    0,217;    0,636;   -1,318
910,795;   -0,874;   -0,273;   -1,136
911,352;    2,672;   -2,909;   -2,682
911,909;    1,490;   -1,364;   -0,864
912,466;    1,672;   -3,182;    1,500
913,022;    2,490;   -1,636;    0,500
913,579;    0,944;   -0,909;    2,045
914,136;    0,854;    1,636;    0,955
914,692;   -1,146;    0,091;   -1,227
915,249;    2,217;    1,455;    0,409
915,806;    0,944;    0,182;    1,955
916,362;    0,126;    1,909;    1,864
916,918;    0,581;    2,000;    1,045
917,475;    0,581;   -1,182;    0,955
918,031;   -0,146;    3,364;   -0,045
918,587;    0,399;   -0,909;   -0,318
919,144;   -1,510;   -2,273;    0,227
919,700;    1,581;    1,727;    0,773
920,256;    1,672;    0,727;    0,045
920,812;    2,581;   -0,727;   -1,045
921,368;    0,581;   -1,727;   -1,045
921,924;   -0,601;    0,182;   -0,136
922,480;    0,490;   -0,545;    1,227
923,036;   -1,419;    1,273;    1,955
923,592;    1,672;    0,455;    0,318
924,148;    0,035;    0,455;   -0,955
924,704;    1,399;   -1,364;   -0,409
925,259;   -0,419;   -0,273;    0,591
925,815;    1,581;    1,455;    0,500
926,371;    2,581;    2,909;    1,409
926,926;    1,126;    2,091;    0,591
927,482;    2,854;   -1,364;    0,773
928,037;   -0,419;    0,909;    2,045
928,593;    4,035;    1,636;    1,045
929,148;    2,490;   -1,818;   -1,500
929,704;    0,672;   -1,455;   -0,500
930,259;   -1,601;    0,091;   -0,136
930,814;    1,672;   -0,818;    1,955
931,369;   -1,237;    1,091;   -0,773
931,925;    0,217;   -0,091;    0,136
932,480;    1,126;   -2,818;   -2,591
933,035;    0,399;    0,545;   -0,318
933,590;    2,490;    0,364;   -1,773
934,145;    0,035;   -1,364;   -0,318
934,700;    0,944;    0,455;   -0,591
935,255;    1,308;   -0,091;    0,045
935,809;    5,035;    3,182;    0,864
936,364;   -0,692;   -0,455;   -0,136
936,919;   -1,328;    0,455;   -1,773
937,474;   -0,328;    1,455;    0,136
938,028;   -0,328;   -1,636;    1,136
938,583;    4,944;    1,818;    4,682
939,138;    2,217;    2,091;    2,136
939,692;    1,581;    1,636;   -1,136
940,247;   -0,056;   -0,727;   -1,045
940,801;   -0,783;   -0,636;    0,227
941,355;   -1,146;   -0,364;    2,591
941,910;   -2,692;   -0,273;   -2,136
942,464;    1,763;   -0,818;   -0,318
943,018;    0,217;    1,000;   -0,227
943,572;    2,217;    2,545;   -0,682
944,126;   -0,692;    0,091;   -0,409
944,681;    1,581;    3,091;    0,227
945,235;   -0,601;    1,000;   -0,591
945,789;    2,308;    0,364;   -1,864
946,342;   -0,601;    0,455;   -0,591
946,896;    0,854;   -2,273;    0,955
947,450;    1,217;    1,545;   -0,227
948,004;    2,490;    1,727;   -0,045
948,558;    2,126;    0,273;   -0,864
949,111;   -0,601;   -0,273;   -0,318
949,665;   -0,965;    1,636;   -0,682
950,219;    0,217;   -0,091;   -1,045
950,772;    0,399;   -1,909;    1,864
951,326;    4,217;    0,545;   -0,955
951,879;    3,490;    0,727;   -2,318
952,433;    1,308;    0,000;    2,227
952,986;    1,672;    2,909;    0,682
953,539;   -0,419;   -0,273;    0,591
954,093;    1,854;    0,545;   -1,318
954,646;   -0,056;    0,909;    1,318
955,199;   -1,510;    0,000;   -0,500
955,752;    1,399;   -0,455;    1,773
956,305;    0,763;   -0,091;    2,955
956,858;    0,763;    0,818;   -0,318
957,411;    0,399;   -0,545;    2,136
957,964;    1,944;    1,364;    2,136
958,517;    1,672;   -1,545;    3,136
959,070;    3,672;   -0,455;    1,955
959,623;    2,217;    1,091;    1,500
960,176;   -0,510;    1,727;    2,045
960,728;    0,672;   -2,727;    0,773
961,281;    0,854;    0,545;    0,500
961,834;    2,763;   -0,909;    0,864
962,386;    0,035;    1,727;    1,045
962,939;    2,399;    0,364;   -0,318
963,491;   -0,056;    0,455;    1,136
964,043;   -0,237;    1,182;    2,409
964,596;   -0,601;   -1,000;    2,227
965,148;    1,672;   -1,000;    1,773
965,700;   -0,510;    1,091;   -0,227
966,253;   -1,510;   -0,636;    0,318
966,805;   -0,146;   -2,273;    0,773
967,357;   -1,328;    1,091;   -1,500
967,909;    1,672;    0,455;   -1,227
968,461;    2,217;    0,545;    3,136
969,013;   -0,510;   -0,182;   -0,864
969,565;   -1,056;   -0,455;   -1,136
970,117;    2,672;   -0,364;    1,045
970,669;    1,490;    0,182;   -0,136
971,220;   -0,056;   -0,455;   -1,500
971,772;   -0,783;   -0,636;   -0,318
972,324;    0,035;    0,091;   -0,500
972,876;    0,581;    0,818;   -0,045
973,427;    0,035;    1,909;   -1,045
973,979;   -0,601;   -0,727;   -2,500
974,530;    1,217;    1,818;    1,318
975,082;    1,399;   -0,545;    1,682
975,633;    1,490;    1,091;    1,682
976,184;    0,763;    0,909;    0,773
976,736;    1,672;    0,091;    0,227
977,287;    0,763;   -0,909;   -0,500
977,838;    1,217;    0,909;   -0,318
978,389;    3,763;   -1,000;   -0,500
978,940;    1,126;    0,545;   -0,409
979,491;   -0,146;    0,091;   -0,500
980,042;    2,217;    0,182;    3,045
980,593;    4,035;   -2,545;    0,227
981,144;    0,581;    2,545;   -0,500
981,695;    1,126;    1,455;    1,500
982,246;    0,490;   -0,273;    1,045
982,797;    2,854;   -1,727;    0,682
983,347;    1,490;    0,364;    0,591
983,898;    1,126;    3,091;    0,409
984,449;    0,944;    2,182;    0,773
984,999;    3,035;    1,455;   -1,136
985,550;    0,763;    0,182;   -0,318
986,100;   -0,874;   -0,455;   -0,318
986,651;   -0,692;   -0,818;    0,045
987,201;    0,399;   -1,000;   -0,591
987,751;    1,217;    0,818;    2,864
988,302;    2,490;    2,636;    1,500
988,852;    0,490;    0,455;   -1,136
989,402;    2,399;    0,091;    0,682
989,952;    2,490;   -2,182;    0,864
990,502;    1,763;   -0,091;    0,682
991,052;    0,944;   -0,727;    0,045
991,602;   -0,783;   -2,909;    1,318
992,152;    4,217;    0,455;    0,682
992,702;    1,490;    1,364;   -0,045
993,252;    1,126;   -3,000;   -0,500
993,802;    4,763;   -0,273;    1,318
994,352;    0,217;   -1,545;    1,136
994,901;   -1,237;   -0,182;    3,227
995,451;   -1,056;   -0,182;    0,318
996,000;   -0,965;    1,636;    0,318
996,550;    1,035;    2,273;    0,227
997,100;   -1,510;    1,273;   -0,045
997,649;   -1,328;    2,182;    0,955
998,198;    1,035;    1,727;   -1,500
998,748;    2,308;    1,091;   -2,318
999,297;    2,126;   -0,818;   -0,409
999,846;    0,854;    1,000;   -0,773
1000,395;   -0,510;   -0,818;    0,500
1000,945;    0,399;    1,818;   -0,773
1001,494;    0,490;    2,364;    0,682
1002,043;    1,763;    4,636;    0,864
1002,592;    2,581;   -1,091;    1,955
1003,141;   -0,783;   -0,455;   -0,682
1003,690;    0,581;    1,727;    0,500
1004,238;    1,944;    1,455;   -0,045
1004,787;    3,763;    1,364;    1,227
1005,336;    2,763;    0,364;    0,682
1005,885;    2,308;    1,364;   -2,773
1006,433;    0,490;    0,545;    0,955
1006,982;    1,854;    0,455;    1,682
1007,531;   -1,328;   -1,818;   -0,227
1008,079;    0,581;   -2,273;    0,500
1008,627;    0,854;   -1,455;    0,409
1009,176;    2,399;    0,000;   -1,955
1009,724;    0,308;    1,091;    0,864
1010,273;   -0,874;    1,273;    0,500
1010,821;    1,399;    0,091;    1,409
1011,369;    2,399;   -1,364;    1,318
1011,917;    2,581;   -1,364;   -0,591
1012,465;    1,217;    1,273;   -1,591
1013,013;    2,581;    2,091;   -1,682
1013,561;    2,490;    0,455;   -0,773
1014,109;    1,308;   -1,909;    1,682
1014,657;    1,035;    0,364;    0,591
1015,205;    1,854;    1,636;   -0,955
1015,753;    2,126;   -0,545;   -1,409
1016,301;    2,490;   -2,636;    3,045
1016,848;    1,399;   -1,273;    0,409
1017,396;    1,581;    2,545;    0,045
1017,944;    3,126;    1,182;    1,864
1018,491;    1,581;    0,273;    1,409
1019,039;    0,763;    0,455;    0,591
1019,586;   -0,237;   -1,364;    1,682
1020,134;   -1,237;    0,455;    1,500
1020,681;   -0,692;    0,182;   -1,136
1021,228;    2,217;    2,909;   -2,227
1021,776;    0,854;    1,182;   -1,136
1022,323;    1,308;    0,455;    0,773
1022,870;    0,399;   -1,000;   -0,045
1023,417;    2,035;    2,636;    1,864
1023,964;    1,217;    2,636;    1,227
1024,511;    3,126;    1,000;    0,773
1025,058;    1,854;    3,182;   -0,045
1025,605;    2,672;   -2,273;    3,136
1026,152;    1,944;    1,727;   -0,591
1026,699;    1,126;    1,818;    1,318
1027,245;   -1,146;   -0,091;    0,318
1027,792;    0,035;   -1,000;    1,409
1028,339;    3,944;    2,364;   -0,045
1028,885;   -0,328;    1,000;   -0,227
1029,432;   -0,874;   -0,091;    0,227
1029,978;    1,217;   -1,000;   -1,591
1030,525;    1,763;    1,000;    0,409
1031,071;    2,126;   -1,364;    1,136
1031,618;   -1,056;    0,364;    1,682
1032,164;    0,308;   -0,091;    3,045
1032,710;    0,854;    1,636;   -1,500
1033,256;    1,217;   -0,636;   -0,136
1033,803;   -0,237;   -0,545;    1,500
1034,349;    0,399;   -1,364;    0,136
1034,895;    0,217;    0,000;   -0,318
1035,441;    0,581;   -0,818;    0,318
1035,987;   -0,146;   -2,364;   -0,682
1036,533;   -0,783;   -1,455;   -0,955
1037,078;    2,944;    1,455;    1,682
1037,624;   -0,056;    2,455;   -0,955
1038,170;   -2,056;    0,455;   -0,318
1038,716;    0,217;    1,636;   -0,409
1039,261;    3,490;   -2,273;   -0,773
1039,807;    1,581;   -0,091;    3,409
1040,352;   -0,328;   -1,909;   -0,318
1040,898;   -0,328;   -1,545;   -0,682
1041,443;    2,763;   -1,455;   -2,591
1041,989;    3,854;    1,091;    1,591
1042,534;    3,035;   -0,364;    2,591
1043,079;    1,854;    2,909;    0,955
1043,625;    1,126;    1,818;    0,500
1044,170;    2,217;   -1,364;    1,045
1044,715;    1,672;    2,455;    0,955
1045,260;   -0,965;    2,182;   -0,955
1045,805;   -0,874;    1,182;   -0,591
1046,350;    0,854;    1,364;   -0,409
1046,895;    1,217;    2,909;    1,591
1047,440;    1,672;    5,364;    0,409
1047,985;    0,763;    2,818;   -0,955
1048,530;    1,126;    1,545;    1,227
1049,074;    0,217;    0,000;    0,318
1049,619;    0,944;   -1,364;    1,955
1050,164;   -0,056;    0,455;    0,227
1050,708;    2,217;   -0,455;    0,045
1051,253;    2,035;    1,273;   -2,227
1051,797;   -1,510;    0,818;   -1,318
1052,342;    0,308;   -1,182;    1,045
1052,886;   -1,874;    0,364;   -1,409
1053,430;   -1,419;   -1,364;    0,136
1053,975;   -1,601;   -0,818;   -0,318
1054,519;    0,490;   -0,727;    3,227
1055,063;    1,854;    0,909;    1,318
1055,607;    1,126;   -0,182;    0,227
1056,151;    2,126;    2,909;    1,682
1056,695;    2,944;    2,273;   -1,136
1057,239;    2,581;   -1,727;   -0,682
1057,783;    0,581;    0,818;   -1,500
1058,327;    2,035;    0,000;    1,409
1058,871;    1,944;   -0,545;    1,318
1059,415;    1,217;   -0,818;   -0,045
1059,958;    0,308;    1,455;    2,591
1060,502;   -1,692;   -1,000;   -0,773
1061,046;   -0,056;    0,364;   -0,955
1061,589;    0,308;   -3,000;   -1,136
1062,133;    2,035;   -1,273;    1,864
1062,676;   -0,419;    1,182;    0,864
1063,220;    1,490;    1,091;    0,500
1063,763;    1,217;    0,909;    1,136
1064,306;    1,763;   -0,909;    1,864
1064,849;    2,581;   -0,909;    0,591
1065,393;    3,581;    2,000;   -1,500
1065,936;    1,308;    0,182;   -0,409
1066,479;    1,217;   -1,455;    1,318
1067,022;    0,490;   -0,273;   -0,227
1067,565;    0,672;   -0,091;   -1,318
1068,108;    1,944;    0,727;   -0,591
1068,651;   -0,146;   -0,636;    1,409
1069,194;    0,217;   -0,455;   -1,682
1069,736;   -1,965;   -1,273;    0,955
1070,279;   -1,965;   -1,364;   -0,500
1070,822;    0,763;   -2,000;   -0,318
1071,364;    1,126;   -0,364;    1,318
1071,907;    1,217;   -0,727;    3,227
1072,450;   -3,419;    0,000;   -0,045
1072,992;    0,399;   -0,273;    3,136
1073,535;    2,490;    2,091;    2,136
1074,077;    4,217;   -0,727;    2,045
1074,619;    2,126;   -1,364;    0,591
1075,161;   -0,510;   -1,091;    1,500
1075,704;    1,490;    1,545;    1,227
1076,246;    1,308;   -0,182;    0,682
1076,788;    0,672;   -0,364;    1,773
1077,330;    0,490;    1,273;    2,136
1077,872;    2,217;    0,909;    0,955
1078,414;    1,944;    2,727;    0,773
1078,956;   -0,601;    1,273;   -0,227
1079,498;    3,217;    1,636;    0,318
1080,040;    3,126;    1,909;   -1,318
1080,581;   -0,783;    1,636;   -0,318
1081,123;    2,672;    0,091;   -0,773
1081,665;    1,035;   -1,182;   -0,955
1082,206;    3,763;    1,364;   -0,500
1082,748;    0,854;    0,727;    2,045
1083,289;    1,672;   -2,000;    1,318
1083,831;    0,854;   -0,545;    0,227
1084,372;    0,399;    0,000;    0,591
1084,913;   -0,056;    1,091;    0,864
1085,455;    0,763;   -1,909;   -2,045
1085,996;    0,126;   -2,273;    0,136
1086,537;    1,308;   -0,091;    0,864
1087,078;    2,672;   -0,909;   -2,136
1087,619;    1,490;   -1,273;    0,227
1088,160;    0,672;    0,000;    1,318
1088,701;    0,944;   -1,091;    0,682
1089,242;    1,581;    1,364;   -2,227
1089,783;    0,672;   -0,273;    1,409
1090,324;   -0,056;    0,455;    0,682
1090,865;   -0,146;    2,727;   -0,409
1091,405;   -1,783;    0,727;    2,227
1091,946;    0,399;    0,182;   -0,955
1092,487;    0,217;    0,818;   -1,409
1093,027;    2,944;   -1,364;   -1,500
1093,568;    2,217;   -0,364;    1,227
1094,108;   -0,965;    0,273;    1,773
1094,649;   -0,237;   -1,182;    0,136
1095,189;    0,308;   -0,636;   -0,682
1095,729;    1,944;   -0,091;    0,955
1096,269;    0,490;    0,727;   -0,955
1096,810;    5,399;   -1,364;    0,500
1097,350;    2,399;    1,364;   -0,773
1097,890;    1,035;    0,364;    1,227
1098,430;    1,944;    2,364;    2,864
1098,970;   -2,419;    2,182;    1,682
1099,510;   -0,692;    0,545;   -2,318
1100,050;   -0,965;    1,000;   -1,591
1100,589;   -0,510;   -0,727;   -0,318
1101,129;    2,035;    0,818;   -0,955
1101,669;    1,763;    1,727;    2,136
1102,209;   -0,237;   -0,091;    2,227
1102,748;   -0,874;    0,000;    0,955
1103,288;    1,944;    1,273;   -1,227
1103,827;   -0,237;    3,091;   -2,227
1104,367;    1,399;   -0,091;   -2,409
1104,906;   -1,146;    1,364;   -1,136
1105,445;    0,035;    0,636;   -1,136
1105,985;    3,035;   -0,727;    1,500
1106,524;    1,399;   -1,727;   -0,682
1107,063;    0,490;   -2,727;    1,409
1107,602;   -0,692;   -1,909;   -1,500
1108,141;    1,490;   -1,909;    1,500
1108,680;    0,126;   -3,455;   -0,591
1109,219;    1,581;   -0,909;   -0,500
1109,758;    0,581;    0,455;    0,682
1110,297;    2,490;    1,000;   -0,682
1110,836;    2,944;   -0,727;    0,955
1111,375;    2,672;   -2,545;    0,409
1111,913;    2,763;   -1,000;    0,773
1112,452;    2,581;   -0,273;    0,136
1112,991;   -1,237;    1,091;    1,955
1113,529;   -1,146;   -0,818;   -0,045
1114,068;   -0,419;   -0,273;    2,955
1114,606;   -0,601;   -0,364;   -0,955
1115,144;    1,308;   -1,273;    1,045
1115,683;    3,308;   -0,727;    0,318
1116,221;    2,217;   -0,455;   -0,864
1116,759;    2,126;    0,636;   -0,864
1117,297;    0,581;    0,000;    1,864
1117,836;    0,672;   -2,182;   -1,227
1118,374;    2,126;    0,182;   -0,682
1118,912;    0,763;    0,909;    2,682
1119,450;    0,399;    1,000;    0,864
1119,988;   -0,328;    1,545;    2,136
1120,525;    2,854;    5,091;    3,318
1121,063;    1,217;    1,182;    1,864
1121,601;    0,035;   -0,909;   -1,227
1122,139;    0,217;   -0,727;   -2,045
1122,676;    0,035;   -0,727;    2,773
1123,214;    0,854;   -1,182;    4,409
1123,751;   -0,965;    1,727;    2,227
1124,289;    0,944;   -0,091;   -0,409
1124,826;   -0,056;    1,727;    0,227
1125,364;   -0,874;    1,727;   -0,955
1125,901;    2,581;    1,182;    1,227
1126,438;    1,672;    0,818;    0,955
1126,975;    1,490;   -0,727;   -0,773
1127,513;    3,399;    0,273;    2,136
1128,050;    3,035;    1,636;   -0,682
1128,587;    1,217;    2,000;   -0,227
1129,124;    1,217;    0,091;    1,318
1129,661;   -0,419;    0,273;    0,227
1130,198;    1,763;    1,636;    0,773
1130,734;   -0,601;    0,182;    1,409
1131,271;   -2,692;   -0,909;    0,864
1131,808;   -0,601;    2,909;    3,045
1132,345;   -0,601;    1,545;    0,318
1132,881;   -1,874;   -1,545;   -1,864
1133,418;    1,581;    0,727;   -1,136
1133,954;    0,035;    2,455;   -2,682
1134,491;    1,672;    1,364;   -0,773
1135,027;   -1,237;    2,364;    0,864
1135,564;    2,126;    0,273;    2,955
1136,100;    1,854;    0,364;    2,136
1136,636;   -2,146;   -1,273;   -1,045
1137,172;   -0,056;    0,000;   -1,045
1137,708;   -0,874;   -1,364;   -1,045
1138,245;   -2,419;    1,273;   -1,227
1138,781;   -0,601;    1,091;   -3,318
1139,317;    2,581;    1,273;   -1,409
1139,852;    0,763;    3,091;    0,136
1140,388;    1,581;   -1,182;   -0,409
1140,924;    3,308;   -1,091;   -2,227
1141,460;    1,854;   -1,636;    0,136
1141,996;    2,035;   -1,364;    2,682
1142,531;    3,581;    1,364;    3,318
1143,067;    0,399;    1,182;    1,045
1143,602;    4,308;   -0,091;   -0,318
1144,138;    4,126;   -2,636;    1,045
1144,673;    0,490;   -1,455;    1,409
1145,209;    2,308;   -1,909;   -0,318
1145,744;    2,490;   -0,727;    0,864
1146,279;    0,217;    1,818;   -0,136
1146,815;    1,490;    1,545;   -2,682
1147,350;    0,672;   -1,364;    0,045
1147,885;    0,854;   -0,818;   -1,318
1148,420;    1,763;   -2,273;    0,773
1148,955;    0,399;   -1,727;    1,864
1149,490;    1,308;   -0,909;   -1,591
1150,025;    1,854;    0,455;   -1,773
1150,560;    2,035;    1,091;   -0,955
1151,094;    0,763;    1,455;   -0,591
1151,629;    0,308;    1,636;    0,864
1152,164;   -0,146;    1,364;    1,318
1152,698;    1,217;   -0,182;   -0,136
1153,233;   -0,237;    0,091;   -0,682
1153,767;    0,308;   -3,000;   -2,318
1154,302;    2,854;   -1,455;    1,773
1154,836;   -0,692;   -0,455;   -2,136
1155,371;    1,217;   -1,364;    3,682
1155,905;    0,763;   -0,636;    1,682
1156,439;    1,308;   -0,636;   -0,500
1156,973;    2,217;    0,364;    0,318
1157,507;    1,399;   -0,364;    0,682
1158,042;    0,763;   -0,727;    1,045
1158,576;    1,854;    0,182;    1,773
1159,110;    1,035;   -0,818;    2,409
1159,643;    0,581;    0,636;   -0,045
1160,177;    1,763;   -1,545;    1,500

