
Integration time [ms]:   0,040
Averaging Nr. [scans]: 11
Smoothing Nr. [pixels]: 0
Data measured with spectrometer [name]: 7318044SP
Wave   ;Sample   ;Dark     ;Reference
[nm]   ;[counts] ;[counts] ;[counts] 

186,757;   31,798;   31,551;    1,318
187,357;   25,252;   22,551;    0,955
187,958;   17,616;   15,460;   -1,591
188,558;   15,525;    8,915;   -1,227
189,159;    8,525;    6,733;   -4,500
189,759;    7,252;    7,278;   -3,591
190,360;    3,433;    2,824;   -2,136
190,960;    4,433;    2,915;   -4,136
191,560;    2,796;    3,189;   -6,591
192,161;    4,522;    4,372;   -3,500
192,761;    3,702;    4,010;   -3,227
193,361;    2,702;    1,556;   -3,773
193,962;   -0,752;    2,010;   -2,682
194,562;   -0,477;    1,189;   -3,955
195,162;    0,069;   -2,448;   -2,227
195,762;    1,252;   -3,176;   -0,045
196,362;    0,797;    1,370;   -2,500
196,963;    0,979;    2,006;   -0,864
197,563;    1,979;    1,551;   -0,955
198,163;    4,252;    0,096;   -0,682
198,763;    3,798;    1,733;   -0,500
199,363;    1,434;    3,096;   -0,500
199,963;    2,071;    0,369;    0,409
200,563;    5,707;    2,823;   -1,409
201,163;    3,798;    3,277;   -0,227
201,763;    3,889;    3,732;    0,318
202,363;    1,707;    1,459;    1,500
202,963;    2,526;    1,459;    1,045
203,563;    2,707;    0,277;    0,500
204,162;    0,435;    2,096;   -1,864
204,762;   -0,019;    0,550;    0,591
205,362;    3,344;    3,004;    1,955
205,962;    2,435;    3,096;    1,955
206,562;    1,617;    1,823;    2,318
207,161;    1,253;   -0,087;    0,318
207,761;    3,435;    1,277;    2,409
208,361;    3,980;   -0,268;    1,409
208,960;    2,071;    0,459;    1,500
209,560;    1,708;    1,277;    1,591
210,160;    0,344;    0,550;    1,864
210,759;    2,071;    4,186;    1,227
211,359;    1,799;    1,459;    1,045
211,958;    2,708;    1,277;    2,045
212,558;    2,890;    1,732;    1,864
213,157;    1,708;    1,822;    1,500
213,757;    3,617;    3,822;   -0,227
214,356;    4,072;    1,277;   -0,409
214,956;    3,799;    3,095;    0,409
215,555;    3,253;    2,095;    2,136
216,154;    2,435;   -2,723;   -0,591
216,754;    1,253;    0,277;    0,773
217,353;    2,071;   -0,268;   -1,045
217,952;    2,072;   -0,178;    0,318
218,552;   -0,110;    1,368;   -0,773
219,151;    0,254;    0,277;    0,955
219,750;   -0,473;    0,004;   -0,227
220,349;   -1,292;   -0,451;    1,045
220,948;    0,708;   -1,360;    1,136
221,548;    0,981;    0,913;    1,227
222,147;    0,799;   -0,087;   -0,409
222,746;    3,345;   -0,451;   -0,955
223,345;   -0,110;    0,731;    0,500
223,944;   -0,746;   -0,451;    0,773
224,543;    0,617;    1,004;   -1,409
225,142;    1,163;    0,094;    0,136
225,741;    2,254;   -0,814;    1,045
226,340;   -0,110;   -0,451;   -0,955
226,939;   -0,383;   -0,996;   -0,136
227,538;   -0,019;   -0,360;   -0,773
228,137;    2,072;   -0,814;    0,864
228,735;    0,253;   -0,541;    1,227
229,334;    2,890;   -0,905;   -0,227
229,933;    0,435;    0,459;    0,591
230,532;    2,162;    1,186;   -0,409
231,131;    2,435;    1,732;    0,318
231,729;    0,344;   -2,450;   -2,318
232,328;   -0,292;   -0,723;   -1,500
232,927;    0,708;    1,004;   -0,500
233,525;    1,890;    3,640;    0,045
234,124;    1,708;    2,368;   -1,591
234,723;   -0,837;    0,913;   -1,045
235,321;   -1,746;    2,277;    0,136
235,920;    0,163;    1,186;   -1,227
236,518;    1,254;    3,459;    0,318
237,117;    0,708;    0,004;   -0,227
237,715;    0,981;    0,640;   -0,500
238,314;   -0,292;   -0,087;   -2,318
238,912;   -0,110;   -0,723;   -1,409
239,510;   -0,747;    0,459;   -1,227
240,109;    2,253;    0,004;    3,773
240,707;    0,617;   -0,996;    1,227
241,305;   -1,201;    0,550;    0,136
241,904;    0,890;   -0,178;   -2,045
242,502;    1,799;   -0,632;   -0,227
243,100;    2,253;   -0,087;   -0,955
243,698;    1,435;    0,732;    1,682
244,297;    1,253;   -0,632;    0,682
244,895;    3,344;   -0,269;   -2,318
245,493;    2,072;    2,186;   -0,591
246,091;    1,890;    1,368;   -1,318
246,689;   -0,474;    1,004;    0,591
247,287;    3,345;    0,822;   -1,136
247,885;    1,799;   -1,451;    1,227
248,483;    0,708;    1,822;   -0,500
249,081;    3,163;    0,185;    1,591
249,679;    1,072;   -0,178;    1,682
250,277;    1,072;   -1,723;    0,864
250,875;    1,163;   -1,087;   -1,045
251,473;    1,799;   -1,178;    0,500
252,071;    2,981;    1,459;    1,045
252,669;    1,981;   -1,814;    0,318
253,267;    0,345;   -0,087;    0,773
253,864;    3,617;   -0,360;    0,682
254,462;    1,072;    1,640;    1,591
255,060;   -1,292;   -0,269;    1,318
255,658;    1,435;    0,822;   -0,136
256,255;    1,163;    0,186;   -2,045
256,853;    2,254;   -0,269;    1,409
257,451;    4,435;    0,822;    1,864
258,048;    1,254;    1,822;    1,864
258,646;   -0,474;    1,731;   -1,045
259,243;    2,708;   -0,087;    2,227
259,841;   -0,292;   -0,814;    0,318
260,438;   -3,292;   -0,087;    0,864
261,036;   -0,110;   -1,905;    1,409
261,633;   -0,383;   -0,087;    2,227
262,231;    0,981;    2,731;   -0,045
262,828;    0,344;   -0,905;    1,136
263,425;    1,072;    0,913;   -0,591
264,023;    2,163;    0,186;    0,045
264,620;    1,254;   -0,360;   -0,318
265,217;    2,981;   -2,087;    3,136
265,815;    0,527;   -1,905;    2,136
266,412;   -0,201;    0,731;    0,136
267,009;    0,799;   -1,451;    0,773
267,606;    1,799;    0,822;   -0,955
268,203;    1,890;   -0,269;   -0,591
268,801;    0,981;    1,731;    0,591
269,398;    0,436;   -0,360;    2,500
269,995;    2,253;    0,277;    1,591
270,592;    1,981;   -0,632;   -0,500
271,189;   -1,564;    0,186;    0,409
271,786;    1,072;   -0,632;    1,227
272,383;    1,526;   -1,087;    0,227
272,980;    1,617;    0,277;    0,318
273,577;    1,344;    0,004;    1,227
274,174;    1,708;    0,822;    2,591
274,771;    1,163;   -0,814;   -0,773
275,367;    2,708;    2,277;    1,409
275,964;   -1,110;    0,731;   -0,500
276,561;   -0,019;    1,549;   -1,045
277,158;   -0,473;    0,095;   -1,773
277,755;    1,254;    2,185;    0,409
278,351;   -0,019;   -0,451;   -1,500
278,948;   -1,564;   -0,815;    0,045
279,545;    0,527;   -1,360;    2,318
280,141;    0,890;   -1,723;   -2,045
280,738;    4,254;   -0,451;   -0,136
281,334;    0,345;   -1,633;    0,591
281,931;   -0,200;   -0,087;   -1,318
282,528;    0,254;    0,822;   -0,500
283,124;    1,345;   -1,087;   -0,500
283,721;    2,163;   -0,451;    1,409
284,317;    0,618;    0,185;    2,500
284,913;    0,163;   -1,360;    0,591
285,510;    0,527;    0,640;   -0,318
286,106;    0,799;   -2,269;   -0,955
286,703;    1,345;   -0,360;    1,955
287,299;    0,799;   -1,451;   -0,591
287,895;   -0,201;    0,822;   -1,045
288,491;   -1,564;    0,186;    2,136
289,088;   -0,019;   -2,360;    2,409
289,684;    1,617;   -1,723;    1,500
290,280;    0,344;    0,368;    0,682
290,876;    1,163;    1,822;    5,500
291,472;    1,981;    1,276;    2,227
292,068;    0,890;    1,367;    0,227
292,665;   -0,837;    2,095;    0,773
293,261;   -1,746;    0,276;    2,136
293,857;   -1,292;    2,913;    2,136
294,453;    1,617;    3,550;    0,955
295,049;    1,071;   -0,268;    1,955
295,644;    1,981;    0,095;    0,136
296,240;    0,526;   -0,905;   -0,136
296,836;    0,708;   -0,995;    0,318
297,432;    1,526;    1,096;   -0,500
298,028;   -0,384;    0,732;    0,773
298,624;   -0,111;    1,459;    1,864
299,220;    0,980;    2,368;    0,591
299,815;    0,889;    1,005;   -0,409
300,411;    0,708;    0,914;    1,773
301,007;    1,798;    1,368;    0,227
301,602;    1,253;   -0,541;   -2,318
302,198;    0,707;    0,732;   -0,773
302,794;    0,798;    1,187;   -0,500
303,389;   -0,020;   -1,177;    1,045
303,985;    1,344;    0,550;    1,409
304,580;    2,071;    1,459;    1,591
305,176;    1,617;   -3,086;    0,136
305,771;    1,526;   -1,268;   -1,227
306,367;    1,708;    4,095;    0,136
306,962;   -0,474;    0,641;    1,500
307,558;   -1,111;   -0,450;    0,136
308,153;    1,071;    1,095;   -1,136
308,748;   -0,292;   -0,814;    1,682
309,344;   -0,838;   -0,632;   -1,318
309,939;    0,253;   -1,905;   -1,318
310,534;    0,617;   -0,086;   -1,682
311,130;    0,708;    0,459;   -2,500
311,725;   -0,020;    1,004;   -0,500
312,320;    0,708;    2,459;    0,045
312,915;   -0,201;    1,459;   -1,045
313,510;    2,980;    1,550;   -0,500
314,105;    3,071;    1,096;    1,409
314,700;    2,162;   -3,086;   -1,045
315,295;    1,798;   -0,904;    0,045
315,890;    3,162;    1,277;    0,864
316,485;    0,889;   -0,359;   -0,318
317,080;   -2,111;   -3,086;    1,591
317,675;   -0,111;    2,005;   -0,682
318,270;    0,889;    5,550;    3,318
318,865;    1,344;    3,278;    3,045
319,460;   -0,020;   -0,904;    0,591
320,055;    0,344;   -0,541;   -1,227
320,650;    1,162;   -1,995;   -0,591
321,244;    1,435;   -0,177;   -1,409
321,839;    1,526;   -1,541;   -0,227
322,434;    3,435;   -1,086;   -1,591
323,029;   -1,384;    1,732;    1,591
323,623;   -0,383;    1,550;    0,773
324,218;    0,889;    2,368;    1,409
324,812;    0,435;    1,096;    1,591
325,407;    0,162;   -0,814;    2,045
326,002;    4,798;    0,277;   -0,409
326,596;    0,162;    0,914;    1,318
327,191;   -1,656;    0,823;   -1,045
327,785;   -0,656;   -0,813;   -0,227
328,379;   -0,474;    1,368;    0,136
328,974;    1,162;    0,914;   -3,955
329,568;    1,344;    0,186;   -2,409
330,163;   -0,747;    2,096;    1,045
330,757;    1,344;    2,459;    1,591
331,351;    1,253;    0,459;    0,682
331,945;    2,071;    0,914;    1,409
332,540;    1,253;   -1,723;   -0,591
333,134;    0,890;   -1,086;    0,773
333,728;   -0,201;    0,005;    0,318
334,322;   -0,656;   -1,177;   -0,864
334,916;    3,071;    0,277;    0,955
335,510;    1,253;   -0,450;   -0,136
336,105;    0,344;   -1,086;    1,591
336,699;    2,889;   -1,086;    0,591
337,293;    2,071;   -1,723;    0,318
337,887;   -0,383;   -2,723;    1,955
338,481;    3,889;    0,459;    0,591
339,074;    3,162;   -0,359;    2,682
339,668;    1,526;   -1,632;    1,227
340,262;    5,708;    1,732;    3,227
340,856;    2,162;    1,822;   -0,682
341,450;    2,799;    1,004;    1,864
342,044;   -0,383;    1,459;    0,136
342,637;    2,799;    0,913;   -2,136
343,231;    0,435;   -2,360;    0,682
343,825;    0,889;   -1,086;   -0,591
344,419;    0,617;   -1,995;    0,500
345,012;    1,162;    2,459;    4,045
345,606;    2,526;    4,641;    1,591
346,199;    1,435;   -1,813;   -0,227
346,793;    1,344;    1,914;    2,045
347,386;   -1,565;   -0,813;   -1,136
347,980;   -0,747;   -0,268;   -0,045
348,573;    0,252;    2,278;    0,409
349,167;    5,707;    5,278;    4,773
349,760;    0,980;    2,914;    2,682
350,354;   -1,021;   -0,813;    1,136
350,947;    1,616;    1,096;    1,682
351,540;    0,070;   -0,358;   -1,409
352,134;   -2,930;    1,096;    1,136
352,727;   -1,475;   -0,086;    1,136
353,320;   -0,657;    0,005;    0,591
353,913;   -1,202;   -1,995;    1,864
354,507;   -0,657;    0,823;   -1,227
355,100;    1,889;    0,460;    0,864
355,693;    4,343;    2,005;    2,409
356,286;    3,252;    0,823;    2,773
356,879;   -0,475;   -0,722;    1,227
357,472;   -0,111;   -0,904;    1,500
358,065;    1,343;   -0,722;    2,500
358,658;   -1,020;   -0,540;    2,318
359,251;    3,161;   -1,631;   -0,591
359,844;    5,070;   -1,904;   -1,136
360,437;    2,525;   -2,995;    0,045
361,030;    0,161;    1,369;   -0,682
361,623;    0,525;    2,824;    0,318
362,215;    0,707;   -0,086;    2,045
362,808;    0,252;   -2,358;   -1,682
363,401;    0,798;   -2,449;    0,136
363,994;    1,252;   -0,631;   -1,500
364,586;   -0,021;    0,824;   -1,500
365,179;   -0,930;   -0,449;   -1,136
365,772;   -0,657;   -1,995;    2,045
366,364;    1,797;    1,915;   -3,227
366,957;    2,888;    2,279;   -0,045
367,549;    0,251;    2,188;   -0,864
368,142;   -0,931;    1,825;   -1,500
368,734;   -3,295;    0,734;   -2,136
369,327;    2,614;    1,643;   -0,500
369,919;    3,432;   -1,538;    0,409
370,512;    2,250;   -1,083;   -0,500
371,104;    3,158;   -0,901;    1,591
371,696;    4,157;    1,191;   -0,955
372,289;    2,430;    0,373;    1,136
372,881;    2,974;   -2,080;    1,318
373,473;    1,155;   -2,170;    1,136
374,066;   -0,755;   -0,169;    0,500
374,658;    1,061;    0,378;    1,136
375,250;   -0,577;    0,653;   -1,409
375,842;   -1,124;    0,473;   -0,045
376,434;    0,601;   -0,435;   -0,409
377,026;    1,781;    0,204;   -2,500
377,618;   -0,039;   -0,158;   -0,682
378,210;    0,505;   -0,338;   -1,955
378,802;    0,049;    0,754;   -0,591
379,394;    1,957;    1,846;    0,682
379,986;   -0,408;    1,393;   -0,955
380,578;   -0,135;   -0,153;    0,773
381,170;   -0,225;   -0,972;    0,045
381,762;    2,594;    0,755;    1,409
382,354;    0,232;   -0,065;   -1,318
382,945;   -0,858;   -2,976;    0,318
383,537;   -1,220;   -2,705;   -1,955
384,129;   -0,309;   -2,160;   -1,136
384,721;   -1,400;   -0,252;    0,955
385,312;    1,328;   -0,161;   -0,955
385,904;    0,146;   -2,706;    1,591
386,496;   -0,127;   -0,979;    1,045
387,087;   -0,310;    1,022;    2,500
387,679;    0,781;   -1,160;    0,045
388,270;    1,145;    2,840;    2,045
388,862;   -0,310;    1,295;   -0,318
389,453;   -0,219;   -0,887;    1,045
390,045;    1,054;   -0,705;   -2,682
390,636;   -0,310;    0,204;   -0,591
391,227;    1,781;   -0,523;   -0,045
391,819;    1,236;    0,204;    0,773
392,410;    2,145;    1,022;    0,045
393,001;    1,327;   -0,979;   -1,591
393,593;   -0,036;    1,930;   -0,045
394,184;   -0,127;    1,385;   -0,409
394,775;   -0,764;    1,839;    2,136
395,366;   -0,309;    1,385;    0,773
395,957;    3,872;    0,113;    0,136
396,548;    2,509;   -0,342;    2,682
397,139;    0,781;   -2,433;    0,591
397,730;   -0,309;   -1,888;    0,955
398,321;   -0,036;   -1,252;    0,955
398,912;    0,418;   -0,615;    0,136
399,503;    1,146;   -3,524;   -1,409
400,094;   -0,491;    0,294;    1,682
400,685;   -0,491;   -0,433;    0,045
401,276;   -1,491;    0,930;   -0,955
401,867;    0,327;   -0,888;    0,773
402,458;    2,054;   -2,251;   -2,318
403,048;    0,236;    1,112;    0,591
403,639;   -1,127;    0,840;    0,864
404,230;   -1,673;    2,476;    0,318
404,821;   -1,036;   -0,615;    0,045
405,411;    0,237;    1,203;   -2,591
406,002;    1,327;   -1,252;   -1,136
406,592;    0,691;    2,294;    0,045
407,183;   -1,763;    0,566;   -1,500
407,774;    1,237;    3,475;   -0,136
408,364;    0,146;    0,930;    0,409
408,954;    1,691;    0,384;    1,227
409,545;    0,873;    1,021;    1,045
410,135;    0,055;    1,293;    0,500
410,726;   -0,399;    1,838;    0,318
411,316;    1,328;    0,111;    0,773
411,906;   -1,399;   -0,253;   -0,409
412,497;   -0,763;   -1,070;   -0,045
413,087;   -1,217;   -1,980;   -0,227
413,677;    2,056;   -0,707;    3,864
414,267;   -0,944;    0,656;    1,409
414,857;   -0,217;   -2,980;    4,227
415,448;    0,510;    0,839;    0,500
416,038;    0,055;    0,020;   -0,591
416,628;    0,510;   -0,889;    0,409
417,218;    1,056;    0,565;    3,318
417,808;    1,147;    0,202;   -0,409
418,398;    2,329;    0,020;    2,682
418,988;    0,692;    2,020;    0,591
419,578;   -2,035;   -0,707;    1,409
420,168;    1,237;   -1,343;   -0,955
420,757;    4,237;   -1,343;   -1,500
421,347;   -0,126;    0,111;   -0,227
421,937;   -0,217;    2,292;    1,409
422,527;    1,056;    0,838;   -0,773
423,116;    3,238;   -0,253;   -0,045
423,706;    2,510;   -1,889;    0,318
424,296;    0,056;    1,384;    0,682
424,885;    1,783;   -0,071;   -3,045
425,475;    0,056;    1,474;   -2,864
426,065;    1,056;   -0,980;   -0,318
426,654;    3,056;   -0,435;   -0,318
427,244;    0,601;    0,020;    1,409
427,833;    0,511;    1,383;   -0,500
428,423;    1,238;   -0,526;    1,136
429,012;   -1,398;   -0,344;   -1,136
429,601;    0,420;   -1,344;    0,136
430,191;    2,784;    1,292;    4,318
430,780;   -0,035;   -0,344;   -0,409
431,369;    0,875;    0,746;   -0,045
431,959;   -1,762;   -1,254;    0,500
432,548;    1,693;   -1,163;   -0,045
433,137;    1,148;   -1,254;   -1,318
433,726;    1,420;    0,292;    0,500
434,315;    2,329;   -0,526;    2,409
434,905;    1,693;   -1,254;    1,409
435,494;    1,693;    0,746;    0,955
436,083;    0,148;   -0,981;   -0,955
436,672;    1,330;    0,110;    0,500
437,261;    0,966;    0,292;   -1,955
437,850;    3,239;    1,383;    0,682
438,439;    2,330;    3,291;    1,955
439,027;    1,966;    3,655;    1,773
439,616;    1,148;    2,927;    1,227
440,205;    0,966;    0,200;   -2,136
440,794;    0,785;    2,109;   -0,045
441,383;    0,149;   -1,346;   -0,591
441,971;    2,058;   -2,436;    0,591
442,560;    1,240;    0,563;   -1,773
443,149;    1,242;    0,379;   -1,318
443,737;   -0,578;   -0,074;   -2,318
444,326;    0,876;    0,018;    0,318
444,915;    0,967;   -1,982;    0,864
445,503;    0,058;   -2,891;   -0,318
446,092;    3,149;    0,382;    2,136
446,680;    3,149;    0,382;    0,318
447,269;    4,513;   -0,346;   -0,318
447,857;    2,422;    0,018;   -1,773
448,445;    1,422;    0,563;    1,318
449,034;   -1,124;   -1,528;   -1,136
449,622;    1,695;   -1,073;    3,500
450,210;    2,058;    2,017;    2,227
450,799;    0,968;    0,290;   -0,591
451,387;    0,422;    1,381;   -0,591
451,975;    2,786;    2,654;    0,864
452,563;   -0,305;    3,472;    2,318
453,151;   -0,032;   -0,528;   -1,227
453,739;    2,059;   -1,347;    0,136
454,328;    1,695;    2,381;   -2,136
454,916;    1,059;    2,562;   -0,136
455,504;    2,877;    1,017;    1,227
456,092;    2,422;    0,017;   -1,591
456,679;    2,331;    1,472;    0,682
457,267;    2,059;    4,017;    1,045
457,855;   -2,032;    1,017;    1,409
458,443;   -0,032;   -0,165;    1,682
459,031;    1,150;    0,108;    2,409
459,619;   -1,123;   -1,801;    2,864
460,206;   -1,123;    0,835;    2,045
460,794;    2,696;   -2,983;   -0,227
461,382;    1,059;   -0,529;   -0,864
461,970;    4,878;    1,198;    1,864
462,557;    0,696;   -0,711;   -0,682
463,145;   -1,213;   -3,165;   -1,682
463,732;    4,241;    2,016;   -1,045
464,320;    2,514;   -0,075;   -3,045
464,907;    0,605;    2,743;   -0,773
465,495;    1,151;    0,743;   -1,227
466,082;   -0,486;   -1,984;   -0,045
466,670;   -0,668;   -2,529;    1,227
467,257;    0,423;   -1,711;    2,045
467,844;   -1,031;   -0,075;    0,045
468,432;    0,605;    0,834;    3,500
469,019;    0,242;    0,925;   -1,773
469,606;    2,515;    0,470;    3,682
470,193;    1,424;   -1,439;    0,227
470,780;    1,151;   -2,075;    0,864
471,368;   -0,485;   -1,257;   -0,773
471,955;    2,606;    1,379;   -0,682
472,542;    0,151;    0,652;   -1,136
473,129;    0,515;   -0,166;    0,136
473,716;   -0,213;    1,470;    0,591
474,303;    1,787;    0,652;   -0,864
474,890;    1,424;   -1,439;   -0,500
475,477;    0,970;   -1,621;    0,409
476,064;   -1,212;    1,106;   -1,591
476,650;   -0,939;    0,288;    0,318
477,237;    0,152;   -0,258;    0,955
477,824;    2,606;   -1,076;    0,864
478,411;    0,243;   -1,894;   -0,318
478,997;    0,243;    0,560;   -0,773
479,584;    0,879;    1,196;   -0,409
480,171;    1,334;   -0,440;   -0,773
480,757;    2,516;    2,651;    0,773
481,344;   -0,121;    0,469;    0,409
481,931;    0,607;    1,105;    1,045
482,517;    2,789;   -1,258;    0,318
483,104;    1,788;    1,106;    2,864
483,690;    0,334;   -1,804;    0,045
484,276;    2,334;   -0,895;    0,227
484,863;    1,698;    2,469;    1,136
485,449;   -0,757;   -0,077;    0,318
486,035;   -2,757;   -1,986;   -0,136
486,622;   -0,302;   -0,895;    0,045
487,208;   -0,120;    1,378;    1,500
487,794;    0,062;    0,741;    0,318
488,380;   -0,029;    0,105;   -1,409
488,967;    0,062;   -1,168;   -0,409
489,553;    0,244;   -1,895;   -1,409
490,139;    0,244;    1,559;    0,773
490,725;    0,971;    0,741;   -0,227
491,311;    2,153;    3,287;    3,045
491,897;    1,153;   -0,986;    1,500
492,483;    1,607;    0,105;    1,227
493,069;    0,971;    3,923;    0,864
493,655;    0,153;    1,650;    0,682
494,241;    1,698;    1,377;   -0,955
494,826;    2,425;    0,287;   -1,045
495,412;    0,880;    2,559;   -0,682
495,998;   -0,483;   -0,805;   -0,318
496,584;   -1,574;    0,377;    1,045
497,169;   -1,211;    1,014;   -0,682
497,755;    2,153;    0,650;    1,227
498,341;    0,971;    0,559;    0,318
498,926;   -0,119;    1,832;    1,955
499,512;    0,245;    1,286;    2,955
500,097;    0,608;    0,195;   -0,318
500,683;    2,063;   -0,350;    2,136
501,268;    1,699;   -0,169;   -0,955
501,854;   -0,028;   -0,169;    1,227
502,439;   -0,210;   -0,624;   -1,773
503,024;    0,335;    0,195;    0,500
503,610;   -1,846;   -0,078;   -0,682
504,195;    1,063;    0,558;    1,955
504,780;    0,881;    2,922;    1,227
505,366;    2,972;    3,013;    2,864
505,951;   -0,937;    0,740;    1,045
506,536;    0,881;   -3,260;   -3,682
507,121;    0,336;    0,285;   -0,318
507,706;    1,790;    2,376;    1,045
508,291;   -2,028;    2,649;    1,136
508,876;   -0,209;   -0,988;    2,591
509,461;    0,973;   -0,169;   -0,773
510,046;    0,609;    0,194;    0,318
510,631;   -2,028;   -0,351;   -0,773
511,216;    1,154;    2,467;   -0,500
511,801;   -0,846;   -0,442;    2,591
512,386;    0,063;    0,740;    0,500
512,971;   -2,755;   -2,988;    0,955
513,555;    0,063;   -0,897;   -1,500
514,140;    1,518;   -0,442;   -3,136
514,725;    1,609;   -0,715;   -1,136
515,309;    0,791;   -0,533;    0,318
515,894;   -1,118;   -0,624;   -2,227
516,479;   -0,027;   -0,624;   -0,955
517,063;   -3,482;    0,376;    1,227
517,648;   -3,664;    1,012;   -1,136
518,232;    0,791;   -0,261;   -1,409
518,817;    2,064;   -0,079;    1,682
519,401;    1,337;    2,194;    0,591
519,985;    2,246;    1,103;    1,136
520,570;   -1,300;    0,830;   -1,955
521,154;    1,428;    2,102;    0,591
521,738;    1,064;   -2,352;    2,409
522,323;   -1,936;   -0,170;    1,682
522,907;    0,792;    0,466;   -0,136
523,491;   -0,390;    0,557;    0,955
524,075;    1,883;    2,284;    0,591
524,659;    0,701;    1,466;    0,591
525,243;    0,428;    1,739;    0,409
525,827;   -3,026;    0,648;   -0,045
526,411;    1,246;   -1,989;   -0,136
526,995;    1,701;   -0,352;    1,409
527,579;   -0,208;   -0,443;   -1,045
528,163;   -1,481;    0,375;   -1,500
528,747;   -0,572;    2,466;   -0,773
529,331;   -2,117;   -0,080;   -1,409
529,915;   -0,662;    1,738;    0,955
530,499;   -0,026;   -0,807;    1,227
531,082;    1,428;   -0,534;    1,591
531,666;    1,701;    1,374;    0,773
532,250;    0,883;    1,284;    2,682
532,833;   -1,117;    0,920;    2,773
533,417;    0,520;   -1,807;    0,864
534,001;    2,247;    1,647;   -0,318
534,584;    0,065;    0,374;    0,500
535,168;    0,156;    0,465;    1,409
535,751;    1,247;    0,647;    0,045
536,334;    0,520;   -0,898;   -0,409
536,918;    0,792;    0,011;    1,591
537,501;    0,792;   -0,899;    1,318
538,085;    1,338;   -0,444;    1,045
538,668;    1,338;    0,829;    2,409
539,251;   -0,389;    1,829;    3,773
539,834;    1,974;    0,101;    0,773
540,418;    0,611;   -1,990;    4,318
541,001;    2,520;   -0,990;    1,773
541,584;    1,066;    2,101;    2,227
542,167;    2,611;    1,374;    2,955
542,750;    2,156;    1,919;   -0,773
543,333;    1,066;    0,555;    2,136
543,916;    0,066;    0,192;    2,500
544,499;    0,248;   -1,354;    0,227
545,082;   -1,207;    1,374;    3,591
545,665;    0,248;    1,919;    1,500
546,248;    1,520;    1,010;   -0,318
546,830;   -0,389;   -0,445;    1,955
547,413;   -1,116;    1,010;   -0,773
547,996;   -1,570;    0,555;    0,500
548,579;   -0,479;    0,919;    0,955
549,161;    0,248;    1,828;    2,682
549,744;   -0,388;   -0,809;    0,409
550,326;    0,612;   -0,809;   -1,136
550,909;    3,248;    2,737;    0,591
551,492;    1,430;   -0,263;    0,227
552,074;    2,248;   -0,173;   -1,318
552,657;    2,521;    2,373;    0,045
553,239;   -0,388;   -0,173;   -0,773
553,821;    0,612;   -1,082;    1,045
554,404;   -0,479;    1,282;    1,136
554,986;    0,976;    0,464;    1,045
555,568;    3,249;    1,191;   -0,955
556,151;    1,521;    1,191;   -0,227
556,733;    1,612;   -0,264;   -0,864
557,315;    0,158;    0,100;    0,500
557,897;   -0,479;    0,554;   -0,500
558,479;    2,249;   -1,991;    1,318
559,061;   -0,206;   -0,719;   -0,864
559,643;    1,067;   -0,264;    0,045
560,225;    1,703;    1,645;    2,864
560,807;    1,431;    0,918;    0,318
561,389;    2,612;    0,554;    2,318
561,971;    0,249;    0,463;    2,136
562,553;   -0,206;   -1,628;    1,591
563,135;   -0,478;   -0,537;    1,136
563,717;    2,613;    3,372;    1,136
564,298;    1,885;    3,645;   -0,045
564,880;    2,249;    0,645;   -1,409
565,462;    1,249;    0,645;    1,318
566,043;    0,522;   -0,446;    2,318
566,625;    2,885;    1,918;    1,227
567,207;    0,340;    1,099;    1,682
567,788;    0,704;   -1,264;    1,500
568,370;   -0,296;    1,917;   -0,500
568,951;   -0,751;    0,190;    0,227
569,533;   -1,478;   -0,628;   -0,500
570,114;    0,067;   -0,446;    0,682
570,695;   -0,751;   -0,174;   -1,318
571,277;    1,068;   -0,265;   -1,682
571,858;    0,249;    2,008;   -1,136
572,439;    0,795;    1,554;   -1,045
573,021;    1,250;    2,099;   -2,773
573,602;   -0,205;   -1,265;    0,318
574,183;    1,068;   -2,083;    2,227
574,764;    1,704;   -1,629;    0,409
575,345;    2,341;    0,917;   -0,136
575,926;   -0,932;   -0,356;    0,136
576,507;   -0,659;    1,099;   -0,227
577,088;   -0,114;    3,099;    1,682
577,669;    0,159;    0,735;    1,955
578,250;   -0,750;    0,644;   -1,045
578,831;    1,795;   -1,356;   -2,227
579,412;    1,977;   -0,810;    0,955
579,993;    0,068;    1,008;    0,227
580,573;   -0,659;   -0,629;   -0,955
581,154;   -0,568;    0,735;   -0,591
581,735;   -0,932;    0,644;    0,773
582,315;    0,068;   -0,629;    2,136
582,896;    0,250;   -0,174;    1,227
583,477;    1,159;    0,189;    1,227
584,057;    1,341;    0,553;    0,955
584,638;    0,432;    2,553;    2,318
585,218;    0,523;   -0,538;    2,682
585,799;    0,977;    0,281;   -0,227
586,379;   -0,387;    0,372;    1,591
586,959;   -1,205;    0,735;    0,318
587,540;    0,977;   -0,629;    2,227
588,120;   -0,113;    1,007;   -0,045
588,700;    1,523;    2,553;    2,136
589,281;    0,523;    0,462;   -0,955
589,861;   -0,568;    0,099;   -1,682
590,441;   -1,841;    2,371;   -2,682
591,021;    2,613;   -0,265;   -2,591
591,601;   -0,387;   -0,537;    0,500
592,181;    1,340;   -0,719;   -0,773
592,761;    1,341;    0,007;    1,409
593,341;    0,250;   -0,901;    0,045
593,921;   -0,569;   -0,265;    1,591
594,501;   -0,114;   -0,538;    1,318
595,081;    2,704;    0,917;   -0,318
595,661;    1,977;   -1,447;    0,955
596,240;   -0,023;   -0,537;    0,136
596,820;    0,159;    0,372;    1,955
597,400;   -1,114;    2,008;    0,773
597,980;   -0,750;    2,008;    1,045
598,559;    3,613;    2,735;   -0,227
599,139;    2,068;   -0,174;   -1,227
599,718;    2,704;   -0,174;   -0,409
600,298;    2,522;    0,735;    0,682
600,877;    3,340;    2,917;    1,409
601,457;    2,522;    2,281;    1,136
602,036;    0,250;    0,190;    2,045
602,616;    0,522;    0,644;    1,682
603,195;    1,613;   -0,355;    3,500
603,774;    1,795;   -0,901;    2,045
604,354;   -1,296;    0,826;   -0,500
604,933;    1,704;    0,463;    1,864
605,512;    0,977;    3,554;    0,591
606,091;    0,522;   -0,537;    3,773
606,671;   -0,478;    0,281;    0,773
607,250;    1,249;    1,644;    3,136
607,829;    2,704;    2,372;    3,227
608,408;    0,340;    1,190;    2,591
608,987;    0,249;    1,281;    3,409
609,566;   -0,932;   -1,265;   -2,500
610,145;    1,431;   -1,082;    0,682
610,723;    2,431;    4,372;    6,864
611,302;    1,522;   -0,446;    1,682
611,881;    5,340;    5,008;   11,227
612,460;    1,704;    1,645;    3,955
613,039;   -2,024;   -0,082;    2,045
613,617;    1,067;    1,736;    4,773
614,196;    2,976;    1,099;    1,227
614,775;    1,158;    1,009;    2,409
615,353;   -1,842;    0,736;    0,864
615,932;   -0,751;    0,100;    2,409
616,510;   -0,297;    0,554;    0,591
617,089;    6,431;    7,100;   17,591
617,667;    0,431;    2,372;    6,136
618,246;   -0,478;   -1,537;    1,318
618,824;    0,522;   -3,355;   -0,955
619,402;    1,067;   -2,900;   -1,773
619,981;    0,794;   -0,173;   -1,045
620,559;   -0,570;    0,009;    1,682
621,137;   -1,206;   -0,718;    1,864
621,715;    0,885;   -1,173;   -0,682
622,293;   -0,115;   -0,537;   -0,773
622,871;   -1,569;   -0,718;    0,500
623,450;    0,612;    0,373;   -0,864
624,028;    0,521;    0,191;   -0,955
624,606;   -0,388;   -1,718;    1,682
625,183;   -0,752;   -1,536;   -1,136
625,761;    0,158;    1,009;    1,136
626,339;    2,249;    1,373;    2,591
626,917;    0,430;   -0,172;   -0,045
627,495;    1,339;   -0,354;    1,318
628,073;    1,703;   -0,263;    2,864
628,650;    1,521;    0,100;    2,136
629,228;    0,703;    0,373;    4,409
629,806;   -0,206;    2,282;    1,136
630,383;    0,430;    1,464;   -0,318
630,961;   -0,206;    2,555;   -0,955
631,539;    0,248;    2,464;    0,227
632,116;   10,885;   11,373;   15,409
632,694;    1,885;    2,555;    6,500
633,271;    0,612;    0,828;    2,682
633,848;    1,339;    1,828;    2,045
634,426;    2,793;   -1,081;    1,773
635,003;    2,520;    1,101;   -0,409
635,580;    3,248;    1,192;    3,682
636,158;    3,066;    3,737;    1,227
636,735;    1,975;    0,555;   -0,500
637,312;    2,975;   -0,809;   -0,682
637,889;    1,521;   -4,354;   -0,682
638,466;    1,248;   -3,990;   -0,409
639,043;   -0,389;    2,101;   -1,136
639,620;   -2,025;   -2,262;   -0,955
640,197;   -0,116;    1,100;    1,682
640,774;    2,066;   -0,172;    1,136
641,351;   -0,116;    0,737;    1,136
641,928;    2,157;   -0,627;    1,409
642,505;    2,248;    0,828;   -0,500
643,082;    0,157;   -1,718;    1,227
643,658;    0,157;   -0,718;    1,500
644,235;   -0,570;    1,191;    2,500
644,812;    1,794;    1,918;    0,773
645,388;   -0,115;   -0,991;    1,409
645,965;    0,248;   -0,809;    1,682
646,542;    0,066;   -1,445;   -0,227
647,118;    2,794;    1,009;   -0,955
647,695;    0,067;   -0,263;    1,136
648,271;    0,521;   -0,536;    0,500
648,848;    0,612;    0,736;    2,227
649,424;    2,521;    0,827;    1,318
650,000;    3,339;   -0,354;   -1,045
650,577;    2,339;   -0,627;   -0,955
651,153;   -1,024;   -1,809;    0,955
651,729;   -1,024;    1,191;    0,864
652,305;   -1,024;    0,645;    2,773
652,881;   -0,388;   -0,082;    1,136
653,458;    1,430;    1,100;    0,227
654,034;    1,339;    0,282;    1,591
654,610;   -0,388;    0,554;    0,773
655,186;    1,885;    0,645;    3,045
655,762;   -0,206;   -0,991;    0,409
656,338;    2,885;    0,100;    0,136
656,913;    3,067;   -0,082;    0,409
657,489;    0,885;    0,827;   -0,318
658,065;   -1,479;   -0,173;   -1,591
658,641;    2,340;   -0,900;   -0,864
659,217;    2,340;   -0,991;    0,409
659,792;    0,521;    0,645;   -0,409
660,368;    1,612;   -2,173;   -0,682
660,944;    1,249;   -2,082;    1,227
661,519;    0,885;   -0,628;    0,409
662,095;   -0,478;   -1,719;    0,591
662,670;   -0,024;    1,281;   -0,136
663,246;   -0,842;    1,009;   -0,409
663,821;    1,522;    0,281;    1,682
664,396;   -1,115;    0,009;    1,864
664,972;   -1,206;    0,009;   -0,500
665,547;   -2,115;    1,372;    0,136
666,122;    0,158;   -1,082;    0,318
666,698;   -0,387;   -0,173;    0,318
667,273;    0,522;   -0,173;    0,136
667,848;    2,340;    2,372;    1,500
668,423;    1,249;    2,190;    2,318
668,998;    1,613;    2,827;   -0,682
669,573;   -1,115;   -3,264;   -1,500
670,148;    3,340;   -1,446;   -0,682
670,723;    1,249;   -1,810;    0,318
671,298;   -0,114;    2,372;    1,045
671,873;    0,704;   -0,082;   -0,136
672,448;    1,886;    0,645;    0,136
673,023;   -1,024;   -1,992;   -0,227
673,597;    2,158;    0,827;    2,318
674,172;    1,067;   -0,355;    0,318
674,747;   -0,569;    0,372;   -1,045
675,321;   -0,205;   -0,628;    3,318
675,896;   -1,842;    0,645;    1,045
676,471;   -0,387;    2,645;    1,591
677,045;   -0,114;   -1,264;    0,682
677,620;   -1,023;    0,190;    1,136
678,194;   -1,478;   -2,628;    1,136
678,769;   -2,387;   -1,083;   -0,318
679,343;    2,068;   -0,628;    1,773
679,917;    0,977;   -1,446;    1,955
680,492;    1,249;    0,826;    3,227
681,066;    1,159;    3,372;    0,409
681,640;    2,431;    1,463;   -0,318
682,214;    2,250;    0,735;    0,500
682,788;   -0,023;   -1,356;   -0,773
683,363;    0,340;   -1,810;    1,682
683,937;    1,977;   -1,719;   -0,318
684,511;    2,341;    0,463;   -0,591
685,085;   -0,296;   -1,356;    0,318
685,659;   -0,023;   -2,538;    0,864
686,232;    0,250;   -0,356;   -0,318
686,806;    0,613;   -0,901;    0,409
687,380;    3,250;   -0,174;    0,591
687,954;    0,613;   -1,174;    1,136
688,528;   -1,205;   -0,719;    1,955
689,101;   -2,841;   -3,992;    1,045
689,675;   -0,932;   -0,356;   -0,136
690,249;   -0,023;   -0,719;    0,409
690,822;    0,886;    0,280;    0,318
691,396;    0,341;   -0,265;    1,227
691,969;   -0,477;    1,280;    0,136
692,543;    0,704;   -0,447;   -1,955
693,116;    1,341;   -0,265;   -1,409
693,690;   -0,841;    0,099;    0,500
694,263;   -1,477;   -1,083;    2,955
694,836;    0,705;    1,371;    3,591
695,410;    2,159;   -0,265;    1,773
695,983;    1,250;    0,189;    0,591
696,556;    2,341;   -0,447;   -1,045
697,129;    1,614;   -0,356;    1,409
697,703;    0,159;   -1,629;    1,955
698,276;   -0,841;    1,462;   -0,773
698,849;   -0,750;    1,280;    1,409
699,422;    0,705;   -1,083;    0,591
699,995;    1,523;    0,007;    0,136
700,568;    1,250;   -0,629;    3,045
701,140;    1,432;   -2,811;    1,682
701,713;    3,614;   -0,174;    2,409
702,286;    0,614;   -0,538;    0,864
702,859;    2,978;   -0,902;   -0,591
703,432;    1,068;    0,825;    0,682
704,004;    1,523;    0,462;    0,318
704,577;    0,796;   -0,629;    0,136
705,150;    0,614;    0,189;    2,500
705,722;    1,432;   -0,356;   -3,227
706,295;   -0,750;   -0,175;   -0,591
706,867;    1,159;   -0,175;    1,955
707,440;    0,614;   -1,720;   -0,409
708,012;    0,796;    0,462;    0,591
708,584;    1,069;    2,462;    0,227
709,157;    1,341;    1,825;   -0,591
709,729;   -0,568;    2,280;    2,045
710,301;    1,341;    0,734;    0,045
710,874;    1,069;   -1,447;   -0,227
711,446;   -0,295;    0,371;    0,864
712,018;   -0,659;    0,098;    0,500
712,590;    1,614;   -1,993;    1,682
713,162;   -0,113;    0,825;    1,318
713,734;   -1,931;    1,825;   -2,045
714,306;    1,160;   -1,902;   -0,409
714,878;    1,614;    0,825;    0,864
715,450;   -0,295;    0,643;    0,864
716,022;   -0,295;    1,552;    1,318
716,593;    0,978;    0,189;    0,591
717,165;   -0,204;   -3,175;   -1,227
717,737;    0,523;    0,280;    0,409
718,309;    2,251;    0,280;   -0,045
718,880;    1,160;   -0,539;   -1,409
719,452;    3,251;   -0,175;   -1,591
720,024;    3,069;    0,734;   -0,591
720,595;    2,887;   -2,902;    0,955
721,167;    3,887;    0,370;   -2,045
721,738;    1,069;   -0,812;   -1,045
722,309;    0,069;   -0,993;   -1,227
722,881;    2,887;   -1,357;    0,773
723,452;    1,342;   -2,630;    2,864
724,023;    1,251;   -0,721;    2,682
724,595;    3,251;    0,007;    0,682
725,166;   -0,294;    0,007;   -0,409
725,737;    1,433;    1,734;    0,227
726,308;    1,251;   -0,266;    0,318
726,879;    1,433;   -1,630;    1,227
727,450;    0,433;    0,552;   -0,045
728,021;   -0,113;    3,097;    0,682
728,592;    2,160;    0,734;    0,500
729,163;    2,251;    0,643;   -0,136
729,734;    0,706;    0,188;   -0,227
730,305;    1,342;    1,734;    0,136
730,876;    4,978;    0,188;    2,955
731,447;    3,251;    2,188;    2,682
732,017;    0,797;    1,097;    1,864
732,588;    0,160;    0,734;    1,227
733,159;   -1,112;    0,643;   -1,045
733,729;    0,615;    0,006;    0,409
734,300;    2,251;    0,915;    0,864
734,870;    1,251;    3,461;    0,591
735,441;    0,524;    0,370;   -0,591
736,011;   -0,112;    0,643;   -1,591
736,582;   -0,385;   -0,812;    0,045
737,152;    1,070;   -1,721;   -2,045
737,722;    0,524;   -0,267;   -0,682
738,293;   -0,294;   -1,358;    1,318
738,863;   -2,476;    2,461;    2,318
739,433;    0,615;    5,279;    0,318
740,003;   -1,203;   -0,994;   -0,682
740,573;    2,524;    2,097;   -1,591
741,143;    1,979;   -1,085;    0,318
741,713;    0,797;    1,188;   -0,500
742,283;   -1,112;    0,915;    1,591
742,853;    1,706;    1,915;    1,591
743,423;    1,070;    1,733;    0,045
743,993;    1,343;   -0,358;    1,500
744,563;   -1,294;    0,097;   -0,864
745,133;   -2,112;   -0,812;   -0,864
745,702;    1,343;   -0,267;    1,773
746,272;    3,524;   -0,176;    0,591
746,842;    4,252;   -1,358;   -0,591
747,411;    3,615;   -0,267;   -0,318
747,981;    2,979;    0,097;    0,500
748,551;    2,797;    2,278;   -1,045
749,120;    0,070;    0,642;   -0,227
749,690;   -0,021;   -0,631;    2,409
750,259;    2,070;    1,369;    2,955
750,828;   -0,475;    1,551;   -1,955
751,398;   -0,384;    1,278;   -0,045
751,967;    0,707;    2,187;    0,409
752,536;    1,979;   -0,813;   -0,227
753,105;   -0,566;    0,096;    0,227
753,675;    2,252;    0,096;    1,773
754,244;    0,434;   -0,904;    3,591
754,813;    1,252;    0,551;    1,227
755,382;    2,434;    0,460;    0,955
755,951;    2,252;    1,551;    3,682
756,520;    2,252;   -0,085;    1,864
757,089;    0,707;    0,278;    0,500
757,658;   -2,748;    1,733;    1,227
758,227;   -0,384;    1,096;    0,318
758,795;    1,343;    1,187;    1,136
759,364;    1,343;   -0,086;   -0,591
759,933;    1,980;   -1,176;   -0,045
760,501;    1,980;    0,733;   -1,318
761,070;   -1,930;   -2,813;   -1,409
761,639;   -3,111;   -1,904;    1,318
762,207;    0,707;    1,551;   -0,955
762,776;    0,161;    0,369;    0,864
763,344;    0,707;   -0,995;    0,591
763,913;    0,161;   -0,722;    1,409
764,481;    0,798;    1,005;   -0,136
765,049;    0,252;   -1,358;    1,409
765,618;    2,616;   -0,086;    0,318
766,186;    1,980;    0,278;    0,136
766,754;    1,707;    0,005;    1,864
767,322;    0,343;   -1,995;    0,409
767,890;   -1,293;   -0,722;   -1,773
768,459;    0,707;   -2,177;   -0,318
769,027;    0,707;    1,641;    3,409
769,595;    2,798;    3,278;    2,591
770,163;    5,253;    3,823;    2,955
770,730;    0,434;    0,732;   -0,136
771,298;    0,616;    0,187;   -1,409
771,866;   -1,111;   -1,541;    4,955
772,434;   -1,384;   -0,631;   -1,864
773,002;    0,071;    0,005;    0,682
773,569;   -1,293;    0,914;    1,682
774,137;    2,798;   -0,268;   -0,045
774,705;   -0,020;    0,278;   -0,136
775,272;    0,889;    0,641;    0,682
775,840;    1,798;   -0,177;    2,682
776,407;    1,071;    0,277;    1,955
776,975;    1,253;   -0,632;    0,318
777,542;    0,435;   -1,086;   -0,045
778,110;    2,162;   -1,268;   -0,045
778,677;    0,526;   -2,359;   -0,864
779,244;    2,526;    2,186;    1,045
779,812;    0,253;    1,823;    0,864
780,379;    1,344;    0,005;    1,136
780,946;   -0,929;    1,005;   -0,773
781,513;    1,071;   -1,450;    0,318
782,080;    0,980;   -0,086;    2,864
782,647;   -1,747;   -0,268;    3,045
783,214;   -1,838;   -0,177;    3,864
783,781;    0,708;   -0,723;   -0,682
784,348;    1,980;   -0,632;    1,500
784,915;    1,071;   -3,177;    0,318
785,482;    4,526;    1,368;    2,591
786,049;    1,799;    0,186;   -0,591
786,615;   -0,201;    0,277;   -0,955
787,182;   -0,201;    0,186;   -0,682
787,749;    1,708;   -2,814;    1,409
788,315;    1,435;   -1,632;   -0,409
788,882;    0,162;    1,550;   -1,227
789,448;    0,617;    1,732;   -0,955
790,015;    1,708;    1,095;    3,227
790,581;    2,617;    1,459;    0,227
791,148;    0,617;    0,641;    1,045
791,714;    1,344;   -0,541;    3,136
792,280;    0,435;    0,186;    1,591
792,847;    2,253;    0,550;    2,500
793,413;    2,981;   -0,269;   -0,318
793,979;    2,526;    3,459;   -1,318
794,545;    2,163;    4,459;    2,682
795,111;    0,981;    2,186;    1,318
795,678;    0,981;    0,731;   -1,682
796,244;    1,526;    3,368;    0,136
796,810;   -1,201;    1,731;    0,773
797,375;    0,526;    0,549;   -2,136
797,941;   -0,019;   -0,541;    0,591
798,507;    2,799;   -0,451;   -0,955
799,073;    0,526;   -0,360;    0,591
799,639;   -1,746;   -2,632;    3,136
800,205;    0,163;    0,095;    2,682
800,770;    1,163;    0,640;    1,773
801,336;   -0,746;    1,368;   -0,955
801,901;    2,163;    4,549;    3,136
802,467;    2,617;   -0,542;    2,045
803,033;    0,436;   -0,087;    0,864
803,598;    1,526;    1,913;   -1,045
804,163;   -1,292;    1,095;   -0,318
804,729;    1,890;   -0,178;    1,136
805,294;    3,345;    0,822;    2,227
805,859;    2,345;    0,731;   -0,409
806,425;    2,981;    1,186;    2,682
806,990;   -0,473;    2,186;    4,318
807,555;   -0,928;   -1,451;    2,591
808,120;   -0,292;    0,822;   -0,409
808,685;    1,708;    0,185;   -2,500
809,250;    0,981;    0,004;   -0,500
809,815;    1,527;    1,913;    0,682
810,380;    1,799;   -0,269;    1,591
810,945;    2,981;   -1,087;    2,045
811,510;    0,436;    2,094;    1,591
812,075;    1,254;   -0,633;   -1,409
812,640;    0,981;    2,003;    1,409
813,204;    1,436;    0,822;   -0,227
813,769;   -0,200;    2,094;   -0,045
814,334;    0,800;    0,458;    0,864
814,898;    1,981;    0,367;    0,591
815,463;    0,527;    1,276;   -0,773
816,027;    0,254;   -0,724;   -2,318
816,592;   -1,109;    0,640;   -2,045
817,156;    1,072;    2,094;    1,136
817,721;    2,618;    4,276;    2,318
818,285;    1,345;    2,912;    1,500
818,849;    2,709;   -1,451;    1,682
819,414;    0,073;   -0,269;    2,955
819,978;    1,345;   -1,269;    1,773
820,542;    1,436;    2,003;    0,500
821,106;    1,345;   -0,815;    0,682
821,670;   -0,200;   -0,815;    2,591
822,234;   -0,200;   -0,270;    1,409
822,798;    0,164;    0,003;    0,500
823,362;   -0,109;   -0,633;    4,227
823,926;    1,164;    0,094;    1,136
824,490;    0,709;   -0,997;   -0,682
825,054;    0,255;   -0,088;   -1,136
825,618;    2,073;   -1,542;   -1,500
826,181;    1,073;    0,458;   -1,318
826,745;   -0,291;    1,367;   -1,045
827,309;    4,255;    1,185;    1,318
827,872;    3,891;    1,367;    0,955
828,436;    0,709;    1,185;   -0,773
828,999;   -0,745;   -0,997;    1,227
829,563;   -1,291;   -0,179;    1,136
830,126;    0,073;   -0,179;   -0,591
830,690;    2,164;   -1,997;    2,864
831,253;    2,891;   -0,543;    2,227
831,816;    1,255;   -1,906;    0,500
832,380;    1,437;    0,185;    0,864
832,943;    0,982;   -1,361;   -0,500
833,506;   -1,382;    2,639;   -1,227
834,069;    1,255;    3,912;   -0,955
834,632;   -0,927;    1,730;    1,318
835,195;   -2,291;    1,003;    0,955
835,758;   -0,018;   -0,997;    1,955
836,321;    0,437;    0,730;   -1,045
836,884;    0,800;   -0,725;   -0,955
837,447;   -1,200;   -2,816;    1,773
838,010;   -0,563;    0,366;    3,227
838,573;    0,891;   -1,179;    0,773
839,135;   -0,654;   -1,361;   -0,955
839,698;   -1,745;    1,275;    0,409
840,261;   -0,927;    1,003;   -0,227
840,823;    0,164;   -0,543;    0,864
841,386;    0,801;   -0,452;   -2,409
841,948;    2,164;   -1,361;    1,773
842,511;   -0,927;    0,912;    1,682
843,073;    0,982;    1,912;    0,227
843,636;    0,892;   -0,361;   -0,227
844,198;    0,710;    0,911;    0,591
844,760;    0,892;    1,093;    1,955
845,322;    0,528;    0,548;    1,136
845,885;    0,255;    0,730;    0,591
846,447;    0,255;   -1,998;    0,227
847,009;    1,528;    1,911;   -0,682
847,571;    0,619;    0,820;   -2,045
848,133;   -1,108;   -1,089;   -1,864
848,695;    1,983;   -0,543;    1,409
849,257;    0,619;   -1,089;   -1,682
849,819;   -0,290;   -0,998;   -0,409
850,381;    1,437;   -0,725;   -0,864
850,942;    0,437;    1,093;   -0,591
851,504;   -0,290;    1,184;    0,227
852,066;    0,346;    1,275;   -1,591
852,628;   -0,381;   -0,180;    1,955
853,189;   -1,108;    1,638;    2,682
853,751;    0,710;   -0,907;    1,409
854,312;   -0,835;   -0,453;   -1,682
854,874;   -1,472;   -2,089;   -0,773
855,435;    0,619;   -0,907;   -1,682
855,997;   -1,381;   -1,816;   -0,136
856,558;    1,710;    0,366;    1,773
857,119;    2,983;    0,820;    2,864
857,681;   -0,562;    0,002;    0,318
858,242;    0,801;    1,911;   -2,136
858,803;    0,983;    0,456;   -0,773
859,364;   -0,653;    0,184;   -4,773
859,925;    0,256;   -2,453;   -0,955
860,486;   -0,381;   -0,453;   -0,955
861,047;    1,256;   -0,544;   -1,227
861,608;    0,529;   -1,089;   -0,773
862,169;    0,801;    0,638;   -0,045
862,730;    0,529;    0,456;    1,409
863,291;    2,347;   -0,635;   -0,500
863,852;   -0,471;   -0,635;    1,955
864,412;    4,710;   -0,271;   -0,864
864,973;    3,620;   -0,089;    0,500
865,534;    2,347;   -1,726;    0,227
866,094;   -0,108;    1,820;    0,227
866,655;    0,983;    1,274;    3,318
867,215;    0,620;    0,274;    0,136
867,776;    0,347;    0,547;   -0,136
868,336;    0,347;   -1,453;    0,136
868,897;    2,711;    2,638;    1,682
869,457;    1,711;    1,365;    0,318
870,017;    1,983;    0,547;   -1,227
870,578;    2,165;   -0,817;    0,773
871,138;    0,438;   -2,089;   -0,955
871,698;    0,438;   -0,817;   -1,318
872,258;    1,256;   -0,453;   -2,864
872,818;   -2,562;    2,729;    0,045
873,378;   -1,380;    0,638;    1,045
873,938;   -1,016;    0,547;    0,500
874,498;    0,165;    0,274;   -1,955
875,058;    1,620;    2,183;    1,773
875,618;    0,893;    1,910;   -2,682
876,177;   -1,562;    1,274;    0,136
876,737;   -2,107;   -0,090;    1,955
877,297;    1,711;    0,183;    1,955
877,856;   -1,016;   -0,362;    0,318
878,416;   -0,562;    1,183;   -0,136
878,976;    1,347;   -1,817;    0,409
879,535;   -0,016;    0,092;    3,136
880,095;   -1,289;   -0,544;    0,045
880,654;    1,711;   -1,090;    1,318
881,213;    3,893;    2,456;    1,500
881,773;   -0,198;    2,637;    2,682
882,332;    2,620;    3,365;    5,136
882,891;    1,075;    3,092;    2,136
883,451;    0,802;   -1,272;    1,682
884,010;    1,166;   -2,908;   -0,409
884,569;    1,166;   -0,999;   -0,045
885,128;    1,438;    2,819;   -1,864
885,687;    3,802;    4,455;    0,682
886,246;    0,257;    1,455;    2,136
886,805;    1,166;    2,455;    2,045
887,364;    0,439;   -0,999;   -0,500
887,922;   -0,198;   -1,181;    0,045
888,481;   -0,925;   -1,545;    0,591
889,040;    1,439;    1,183;    2,136
889,599;   -2,198;    2,455;    1,409
890,157;   -0,289;    1,455;    2,409
890,716;   -0,107;   -0,090;    0,227
891,274;    0,257;    0,092;   -1,136
891,833;    4,348;    1,546;    0,864
892,391;   -0,561;   -0,454;    0,500
892,950;   -0,016;    1,819;   -0,773
893,508;   -1,925;    0,455;   -0,409
894,067;   -1,561;    0,637;    0,136
894,625;   -0,652;   -0,636;   -1,500
895,183;    3,530;   -0,363;   -0,682
895,741;    1,530;    1,728;   -1,773
896,299;    1,712;   -0,545;   -2,409
896,858;    2,893;    0,819;   -1,591
897,416;    1,621;    2,728;   -1,318
897,974;    1,530;    1,819;    0,318
898,532;    4,257;    6,091;    2,682
899,089;    1,621;    2,091;   -0,682
899,647;    2,166;   -1,454;    1,318
900,205;    0,712;    1,182;    1,045
900,763;    0,894;   -0,454;    0,227
901,321;    0,166;    2,364;   -1,409
901,878;    0,348;   -1,000;   -0,773
902,436;   -1,197;   -1,363;    1,318
902,994;    6,985;    4,728;    3,682
903,551;    0,985;    0,728;    0,409
904,109;   -1,834;    0,182;   -1,409
904,666;    3,076;    2,455;    1,045
905,224;    0,894;    0,182;   -0,409
905,781;   -0,470;    0,727;   -0,318
906,338;    0,167;   -1,363;    1,045
906,895;   -0,379;    0,637;    2,045
907,453;    2,257;    1,727;    1,136
908,010;   -0,015;   -0,909;    0,409
908,567;    0,712;    1,273;    0,591
909,124;    1,712;    0,364;   -1,500
909,681;   -1,288;   -2,909;    0,682
910,238;   -1,833;    0,636;   -1,318
910,795;    0,621;   -0,273;   -1,136
911,352;    3,439;   -2,909;   -2,682
911,909;    0,167;   -1,364;   -0,864
912,466;    1,076;   -3,182;    1,500
913,022;    2,803;   -1,636;    0,500
913,579;    1,439;   -0,909;    2,045
914,136;    1,985;    1,636;    0,955
914,692;   -0,924;    0,091;   -1,227
915,249;    0,803;    1,455;    0,409
915,806;    2,258;    0,182;    1,955
916,362;    0,530;    1,909;    1,864
916,918;   -0,197;    2,000;    1,045
917,475;    2,712;   -1,182;    0,955
918,031;    1,258;    3,364;   -0,045
918,587;   -0,015;   -0,909;   -0,318
919,144;    0,894;   -2,273;    0,227
919,700;    0,985;    1,727;    0,773
920,256;    0,076;    0,727;    0,045
920,812;    1,985;   -0,727;   -1,045
921,368;    1,985;   -1,727;   -1,045
921,924;    1,258;    0,182;   -0,136
922,480;    0,348;   -0,545;    1,227
923,036;    0,167;    1,273;    1,955
923,592;    1,621;    0,455;    0,318
924,148;    1,894;    0,455;   -0,955
924,704;    1,621;   -1,364;   -0,409
925,259;    0,530;   -0,273;    0,591
925,815;    0,167;    1,455;    0,500
926,371;   -2,197;    2,909;    1,409
926,926;    4,530;    2,091;    0,591
927,482;    3,258;   -1,364;    0,773
928,037;    0,985;    0,909;    2,045
928,593;    1,258;    1,636;    1,045
929,148;    0,439;   -1,818;   -1,500
929,704;   -0,015;   -1,455;   -0,500
930,259;    1,439;    0,091;   -0,136
930,814;    0,803;   -0,818;    1,955
931,369;   -1,288;    1,091;   -0,773
931,925;    0,348;   -0,091;    0,136
932,480;   -1,015;   -2,818;   -2,591
933,035;    1,712;    0,545;   -0,318
933,590;    2,712;    0,364;   -1,773
934,145;    1,894;   -1,364;   -0,318
934,700;    0,621;    0,455;   -0,591
935,255;   -0,652;   -0,091;    0,045
935,809;    3,258;    3,182;    0,864
936,364;    1,894;   -0,455;   -0,136
936,919;   -0,288;    0,455;   -1,773
937,474;   -1,106;    1,455;    0,136
938,028;   -0,379;   -1,636;    1,136
938,583;    2,076;    1,818;    4,682
939,138;    1,530;    2,091;    2,136
939,692;   -0,288;    1,636;   -1,136
940,247;    1,258;   -0,727;   -1,045
940,801;   -0,652;   -0,636;    0,227
941,355;   -0,106;   -0,364;    2,591
941,910;   -0,470;   -0,273;   -2,136
942,464;   -0,561;   -0,818;   -0,318
943,018;    1,076;    1,000;   -0,227
943,572;   -0,924;    2,545;   -0,682
944,126;    1,985;    0,091;   -0,409
944,681;    0,712;    3,091;    0,227
945,235;   -0,561;    1,000;   -0,591
945,789;    0,167;    0,364;   -1,864
946,342;    1,803;    0,455;   -0,591
946,896;   -0,833;   -2,273;    0,955
947,450;   -2,470;    1,545;   -0,227
948,004;    0,076;    1,727;   -0,045
948,558;    0,985;    0,273;   -0,864
949,111;   -1,106;   -0,273;   -0,318
949,665;   -0,197;    1,636;   -0,682
950,219;   -0,652;   -0,091;   -1,045
950,772;   -1,106;   -1,909;    1,864
951,326;    0,985;    0,545;   -0,955
951,879;    0,712;    0,727;   -2,318
952,433;    2,348;    0,000;    2,227
952,986;    0,621;    2,909;    0,682
953,539;    0,258;   -0,273;    0,591
954,093;   -0,106;    0,545;   -1,318
954,646;    2,439;    0,909;    1,318
955,199;    0,985;    0,000;   -0,500
955,752;    3,167;   -0,455;    1,773
956,305;    0,439;   -0,091;    2,955
956,858;    1,167;    0,818;   -0,318
957,411;    3,076;   -0,545;    2,136
957,964;    1,894;    1,364;    2,136
958,517;    2,712;   -1,545;    3,136
959,070;    1,258;   -0,455;    1,955
959,623;    1,985;    1,091;    1,500
960,176;    0,803;    1,727;    2,045
960,728;    0,803;   -2,727;    0,773
961,281;   -0,470;    0,545;    0,500
961,834;   -0,561;   -0,909;    0,864
962,386;    0,712;    1,727;    1,045
962,939;    1,167;    0,364;   -0,318
963,491;    0,167;    0,455;    1,136
964,043;   -2,470;    1,182;    2,409
964,596;   -1,288;   -1,000;    2,227
965,148;    0,076;   -1,000;    1,773
965,700;    1,894;    1,091;   -0,227
966,253;   -0,924;   -0,636;    0,318
966,805;   -0,288;   -2,273;    0,773
967,357;   -2,015;    1,091;   -1,500
967,909;    0,439;    0,455;   -1,227
968,461;   -1,652;    0,545;    3,136
969,013;   -0,833;   -0,182;   -0,864
969,565;   -0,924;   -0,455;   -1,136
970,117;    1,439;   -0,364;    1,045
970,669;   -1,106;    0,182;   -0,136
971,220;    0,348;   -0,455;   -1,500
971,772;    2,894;   -0,636;   -0,318
972,324;    1,803;    0,091;   -0,500
972,876;    1,258;    0,818;   -0,045
973,427;   -1,288;    1,909;   -1,045
973,979;    0,530;   -0,727;   -2,500
974,530;   -0,470;    1,818;    1,318
975,082;    2,530;   -0,545;    1,682
975,633;    1,712;    1,091;    1,682
976,184;    0,076;    0,909;    0,773
976,736;    0,258;    0,091;    0,227
977,287;    2,348;   -0,909;   -0,500
977,838;    2,258;    0,909;   -0,318
978,389;    0,985;   -1,000;   -0,500
978,940;    0,803;    0,545;   -0,409
979,491;   -0,197;    0,091;   -0,500
980,042;    0,712;    0,182;    3,045
980,593;    3,439;   -2,545;    0,227
981,144;    0,348;    2,545;   -0,500
981,695;    1,712;    1,455;    1,500
982,246;    0,439;   -0,273;    1,045
982,797;   -0,106;   -1,727;    0,682
983,347;    0,348;    0,364;    0,591
983,898;    3,894;    3,091;    0,409
984,449;    2,258;    2,182;    0,773
984,999;    1,439;    1,455;   -1,136
985,550;    2,258;    0,182;   -0,318
986,100;   -2,652;   -0,455;   -0,318
986,651;    0,439;   -0,818;    0,045
987,201;    0,439;   -1,000;   -0,591
987,751;    2,439;    0,818;    2,864
988,302;    0,348;    2,636;    1,500
988,852;   -0,106;    0,455;   -1,136
989,402;    2,894;    0,091;    0,682
989,952;    3,621;   -2,182;    0,864
990,502;    0,712;   -0,091;    0,682
991,052;    2,258;   -0,727;    0,045
991,602;    0,803;   -2,909;    1,318
992,152;    0,167;    0,455;    0,682
992,702;    2,076;    1,364;   -0,045
993,252;   -0,561;   -3,000;   -0,500
993,802;    0,258;   -0,273;    1,318
994,352;   -0,015;   -1,545;    1,136
994,901;    0,712;   -0,182;    3,227
995,451;   -0,197;   -0,182;    0,318
996,000;    1,076;    1,636;    0,318
996,550;   -0,015;    2,273;    0,227
997,100;    1,258;    1,273;   -0,045
997,649;    1,076;    2,182;    0,955
998,198;    1,348;    1,727;   -1,500
998,748;   -1,288;    1,091;   -2,318
999,297;   -2,379;   -0,818;   -0,409
999,846;    0,803;    1,000;   -0,773
1000,395;    1,076;   -0,818;    0,500
1000,945;    0,076;    1,818;   -0,773
1001,494;    1,258;    2,364;    0,682
1002,043;    0,894;    4,636;    0,864
1002,592;   -0,742;   -1,091;    1,955
1003,141;    0,439;   -0,455;   -0,682
1003,690;    0,348;    1,727;    0,500
1004,238;    0,439;    1,455;   -0,045
1004,787;    2,076;    1,364;    1,227
1005,336;    3,530;    0,364;    0,682
1005,885;    2,439;    1,364;   -2,773
1006,433;    0,167;    0,545;    0,955
1006,982;   -1,742;    0,455;    1,682
1007,531;   -2,106;   -1,818;   -0,227
1008,079;   -0,470;   -2,273;    0,500
1008,627;   -0,924;   -1,455;    0,409
1009,176;    2,530;    0,000;   -1,955
1009,724;   -2,015;    1,091;    0,864
1010,273;   -0,015;    1,273;    0,500
1010,821;   -2,470;    0,091;    1,409
1011,369;   -0,470;   -1,364;    1,318
1011,917;    0,894;   -1,364;   -0,591
1012,465;    0,530;    1,273;   -1,591
1013,013;    2,076;    2,091;   -1,682
1013,561;    2,348;    0,455;   -0,773
1014,109;    0,894;   -1,909;    1,682
1014,657;    1,803;    0,364;    0,591
1015,205;    0,076;    1,636;   -0,955
1015,753;    0,530;   -0,545;   -1,409
1016,301;    1,803;   -2,636;    3,045
1016,848;    0,258;   -1,273;    0,409
1017,396;    2,348;    2,545;    0,045
1017,944;    0,803;    1,182;    1,864
1018,491;    0,621;    0,273;    1,409
1019,039;    1,167;    0,455;    0,591
1019,586;    3,439;   -1,364;    1,682
1020,134;    1,894;    0,455;    1,500
1020,681;    2,894;    0,182;   -1,136
1021,228;    0,348;    2,909;   -2,227
1021,776;   -0,742;    1,182;   -1,136
1022,323;    0,803;    0,455;    0,773
1022,870;   -0,015;   -1,000;   -0,045
1023,417;    0,439;    2,636;    1,864
1023,964;   -1,015;    2,636;    1,227
1024,511;   -0,742;    1,000;    0,773
1025,058;    0,712;    3,182;   -0,045
1025,605;    0,985;   -2,273;    3,136
1026,152;    1,076;    1,727;   -0,591
1026,699;    1,621;    1,818;    1,318
1027,245;   -0,106;   -0,091;    0,318
1027,792;    1,258;   -1,000;    1,409
1028,339;    0,439;    2,364;   -0,045
1028,885;    2,076;    1,000;   -0,227
1029,432;    3,348;   -0,091;    0,227
1029,978;    4,076;   -1,000;   -1,591
1030,525;    3,258;    1,000;    0,409
1031,071;    1,894;   -1,364;    1,136
1031,618;    2,348;    0,364;    1,682
1032,164;    2,348;   -0,091;    3,045
1032,710;    3,894;    1,636;   -1,500
1033,256;    1,712;   -0,636;   -0,136
1033,803;    2,621;   -0,545;    1,500
1034,349;    0,530;   -1,364;    0,136
1034,895;    0,621;    0,000;   -0,318
1035,441;    2,348;   -0,818;    0,318
1035,987;   -1,288;   -2,364;   -0,682
1036,533;   -0,379;   -1,455;   -0,955
1037,078;    5,258;    1,455;    1,682
1037,624;    1,348;    2,455;   -0,955
1038,170;    0,348;    0,455;   -0,318
1038,716;    1,258;    1,636;   -0,409
1039,261;   -0,288;   -2,273;   -0,773
1039,807;    0,076;   -0,091;    3,409
1040,352;    2,712;   -1,909;   -0,318
1040,898;   -0,379;   -1,545;   -0,682
1041,443;   -2,197;   -1,455;   -2,591
1041,989;    2,985;    1,091;    1,591
1042,534;   -1,833;   -0,364;    2,591
1043,079;    0,530;    2,909;    0,955
1043,625;    3,712;    1,818;    0,500
1044,170;    0,258;   -1,364;    1,045
1044,715;    1,530;    2,455;    0,955
1045,260;    0,985;    2,182;   -0,955
1045,805;   -1,015;    1,182;   -0,591
1046,350;   -0,833;    1,364;   -0,409
1046,895;    2,167;    2,909;    1,591
1047,440;    1,348;    5,364;    0,409
1047,985;   -1,470;    2,818;   -0,955
1048,530;   -0,379;    1,545;    1,227
1049,074;   -0,015;    0,000;    0,318
1049,619;    1,530;   -1,364;    1,955
1050,164;    2,076;    0,455;    0,227
1050,708;    2,167;   -0,455;    0,045
1051,253;    2,530;    1,273;   -2,227
1051,797;    2,076;    0,818;   -1,318
1052,342;    2,712;   -1,182;    1,045
1052,886;    2,076;    0,364;   -1,409
1053,430;    4,439;   -1,364;    0,136
1053,975;    1,167;   -0,818;   -0,318
1054,519;    3,076;   -0,727;    3,227
1055,063;   -0,288;    0,909;    1,318
1055,607;   -1,470;   -0,182;    0,227
1056,151;    0,348;    2,909;    1,682
1056,695;    1,167;    2,273;   -1,136
1057,239;    1,258;   -1,727;   -0,682
1057,783;    1,530;    0,818;   -1,500
1058,327;    1,803;    0,000;    1,409
1058,871;    0,894;   -0,545;    1,318
1059,415;    1,258;   -0,818;   -0,045
1059,958;   -0,288;    1,455;    2,591
1060,502;   -1,561;   -1,000;   -0,773
1061,046;   -0,015;    0,364;   -0,955
1061,589;   -0,106;   -3,000;   -1,136
1062,133;    0,167;   -1,273;    1,864
1062,676;    0,985;    1,182;    0,864
1063,220;    0,258;    1,091;    0,500
1063,763;    1,348;    0,909;    1,136
1064,306;    0,348;   -0,909;    1,864
1064,849;    0,439;   -0,909;    0,591
1065,393;   -0,197;    2,000;   -1,500
1065,936;   -0,379;    0,182;   -0,409
1066,479;   -0,742;   -1,455;    1,318
1067,022;    1,167;   -0,273;   -0,227
1067,565;    2,076;   -0,091;   -1,318
1068,108;    0,803;    0,727;   -0,591
1068,651;    1,803;   -0,636;    1,409
1069,194;    0,530;   -0,455;   -1,682
1069,736;    1,530;   -1,273;    0,955
1070,279;    1,439;   -1,364;   -0,500
1070,822;    0,985;   -2,000;   -0,318
1071,364;    0,621;   -0,364;    1,318
1071,907;    2,985;   -0,727;    3,227
1072,450;    1,439;    0,000;   -0,045
1072,992;   -0,106;   -0,273;    3,136
1073,535;    1,712;    2,091;    2,136
1074,077;    1,803;   -0,727;    2,045
1074,619;    0,985;   -1,364;    0,591
1075,161;   -1,379;   -1,091;    1,500
1075,704;    1,803;    1,545;    1,227
1076,246;    1,348;   -0,182;    0,682
1076,788;    3,985;   -0,364;    1,773
1077,330;    2,621;    1,273;    2,136
1077,872;   -1,106;    0,909;    0,955
1078,414;    2,530;    2,727;    0,773
1078,956;    1,348;    1,273;   -0,227
1079,498;    0,894;    1,636;    0,318
1080,040;    0,439;    1,909;   -1,318
1080,581;   -0,470;    1,636;   -0,318
1081,123;    0,076;    0,091;   -0,773
1081,665;    0,348;   -1,182;   -0,955
1082,206;    0,621;    1,364;   -0,500
1082,748;    0,167;    0,727;    2,045
1083,289;    0,167;   -2,000;    1,318
1083,831;    0,076;   -0,545;    0,227
1084,372;    1,530;    0,000;    0,591
1084,913;    2,985;    1,091;    0,864
1085,455;    0,894;   -1,909;   -2,045
1085,996;   -0,197;   -2,273;    0,136
1086,537;    0,167;   -0,091;    0,864
1087,078;    0,803;   -0,909;   -2,136
1087,619;    0,712;   -1,273;    0,227
1088,160;    1,894;    0,000;    1,318
1088,701;    1,803;   -1,091;    0,682
1089,242;    2,439;    1,364;   -2,227
1089,783;    0,258;   -0,273;    1,409
1090,324;   -3,015;    0,455;    0,682
1090,865;    0,439;    2,727;   -0,409
1091,405;   -1,197;    0,727;    2,227
1091,946;   -0,652;    0,182;   -0,955
1092,487;   -0,652;    0,818;   -1,409
1093,027;    2,985;   -1,364;   -1,500
1093,568;    2,894;   -0,364;    1,227
1094,108;    0,530;    0,273;    1,773
1094,649;    0,712;   -1,182;    0,136
1095,189;    0,712;   -0,636;   -0,682
1095,729;    0,258;   -0,091;    0,955
1096,269;    1,712;    0,727;   -0,955
1096,810;    1,894;   -1,364;    0,500
1097,350;    2,076;    1,364;   -0,773
1097,890;    2,439;    0,364;    1,227
1098,430;    0,894;    2,364;    2,864
1098,970;   -0,106;    2,182;    1,682
1099,510;    0,167;    0,545;   -2,318
1100,050;    0,803;    1,000;   -1,591
1100,589;   -1,470;   -0,727;   -0,318
1101,129;    3,167;    0,818;   -0,955
1101,669;    0,621;    1,727;    2,136
1102,209;    1,803;   -0,091;    2,227
1102,748;    1,530;    0,000;    0,955
1103,288;    0,985;    1,273;   -1,227
1103,827;    3,348;    3,091;   -2,227
1104,367;   -1,288;   -0,091;   -2,409
1104,906;   -0,288;    1,364;   -1,136
1105,445;    0,076;    0,636;   -1,136
1105,985;   -0,379;   -0,727;    1,500
1106,524;   -0,015;   -1,727;   -0,682
1107,063;   -0,742;   -2,727;    1,409
1107,602;   -1,833;   -1,909;   -1,500
1108,141;    0,439;   -1,909;    1,500
1108,680;   -0,288;   -3,455;   -0,591
1109,219;   -1,015;   -0,909;   -0,500
1109,758;   -0,561;    0,455;    0,682
1110,297;    0,439;    1,000;   -0,682
1110,836;    0,348;   -0,727;    0,955
1111,375;   -0,379;   -2,545;    0,409
1111,913;    1,439;   -1,000;    0,773
1112,452;    1,803;   -0,273;    0,136
1112,991;    0,439;    1,091;    1,955
1113,529;   -1,288;   -0,818;   -0,045
1114,068;    0,803;   -0,273;    2,955
1114,606;   -1,106;   -0,364;   -0,955
1115,144;    0,985;   -1,273;    1,045
1115,683;    0,258;   -0,727;    0,318
1116,221;   -0,015;   -0,455;   -0,864
1116,759;    0,894;    0,636;   -0,864
1117,297;    1,258;    0,000;    1,864
1117,836;    3,258;   -2,182;   -1,227
1118,374;   -0,833;    0,182;   -0,682
1118,912;   -0,379;    0,909;    2,682
1119,450;    1,348;    1,000;    0,864
1119,988;   -0,379;    1,545;    2,136
1120,525;    1,803;    5,091;    3,318
1121,063;    0,894;    1,182;    1,864
1121,601;    0,348;   -0,909;   -1,227
1122,139;   -3,470;   -0,727;   -2,045
1122,676;    2,621;   -0,727;    2,773
1123,214;    1,167;   -1,182;    4,409
1123,751;   -2,379;    1,727;    2,227
1124,289;   -0,833;   -0,091;   -0,409
1124,826;   -0,106;    1,727;    0,227
1125,364;    0,076;    1,727;   -0,955
1125,901;    2,076;    1,182;    1,227
1126,438;    1,167;    0,818;    0,955
1126,975;   -0,470;   -0,727;   -0,773
1127,513;   -2,015;    0,273;    2,136
1128,050;   -0,742;    1,636;   -0,682
1128,587;    0,439;    2,000;   -0,227
1129,124;    0,076;    0,091;    1,318
1129,661;   -0,379;    0,273;    0,227
1130,198;    1,712;    1,636;    0,773
1130,734;    2,439;    0,182;    1,409
1131,271;    2,348;   -0,909;    0,864
1131,808;    2,167;    2,909;    3,045
1132,345;    0,167;    1,545;    0,318
1132,881;   -0,379;   -1,545;   -1,864
1133,418;    1,621;    0,727;   -1,136
1133,954;   -0,924;    2,455;   -2,682
1134,491;   -0,288;    1,364;   -0,773
1135,027;    0,803;    2,364;    0,864
1135,564;   -1,197;    0,273;    2,955
1136,100;   -0,652;    0,364;    2,136
1136,636;   -2,288;   -1,273;   -1,045
1137,172;   -0,106;    0,000;   -1,045
1137,708;    1,621;   -1,364;   -1,045
1138,245;   -0,379;    1,273;   -1,227
1138,781;   -0,833;    1,091;   -3,318
1139,317;    0,258;    1,273;   -1,409
1139,852;    1,258;    3,091;    0,136
1140,388;   -0,561;   -1,182;   -0,409
1140,924;    1,712;   -1,091;   -2,227
1141,460;   -0,833;   -1,636;    0,136
1141,996;    1,076;   -1,364;    2,682
1142,531;   -0,288;    1,364;    3,318
1143,067;    2,167;    1,182;    1,045
1143,602;    2,167;   -0,091;   -0,318
1144,138;   -0,833;   -2,636;    1,045
1144,673;    0,348;   -1,455;    1,409
1145,209;    0,530;   -1,909;   -0,318
1145,744;   -0,197;   -0,727;    0,864
1146,279;    0,894;    1,818;   -0,136
1146,815;    1,621;    1,545;   -2,682
1147,350;    2,258;   -1,364;    0,045
1147,885;   -1,742;   -0,818;   -1,318
1148,420;    0,621;   -2,273;    0,773
1148,955;   -0,379;   -1,727;    1,864
1149,490;    1,258;   -0,909;   -1,591
1150,025;    0,985;    0,455;   -1,773
1150,560;    0,712;    1,091;   -0,955
1151,094;    1,167;    1,455;   -0,591
1151,629;    2,439;    1,636;    0,864
1152,164;    2,894;    1,364;    1,318
1152,698;    0,803;   -0,182;   -0,136
1153,233;   -0,652;    0,091;   -0,682
1153,767;   -0,106;   -3,000;   -2,318
1154,302;   -0,288;   -1,455;    1,773
1154,836;    0,530;   -0,455;   -2,136
1155,371;    0,258;   -1,364;    3,682
1155,905;    3,076;   -0,636;    1,682
1156,439;    0,439;   -0,636;   -0,500
1156,973;    1,803;    0,364;    0,318
1157,507;   -1,015;   -0,364;    0,682
1158,042;    1,712;   -0,727;    1,045
1158,576;    1,076;    0,182;    1,773
1159,110;    0,348;   -0,818;    2,409
1159,643;    1,348;    0,636;   -0,045
1160,177;    0,439;   -1,545;    1,500

