
Integration time [ms]:   0,040
Averaging Nr. [scans]: 11
Smoothing Nr. [pixels]: 0
Data measured with spectrometer [name]: 7318044SP
Wave   ;Sample   ;Dark     ;Reference
[nm]   ;[counts] ;[counts] ;[counts] 

186,757;   28,479;   31,551;    1,318
187,357;   66,498;   22,551;    0,955
187,958;   42,688;   15,460;   -1,591
188,558;   88,912;    8,915;   -1,227
189,159;   50,893;    6,733;   -4,500
189,759;   22,303;    7,278;   -3,591
190,360;   23,356;    2,824;   -2,136
190,960;   74,604;    2,915;   -4,136
191,560;   85,684;    3,189;   -6,591
192,161;  359,270;    4,372;   -3,500
192,761;  180,859;    4,010;   -3,227
193,361;  109,417;    1,556;   -3,773
193,962;  174,079;    2,010;   -2,682
194,562;   89,297;    1,189;   -3,955
195,162;  137,287;   -2,448;   -2,227
195,762;  318,677;   -3,176;   -0,045
196,362;  265,805;    1,370;   -2,500
196,963;  107,657;    2,006;   -0,864
197,563;  180,559;    1,551;   -0,955
198,163;  127,239;    0,096;   -0,682
198,763;  154,092;    1,733;   -0,500
199,363;  278,362;    3,096;   -0,500
199,963;  238,522;    0,369;    0,409
200,563;  196,785;    2,823;   -1,409
201,163;  170,171;    3,277;   -0,227
201,763;  277,209;    3,732;    0,318
202,363;  207,907;    1,459;    1,500
202,963;  334,873;    1,459;    1,045
203,563;  448,608;    0,277;    0,500
204,162;  280,832;    2,096;   -1,864
204,762;  276,564;    0,550;    0,591
205,362;  243,803;    3,004;    1,955
205,962;  356,706;    3,096;    1,955
206,562;  359,923;    1,823;    2,318
207,161;  315,465;   -0,087;    0,318
207,761;  489,684;    1,277;    2,409
208,361;  359,763;   -0,268;    1,409
208,960;  466,937;    0,459;    1,500
209,560;  552,141;    1,277;    1,591
210,160;  518,083;    0,550;    1,864
210,759;  491,373;    4,186;    1,227
211,359;  497,210;    1,459;    1,045
211,958;  789,205;    1,277;    2,045
212,558;  895,960;    1,732;    1,864
213,157;  708,462;    1,822;    1,500
213,757; 1181,547;    3,822;   -0,227
214,356;  865,137;    1,277;   -0,409
214,956; 1224,976;    3,095;    0,409
215,555;  828,600;    2,095;    2,136
216,154;  755,179;   -2,723;   -0,591
216,754;  764,794;    0,277;    0,773
217,353;  927,627;   -0,268;   -1,045
217,952;  762,336;   -0,178;    0,318
218,552; 1020,892;    1,368;   -0,773
219,151;  912,690;    0,277;    0,955
219,750;  915,142;    0,004;   -0,227
220,349; 1078,275;   -0,451;    1,045
220,948; 1120,424;   -1,360;    1,136
221,548; 1163,191;    0,913;    1,227
222,147; 1302,808;   -0,087;   -0,409
222,746; 1594,301;   -0,451;   -0,955
223,345; 1471,445;    0,731;    0,500
223,944; 1485,118;   -0,451;    0,773
224,543; 1697,798;    1,004;   -1,409
225,142; 1789,988;    0,094;    0,136
225,741; 1679,068;   -0,814;    1,045
226,340; 1718,700;   -0,451;   -0,955
226,939; 2217,423;   -0,996;   -0,136
227,538; 2217,070;   -0,360;   -0,773
228,137; 2360,031;   -0,814;    0,864
228,735; 2562,293;   -0,541;    1,227
229,334; 2292,727;   -0,905;   -0,227
229,933; 2678,634;    0,459;    0,591
230,532; 2791,779;    1,186;   -0,409
231,131; 2841,545;    1,732;    0,318
231,729; 3041,126;   -2,450;   -2,318
232,328; 3185,333;   -0,723;   -1,500
232,927; 3310,357;    1,004;   -0,500
233,525; 3451,566;    3,640;    0,045
234,124; 3666,927;    2,368;   -1,591
234,723; 3684,648;    0,913;   -1,045
235,321; 3847,785;    2,277;    0,136
235,920; 4126,773;    1,186;   -1,227
236,518; 4396,364;    3,459;    0,318
237,117; 4596,623;    0,004;   -0,227
237,715; 4792,249;    0,640;   -0,500
238,314; 4818,538;   -0,087;   -2,318
238,912; 4938,117;   -0,723;   -1,409
239,510; 4975,438;    0,459;   -1,227
240,109; 5171,305;    0,004;    3,773
240,707; 5230,961;   -0,996;    1,227
241,305; 5633,615;    0,550;    0,136
241,904; 5882,070;   -0,178;   -2,045
242,502; 5833,920;   -0,632;   -0,227
243,100; 5751,591;   -0,087;   -0,955
243,698; 6005,490;    0,732;    1,682
244,297; 6218,283;   -0,632;    0,682
244,895; 6030,127;   -0,269;   -2,318
245,493; 6416,836;    2,186;   -0,591
246,091; 6436,669;    1,368;   -1,318
246,689; 6409,749;    1,004;    0,591
247,287; 6604,977;    0,822;   -1,136
247,885; 6928,100;   -1,451;    1,227
248,483; 7015,478;    1,822;   -0,500
249,081; 7150,178;    0,185;    1,591
249,679; 7308,533;   -0,178;    1,682
250,277; 7563,116;   -1,723;    0,864
250,875; 7556,147;   -1,087;   -1,045
251,473; 7608,394;   -1,178;    0,500
252,071; 7805,024;    1,459;    1,045
252,669; 7985,209;   -1,814;    0,318
253,267; 8259,208;   -0,087;    0,773
253,864; 8216,341;   -0,360;    0,682
254,462; 8068,250;    1,640;    1,591
255,060; 8068,196;   -0,269;    1,318
255,658; 8388,118;    0,822;   -0,136
256,255; 8873,694;    0,186;   -2,045
256,853; 8699,918;   -0,269;    1,409
257,451; 8690,542;    0,822;    1,864
258,048; 8992,035;    1,822;    1,864
258,646; 8742,966;    1,731;   -1,045
259,243; 8954,191;   -0,087;    2,227
259,841; 9014,368;   -0,814;    0,318
260,438; 8862,168;   -0,087;    0,864
261,036; 9626,145;   -1,905;    1,409
261,633; 9514,321;   -0,087;    2,227
262,231; 9259,574;    2,731;   -0,045
262,828; 9320,071;   -0,905;    1,136
263,425; 9397,013;    0,913;   -0,591
264,023; 9696,742;    0,186;    0,045
264,620; 9233,672;   -0,360;   -0,318
265,217; 9590,310;   -2,087;    3,136
265,815; 9743,611;   -1,905;    2,136
266,412; 9480,241;    0,731;    0,136
267,009; 9570,895;   -1,451;    0,773
267,606; 9450,057;    0,822;   -0,955
268,203; 9395,586;   -0,269;   -0,591
268,801; 9706,414;    1,731;    0,591
269,398;10048,802;   -0,360;    2,500
269,995;10045,344;    0,277;    1,591
270,592; 9774,942;   -0,632;   -0,500
271,189;10000,836;    0,186;    0,409
271,786;10134,149;   -0,632;    1,227
272,383; 9950,167;   -1,087;    0,227
272,980;10189,428;    0,277;    0,318
273,577;10701,633;    0,004;    1,227
274,174;10246,891;    0,822;    2,591
274,771;10234,027;   -0,814;   -0,773
275,367;10384,531;    2,277;    1,409
275,964;10376,727;    0,731;   -0,500
276,561;10458,605;    1,549;   -1,045
277,158;10696,623;    0,095;   -1,773
277,755;10850,996;    2,185;    0,409
278,351;10190,683;   -0,451;   -1,500
278,948;10548,224;   -0,815;    0,045
279,545;10566,948;   -1,360;    2,318
280,141;11233,682;   -1,723;   -2,045
280,738;11135,551;   -0,451;   -0,136
281,334;11404,711;   -1,633;    0,591
281,931;10761,393;   -0,087;   -1,318
282,528;10830,646;    0,822;   -0,500
283,124;11592,250;   -1,087;   -0,500
283,721;11538,623;   -0,451;    1,409
284,317;11314,926;    0,185;    2,500
284,913;11907,974;   -1,360;    0,591
285,510;12103,429;    0,640;   -0,318
286,106;12142,256;   -2,269;   -0,955
286,703;11803,431;   -0,360;    1,955
287,299;11964,458;   -1,451;   -0,591
287,895;12161,706;    0,822;   -1,045
288,491;12757,257;    0,186;    2,136
289,088;12484,410;   -2,360;    2,409
289,684;12576,209;   -1,723;    1,500
290,280;12614,922;    0,368;    0,682
290,876;12743,537;    1,822;    5,500
291,472;12606,748;    1,276;    2,227
292,068;12701,277;    1,367;    0,227
292,665;12382,549;    2,095;    0,773
293,261;11989,039;    0,276;    2,136
293,857;12410,174;    2,913;    2,136
294,453;12345,896;    3,550;    0,955
295,049;12235,741;   -0,268;    1,955
295,644;12285,460;    0,095;    0,136
296,240;12186,881;   -0,905;   -0,136
296,836;12212,465;   -0,995;    0,318
297,432;12517,216;    1,096;   -0,500
298,028;12580,647;    0,732;    0,773
298,624;13014,861;    1,459;    1,864
299,220;13258,822;    2,368;    0,591
299,815;12923,199;    1,005;   -0,409
300,411;12755,014;    0,914;    1,773
301,007;12759,433;    1,368;    0,227
301,602;12791,998;   -0,541;   -2,318
302,198;12963,872;    0,732;   -0,773
302,794;13299,301;    1,187;   -0,500
303,389;13444,697;   -1,177;    1,045
303,985;13536,331;    0,550;    1,409
304,580;13496,381;    1,459;    1,591
305,176;13470,252;   -3,086;    0,136
305,771;13433,473;   -1,268;   -1,227
306,367;13268,241;    4,095;    0,136
306,962;13590,452;    0,641;    1,500
307,558;13338,112;   -0,450;    0,136
308,153;13260,445;    1,095;   -1,136
308,748;13532,347;   -0,814;    1,682
309,344;13526,821;   -0,632;   -1,318
309,939;13623,668;   -1,905;   -1,318
310,534;13900,835;   -0,086;   -1,682
311,130;13856,153;    0,459;   -2,500
311,725;13560,420;    1,004;   -0,500
312,320;13869,349;    2,459;    0,045
312,915;13682,482;    1,459;   -1,045
313,510;13850,010;    1,550;   -0,500
314,105;14354,476;    1,096;    1,409
314,700;13699,561;   -3,086;   -1,045
315,295;13282,291;   -0,904;    0,045
315,890;12847,886;    1,277;    0,864
316,485;13237,714;   -0,359;   -0,318
317,080;13285,292;   -3,086;    1,591
317,675;13885,087;    2,005;   -0,682
318,270;13267,198;    5,550;    3,318
318,865;13274,188;    3,278;    3,045
319,460;13105,964;   -0,904;    0,591
320,055;13330,512;   -0,541;   -1,227
320,650;12990,880;   -1,995;   -0,591
321,244;13029,566;   -0,177;   -1,409
321,839;14055,412;   -1,541;   -0,227
322,434;13967,167;   -1,086;   -1,591
323,029;13527,831;    1,732;    1,591
323,623;13383,893;    1,550;    0,773
324,218;13164,211;    2,368;    1,409
324,812;13032,857;    1,096;    1,591
325,407;12846,873;   -0,814;    2,045
326,002;12779,315;    0,277;   -0,409
326,596;13084,984;    0,914;    1,318
327,191;13280,535;    0,823;   -1,045
327,785;12866,620;   -0,813;   -0,227
328,379;13068,568;    1,368;    0,136
328,974;12889,784;    0,914;   -3,955
329,568;13082,356;    0,186;   -2,409
330,163;12902,886;    2,096;    1,045
330,757;13279,076;    2,459;    1,591
331,351;12562,174;    0,459;    0,682
331,945;12869,381;    0,914;    1,409
332,540;12420,003;   -1,723;   -0,591
333,134;12657,063;   -1,086;    0,773
333,728;12942,242;    0,005;    0,318
334,322;13276,217;   -1,177;   -0,864
334,916;12532,510;    0,277;    0,955
335,510;12843,823;   -0,450;   -0,136
336,105;13086,171;   -1,086;    1,591
336,699;12806,217;   -1,086;    0,591
337,293;12730,455;   -1,723;    0,318
337,887;12907,565;   -2,723;    1,955
338,481;13008,935;    0,459;    0,591
339,074;13143,045;   -0,359;    2,682
339,668;13017,503;   -1,632;    1,227
340,262;13262,835;    1,732;    3,227
340,856;12731,583;    1,822;   -0,682
341,450;12060,645;    1,004;    1,864
342,044;13000,546;    1,459;    0,136
342,637;12793,942;    0,913;   -2,136
343,231;12692,610;   -2,360;    0,682
343,825;12615,570;   -1,086;   -0,591
344,419;12532,445;   -1,995;    0,500
345,012;12318,111;    2,459;    4,045
345,606;12321,195;    4,641;    1,591
346,199;12131,544;   -1,813;   -0,227
346,793;11651,094;    1,914;    2,045
347,386;11816,631;   -0,813;   -1,136
347,980;11863,818;   -0,268;   -0,045
348,573;11636,431;    2,278;    0,409
349,167;11275,115;    5,278;    4,773
349,760;11591,988;    2,914;    2,682
350,354;11584,066;   -0,813;    1,136
350,947;11339,506;    1,096;    1,682
351,540;10954,427;   -0,358;   -1,409
352,134;10879,022;    1,096;    1,136
352,727;10955,219;   -0,086;    1,136
353,320;10732,745;    0,005;    0,591
353,913;10575,025;   -1,995;    1,864
354,507;10806,715;    0,823;   -1,227
355,100;10799,651;    0,460;    0,864
355,693; 9997,074;    2,005;    2,409
356,286;10039,920;    0,823;    2,773
356,879;10404,100;   -0,722;    1,227
357,472; 9991,257;   -0,904;    1,500
358,065;10200,871;   -0,722;    2,500
358,658;10096,635;   -0,540;    2,318
359,251; 9746,293;   -1,631;   -0,591
359,844; 9163,293;   -1,904;   -1,136
360,437; 9344,093;   -2,995;    0,045
361,030; 9628,713;    1,369;   -0,682
361,623; 9192,914;    2,824;    0,318
362,215; 9265,600;   -0,086;    2,045
362,808; 9076,482;   -2,358;   -1,682
363,401; 9268,068;   -2,449;    0,136
363,994; 8975,392;   -0,631;   -1,500
364,586; 8886,208;    0,824;   -1,500
365,179; 9112,959;   -0,449;   -1,136
365,772; 8570,559;   -1,995;    2,045
366,364; 8922,099;    1,915;   -3,227
366,957; 9107,245;    2,279;   -0,045
367,549; 9119,606;    2,188;   -0,864
368,142; 8757,066;    1,825;   -1,500
368,734; 8964,476;    0,734;   -2,136
369,327; 8908,365;    1,643;   -0,500
369,919; 8833,615;   -1,538;    0,409
370,512; 8611,228;   -1,083;   -0,500
371,104; 8373,277;   -0,901;    1,591
371,696; 8562,769;    1,191;   -0,955
372,289; 8659,609;    0,373;    1,136
372,881; 8835,097;   -2,080;    1,318
373,473; 8739,651;   -2,170;    1,136
374,066; 8540,069;   -0,169;    0,500
374,658; 8355,183;    0,378;    1,136
375,250; 8743,233;    0,653;   -1,409
375,842; 8591,064;    0,473;   -0,045
376,434; 8488,144;   -0,435;   -0,409
377,026; 9103,035;    0,204;   -2,500
377,618; 8988,259;   -0,158;   -0,682
378,210; 8766,247;   -0,338;   -1,955
378,802; 8641,972;    0,754;   -0,591
379,394; 8613,882;    1,846;    0,682
379,986; 9245,712;    1,393;   -0,955
380,578; 9379,107;   -0,153;    0,773
381,170; 8677,357;   -0,972;    0,045
381,762; 8619,732;    0,755;    1,409
382,354; 8843,218;   -0,065;   -1,318
382,945; 8938,770;   -2,976;    0,318
383,537; 9085,138;   -2,705;   -1,955
384,129; 9094,592;   -2,160;   -1,136
384,721; 9349,621;   -0,252;    0,955
385,312; 9249,889;   -0,161;   -0,955
385,904; 9321,899;   -2,706;    1,591
386,496; 8682,173;   -0,979;    1,045
387,087; 8854,249;    1,022;    2,500
387,679; 8901,031;   -1,160;    0,045
388,270; 9042,604;    2,840;    2,045
388,862; 9155,263;    1,295;   -0,318
389,453; 9043,429;   -0,887;    1,045
390,045; 9355,395;   -0,705;   -2,682
390,636; 9252,983;    0,204;   -0,591
391,227; 9104,981;   -0,523;   -0,045
391,819; 9210,890;    0,204;    0,773
392,410; 9298,294;    1,022;    0,045
393,001; 9229,448;   -0,979;   -1,591
393,593; 9551,460;    1,930;   -0,045
394,184; 9403,561;    1,385;   -0,409
394,775; 9360,423;    1,839;    2,136
395,366; 9533,824;    1,385;    0,773
395,957; 9543,895;    0,113;    0,136
396,548; 9893,808;   -0,342;    2,682
397,139;10213,200;   -2,433;    0,591
397,730; 9936,587;   -1,888;    0,955
398,321; 9961,025;   -1,252;    0,955
398,912;10015,507;   -0,615;    0,136
399,503;10082,338;   -3,524;   -1,409
400,094; 9497,179;    0,294;    1,682
400,685; 9336,379;   -0,433;    0,045
401,276; 9431,840;    0,930;   -0,955
401,867; 9767,224;   -0,888;    0,773
402,458; 9855,239;   -2,251;   -2,318
403,048; 9835,571;    1,112;    0,591
403,639; 9436,877;    0,840;    0,864
404,230; 9668,808;    2,476;    0,318
404,821; 9568,156;   -0,615;    0,045
405,411; 9721,564;    1,203;   -2,591
406,002; 9308,081;   -1,252;   -1,136
406,592; 9151,075;    2,294;    0,045
407,183; 9455,279;    0,566;   -1,500
407,774; 9417,561;    3,475;   -0,136
408,364; 9732,522;    0,930;    0,409
408,954; 9301,242;    0,384;    1,227
409,545; 9331,210;    1,021;    1,045
410,135; 8868,145;    1,293;    0,500
410,726; 9050,166;    1,838;    0,318
411,316; 9445,112;    0,111;    0,773
411,906; 9068,199;   -0,253;   -0,409
412,497; 8528,020;   -1,070;   -0,045
413,087; 9222,563;   -1,980;   -0,227
413,677; 9619,836;   -0,707;    3,864
414,267; 9439,851;    0,656;    1,409
414,857; 9447,097;   -2,980;    4,227
415,448; 9770,651;    0,839;    0,500
416,038; 9388,647;    0,020;   -0,591
416,628; 9389,168;   -0,889;    0,409
417,218; 8790,920;    0,565;    3,318
417,808; 9103,075;    0,202;   -0,409
418,398; 9641,847;    0,020;    2,682
418,988; 9659,230;    2,020;    0,591
419,578; 9952,048;   -0,707;    1,409
420,168;10291,220;   -1,343;   -0,955
420,757; 9878,230;   -1,343;   -1,500
421,347; 9533,828;    0,111;   -0,227
421,937; 9713,466;    2,292;    1,409
422,527; 9645,787;    0,838;   -0,773
423,116; 9472,779;   -0,253;   -0,045
423,706; 9824,247;   -1,889;    0,318
424,296; 9810,771;    1,384;    0,682
424,885;10263,771;   -0,071;   -3,045
425,475;10549,386;    1,474;   -2,864
426,065;10455,035;   -0,980;   -0,318
426,654;10015,449;   -0,435;   -0,318
427,244;10181,371;    0,020;    1,409
427,833; 9608,842;    1,383;   -0,500
428,423;10108,661;   -0,526;    1,136
429,012;10954,131;   -0,344;   -1,136
429,601;10414,405;   -1,344;    0,136
430,191;10655,616;    1,292;    4,318
430,780;10314,921;   -0,344;   -0,409
431,369;10208,961;    0,746;   -0,045
431,959;10847,776;   -1,254;    0,500
432,548;10642,387;   -1,163;   -0,045
433,137;10757,878;   -1,254;   -1,318
433,726;11332,419;    0,292;    0,500
434,315;10631,390;   -0,526;    2,409
434,905;10721,669;   -1,254;    1,409
435,494;10537,307;    0,746;    0,955
436,083;11083,438;   -0,981;   -0,955
436,672;11008,112;    0,110;    0,500
437,261;10487,312;    0,292;   -1,955
437,850;10623,172;    1,383;    0,682
438,439;10666,896;    3,291;    1,955
439,027;10492,800;    3,655;    1,773
439,616;10864,229;    2,927;    1,227
440,205;10717,992;    0,200;   -2,136
440,794;10831,373;    2,109;   -0,045
441,383;11116,242;   -1,346;   -0,591
441,971;10957,745;   -2,436;    0,591
442,560;10852,489;    0,563;   -1,773
443,149;10585,712;    0,379;   -1,318
443,737;10736,788;   -0,074;   -2,318
444,326;10984,885;    0,018;    0,318
444,915;11055,229;   -1,982;    0,864
445,503;11499,293;   -2,891;   -0,318
446,092;10695,197;    0,382;    2,136
446,680;11283,629;    0,382;    0,318
447,269;11457,873;   -0,346;   -0,318
447,857;11231,178;    0,018;   -1,773
448,445;11305,195;    0,563;    1,318
449,034;11525,347;   -1,528;   -1,136
449,622;11680,176;   -1,073;    3,500
450,210;10839,361;    2,017;    2,227
450,799;11405,982;    0,290;   -0,591
451,387;11366,373;    1,381;   -0,591
451,975;11024,711;    2,654;    0,864
452,563;11077,030;    3,472;    2,318
453,151;11105,612;   -0,528;   -1,227
453,739;11067,925;   -1,347;    0,136
454,328;10861,480;    2,381;   -2,136
454,916;10546,411;    2,562;   -0,136
455,504;10703,285;    1,017;    1,227
456,092;10916,090;    0,017;   -1,591
456,679;10940,542;    1,472;    0,682
457,267;10868,665;    4,017;    1,045
457,855;11053,031;    1,017;    1,409
458,443;10789,651;   -0,165;    1,682
459,031;10897,946;    0,108;    2,409
459,619;11377,500;   -1,801;    2,864
460,206;11572,448;    0,835;    2,045
460,794;11628,722;   -2,983;   -0,227
461,382;11876,803;   -0,529;   -0,864
461,970;11446,008;    1,198;    1,864
462,557;11477,930;   -0,711;   -0,682
463,145;11727,233;   -3,165;   -1,682
463,732;11884,120;    2,016;   -1,045
464,320;11839,228;   -0,075;   -3,045
464,907;11465,007;    2,743;   -0,773
465,495;11290,758;    0,743;   -1,227
466,082;11458,775;   -1,984;   -0,045
466,670;11405,545;   -2,529;    1,227
467,257;11794,015;   -1,711;    2,045
467,844;11952,145;   -0,075;    0,045
468,432;11993,313;    0,834;    3,500
469,019;11440,305;    0,925;   -1,773
469,606;11955,828;    0,470;    3,682
470,193;11739,359;   -1,439;    0,227
470,780;11297,198;   -2,075;    0,864
471,368;11645,606;   -1,257;   -0,773
471,955;11399,510;    1,379;   -0,682
472,542;11057,003;    0,652;   -1,136
473,129;11271,267;   -0,166;    0,136
473,716;10987,522;    1,470;    0,591
474,303;11189,635;    0,652;   -0,864
474,890;11547,624;   -1,439;   -0,500
475,477;11568,092;   -1,621;    0,409
476,064;11438,583;    1,106;   -1,591
476,650;11390,488;    0,288;    0,318
477,237;11238,852;   -0,258;    0,955
477,824;11407,495;   -1,076;    0,864
478,411;11403,089;   -1,894;   -0,318
478,997;11640,698;    0,560;   -0,773
479,584;11697,711;    1,196;   -0,409
480,171;12457,401;   -0,440;   -0,773
480,757;12120,541;    2,651;    0,773
481,344;12468,570;    0,469;    0,409
481,931;11985,491;    1,105;    1,045
482,517;13149,038;   -1,258;    0,318
483,104;13862,950;    1,106;    2,864
483,690;14167,164;   -1,804;    0,045
484,276;14555,977;   -0,895;    0,227
484,863;14275,475;    2,469;    1,136
485,449;14882,715;   -0,077;    0,318
486,035;14841,973;   -1,986;   -0,136
486,622;15327,749;   -0,895;    0,045
487,208;15240,501;    1,378;    1,500
487,794;15082,647;    0,741;    0,318
488,380;15215,368;    0,105;   -1,409
488,967;15288,239;   -1,168;   -0,409
489,553;15350,284;   -1,895;   -1,409
490,139;15550,544;    1,559;    0,773
490,725;14854,870;    0,741;   -0,227
491,311;14282,783;    3,287;    3,045
491,897;13537,724;   -0,986;    1,500
492,483;13300,934;    0,105;    1,227
493,069;13126,278;    3,923;    0,864
493,655;13124,605;    1,650;    0,682
494,241;12978,609;    1,377;   -0,955
494,826;13438,818;    0,287;   -1,045
495,412;12920,307;    2,559;   -0,682
495,998;13051,851;   -0,805;   -0,318
496,584;13205,837;    0,377;    1,045
497,169;13207,466;    1,014;   -0,682
497,755;13151,725;    0,650;    1,227
498,341;13769,728;    0,559;    0,318
498,926;13334,410;    1,832;    1,955
499,512;13533,832;    1,286;    2,955
500,097;13666,015;    0,195;   -0,318
500,683;13578,614;   -0,350;    2,136
501,268;13951,760;   -0,169;   -0,955
501,854;13655,036;   -0,169;    1,227
502,439;13572,516;   -0,624;   -1,773
503,024;13816,178;    0,195;    0,500
503,610;13911,089;   -0,078;   -0,682
504,195;13896,968;    0,558;    1,955
504,780;14027,439;    2,922;    1,227
505,366;13853,830;    3,013;    2,864
505,951;13540,385;    0,740;    1,045
506,536;13589,810;   -3,260;   -3,682
507,121;13546,625;    0,285;   -0,318
507,706;14088,929;    2,376;    1,045
508,291;14556,941;    2,649;    1,136
508,876;14002,107;   -0,988;    2,591
509,461;13392,701;   -0,169;   -0,773
510,046;13832,329;    0,194;    0,318
510,631;14101,875;   -0,351;   -0,773
511,216;13695,809;    2,467;   -0,500
511,801;14083,353;   -0,442;    2,591
512,386;14427,654;    0,740;    0,500
512,971;14384,680;   -2,988;    0,955
513,555;13885,170;   -0,897;   -1,500
514,140;14748,643;   -0,442;   -3,136
514,725;14742,132;   -0,715;   -1,136
515,309;14899,522;   -0,533;    0,318
515,894;14285,205;   -0,624;   -2,227
516,479;14766,403;   -0,624;   -0,955
517,063;14617,307;    0,376;    1,227
517,648;14736,349;    1,012;   -1,136
518,232;14373,451;   -0,261;   -1,409
518,817;14747,166;   -0,079;    1,682
519,401;14960,977;    2,194;    0,591
519,985;14460,801;    1,103;    1,136
520,570;14318,390;    0,830;   -1,955
521,154;14643,506;    2,102;    0,591
521,738;14849,259;   -2,352;    2,409
522,323;15387,078;   -0,170;    1,682
522,907;15083,920;    0,466;   -0,136
523,491;14822,770;    0,557;    0,955
524,075;14824,576;    2,284;    0,591
524,659;14915,156;    1,466;    0,591
525,243;14340,051;    1,739;    0,409
525,827;14635,735;    0,648;   -0,045
526,411;15524,065;   -1,989;   -0,136
526,995;15696,501;   -0,352;    1,409
527,579;15320,260;   -0,443;   -1,045
528,163;15664,646;    0,375;   -1,500
528,747;15593,229;    2,466;   -0,773
529,331;15879,118;   -0,080;   -1,409
529,915;16106,337;    1,738;    0,955
530,499;16096,304;   -0,807;    1,227
531,082;15786,420;   -0,534;    1,591
531,666;15210,411;    1,374;    0,773
532,250;15900,944;    1,284;    2,682
532,833;16266,415;    0,920;    2,773
533,417;16055,016;   -1,807;    0,864
534,001;16087,343;    1,647;   -0,318
534,584;16832,056;    0,374;    0,500
535,168;16648,034;    0,465;    1,409
535,751;16734,365;    0,647;    0,045
536,334;16175,006;   -0,898;   -0,409
536,918;16746,372;    0,011;    1,591
537,501;16906,612;   -0,899;    1,318
538,085;16915,869;   -0,444;    1,045
538,668;17115,492;    0,829;    2,409
539,251;17394,480;    1,829;    3,773
539,834;17385,710;    0,101;    0,773
540,418;17362,497;   -1,990;    4,318
541,001;17523,196;   -0,990;    1,773
541,584;17490,300;    2,101;    2,227
542,167;17163,119;    1,374;    2,955
542,750;17368,612;    1,919;   -0,773
543,333;16931,476;    0,555;    2,136
543,916;17749,639;    0,192;    2,500
544,499;18432,075;   -1,354;    0,227
545,082;18423,073;    1,374;    3,591
545,665;18539,022;    1,919;    1,500
546,248;18931,294;    1,010;   -0,318
546,830;18568,025;   -0,445;    1,955
547,413;19014,782;    1,010;   -0,773
547,996;19525,159;    0,555;    0,500
548,579;19315,761;    0,919;    0,955
549,161;19106,850;    1,828;    2,682
549,744;18921,725;   -0,809;    0,409
550,326;19402,837;   -0,809;   -1,136
550,909;19214,044;    2,737;    0,591
551,492;19611,410;   -0,263;    0,227
552,074;19388,890;   -0,173;   -1,318
552,657;19980,140;    2,373;    0,045
553,239;19706,011;   -0,173;   -0,773
553,821;19562,616;   -1,082;    1,045
554,404;19068,913;    1,282;    1,136
554,986;19477,314;    0,464;    1,045
555,568;20128,731;    1,191;   -0,955
556,151;19305,627;    1,191;   -0,227
556,733;19518,897;   -0,264;   -0,864
557,315;20065,238;    0,100;    0,500
557,897;19880,525;    0,554;   -0,500
558,479;20003,035;   -1,991;    1,318
559,061;20141,173;   -0,719;   -0,864
559,643;20456,990;   -0,264;    0,045
560,225;20890,456;    1,645;    2,864
560,807;20902,717;    0,918;    0,318
561,389;20292,747;    0,554;    2,318
561,971;21156,698;    0,463;    2,136
562,553;20928,490;   -1,628;    1,591
563,135;21105,765;   -0,537;    1,136
563,717;20691,993;    3,372;    1,136
564,298;21450,588;    3,645;   -0,045
564,880;21197,558;    0,645;   -1,409
565,462;21403,467;    0,645;    1,318
566,043;22626,149;   -0,446;    2,318
566,625;22177,593;    1,918;    1,227
567,207;22020,058;    1,099;    1,682
567,788;23223,020;   -1,264;    1,500
568,370;24121,071;    1,917;   -0,500
568,951;24015,606;    0,190;    0,227
569,533;24980,675;   -0,628;   -0,500
570,114;25472,825;   -0,446;    0,682
570,695;26063,331;   -0,174;   -1,318
571,277;26696,187;   -0,265;   -1,682
571,858;27524,205;    2,008;   -1,136
572,439;28500,214;    1,554;   -1,045
573,021;28691,358;    2,099;   -2,773
573,602;29239,311;   -1,265;    0,318
574,183;30299,870;   -2,083;    2,227
574,764;30523,532;   -1,629;    0,409
575,345;31136,194;    0,917;   -0,136
575,926;31721,928;   -0,356;    0,136
576,507;31699,846;    1,099;   -0,227
577,088;32923,994;    3,099;    1,682
577,669;32951,253;    0,735;    1,955
578,250;33852,143;    0,644;   -1,045
578,831;34601,199;   -1,356;   -2,227
579,412;34864,241;   -0,810;    0,955
579,993;35724,875;    1,008;    0,227
580,573;36065,738;   -0,629;   -0,955
581,154;35052,570;    0,735;   -0,591
581,735;35981,481;    0,644;    0,773
582,315;35526,027;   -0,629;    2,136
582,896;35737,532;   -0,174;    1,227
583,477;35118,333;    0,189;    1,227
584,057;35315,841;    0,553;    0,955
584,638;35650,057;    2,553;    2,318
585,218;35626,002;   -0,538;    2,682
585,799;35817,314;    0,281;   -0,227
586,379;35633,175;    0,372;    1,591
586,959;34271,392;    0,735;    0,318
587,540;33488,429;   -0,629;    2,227
588,120;32955,852;    1,007;   -0,045
588,700;31916,732;    2,553;    2,136
589,281;32311,761;    0,462;   -0,955
589,861;32318,041;    0,099;   -1,682
590,441;32062,601;    2,371;   -2,682
591,021;30906,864;   -0,265;   -2,591
591,601;31128,953;   -0,537;    0,500
592,181;31049,762;   -0,719;   -0,773
592,761;30249,170;    0,007;    1,409
593,341;30214,984;   -0,901;    0,045
593,921;30213,414;   -0,265;    1,591
594,501;30076,699;   -0,538;    1,318
595,081;29932,336;    0,917;   -0,318
595,661;30343,147;   -1,447;    0,955
596,240;30842,441;   -0,537;    0,136
596,820;30548,545;    0,372;    1,955
597,400;30767,239;    2,008;    0,773
597,980;30940,844;    2,008;    1,045
598,559;30919,026;    2,735;   -0,227
599,139;30589,362;   -0,174;   -1,227
599,718;30555,908;   -0,174;   -0,409
600,298;30788,787;    0,735;    0,682
600,877;31056,240;    2,917;    1,409
601,457;31273,071;    2,281;    1,136
602,036;31180,215;    0,190;    2,045
602,616;31457,561;    0,644;    1,682
603,195;31824,879;   -0,355;    3,500
603,774;31352,818;   -0,901;    2,045
604,354;31224,351;    0,826;   -0,500
604,933;30629,648;    0,463;    1,864
605,512;30749,167;    3,554;    0,591
606,091;30771,497;   -0,537;    3,773
606,671;31611,048;    0,281;    0,773
607,250;30743,615;    1,644;    3,136
607,829;30937,642;    2,372;    3,227
608,408;30763,897;    1,190;    2,591
608,987;29727,748;    1,281;    3,409
609,566;30037,884;   -1,265;   -2,500
610,145;30179,030;   -1,082;    0,682
610,723;30561,833;    4,372;    6,864
611,302;29763,925;   -0,446;    1,682
611,881;29297,919;    5,008;   11,227
612,460;30192,372;    1,645;    3,955
613,039;30545,465;   -0,082;    2,045
613,617;29229,901;    1,736;    4,773
614,196;29407,769;    1,099;    1,227
614,775;29771,865;    1,009;    2,409
615,353;29712,532;    0,736;    0,864
615,932;29412,439;    0,100;    2,409
616,510;29979,218;    0,554;    0,591
617,089;29489,892;    7,100;   17,591
617,667;29220,631;    2,372;    6,136
618,246;29063,810;   -1,537;    1,318
618,824;29263,273;   -3,355;   -0,955
619,402;28764,648;   -2,900;   -1,773
619,981;29311,873;   -0,173;   -1,045
620,559;29113,379;    0,009;    1,682
621,137;28493,864;   -0,718;    1,864
621,715;28617,213;   -1,173;   -0,682
622,293;28554,456;   -0,537;   -0,773
622,871;28924,147;   -0,718;    0,500
623,450;28450,720;    0,373;   -0,864
624,028;28341,493;    0,191;   -0,955
624,606;28020,955;   -1,718;    1,682
625,183;28438,409;   -1,536;   -1,136
625,761;28037,307;    1,009;    1,136
626,339;28313,066;    1,373;    2,591
626,917;28724,538;   -0,172;   -0,045
627,495;28698,785;   -0,354;    1,318
628,073;28105,750;   -0,263;    2,864
628,650;27809,154;    0,100;    2,136
629,228;28264,257;    0,373;    4,409
629,806;27632,812;    2,282;    1,136
630,383;27871,415;    1,464;   -0,318
630,961;27601,846;    2,555;   -0,955
631,539;27422,269;    2,464;    0,227
632,116;26774,755;   11,373;   15,409
632,694;27367,891;    2,555;    6,500
633,271;27661,583;    0,828;    2,682
633,848;27559,733;    1,828;    2,045
634,426;27576,897;   -1,081;    1,773
635,003;26639,934;    1,101;   -0,409
635,580;27004,710;    1,192;    3,682
636,158;27602,338;    3,737;    1,227
636,735;27559,253;    0,555;   -0,500
637,312;27689,025;   -0,809;   -0,682
637,889;27792,992;   -4,354;   -0,682
638,466;27246,646;   -3,990;   -0,409
639,043;27240,188;    2,101;   -1,136
639,620;27599,599;   -2,262;   -0,955
640,197;27954,957;    1,100;    1,682
640,774;27958,393;   -0,172;    1,136
641,351;28411,919;    0,737;    1,136
641,928;27820,537;   -0,627;    1,409
642,505;27475,972;    0,828;   -0,500
643,082;27526,498;   -1,718;    1,227
643,658;26569,116;   -0,718;    1,500
644,235;27368,278;    1,191;    2,500
644,812;27695,078;    1,918;    0,773
645,388;27445,604;   -0,991;    1,409
645,965;27520,221;   -0,809;    1,682
646,542;27601,839;   -1,445;   -0,227
647,118;27583,183;    1,009;   -0,955
647,695;27881,801;   -0,263;    1,136
648,271;27774,236;   -0,536;    0,500
648,848;28125,035;    0,736;    2,227
649,424;27970,380;    0,827;    1,318
650,000;27740,906;   -0,354;   -1,045
650,577;27525,978;   -0,627;   -0,955
651,153;28022,868;   -1,809;    0,955
651,729;29116,849;    1,191;    0,864
652,305;29876,103;    0,645;    2,773
652,881;35896,902;   -0,082;    1,136
653,458;43347,337;    1,100;    0,227
654,034;46855,864;    0,282;    1,591
654,610;48206,754;    0,554;    0,773
655,186;49506,371;    0,645;    3,045
655,762;49146,534;   -0,991;    0,409
656,338;49149,697;    0,100;    0,136
656,913;50186,496;   -0,082;    0,409
657,489;49413,931;    0,827;   -0,318
658,065;49416,458;   -0,173;   -1,591
658,641;50031,802;   -0,900;   -0,864
659,217;49307,874;   -0,991;    0,409
659,792;48733,400;    0,645;   -0,409
660,368;48955,472;   -2,173;   -0,682
660,944;48067,544;   -2,082;    1,227
661,519;41906,070;   -0,628;    0,409
662,095;35324,324;   -1,719;    0,591
662,670;30894,032;    1,281;   -0,136
663,246;29867,286;    1,009;   -0,409
663,821;29312,358;    0,281;    1,682
664,396;28821,703;    0,009;    1,864
664,972;29081,047;    0,009;   -0,500
665,547;29444,755;    1,372;    0,136
666,122;29482,827;   -1,082;    0,318
666,698;29780,535;   -0,173;    0,318
667,273;29071,335;   -0,173;    0,136
667,848;29887,043;    2,372;    1,500
668,423;29720,569;    2,190;    2,318
668,998;30401,277;    2,827;   -0,682
669,573;30920,167;   -3,264;   -1,500
670,148;30745,057;   -1,446;   -0,682
670,723;30524,038;   -1,810;    0,318
671,298;30959,383;    2,372;    1,045
671,873;31119,364;   -0,082;   -0,136
672,448;31024,890;    0,645;    0,136
673,023;31359,053;   -1,992;   -0,227
673,597;31738,034;    0,827;    2,318
674,172;31500,197;   -0,355;    0,318
674,747;30969,905;    0,372;   -1,045
675,321;30736,340;   -0,628;    3,318
675,896;30291,958;    0,645;    1,045
676,471;31370,211;    2,645;    1,591
677,045;31127,647;   -1,264;    0,682
677,620;31216,628;    0,190;    1,136
678,194;31459,154;   -2,628;    1,136
678,769;30972,681;   -1,083;   -0,318
679,343;31269,480;   -0,628;    1,773
679,917;31192,461;   -1,446;    1,955
680,492;31310,442;    0,826;    3,227
681,066;31413,514;    3,372;    0,409
681,640;31457,676;    1,463;   -0,318
682,214;32333,566;    0,735;    0,500
682,788;31825,366;   -1,356;   -0,773
683,363;31784,528;   -1,810;    1,682
683,937;31482,327;   -1,719;   -0,318
684,511;32247,854;    0,463;   -0,591
685,085;31953,653;   -1,356;    0,318
685,659;31716,543;   -2,538;    0,864
686,232;32036,433;   -0,356;   -0,318
686,806;31729,414;   -0,901;    0,409
687,380;32365,304;   -0,174;    0,591
687,954;32548,921;   -1,174;    1,136
688,528;32258,993;   -0,719;    1,955
689,101;33070,156;   -3,992;    1,045
689,675;32650,319;   -0,356;   -0,136
690,249;32003,481;   -0,719;    0,409
690,822;32265,735;    0,280;    0,318
691,396;32345,898;   -0,265;    1,227
691,969;31753,970;    1,280;    0,136
692,543;32257,042;   -0,447;   -1,955
693,116;31922,113;   -0,265;   -1,409
693,690;31806,003;    0,099;    0,500
694,263;32405,621;   -1,083;    2,955
694,836;32471,056;    1,371;    3,591
695,410;31036,492;   -0,265;    1,773
695,983;31573,836;    0,189;    0,591
696,556;31460,181;   -0,447;   -1,045
697,129;31840,253;   -0,356;    1,409
697,703;31446,688;   -1,629;    1,955
698,276;31399,760;    1,462;   -0,773
698,849;31266,559;    1,280;    1,409
699,422;31625,995;   -1,083;    0,591
699,995;31296,339;    0,007;    0,136
700,568;31849,957;   -0,629;    3,045
701,140;31822,938;   -2,811;    1,682
701,713;31515,191;   -0,174;    2,409
702,286;31256,900;   -0,538;    0,864
702,859;31168,699;   -0,902;   -0,591
703,432;30279,952;    0,825;    0,682
704,004;30823,115;    0,462;    0,318
704,577;30686,460;   -0,629;    0,136
705,150;31287,168;    0,189;    2,500
705,722;31107,512;   -0,356;   -3,227
706,295;30874,402;   -0,175;   -0,591
706,867;30744,565;   -0,175;    1,955
707,440;30916,183;   -1,720;   -0,409
708,012;31233,982;    0,462;    0,591
708,584;31111,872;    2,462;    0,227
709,157;31357,580;    1,825;   -0,591
709,729;31057,743;    2,280;    2,045
710,301;31854,542;    0,734;    0,045
710,874;31864,250;   -1,447;   -0,227
711,446;30715,504;    0,371;    0,864
712,018;30555,212;    0,098;    0,500
712,590;30341,647;   -1,993;    1,682
713,162;30883,356;    0,825;    1,318
713,734;31132,700;    1,825;   -2,045
714,306;31046,045;   -1,902;   -0,409
714,878;29733,026;    0,825;    0,864
715,450;30543,279;    0,643;    0,864
716,022;30785,169;    1,552;    1,318
716,593;30900,696;    0,189;    0,591
717,165;30818,131;   -3,175;   -1,227
717,737;30538,112;    0,280;    0,409
718,309;30186,184;    0,280;   -0,045
718,880;30186,347;   -0,539;   -1,409
719,452;30377,055;   -0,175;   -1,591
720,024;29925,854;    0,734;   -0,591
720,595;30509,381;   -2,902;    0,955
721,167;30035,362;    0,370;   -2,045
721,738;29551,433;   -0,812;   -1,045
722,309;29575,778;   -0,993;   -1,227
722,881;29370,032;   -1,357;    0,773
723,452;30017,649;   -2,630;    2,864
724,023;30198,357;   -0,721;    2,682
724,595;29887,156;    0,007;    0,682
725,166;29598,046;    0,007;   -0,409
725,737;29328,027;    1,734;    0,227
726,308;29372,099;   -0,266;    0,318
726,879;29851,807;   -1,630;    1,227
727,450;29664,425;    0,552;   -0,045
728,021;29683,042;    3,097;    0,682
728,592;29461,568;    0,734;    0,500
729,163;29806,731;    0,643;   -0,136
729,734;29844,894;    0,188;   -0,227
730,305;30219,057;    1,734;    0,136
730,876;30543,038;    0,188;    2,955
731,447;30245,655;    2,188;    2,682
732,017;30416,091;    1,097;    1,864
732,588;29857,890;    0,734;    1,227
733,159;30079,598;    0,643;   -1,045
733,729;29892,670;    0,006;    0,409
734,300;29132,287;    0,915;    0,864
734,870;29545,541;    3,461;    0,591
735,441;30127,067;    0,370;   -0,591
736,011;29852,957;    0,643;   -1,591
736,582;29783,484;   -0,812;    0,045
737,152;29211,828;   -1,721;   -2,045
737,722;29657,991;   -0,267;   -0,682
738,293;29380,063;   -1,358;    1,318
738,863;29311,226;    2,461;    2,318
739,433;29122,025;    5,279;    0,318
740,003;29755,006;   -0,994;   -0,682
740,573;29114,259;    2,097;   -1,591
741,143;29007,877;   -1,085;    0,318
741,713;29852,858;    1,188;   -0,500
742,283;29561,384;    0,915;    1,591
742,853;29295,456;    1,915;    1,591
743,423;28722,255;    1,733;    0,045
743,993;28866,145;   -0,358;    1,500
744,563;28194,308;    0,097;   -0,864
745,133;28154,834;   -0,812;   -0,864
745,702;28844,179;   -0,267;    1,773
746,272;28085,432;   -0,176;    0,591
746,842;27789,868;   -1,358;   -0,591
747,411;28195,940;   -0,267;   -0,318
747,981;28403,739;    0,097;    0,500
748,551;28421,993;    2,278;   -1,045
749,120;28358,155;    0,642;   -0,227
749,690;28689,591;   -0,631;    2,409
750,259;29047,481;    1,369;    2,955
750,828;29013,916;    1,551;   -1,955
751,398;29250,534;    1,278;   -0,045
751,967;28806,242;    2,187;    0,409
752,536;29019,223;   -0,813;   -0,227
753,105;29430,476;    0,096;    0,227
753,675;29237,457;    0,096;    1,773
754,244;29188,802;   -0,904;    3,591
754,813;29228,692;    0,551;    1,227
755,382;28807,491;    0,460;    0,955
755,951;29392,836;    1,551;    3,682
756,520;28868,544;   -0,085;    1,864
757,089;29433,979;    0,278;    0,500
757,658;29651,960;    1,733;    1,227
758,227;29630,214;    1,096;    0,318
758,795;29992,468;    1,187;    1,136
759,364;30190,994;   -0,086;   -0,591
759,933;29168,975;   -1,176;   -0,045
760,501;28631,229;    0,733;   -1,318
761,070;29098,210;   -2,813;   -1,409
761,639;29897,918;   -1,904;    1,318
762,207;29275,081;    1,551;   -0,955
762,776;29150,789;    0,369;    0,864
763,344;29020,133;   -0,995;    0,591
763,913;28141,478;   -0,722;    1,409
764,481;28884,459;    1,005;   -0,136
765,049;28609,985;   -1,358;    1,409
765,618;28540,057;   -0,086;    0,318
766,186;28574,856;    0,278;    0,136
766,754;28768,110;    0,005;    1,864
767,322;27729,182;   -1,995;    0,409
767,890;27779,708;   -0,722;   -1,773
768,459;28164,689;   -2,177;   -0,318
769,027;28348,488;    1,641;    3,409
769,595;27193,469;    3,278;    2,591
770,163;27683,268;    3,823;    2,955
770,730;27430,159;    0,732;   -0,136
771,298;27258,230;    0,187;   -1,409
771,866;27308,666;   -1,541;    4,955
772,434;27690,556;   -0,631;   -1,864
773,002;27858,628;    0,005;    0,682
773,569;27477,063;    0,914;    1,682
774,137;27303,953;   -0,268;   -0,045
774,705;28110,934;    0,278;   -0,136
775,272;27630,733;    0,641;    0,682
775,840;27313,805;   -0,177;    2,682
776,407;26841,786;    0,277;    1,955
776,975;26455,131;   -0,632;    0,318
777,542;27442,384;   -1,086;   -0,045
778,110;27221,093;   -1,268;   -0,045
778,677;26914,983;   -2,359;   -0,864
779,244;26685,691;    2,186;    1,045
779,812;26779,945;    1,823;    0,864
780,379;26658,744;    0,005;    1,136
780,946;26948,543;    1,005;   -0,773
781,513;27276,706;   -1,450;    0,318
782,080;26624,868;   -0,086;    2,864
782,647;27392,940;   -0,268;    3,045
783,214;26944,739;   -0,177;    3,864
783,781;26605,993;   -0,723;   -0,682
784,348;26468,247;   -0,632;    1,500
784,915;26879,682;   -3,177;    0,318
785,482;26641,299;    1,368;    2,591
786,049;27079,099;    0,186;   -0,591
786,615;27183,716;    0,277;   -0,955
787,182;26942,879;    0,186;   -0,682
787,749;26620,860;   -2,814;    1,409
788,315;25922,022;   -1,632;   -0,409
788,882;26203,549;    1,550;   -1,227
789,448;26877,893;    1,732;   -0,955
790,015;26927,602;    1,095;    3,227
790,581;26478,219;    1,459;    0,227
791,148;26335,473;    0,641;    1,045
791,714;26585,363;   -0,541;    3,136
792,280;26237,707;    0,186;    1,591
792,847;25804,688;    0,550;    2,500
793,413;26356,305;   -0,269;   -0,318
793,979;25882,014;    3,459;   -1,318
794,545;26025,540;    4,459;    2,682
795,111;25403,885;    2,186;    1,318
795,678;25622,866;    0,731;   -1,682
796,244;25220,301;    3,368;    0,136
796,810;25717,464;    1,731;    0,773
797,375;25418,445;    0,549;   -2,136
797,941;25454,698;   -0,541;    0,591
798,507;25623,770;   -0,451;   -0,955
799,073;25132,479;   -0,360;    0,591
799,639;25164,550;   -2,632;    3,136
800,205;25207,077;    0,095;    2,682
800,770;24728,421;    0,640;    1,773
801,336;24822,039;    1,368;   -0,955
801,901;24501,111;    4,549;    3,136
802,467;25062,455;   -0,542;    2,045
803,033;24399,345;   -0,087;    0,864
803,598;24647,508;    1,913;   -1,045
804,163;24648,489;    1,095;   -0,318
804,729;24594,652;   -0,178;    1,136
805,294;25012,451;    0,822;    2,227
805,859;24807,977;    0,731;   -0,409
806,425;24247,140;    1,186;    2,682
806,990;23861,666;    2,186;    4,318
807,555;24373,556;   -1,451;    2,591
808,120;24283,992;    0,822;   -0,409
808,685;24352,609;    0,185;   -2,500
809,250;23783,408;    0,004;   -0,500
809,815;24121,480;    1,913;    0,682
810,380;24702,279;   -0,269;    1,591
810,945;25277,715;   -1,087;    2,045
811,510;24364,968;    2,094;    1,591
812,075;24060,768;   -0,633;   -1,409
812,640;24073,930;    2,003;    1,409
813,204;24114,275;    0,822;   -0,227
813,769;24643,165;    2,094;   -0,045
814,334;24036,600;    0,458;    0,864
814,898;24125,218;    0,367;    0,591
815,463;23939,108;    1,276;   -0,773
816,027;23910,907;   -0,724;   -2,318
816,592;23950,524;    0,640;   -2,045
817,156;23517,323;    2,094;    1,136
817,721;23430,577;    4,276;    2,318
818,285;23289,922;    2,912;    1,500
818,849;23945,266;   -1,451;    1,682
819,414;23858,974;   -0,269;    2,955
819,978;23415,774;   -1,269;    1,773
820,542;24018,391;    2,003;    0,500
821,106;23710,099;   -0,815;    0,682
821,670;23818,535;   -0,815;    2,591
822,234;23551,788;   -0,270;    1,409
822,798;22927,133;    0,003;    0,500
823,362;22854,659;   -0,633;    4,227
823,926;22125,004;    0,094;    1,136
824,490;22401,712;   -0,997;   -0,682
825,054;22875,784;   -0,088;   -1,136
825,618;22458,128;   -1,542;   -1,500
826,181;22428,382;    0,458;   -1,318
826,745;22344,545;    1,367;   -1,045
827,309;22727,980;    1,185;    1,318
827,872;22021,052;    1,367;    0,955
828,436;23020,124;    1,185;   -0,773
828,999;23036,832;   -0,997;    1,227
829,563;21830,268;   -0,179;    1,136
830,126;21632,067;   -0,179;   -0,591
830,690;21674,775;   -1,997;    2,864
831,253;21188,483;   -0,543;    2,227
831,816;21358,010;   -1,906;    0,500
832,380;21236,718;    0,185;    0,864
832,943;21523,972;   -1,361;   -0,500
833,506;20945,953;    2,639;   -1,227
834,069;21718,843;    3,912;   -0,955
834,632;21767,005;    1,730;    1,318
835,195;21644,168;    1,003;    0,955
835,758;20798,331;   -0,997;    1,955
836,321;20719,494;    0,730;   -1,045
836,884;20807,929;   -0,725;   -0,955
837,447;20788,637;   -2,816;    1,773
838,010;21110,800;    0,366;    3,227
838,573;21424,236;   -1,179;    0,773
839,135;21374,398;   -1,361;   -0,955
839,698;20801,834;    1,275;    0,409
840,261;20305,269;    1,003;   -0,227
840,823;20108,069;   -0,543;    0,864
841,386;20356,322;   -0,452;   -2,409
841,948;20268,758;   -1,361;    1,773
842,511;19992,921;    0,912;    1,682
843,073;20143,720;    1,912;    0,227
843,636;19903,973;   -0,361;   -0,227
844,198;19883,591;    0,911;    0,591
844,760;20004,117;    1,093;    1,955
845,322;19636,553;    0,548;    1,136
845,885;20120,170;    0,730;    0,591
846,447;20563,878;   -1,998;    0,227
847,009;20141,132;    1,911;   -0,682
847,571;20474,749;    0,820;   -2,045
848,133;20601,366;   -1,089;   -1,864
848,695;20367,256;   -0,543;    1,409
849,257;19911,601;   -1,089;   -1,682
849,819;20087,673;   -0,998;   -0,409
850,381;20134,926;   -0,725;   -0,864
850,942;20527,544;    1,093;   -0,591
851,504;20529,161;    1,184;    0,227
852,066;20495,597;    1,275;   -1,591
852,628;19982,214;   -0,180;    1,955
853,189;19562,922;    1,638;    2,682
853,751;19661,721;   -0,907;    1,409
854,312;19451,066;   -0,453;   -1,682
854,874;19982,683;   -2,089;   -0,773
855,435;20519,119;   -0,907;   -1,682
855,997;20694,190;   -1,816;   -0,136
856,558;19977,171;    0,366;    1,773
857,119;20087,061;    0,820;    2,864
857,681;19700,679;    0,002;    0,318
858,242;19806,569;    1,911;   -2,136
858,803;20230,186;    0,456;   -0,773
859,364;20807,167;    0,184;   -4,773
859,925;20108,421;   -2,453;   -0,955
860,486;19995,765;   -0,453;   -0,955
861,047;19712,292;   -0,544;   -1,227
861,608;19513,091;   -1,089;   -0,773
862,169;19594,890;    0,638;   -0,045
862,730;19372,144;    0,456;    1,409
863,291;19642,761;   -0,635;   -0,500
863,852;20055,651;   -0,635;    1,955
864,412;19480,177;   -0,271;   -0,864
864,973;18019,704;   -0,089;    0,500
865,534;17891,321;   -1,726;    0,227
866,094;19413,848;    1,820;    0,227
866,655;19064,738;    1,274;    3,318
867,215;19358,809;    0,274;    0,136
867,776;19160,790;    0,547;   -0,136
868,336;19283,953;   -1,453;    0,136
868,897;18768,752;    2,638;    1,682
869,457;18458,733;    1,365;    0,318
870,017;18663,623;    0,547;   -1,227
870,578;19268,422;   -0,817;    0,773
871,138;18953,403;   -2,089;   -0,955
871,698;18464,748;   -0,817;   -1,318
872,258;18323,820;   -0,453;   -2,864
872,818;18739,437;    2,729;    0,045
873,378;18673,600;    0,638;    1,045
873,938;18192,308;    0,547;    0,500
874,498;18557,016;    0,274;   -1,955
875,058;18454,179;    2,183;    1,773
875,618;18272,887;    1,910;   -2,682
876,177;18208,323;    1,274;    0,136
876,737;17776,758;   -0,090;    1,955
877,297;17826,557;    0,183;    1,955
877,856;17821,175;   -0,362;    0,318
878,416;17796,974;    1,183;   -0,136
878,976;18025,955;   -1,817;    0,409
879,535;18158,390;    0,092;    3,136
880,095;17866,280;   -0,544;    0,045
880,654;18002,079;   -1,090;    1,318
881,213;18151,424;    2,456;    1,500
881,773;17748,223;    2,637;    2,682
882,332;18165,295;    3,365;    5,136
882,891;17943,912;    3,092;    2,136
883,451;18408,166;   -1,272;    1,682
884,010;17782,783;   -2,908;   -0,409
884,569;17940,037;   -0,999;   -0,045
885,128;18079,563;    2,819;   -1,864
885,687;18215,726;    4,455;    0,682
886,246;17883,889;    1,455;    2,136
886,805;17669,961;    2,455;    2,045
887,364;17909,033;   -0,999;   -0,500
887,922;18308,468;   -1,181;    0,045
888,481;17815,267;   -1,545;    0,591
889,040;18142,703;    1,183;    2,136
889,599;18843,411;    2,455;    1,409
890,157;18892,028;    1,455;    2,409
890,716;18553,464;   -0,090;    0,227
891,274;18345,263;    0,092;   -1,136
891,833;18806,426;    1,546;    0,864
892,391;18680,588;   -0,454;    0,500
892,950;18771,024;    1,819;   -0,773
893,508;19131,914;    0,455;   -0,409
894,067;18449,440;    0,637;    0,136
894,625;18350,603;   -0,636;   -1,500
895,183;18602,311;   -0,363;   -0,682
895,741;18496,201;    1,728;   -1,773
896,299;18317,910;   -0,545;   -2,409
896,858;18479,072;    0,819;   -1,591
897,416;18631,144;    2,728;   -1,318
897,974;18352,671;    1,819;    0,318
898,532;18517,652;    6,091;    2,682
899,089;18400,996;    2,091;   -0,682
899,647;18385,613;   -1,454;    1,318
900,205;18098,413;    1,182;    1,045
900,763;18274,939;   -0,454;    0,227
901,321;18309,920;    2,364;   -1,409
901,878;17690,174;   -1,000;   -0,773
902,436;17564,791;   -1,363;    1,318
902,994;17979,590;    4,728;    3,682
903,551;17403,389;    0,728;    0,409
904,109;17768,279;    0,182;   -1,409
904,666;17313,078;    2,455;    1,045
905,224;17159,150;    0,182;   -0,409
905,781;16931,313;    0,727;   -0,318
906,338;16933,021;   -1,363;    1,045
906,895;16892,820;    0,637;    2,045
907,453;16841,438;    1,727;    1,136
908,010;16855,600;   -0,909;    0,409
908,567;16510,127;    1,273;    0,591
909,124;16009,289;    0,364;   -1,500
909,681;16048,270;   -2,909;    0,682
910,238;16212,251;    0,636;   -1,318
910,795;16481,778;   -0,273;   -1,136
911,352;16112,505;   -2,909;   -2,682
911,909;15545,323;   -1,364;   -0,864
912,466;16057,505;   -3,182;    1,500
913,022;15552,778;   -1,636;    0,500
913,579;15900,414;   -0,909;    2,045
914,136;15572,687;    1,636;    0,955
914,692;15989,051;    0,091;   -1,227
915,249;15572,505;    1,455;    0,409
915,806;15810,141;    0,182;    1,955
916,362;15532,778;    1,909;    1,864
916,918;15088,960;    2,000;    1,045
917,475;15059,414;   -1,182;    0,955
918,031;15118,505;    3,364;   -0,045
918,587;14517,869;   -0,909;   -0,318
919,144;14728,960;   -2,273;    0,227
919,700;15066,869;    1,727;    0,773
920,256;14654,323;    0,727;    0,045
920,812;14229,778;   -0,727;   -1,045
921,368;14222,414;   -1,727;   -1,045
921,924;13869,960;    0,182;   -0,136
922,480;13467,323;   -0,545;    1,227
923,036;14073,051;    1,273;    1,955
923,592;13976,051;    0,455;    0,318
924,148;13932,869;    0,455;   -0,955
924,704;13187,323;   -1,364;   -0,409
925,259;13420,051;   -0,273;    0,591
925,815;13187,141;    1,455;    0,500
926,371;12676,232;    2,909;    1,409
926,926;12558,505;    2,091;    0,591
927,482;12216,596;   -1,364;    0,773
928,037;12101,051;    0,909;    2,045
928,593;12383,778;    1,636;    1,045
929,148;12166,505;   -1,818;   -1,500
929,704;11644,869;   -1,455;   -0,500
930,259;11865,323;    0,091;   -0,136
930,814;10893,596;   -0,818;    1,955
931,369;10558,687;    1,091;   -0,773
931,925;10409,414;   -0,091;    0,136
932,480;10322,778;   -2,818;   -2,591
933,035;10190,141;    0,545;   -0,318
933,590; 9961,778;    0,364;   -1,773
934,145; 9568,141;   -1,364;   -0,318
934,700; 9928,687;    0,455;   -0,591
935,255; 9688,778;   -0,091;    0,045
935,809; 8937,414;    3,182;    0,864
936,364; 8022,687;   -0,455;   -0,136
936,919; 7980,960;    0,455;   -1,773
937,474; 7834,232;    1,455;    0,136
938,028; 7569,232;   -1,636;    1,136
938,583; 7049,960;    1,818;    4,682
939,138; 7322,960;    2,091;    2,136
939,692; 6715,323;    1,636;   -1,136
940,247; 6401,869;   -0,727;   -1,045
940,801; 5943,869;   -0,636;    0,227
941,355; 5806,323;   -0,364;    2,591
941,910; 5432,505;   -0,273;   -2,136
942,464; 5552,687;   -0,818;   -0,318
943,018; 5318,778;    1,000;   -0,227
943,572; 5266,505;    2,545;   -0,682
944,126; 4648,414;    0,091;   -0,409
944,681; 4553,960;    3,091;    0,227
945,235; 4540,414;    1,000;   -0,591
945,789; 4472,778;    0,364;   -1,864
946,342; 4568,232;    0,455;   -0,591
946,896; 4376,687;   -2,273;    0,955
947,450; 4114,960;    1,545;   -0,227
948,004; 4321,323;    1,727;   -0,045
948,558; 4292,414;    0,273;   -0,864
949,111; 4222,687;   -0,273;   -0,318
949,665; 4259,596;    1,636;   -0,682
950,219; 4135,778;   -0,091;   -1,045
950,772; 4197,414;   -1,909;    1,864
951,326; 4101,596;    0,545;   -0,955
951,879; 4221,687;    0,727;   -2,318
952,433; 4248,596;    0,000;    2,227
952,986; 4081,232;    2,909;    0,682
953,539; 4037,596;   -0,273;    0,591
954,093; 3942,051;    0,545;   -1,318
954,646; 4092,141;    0,909;    1,318
955,199; 3895,778;    0,000;   -0,500
955,752; 3764,596;   -0,455;    1,773
956,305; 3737,141;   -0,091;    2,955
956,858; 3921,051;    0,818;   -0,318
957,411; 4073,596;   -0,545;    2,136
957,964; 3898,414;    1,364;    2,136
958,517; 3908,232;   -1,545;    3,136
959,070; 3711,505;   -0,455;    1,955
959,623; 3785,051;    1,091;    1,500
960,176; 3550,596;    1,727;    2,045
960,728; 3538,141;   -2,727;    0,773
961,281; 3588,505;    0,545;    0,500
961,834; 3628,414;   -0,909;    0,864
962,386; 3535,687;    1,727;    1,045
962,939; 3475,960;    0,364;   -0,318
963,491; 3611,869;    0,455;    1,136
964,043; 3477,505;    1,182;    2,409
964,596; 3621,051;   -1,000;    2,227
965,148; 3451,051;   -1,000;    1,773
965,700; 3360,960;    1,091;   -0,227
966,253; 3526,141;   -0,636;    0,318
966,805; 3346,232;   -2,273;    0,773
967,357; 3403,869;    1,091;   -1,500
967,909; 3369,687;    0,455;   -1,227
968,461; 3478,323;    0,545;    3,136
969,013; 3412,051;   -0,182;   -0,864
969,565; 3478,778;   -0,455;   -1,136
970,117; 3496,869;   -0,364;    1,045
970,669; 3339,869;    0,182;   -0,136
971,220; 3203,869;   -0,455;   -1,500
971,772; 3152,232;   -0,636;   -0,318
972,324; 3263,505;    0,091;   -0,500
972,876; 3208,232;    0,818;   -0,045
973,427; 3340,051;    1,909;   -1,045
973,979; 3298,869;   -0,727;   -2,500
974,530; 3357,596;    1,818;    1,318
975,082; 3362,687;   -0,545;    1,682
975,633; 3252,414;    1,091;    1,682
976,184; 3403,414;    0,909;    0,773
976,736; 3177,505;    0,091;    0,227
977,287; 2981,141;   -0,909;   -0,500
977,838; 3165,778;    0,909;   -0,318
978,389; 3230,596;   -1,000;   -0,500
978,940; 3103,414;    0,545;   -0,409
979,491; 3121,232;    0,091;   -0,500
980,042; 3073,596;    0,182;    3,045
980,593; 3142,869;   -2,545;    0,227
981,144; 3165,323;    2,545;   -0,500
981,695; 3129,960;    1,455;    1,500
982,246; 3108,323;   -0,273;    1,045
982,797; 3291,051;   -1,727;    0,682
983,347; 3385,960;    0,364;    0,591
983,898; 3567,505;    3,091;    0,409
984,449; 3368,960;    2,182;    0,773
984,999; 3283,869;    1,455;   -1,136
985,550; 3047,232;    0,182;   -0,318
986,100; 3073,414;   -0,455;   -0,318
986,651; 3104,141;   -0,818;    0,045
987,201; 3084,141;   -1,000;   -0,591
987,751; 3160,323;    0,818;    2,864
988,302; 3165,051;    2,636;    1,500
988,852; 3195,414;    0,455;   -1,136
989,402; 3233,323;    0,091;    0,682
989,952; 3131,960;   -2,182;    0,864
990,502; 3236,232;   -0,091;    0,682
991,052; 3203,414;   -0,727;    0,045
991,602; 3064,323;   -2,909;    1,318
992,152; 3053,596;    0,455;    0,682
992,702; 3027,414;    1,364;   -0,045
993,252; 2961,323;   -3,000;   -0,500
993,802; 3067,141;   -0,273;    1,318
994,352; 3304,596;   -1,545;    1,136
994,901; 3374,414;   -0,182;    3,227
995,451; 3290,323;   -0,182;    0,318
996,000; 3375,687;    1,636;    0,318
996,550; 3100,051;    2,273;    0,227
997,100; 3074,414;    1,273;   -0,045
997,649; 3392,869;    2,182;    0,955
998,198; 3004,596;    1,727;   -1,500
998,748; 3213,141;    1,091;   -2,318
999,297; 3105,960;   -0,818;   -0,409
999,846; 3159,505;    1,000;   -0,773
1000,395; 3203,869;   -0,818;    0,500
1000,945; 3164,505;    1,818;   -0,773
1001,494; 3248,869;    2,364;    0,682
1002,043; 3240,687;    4,636;    0,864
1002,592; 3076,869;   -1,091;    1,955
1003,141; 3236,960;   -0,455;   -0,682
1003,690; 3081,960;    1,727;    0,500
1004,238; 3176,960;    1,455;   -0,045
1004,787; 2792,414;    1,364;    1,227
1005,336; 3028,505;    0,364;    0,682
1005,885; 3202,323;    1,364;   -2,773
1006,433; 3339,414;    0,545;    0,955
1006,982; 3369,323;    0,455;    1,682
1007,531; 3295,687;   -1,818;   -0,227
1008,079; 3251,869;   -2,273;    0,500
1008,627; 3375,960;   -1,455;    0,409
1009,176; 3108,414;    0,000;   -1,955
1009,724; 3152,778;    1,091;    0,864
1010,273; 3217,505;    1,273;    0,500
1010,821; 3336,596;    0,091;    1,409
1011,369; 3055,141;   -1,364;    1,318
1011,917; 3047,687;   -1,364;   -0,591
1012,465; 3344,687;    1,273;   -1,591
1013,013; 3445,960;    2,091;   -1,682
1013,561; 3301,414;    0,455;   -0,773
1014,109; 3359,687;   -1,909;    1,682
1014,657; 3227,141;    0,364;    0,591
1015,205; 3371,596;    1,636;   -0,955
1015,753; 3399,778;   -0,545;   -1,409
1016,301; 3447,596;   -2,636;    3,045
1016,848; 3456,141;   -1,273;    0,409
1017,396; 3495,051;    2,545;    0,045
1017,944; 3623,414;    1,182;    1,864
1018,491; 3376,778;    0,273;    1,409
1019,039; 3514,869;    0,455;    0,591
1019,586; 3436,869;   -1,364;    1,682
1020,134; 3502,414;    0,455;    1,500
1020,681; 3554,505;    0,182;   -1,136
1021,228; 3559,505;    2,909;   -2,227
1021,776; 3380,505;    1,182;   -1,136
1022,323; 3594,141;    0,455;    0,773
1022,870; 3523,869;   -1,000;   -0,045
1023,417; 3411,232;    2,636;    1,864
1023,964; 3559,869;    2,636;    1,227
1024,511; 3396,596;    1,000;    0,773
1025,058; 3195,323;    3,182;   -0,045
1025,605; 3252,778;   -2,273;    3,136
1026,152; 3480,323;    1,727;   -0,591
1026,699; 3209,051;    1,818;    1,318
1027,245; 3365,232;   -0,091;    0,318
1027,792; 3576,869;   -1,000;    1,409
1028,339; 3462,414;    2,364;   -0,045
1028,885; 3319,414;    1,000;   -0,227
1029,432; 3246,960;   -0,091;    0,227
1029,978; 3298,778;   -1,000;   -1,591
1030,525; 3221,505;    1,000;    0,409
1031,071; 3440,323;   -1,364;    1,136
1031,618; 3534,596;    0,364;    1,682
1032,164; 3332,596;   -0,091;    3,045
1032,710; 3371,051;    1,636;   -1,500
1033,256; 3290,687;   -0,636;   -0,136
1033,803; 3278,960;   -0,545;    1,500
1034,349; 2977,687;   -1,364;    0,136
1034,895; 3140,596;    0,000;   -0,318
1035,441; 3116,323;   -0,818;    0,318
1035,987; 3125,141;   -2,364;   -0,682
1036,533; 3098,414;   -1,455;   -0,955
1037,078; 3327,778;    1,455;    1,682
1037,624; 3119,505;    2,455;   -0,955
1038,170; 3173,505;    0,455;   -0,318
1038,716; 3070,232;    1,636;   -0,409
1039,261; 2984,687;   -2,273;   -0,773
1039,807; 2908,778;   -0,091;    3,409
1040,352; 2998,141;   -1,909;   -0,318
1040,898; 3037,869;   -1,545;   -0,682
1041,443; 2948,687;   -1,455;   -2,591
1041,989; 2954,323;    1,091;    1,591
1042,534; 2823,778;   -0,364;    2,591
1043,079; 2945,051;    2,909;    0,955
1043,625; 2739,051;    1,818;    0,500
1044,170; 2769,596;   -1,364;    1,045
1044,715; 3024,414;    2,455;    0,955
1045,260; 2852,596;    2,182;   -0,955
1045,805; 2906,505;    1,182;   -0,591
1046,350; 2818,232;    1,364;   -0,409
1046,895; 2770,687;    2,909;    1,591
1047,440; 2733,232;    5,364;    0,409
1047,985; 2621,596;    2,818;   -0,955
1048,530; 2546,505;    1,545;    1,227
1049,074; 2602,778;    0,000;    0,318
1049,619; 2573,141;   -1,364;    1,955
1050,164; 2377,869;    0,455;    0,227
1050,708; 2420,232;   -0,455;    0,045
1051,253; 2790,960;    1,273;   -2,227
1051,797; 2492,869;    0,818;   -1,318
1052,342; 2508,141;   -1,182;    1,045
1052,886; 2507,869;    0,364;   -1,409
1053,430; 2395,051;   -1,364;    0,136
1053,975; 2399,687;   -0,818;   -0,318
1054,519; 2392,505;   -0,727;    3,227
1055,063; 2404,596;    0,909;    1,318
1055,607; 2257,232;   -0,182;    0,227
1056,151; 2300,778;    2,909;    1,682
1056,695; 2202,869;    2,273;   -1,136
1057,239; 2281,687;   -1,727;   -0,682
1057,783; 2294,414;    0,818;   -1,500
1058,327; 2232,778;    0,000;    1,409
1058,871; 2457,778;   -0,545;    1,318
1059,415; 2166,778;   -0,818;   -0,045
1059,958; 2445,687;    1,455;    2,591
1060,502; 2152,687;   -1,000;   -0,773
1061,046; 2040,960;    0,364;   -0,955
1061,589; 2030,960;   -3,000;   -1,136
1062,133; 1909,687;   -1,273;    1,864
1062,676; 1857,232;    1,182;    0,864
1063,220; 1843,960;    1,091;    0,500
1063,763; 1861,414;    0,909;    1,136
1064,306; 1953,505;   -0,909;    1,864
1064,849; 1832,505;   -0,909;    0,591
1065,393; 1838,778;    2,000;   -1,500
1065,936; 1959,596;    0,182;   -0,409
1066,479; 1842,141;   -1,455;    1,318
1067,022; 1849,414;   -0,273;   -0,227
1067,565; 1737,960;   -0,091;   -1,318
1068,108; 1779,960;    0,727;   -0,591
1068,651; 1757,414;   -0,636;    1,409
1069,194; 1686,687;   -0,455;   -1,682
1069,736; 1682,596;   -1,273;    0,955
1070,279; 1645,414;   -1,364;   -0,500
1070,822; 1713,960;   -2,000;   -0,318
1071,364; 1802,141;   -0,364;    1,318
1071,907; 1624,778;   -0,727;    3,227
1072,450; 1510,505;    0,000;   -0,045
1072,992; 1507,778;   -0,273;    3,136
1073,535; 1669,141;    2,091;    2,136
1074,077; 1439,960;   -0,727;    2,045
1074,619; 1408,869;   -1,364;    0,591
1075,161; 1444,596;   -1,091;    1,500
1075,704; 1631,414;    1,545;    1,227
1076,246; 1430,778;   -0,182;    0,682
1076,788; 1351,323;   -0,364;    1,773
1077,330; 1427,051;    1,273;    2,136
1077,872; 1391,141;    0,909;    0,955
1078,414; 1616,232;    2,727;    0,773
1078,956; 1349,141;    1,273;   -0,227
1079,498; 1618,414;    1,636;    0,318
1080,040; 1319,687;    1,909;   -1,318
1080,581; 1240,323;    1,636;   -0,318
1081,123; 1173,596;    0,091;   -0,773
1081,665; 1221,323;   -1,182;   -0,955
1082,206; 1526,596;    1,364;   -0,500
1082,748; 1393,232;    0,727;    2,045
1083,289; 1260,051;   -2,000;    1,318
1083,831; 1171,232;   -0,545;    0,227
1084,372; 1209,323;    0,000;    0,591
1084,913; 1217,687;    1,091;    0,864
1085,455; 1170,596;   -1,909;   -2,045
1085,996; 1139,505;   -2,273;    0,136
1086,537; 1160,869;   -0,091;    0,864
1087,078; 1190,596;   -0,909;   -2,136
1087,619; 1249,051;   -1,273;    0,227
1088,160; 1158,960;    0,000;    1,318
1088,701; 1132,232;   -1,091;    0,682
1089,242; 1071,687;    1,364;   -2,227
1089,783; 1183,778;   -0,273;    1,409
1090,324; 1150,051;    0,455;    0,682
1090,865; 1016,051;    2,727;   -0,409
1091,405;  987,232;    0,727;    2,227
1091,946; 1019,051;    0,182;   -0,955
1092,487;  927,778;    0,818;   -1,409
1093,027; 1095,141;   -1,364;   -1,500
1093,568;  954,960;   -0,364;    1,227
1094,108; 1070,778;    0,273;    1,773
1094,649;  998,141;   -1,182;    0,136
1095,189;  923,778;   -0,636;   -0,682
1095,729;  877,869;   -0,091;    0,955
1096,269;  883,051;    0,727;   -0,955
1096,810; 1217,141;   -1,364;    0,500
1097,350; 1028,051;    1,364;   -0,773
1097,890;  914,687;    0,364;    1,227
1098,430; 1181,596;    2,364;    2,864
1098,970; 1064,414;    2,182;    1,682
1099,510;  917,323;    0,545;   -2,318
1100,050;  841,505;    1,000;   -1,591
1100,589;  802,778;   -0,727;   -0,318
1101,129;  938,778;    0,818;   -0,955
1101,669; 1099,869;    1,727;    2,136
1102,209;  912,869;   -0,091;    2,227
1102,748;  863,596;    0,000;    0,955
1103,288;  860,051;    1,273;   -1,227
1103,827;  896,687;    3,091;   -2,227
1104,367;  753,323;   -0,091;   -2,409
1104,906;  711,505;    1,364;   -1,136
1105,445;  778,505;    0,636;   -1,136
1105,985;  736,596;   -0,727;    1,500
1106,524;  779,596;   -1,727;   -0,682
1107,063;  758,141;   -2,727;    1,409
1107,602;  734,141;   -1,909;   -1,500
1108,141;  653,414;   -1,909;    1,500
1108,680;  767,141;   -3,455;   -0,591
1109,219;  688,687;   -0,909;   -0,500
1109,758;  687,051;    0,455;    0,682
1110,297;  652,869;    1,000;   -0,682
1110,836;  603,232;   -0,727;    0,955
1111,375;  784,051;   -2,545;    0,409
1111,913;  801,869;   -1,000;    0,773
1112,452;  728,960;   -0,273;    0,136
1112,991;  602,232;    1,091;    1,955
1113,529;  556,869;   -0,818;   -0,045
1114,068;  626,323;   -0,273;    2,955
1114,606;  530,778;   -0,364;   -0,955
1115,144;  708,869;   -1,273;    1,045
1115,683;  642,687;   -0,727;    0,318
1116,221;  680,687;   -0,455;   -0,864
1116,759;  584,051;    0,636;   -0,864
1117,297;  794,051;    0,000;    1,864
1117,836;  584,960;   -2,182;   -1,227
1118,374;  606,687;    0,182;   -0,682
1118,912;  542,778;    0,909;    2,682
1119,450;  541,232;    1,000;    0,864
1119,988;  592,596;    1,545;    2,136
1120,525; 1062,960;    5,091;    3,318
1121,063;  751,869;    1,182;    1,864
1121,601;  548,869;   -0,909;   -1,227
1122,139;  500,232;   -0,727;   -2,045
1122,676;  711,141;   -0,727;    2,773
1123,214;  642,687;   -1,182;    4,409
1123,751;  442,778;    1,727;    2,227
1124,289;  580,960;   -0,091;   -0,409
1124,826;  442,960;    1,727;    0,227
1125,364;  363,141;    1,727;   -0,955
1125,901;  569,596;    1,182;    1,227
1126,438;  687,414;    0,818;    0,955
1126,975;  394,323;   -0,727;   -0,773
1127,513;  463,141;    0,273;    2,136
1128,050;  363,323;    1,636;   -0,682
1128,587;  477,596;    2,000;   -0,227
1129,124;  528,414;    0,091;    1,318
1129,661;  378,778;    0,273;    0,227
1130,198;  548,687;    1,636;    0,773
1130,734;  495,869;    0,182;    1,409
1131,271;  346,687;   -0,909;    0,864
1131,808;  525,869;    2,909;    3,045
1132,345;  390,687;    1,545;    0,318
1132,881;  251,051;   -1,545;   -1,864
1133,418;  400,960;    0,727;   -1,136
1133,954;  331,505;    2,455;   -2,682
1134,491;  404,323;    1,364;   -0,773
1135,027;  303,687;    2,364;    0,864
1135,564;  411,232;    0,273;    2,955
1136,100;  390,505;    0,364;    2,136
1136,636;  265,232;   -1,273;   -1,045
1137,172;  372,414;    0,000;   -1,045
1137,708;  290,323;   -1,364;   -1,045
1138,245;  297,869;    1,273;   -1,227
1138,781;  240,505;    1,091;   -3,318
1139,317;  320,414;    1,273;   -1,409
1139,852;  299,687;    3,091;    0,136
1140,388;  428,141;   -1,182;   -0,409
1140,924;  307,051;   -1,091;   -2,227
1141,460;  243,778;   -1,636;    0,136
1141,996;  170,051;   -1,364;    2,682
1142,531;  221,960;    1,364;    3,318
1143,067;  458,232;    1,182;    1,045
1143,602;  513,869;   -0,091;   -0,318
1144,138;  338,869;   -2,636;    1,045
1144,673;  197,232;   -1,455;    1,409
1145,209;  276,051;   -1,909;   -0,318
1145,744;  190,323;   -0,727;    0,864
1146,279;  335,960;    1,818;   -0,136
1146,815;  242,232;    1,545;   -2,682
1147,350;  288,051;   -1,364;    0,045
1147,885;  192,141;   -0,818;   -1,318
1148,420;  200,778;   -2,273;    0,773
1148,955;  183,141;   -1,727;    1,864
1149,490;  203,596;   -0,909;   -1,591
1150,025;  185,141;    0,455;   -1,773
1150,560;  314,505;    1,091;   -0,955
1151,094;  277,596;    1,455;   -0,591
1151,629;  280,960;    1,636;    0,864
1152,164;  205,232;    1,364;    1,318
1152,698;  148,232;   -0,182;   -0,136
1153,233;  110,869;    0,091;   -0,682
1153,767;  164,051;   -3,000;   -2,318
1154,302;  214,323;   -1,455;    1,773
1154,836;  209,778;   -0,455;   -2,136
1155,371;  268,960;   -1,364;    3,682
1155,905;  221,596;   -0,636;    1,682
1156,439;  187,960;   -0,636;   -0,500
1156,973;  232,323;    0,364;    0,318
1157,507;  154,778;   -0,364;    0,682
1158,042;  188,232;   -0,727;    1,045
1158,576;  230,051;    0,182;    1,773
1159,110;  216,414;   -0,818;    2,409
1159,643;  193,687;    0,636;   -0,045
1160,177;  122,687;   -1,545;    1,500

