
Integration time [ms]:   0,040
Averaging Nr. [scans]: 11
Smoothing Nr. [pixels]: 0
Data measured with spectrometer [name]: 7318044SP
Wave   ;Sample   ;Dark     ;Reference
[nm]   ;[counts] ;[counts] ;[counts] 

186,757;   -0,635;   31,551;    1,318
187,357;   27,967;   22,551;    0,955
187,958;    9,701;   15,460;   -1,591
188,558;   45,394;    8,915;   -1,227
189,159;   15,923;    6,733;   -4,500
189,759;   -7,088;    7,278;   -3,591
190,360;   -9,394;    2,824;   -2,136
190,960;   16,719;    2,915;   -4,136
191,560;   24,269;    3,189;   -6,591
192,161;  213,733;    4,372;   -3,500
192,761;   87,541;    4,010;   -3,227
193,361;   36,481;    1,556;   -3,773
193,962;   66,806;    2,010;   -2,682
194,562;   11,269;    1,189;   -3,955
195,162;   21,139;   -2,448;   -2,227
195,762;  129,301;   -3,176;   -0,045
196,362;   78,944;    1,370;   -2,500
196,963;    6,175;    2,006;   -0,864
197,563;   39,925;    1,551;   -0,955
198,163;   -8,744;    0,096;   -0,682
198,763;    8,076;    1,733;   -0,500
199,363;   57,643;    3,096;   -0,500
199,963;   21,902;    0,369;    0,409
200,563;   14,283;    2,823;   -1,409
201,163;    9,802;    3,277;   -0,227
201,763;   37,784;    3,732;    0,318
202,363;    0,445;    1,459;    1,500
202,963;   36,898;    1,459;    1,045
203,563;   81,539;    0,277;    0,500
204,162;   15,299;    2,096;   -1,864
204,762;   11,579;    0,550;    0,591
205,362;   -6,471;    3,004;    1,955
205,962;   17,634;    3,096;    1,955
206,562;   10,595;    1,823;    2,318
207,161;   -3,244;   -0,087;    0,318
207,761;   64,803;    1,277;    2,409
208,361;    4,815;   -0,268;    1,409
208,960;   22,719;    0,459;    1,500
209,560;   25,808;    1,277;    1,591
210,160;   37,558;    0,550;    1,864
210,759;    7,820;    4,186;    1,227
211,359;   -0,412;    1,459;    1,045
211,958;   94,332;    1,277;    2,045
212,558;  102,329;    1,732;    1,864
213,157;   40,957;    1,822;    1,500
213,757;  159,319;    3,822;   -0,227
214,356;   54,942;    1,277;   -0,409
214,956;  143,613;    3,095;    0,409
215,555;   38,245;    2,095;    2,136
216,154;    4,816;   -2,723;   -0,591
216,754;   13,027;    0,277;    0,773
217,353;   20,309;   -0,268;   -1,045
217,952;  -17,451;   -0,178;    0,318
218,552;   40,626;    1,368;   -0,773
219,151;    9,930;    0,277;    0,955
219,750;   -0,843;    0,004;   -0,227
220,349;   -6,746;   -0,451;    1,045
220,948;   51,595;   -1,360;    1,136
221,548;    4,441;    0,913;    1,227
222,147;   11,175;   -0,087;   -0,409
222,746;   75,457;   -0,451;   -0,955
223,345;   25,020;    0,731;    0,500
223,944;   23,455;   -0,451;    0,773
224,543;   34,554;    1,004;   -1,409
225,142;   10,611;    0,094;    0,136
225,741;   19,236;   -0,814;    1,045
226,340;   20,370;   -0,451;   -0,955
226,939;   60,387;   -0,996;   -0,136
227,538;    7,851;   -0,360;   -0,773
228,137;   73,296;   -0,814;    0,864
228,735;   43,584;   -0,541;    1,227
229,334;  -13,569;   -0,905;   -0,227
229,933;   70,544;    0,459;    0,591
230,532;   63,628;    1,186;   -0,409
231,131;  105,952;    1,732;    0,318
231,729;   51,071;   -2,450;   -2,318
232,328;   12,181;   -0,723;   -1,500
232,927;   23,833;    1,004;   -0,500
233,525;    9,880;    3,640;    0,045
234,124;   30,966;    2,368;   -1,591
234,723;   -0,696;    0,913;   -1,045
235,321;  -11,592;    2,277;    0,136
235,920;   -1,216;    1,186;   -1,227
236,518;   70,525;    3,459;    0,318
237,117;   12,764;    0,004;   -0,227
237,715;   20,846;    0,640;   -0,500
238,314;   25,130;   -0,087;   -2,318
238,912;   78,155;   -0,723;   -1,409
239,510;   34,577;    0,459;   -1,227
240,109;   81,794;    0,004;    3,773
240,707;   59,150;   -0,996;    1,227
241,305;   -0,291;    0,550;    0,136
241,904;   35,254;   -0,178;   -2,045
242,502;   97,211;   -0,632;   -0,227
243,100;   43,602;   -0,087;   -0,955
243,698;    3,684;    0,732;    1,682
244,297;   20,962;   -0,632;    0,682
244,895;   16,710;   -0,269;   -2,318
245,493;   77,175;    2,186;   -0,591
246,091;   87,117;    1,368;   -1,318
246,689;   45,495;    1,004;    0,591
247,287;   39,757;    0,822;   -1,136
247,885;   24,828;   -1,451;    1,227
248,483;   10,746;    1,822;   -0,500
249,081;   43,070;    0,185;    1,591
249,679;   42,882;   -0,178;    1,682
250,277;    7,476;   -1,723;    0,864
250,875;   44,315;   -1,087;   -1,045
251,473;   11,048;   -1,178;    0,500
252,071;   48,928;    1,459;    1,045
252,669;   19,182;   -1,814;    0,318
253,267;   -0,770;   -0,087;    0,773
253,864;   13,030;   -0,360;    0,682
254,462;   62,418;    1,640;    1,591
255,060;   -1,691;   -0,269;    1,318
255,658;   -5,273;    0,822;   -0,136
256,255;    9,863;    0,186;   -2,045
256,853;   43,010;   -0,269;    1,409
257,451;   16,659;    0,822;    1,864
258,048;  166,732;    1,822;    1,864
258,646;   66,978;    1,731;   -1,045
259,243;  102,646;   -0,087;    2,227
259,841;   47,324;   -0,814;    0,318
260,438;   -2,303;   -0,087;    0,864
261,036;   40,155;   -1,905;    1,409
261,633;    3,425;   -0,087;    2,227
262,231;  -13,658;    2,731;   -0,045
262,828;  -19,107;   -0,905;    1,136
263,425;   -4,875;    0,913;   -0,591
264,023;    2,218;    0,186;    0,045
264,620;   53,461;   -0,360;   -0,318
265,217;   82,531;   -2,087;    3,136
265,815;   15,827;   -1,905;    2,136
266,412;   40,229;    0,731;    0,136
267,009;   31,855;   -1,451;    0,773
267,606;   64,432;    0,822;   -0,955
268,203;   20,485;   -0,269;   -0,591
268,801;   12,040;    1,731;    0,591
269,398;    1,355;   -0,360;    2,500
269,995;   35,257;    0,277;    1,591
270,592;   16,911;   -0,632;   -0,500
271,189;   -8,256;    0,186;    0,409
271,786;  -12,319;   -0,632;    1,227
272,383;   56,398;   -1,087;    0,227
272,980;   11,346;    0,277;    0,318
273,577;   -2,368;    0,004;    1,227
274,174;   -8,674;    0,822;    2,591
274,771;   29,909;   -0,814;   -0,773
275,367;  180,738;    2,277;    1,409
275,964;   85,340;    0,731;   -0,500
276,561;   17,683;    1,549;   -1,045
277,158;  -10,300;    0,095;   -1,773
277,755;   70,161;    2,185;    0,409
278,351;   39,720;   -0,451;   -1,500
278,948;   54,332;   -0,815;    0,045
279,545;   32,715;   -1,360;    2,318
280,141;   68,081;   -1,723;   -2,045
280,738;   87,666;   -0,451;   -0,136
281,334;   14,810;   -1,633;    0,591
281,931;    1,484;   -0,087;   -1,318
282,528;   45,037;    0,822;   -0,500
283,124;   63,599;   -1,087;   -0,500
283,721;   65,088;   -0,451;    1,409
284,317;   29,338;    0,185;    2,500
284,913;   79,124;   -1,360;    0,591
285,510;  122,396;    0,640;   -0,318
286,106;   83,016;   -2,269;   -0,955
286,703;   44,169;   -0,360;    1,955
287,299;   10,869;   -1,451;   -0,591
287,895;    7,123;    0,822;   -1,045
288,491;   -0,463;    0,186;    2,136
289,088;   35,107;   -2,360;    2,409
289,684;   31,000;   -1,723;    1,500
290,280;   94,761;    0,368;    0,682
290,876;   73,723;    1,822;    5,500
291,472;   54,725;    1,276;    2,227
292,068;   66,532;    1,367;    0,227
292,665;   26,414;    2,095;    0,773
293,261;   -2,830;    0,276;    2,136
293,857;   44,336;    2,913;    2,136
294,453;   25,376;    3,550;    0,955
295,049;  101,686;   -0,268;    1,955
295,644;   47,706;    0,095;    0,136
296,240;    2,111;   -0,905;   -0,136
296,836;   30,705;   -0,995;    0,318
297,432;   70,903;    1,096;   -0,500
298,028;   68,500;    0,732;    0,773
298,624;   35,207;    1,459;    1,864
299,220;   26,768;    2,368;    0,591
299,815;   17,643;    1,005;   -0,409
300,411;   59,050;    0,914;    1,773
301,007;   66,634;    1,368;    0,227
301,602;   14,833;   -0,541;   -2,318
302,198;   79,508;    0,732;   -0,773
302,794;   35,332;    1,187;   -0,500
303,389;    1,106;   -1,177;    1,045
303,985;    9,037;    0,550;    1,409
304,580;   65,801;    1,459;    1,591
305,176;   29,570;   -3,086;    0,136
305,771;  -17,718;   -1,268;   -1,227
306,367;  134,609;    4,095;    0,136
306,962;   51,287;    0,641;    1,500
307,558;   69,782;   -0,450;    0,136
308,153;   50,555;    1,095;   -1,136
308,748;   -0,201;   -0,814;    1,682
309,344;  126,361;   -0,632;   -1,318
309,939;  114,064;   -1,905;   -1,318
310,534;   23,758;   -0,086;   -1,682
311,130;   15,745;    0,459;   -2,500
311,725;    9,991;    1,004;   -0,500
312,320;   18,051;    2,459;    0,045
312,915;   48,198;    1,459;   -1,045
313,510;  128,730;    1,550;   -0,500
314,105;   26,394;    1,096;    1,409
314,700;   -6,359;   -3,086;   -1,045
315,295;   18,437;   -0,904;    0,045
315,890;    0,771;    1,277;    0,864
316,485;   32,871;   -0,359;   -0,318
317,080;    2,258;   -3,086;    1,591
317,675;  123,309;    2,005;   -0,682
318,270;  220,707;    5,550;    3,318
318,865;  147,813;    3,278;    3,045
319,460;   78,807;   -0,904;    0,591
320,055;   14,283;   -0,541;   -1,227
320,650;   16,785;   -1,995;   -0,591
321,244;   21,301;   -0,177;   -1,409
321,839;   13,233;   -1,541;   -0,227
322,434;   31,051;   -1,086;   -1,591
323,029;    9,205;    1,732;    1,591
323,623;    1,254;    1,550;    0,773
324,218;   85,308;    2,368;    1,409
324,812;   49,772;    1,096;    1,591
325,407;   43,898;   -0,814;    2,045
326,002;  113,389;    0,277;   -0,409
326,596;   74,139;    0,914;    1,318
327,191;   17,189;    0,823;   -1,045
327,785;   23,594;   -0,813;   -0,227
328,379;    7,942;    1,368;    0,136
328,974;   19,786;    0,914;   -3,955
329,568;   35,055;    0,186;   -2,409
330,163;   71,747;    2,096;    1,045
330,757;   18,802;    2,459;    1,591
331,351;   -3,103;    0,459;    0,682
331,945;    0,619;    0,914;    1,409
332,540;   29,246;   -1,723;   -0,591
333,134;   29,202;   -1,086;    0,773
333,728;   40,857;    0,005;    0,318
334,322;    0,269;   -1,177;   -0,864
334,916;    0,925;    0,277;    0,955
335,510;   57,407;   -0,450;   -0,136
336,105;   42,007;   -1,086;    1,591
336,699;    1,021;   -1,086;    0,591
337,293;   25,201;   -1,723;    0,318
337,887;   12,167;   -2,723;    1,955
338,481;   51,650;    0,459;    0,591
339,074;   97,121;   -0,359;    2,682
339,668;   78,260;   -1,632;    1,227
340,262;  326,213;    1,732;    3,227
340,856;  129,298;    1,822;   -0,682
341,450;   19,414;    1,004;    1,864
342,044;   37,656;    1,459;    0,136
342,637;   77,157;    0,913;   -2,136
343,231;   37,528;   -2,360;    0,682
343,825;   20,126;   -1,086;   -0,591
344,419;   27,713;   -1,995;    0,500
345,012;  260,143;    2,459;    4,045
345,606;  160,478;    4,641;    1,591
346,199;   37,057;   -1,813;   -0,227
346,793;   78,287;    1,914;    2,045
347,386;   17,852;   -0,813;   -1,136
347,980;  -14,058;   -0,268;   -0,045
348,573;   10,787;    2,278;    0,409
349,167;  176,480;    5,278;    4,773
349,760;   79,930;    2,914;    2,682
350,354;   71,643;   -0,813;    1,136
350,947;   91,725;    1,096;    1,682
351,540;   47,598;   -0,358;   -1,409
352,134;   -2,772;    1,096;    1,136
352,727;    4,924;   -0,086;    1,136
353,320;   16,181;    0,005;    0,591
353,913;  -12,154;   -1,995;    1,864
354,507;   67,682;    0,823;   -1,227
355,100;   17,860;    0,460;    0,864
355,693;  236,765;    2,005;    2,409
356,286;  104,243;    0,823;    2,773
356,879;   36,174;   -0,722;    1,227
357,472;   45,155;   -0,904;    1,500
358,065;   59,273;   -0,722;    2,500
358,658;   -0,630;   -0,540;    2,318
359,251;   -8,750;   -1,631;   -0,591
359,844;   74,680;   -1,904;   -1,136
360,437;   97,260;   -2,995;    0,045
361,030;   20,679;    1,369;   -0,682
361,623;   25,372;    2,824;    0,318
362,215;  141,342;   -0,086;    2,045
362,808;   48,527;   -2,358;   -1,682
363,401;   23,191;   -2,449;    0,136
363,994;  132,297;   -0,631;   -1,500
364,586;   37,565;    0,824;   -1,500
365,179;   15,036;   -0,449;   -1,136
365,772;  -28,257;   -1,995;    2,045
366,364;   27,733;    1,915;   -3,227
366,957;   43,678;    2,279;   -0,045
367,549;   22,970;    2,188;   -0,864
368,142;   40,972;    1,825;   -1,500
368,734;   17,547;    0,734;   -2,136
369,327;  -15,902;    1,643;   -0,500
369,919;    8,373;   -1,538;    0,409
370,512;   19,464;   -1,083;   -0,500
371,104;  198,606;   -0,901;    1,591
371,696;  211,487;    1,191;   -0,955
372,289;  110,110;    0,373;    1,136
372,881;   83,647;   -2,080;    1,318
373,473;   15,007;   -2,170;    1,136
374,066;   78,916;   -0,169;    0,500
374,658;   61,978;    0,378;    1,136
375,250;    8,788;    0,653;   -1,409
375,842;   46,932;    0,473;   -0,045
376,434;    3,198;   -0,435;   -0,409
377,026;   -9,275;    0,204;   -2,500
377,618;   37,935;   -0,158;   -0,682
378,210;  -17,552;   -0,338;   -1,955
378,802;  -17,252;    0,754;   -0,591
379,394;  342,235;    1,846;    0,682
379,986;  104,734;    1,393;   -0,955
380,578;    3,300;   -0,153;    0,773
381,170;  254,361;   -0,972;    0,045
381,762;  167,111;    0,755;    1,409
382,354;  127,903;   -0,065;   -1,318
382,945;   44,223;   -2,976;    0,318
383,537;    7,133;   -2,705;   -1,955
384,129;    4,491;   -2,160;   -1,136
384,721;  119,541;   -0,252;    0,955
385,312;   60,360;   -0,161;   -0,955
385,904;  121,046;   -2,706;    1,591
386,496;   58,543;   -0,979;    1,045
387,087;  179,799;    1,022;    2,500
387,679;  113,405;   -1,160;    0,045
388,270;   88,378;    2,840;    2,045
388,862;   63,351;    1,295;   -0,318
389,453;   53,043;   -0,887;    1,045
390,045;   58,745;   -0,705;   -2,682
390,636;  -43,704;    0,204;   -0,591
391,227;   17,435;   -0,523;   -0,045
391,819;   -6,996;    0,204;    0,773
392,410;  227,810;    1,022;    0,045
393,001;   54,706;   -0,979;   -1,591
393,593;  106,694;    1,930;   -0,045
394,184;  148,222;    1,385;   -0,409
394,775;   36,687;    1,839;    2,136
395,366;  -40,266;    1,385;    0,773
395,957;  128,170;    0,113;    0,136
396,548;   30,244;   -0,342;    2,682
397,139;  119,738;   -2,433;    0,591
397,730;   55,192;   -1,888;    0,955
398,321;   69,387;   -1,252;    0,955
398,912;   13,932;   -0,615;    0,136
399,503;   12,713;   -3,524;   -1,409
400,094;   56,778;    0,294;    1,682
400,685;   44,471;   -0,433;    0,045
401,276;    8,133;    0,930;   -0,955
401,867;  -14,963;   -0,888;    0,773
402,458;  -62,136;   -2,251;   -2,318
403,048;   69,844;    1,112;    0,591
403,639;   22,479;    0,840;    0,864
404,230;  116,022;    2,476;    0,318
404,821;  167,350;   -0,615;    0,045
405,411;   87,476;    1,203;   -2,591
406,002;   12,840;   -1,252;   -1,136
406,592;  210,202;    2,294;    0,045
407,183;   87,926;    0,566;   -1,500
407,774;   76,818;    3,475;   -0,136
408,364;   29,652;    0,930;    0,409
408,954;  138,102;    0,384;    1,227
409,545;  137,327;    1,021;    1,045
410,135;  102,918;    1,293;    0,500
410,726;   53,485;    1,838;    0,318
411,316;  222,258;    0,111;    0,773
411,906;   77,144;   -0,253;   -0,409
412,497;   90,801;   -1,070;   -0,045
413,087;   34,550;   -1,980;   -0,227
413,677;  -21,217;   -0,707;    3,864
414,267;  -23,275;    0,656;    1,409
414,857;  -51,726;   -2,980;    4,227
415,448;  -51,043;    0,839;    0,500
416,038;  -16,545;    0,020;   -0,591
416,628;   27,372;   -0,889;    0,409
417,218;   70,506;    0,565;    3,318
417,808;  210,600;    0,202;   -0,409
418,398;  100,065;    0,020;    2,682
418,988;   -4,852;    2,020;    0,591
419,578;   85,579;   -0,707;    1,409
420,168;   16,751;   -1,343;   -0,955
420,757;  147,255;   -1,343;   -1,500
421,347;   46,645;    0,111;   -0,227
421,937;   23,714;    2,292;    1,409
422,527;  157,069;    0,838;   -0,773
423,116;  272,832;   -0,253;   -0,045
423,706;   25,980;   -1,889;    0,318
424,296;  -12,263;    1,384;    0,682
424,885;   96,373;   -0,071;   -3,045
425,475;   65,427;    1,474;   -2,864
426,065;  -28,610;   -0,980;   -0,318
426,654;  -39,886;   -0,435;   -0,318
427,244;  191,848;    0,020;    1,409
427,833;  162,860;    1,383;   -0,500
428,423;   52,613;   -0,526;    1,136
429,012;   58,673;   -0,344;   -1,136
429,601;  175,312;   -1,344;    0,136
430,191;   72,808;    1,292;    4,318
430,780;  -18,987;   -0,344;   -0,409
431,369;  151,297;    0,746;   -0,045
431,959;   44,977;   -1,254;    0,500
432,548;  -15,042;   -1,163;   -0,045
433,137;  -62,944;   -1,254;   -1,318
433,726;   -1,631;    0,292;    0,500
434,315;   33,576;   -0,526;    2,409
434,905;  131,561;   -1,254;    1,409
435,494;  127,152;    0,746;    0,955
436,083;    6,361;   -0,981;   -0,955
436,672;   90,277;    0,110;    0,500
437,261;   35,020;    0,292;   -1,955
437,850;  255,596;    1,383;    0,682
438,439;  302,484;    3,291;    1,955
439,027;  402,912;    3,655;    1,773
439,616;  333,554;    2,927;    1,227
440,205;  112,079;    0,200;   -2,136
440,794;   69,572;    2,109;   -0,045
441,383;    6,635;   -1,346;   -0,591
441,971;   -7,124;   -2,436;    0,591
442,560;    6,368;    0,563;   -1,773
443,149;  -83,549;    0,379;   -1,318
443,737;  -47,082;   -0,074;   -2,318
444,326;  -21,585;    0,018;    0,318
444,915;   26,605;   -1,982;    0,864
445,503;   32,947;   -2,891;   -0,318
446,092;  271,830;    0,382;    2,136
446,680;  209,066;    0,382;    0,318
447,269;  118,818;   -0,346;   -0,318
447,857;  105,525;    0,018;   -1,773
448,445;   61,357;    0,563;    1,318
449,034;    3,107;   -1,528;   -1,136
449,622;   19,638;   -1,073;    3,500
450,210;  265,463;    2,017;    2,227
450,799;  188,997;    0,290;   -0,591
451,387;  161,633;    1,381;   -0,591
451,975;  145,976;    2,654;    0,864
452,563;  218,668;    3,472;    2,318
453,151;   53,517;   -0,528;   -1,227
453,739;   88,710;   -1,347;    0,136
454,328;  192,147;    2,381;   -2,136
454,916;  130,848;    2,562;   -0,136
455,504;  148,820;    1,017;    1,227
456,092;   34,853;    0,017;   -1,591
456,679;    4,148;    1,472;    0,682
457,267;  390,401;    4,017;    1,045
457,855;  101,654;    1,017;    1,409
458,443;  -43,879;   -0,165;    1,682
459,031;  101,250;    0,108;    2,409
459,619;   72,142;   -1,801;    2,864
460,206;  -13,055;    0,835;    2,045
460,794;  -15,416;   -2,983;   -0,227
461,382;   29,443;   -0,529;   -0,864
461,970;   30,392;    1,198;    1,864
462,557;  -41,371;   -0,711;   -0,682
463,145;   69,400;   -3,165;   -1,682
463,732;  311,387;    2,016;   -1,045
464,320;   93,607;   -0,075;   -3,045
464,907;  218,531;    2,743;   -0,773
465,495;  131,713;    0,743;   -1,227
466,082;   59,585;   -1,984;   -0,045
466,670;   86,436;   -2,529;    1,227
467,257;  -18,347;   -1,711;    2,045
467,844;   83,911;   -0,075;    0,045
468,432;   55,514;    0,834;    3,500
469,019;   18,352;    0,925;   -1,773
469,606;  105,833;    0,470;    3,682
470,193;  135,917;   -1,439;    0,227
470,780;   91,407;   -2,075;    0,864
471,368;   26,351;   -1,257;   -0,773
471,955;  113,210;    1,379;   -0,682
472,542;   80,764;    0,652;   -1,136
473,129;  -25,994;   -0,166;    0,136
473,716;  -16,099;    1,470;    0,591
474,303;   16,417;    0,652;   -0,864
474,890;   23,846;   -1,439;   -0,500
475,477;  122,358;   -1,621;    0,409
476,064;   27,297;    1,106;   -1,591
476,650;  142,677;    0,288;    0,318
477,237;   50,405;   -0,258;    0,955
477,824;   38,888;   -1,076;    0,864
478,411;  -47,781;   -1,894;   -0,318
478,997;  -52,026;    0,560;   -0,773
479,584;  -89,582;    1,196;   -0,409
480,171;   66,594;   -0,440;   -0,773
480,757;  120,588;    2,651;    0,773
481,344;   19,994;    0,469;    0,409
481,931;  -61,035;    1,105;    1,045
482,517;   51,099;   -1,258;    0,318
483,104;  135,302;    1,106;    2,864
483,690;   11,985;   -1,804;    0,045
484,276;   -9,584;   -0,895;    0,227
484,863;  192,607;    2,469;    1,136
485,449;   43,153;   -0,077;    0,318
486,035;   -0,244;   -1,986;   -0,136
486,622;   89,336;   -0,895;    0,045
487,208;   13,652;    1,378;    1,500
487,794;  -60,146;    0,741;    0,318
488,380;  -52,536;    0,105;   -1,409
488,967;  -56,197;   -1,168;   -0,409
489,553;  -40,211;   -1,895;   -1,409
490,139;   34,553;    1,559;    0,773
490,725;  -36,429;    0,741;   -0,227
491,311;   15,618;    3,287;    3,045
491,897;   -6,517;   -0,986;    1,500
492,483;    2,665;    0,105;    1,227
493,069;  399,490;    3,923;    0,864
493,655;  136,874;    1,650;    0,682
494,241;   19,740;    1,377;   -0,955
494,826;   26,531;    0,287;   -1,045
495,412;   95,375;    2,559;   -0,682
495,998;    2,629;   -0,805;   -0,318
496,584;   56,935;    0,377;    1,045
497,169;   67,294;    1,014;   -0,682
497,755;    6,379;    0,650;    1,227
498,341;  136,218;    0,559;    0,318
498,926;  248,413;    1,832;    1,955
499,512;   -0,626;    1,286;    2,955
500,097;    4,690;    0,195;   -0,318
500,683;   28,774;   -0,350;    2,136
501,268;  -13,321;   -0,169;   -0,955
501,854;   11,478;   -0,169;    1,227
502,439;   -6,658;   -0,624;   -1,773
503,024;   11,063;    0,195;    0,500
503,610;   36,133;   -0,078;   -0,682
504,195;  -11,094;    0,558;    1,955
504,780;   75,985;    2,922;    1,227
505,366;  154,800;    3,013;    2,864
505,951;   91,132;    0,740;    1,045
506,536;   15,973;   -3,260;   -3,682
507,121;   65,628;    0,285;   -0,318
507,706;   23,494;    2,376;    1,045
508,291;  -26,428;    2,649;    1,136
508,876;  -29,116;   -0,988;    2,591
509,461;   12,282;   -0,169;   -0,773
510,046;   57,639;    0,194;    0,318
510,631;   62,342;   -0,351;   -0,773
511,216;  -18,615;    2,467;   -0,500
511,801;   40,994;   -0,442;    2,591
512,386;   54,472;    0,740;    0,500
512,971;   63,245;   -2,988;    0,955
513,555;   91,315;   -0,897;   -1,500
514,140;   47,329;   -0,442;   -3,136
514,725;  162,199;   -0,715;   -1,136
515,309;   75,105;   -0,533;    0,318
515,894;    0,276;   -0,624;   -2,227
516,479;   32,039;   -0,624;   -0,955
517,063;   35,534;    0,376;    1,227
517,648;   -9,160;    1,012;   -1,136
518,232;  -32,670;   -0,261;   -1,409
518,817;   42,639;   -0,079;    1,682
519,401;  135,338;    2,194;    0,591
519,985;  124,364;    1,103;    1,136
520,570;   25,853;    0,830;   -1,955
521,154;  103,078;    2,102;    0,591
521,738;  245,941;   -2,352;    2,409
522,323;  108,893;   -0,170;    1,682
522,907;  131,596;    0,466;   -0,136
523,491;   81,734;    0,557;    0,955
524,075;   93,679;    2,284;    0,591
524,659;  331,498;    1,466;    0,591
525,243;  320,647;    1,739;    0,409
525,827;  318,730;    0,648;   -0,045
526,411;  391,953;   -1,989;   -0,136
526,995;  611,872;   -0,352;    1,409
527,579;  787,422;   -0,443;   -1,045
528,163;  796,032;    0,375;   -1,500
528,747; 1102,650;    2,466;   -0,773
529,331; 1187,658;   -0,080;   -1,409
529,915; 1082,210;    1,738;    0,955
530,499; 1393,820;   -0,807;    1,227
531,082; 1715,997;   -0,534;    1,591
531,666; 1932,040;    1,374;    0,773
532,250; 2162,686;    1,284;    2,682
532,833; 2597,906;    0,920;    2,773
533,417; 2674,084;   -1,807;    0,864
534,001; 2949,741;    1,647;   -0,318
534,584; 3514,186;    0,374;    0,500
535,168; 3683,943;    0,465;    1,409
535,751; 4176,142;    0,647;    0,045
536,334; 4085,738;   -0,898;   -0,409
536,918; 4736,716;    0,011;    1,591
537,501; 5086,420;   -0,899;    1,318
538,085; 5454,136;   -0,444;    1,045
538,668; 5772,718;    0,829;    2,409
539,251; 6398,390;    1,829;    3,773
539,834; 6708,631;    0,101;    0,773
540,418; 7000,610;   -1,990;    4,318
541,001; 7283,429;   -0,990;    1,773
541,584; 7479,080;    2,101;    2,227
542,167; 7519,032;    1,374;    2,955
542,750; 7744,107;    1,919;   -0,773
543,333; 7630,145;    0,555;    2,136
543,916; 8511,037;    0,192;    2,500
544,499; 9056,320;   -1,354;    0,227
545,082; 9288,978;    1,374;    3,591
545,665; 9575,212;    1,919;    1,500
546,248; 9968,054;    1,010;   -0,318
546,830; 9868,829;   -0,445;    1,955
547,413;10348,831;    1,010;   -0,773
547,996;10927,342;    0,555;    0,500
548,579;10855,705;    0,919;    0,955
549,161;10784,544;    1,828;    2,682
549,744;10677,634;   -0,809;    0,409
550,326;11247,968;   -0,809;   -1,136
550,909;11250,284;    2,737;    0,591
551,492;11660,874;   -0,263;    0,227
552,074;11573,010;   -0,173;   -1,318
552,657;12147,334;    2,373;    0,045
553,239;12044,352;   -0,173;   -0,773
553,821;12027,190;   -1,082;    1,045
554,404;11664,505;    1,282;    1,136
554,986;12054,511;    0,464;    1,045
555,568;12612,256;    1,191;   -0,955
556,151;12051,474;    1,191;   -0,227
556,733;12252,584;   -0,264;   -0,864
557,315;12705,025;    0,100;    0,500
557,897;12541,240;    0,554;   -0,500
558,479;12680,236;   -1,991;    1,318
559,061;12880,434;   -0,719;   -0,864
559,643;13249,159;   -0,264;    0,045
560,225;13568,005;    1,645;    2,864
560,807;13620,704;    0,918;    0,318
561,389;13187,227;    0,554;    2,318
561,971;13841,762;    0,463;    2,136
562,553;13757,536;   -1,628;    1,591
563,135;13951,605;   -0,537;    1,136
563,717;13598,230;    3,372;    1,136
564,298;14178,019;    3,645;   -0,045
564,880;13983,273;    0,645;   -1,409
565,462;14119,001;    0,645;    1,318
566,043;15150,509;   -0,446;    2,318
566,625;14774,614;    1,918;    1,227
567,207;14647,624;    1,099;    1,682
567,788;15589,460;   -1,264;    1,500
568,370;16308,705;    1,917;   -0,500
568,951;16102,514;    0,190;    0,227
569,533;16843,864;   -0,628;   -0,500
570,114;17262,130;   -0,446;    0,682
570,695;17690,378;   -0,174;   -1,318
571,277;18015,566;   -0,265;   -1,682
571,858;18737,919;    2,008;   -1,136
572,439;19415,084;    1,554;   -1,045
573,021;19569,607;    2,099;   -2,773
573,602;19991,070;   -1,265;    0,318
574,183;20784,672;   -2,083;    2,227
574,764;20820,782;   -1,629;    0,409
575,345;21266,530;    0,917;   -0,136
575,926;21730,259;   -0,356;    0,136
576,507;21716,903;    1,099;   -0,227
577,088;22812,241;    3,099;    1,682
577,669;22788,937;    0,735;    1,955
578,250;23519,127;    0,644;   -1,045
578,831;24026,150;   -1,356;   -2,227
579,412;24157,519;   -0,810;    0,955
579,993;24945,723;    1,008;    0,227
580,573;25254,824;   -0,629;   -0,955
581,154;24310,766;    0,735;   -0,591
581,735;25217,563;    0,644;    0,773
582,315;24753,836;   -0,629;    2,136
582,896;24943,145;   -0,174;    1,227
583,477;24446,976;    0,189;    1,227
584,057;24644,424;    0,553;    0,955
584,638;24987,541;    2,553;    2,318
585,218;25055,635;   -0,538;    2,682
585,799;25187,869;    0,281;   -0,227
586,379;25217,786;    0,372;    1,591
586,959;24165,178;    0,735;    0,318
587,540;23542,026;   -0,629;    2,227
588,120;23214,188;    1,007;   -0,045
588,700;22444,459;    2,553;    2,136
589,281;22818,046;    0,462;   -0,955
589,861;22793,620;    0,099;   -1,682
590,441;22604,017;    2,371;   -2,682
591,021;21677,555;   -0,265;   -2,591
591,601;21960,278;   -0,537;    0,500
592,181;22092,453;   -0,719;   -0,773
592,761;21416,083;    0,007;    1,409
593,341;21421,803;   -0,901;    0,045
593,921;21424,579;   -0,265;    1,591
594,501;21356,930;   -0,538;    1,318
595,081;21225,816;    0,917;   -0,318
595,661;21617,902;   -1,447;    0,955
596,240;22076,212;   -0,537;    0,136
596,820;21741,788;    0,372;    1,955
597,400;21816,153;    2,008;    0,773
597,980;22045,718;    2,008;    1,045
598,559;22086,833;    2,735;   -0,227
599,139;21857,564;   -0,174;   -1,227
599,718;21748,564;   -0,174;   -0,409
600,298;22040,404;    0,735;    0,682
600,877;22328,674;    2,917;    1,409
601,457;22558,523;    2,281;    1,136
602,036;22485,383;    0,190;    2,045
602,616;22615,551;    0,644;    1,682
603,195;22963,265;   -0,355;    3,500
603,774;22516,152;   -0,901;    2,045
604,354;22410,006;    0,826;   -0,500
604,933;22010,594;    0,463;    1,864
605,512;22105,573;    3,554;    0,591
606,091;22187,706;   -0,537;    3,773
606,671;22942,210;    0,281;    0,773
607,250;22210,999;    1,644;    3,136
607,829;22382,790;    2,372;    3,227
608,408;22224,982;    1,190;    2,591
608,987;21374,345;    1,281;    3,409
609,566;21672,160;   -1,265;   -2,500
610,145;21822,534;   -1,082;    0,682
610,723;22190,591;    4,372;    6,864
611,302;21511,295;   -0,446;    1,682
611,881;21094,359;    5,008;   11,227
612,460;21871,108;    1,645;    3,955
613,039;22240,972;   -0,082;    2,045
613,617;21034,303;    1,736;    4,773
614,196;21234,406;    1,099;    1,227
614,775;21660,521;    1,009;    2,409
615,353;21547,111;    0,736;    0,864
615,932;21394,223;    0,100;    2,409
616,510;21979,717;    0,554;    0,591
617,089;21503,700;    7,100;   17,591
617,667;21302,482;    2,372;    6,136
618,246;21189,955;   -1,537;    1,318
618,824;21332,871;   -3,355;   -0,955
619,402;20912,948;   -2,900;   -1,773
619,981;21416,320;   -0,173;   -1,045
620,559;21260,698;    0,009;    1,682
621,137;20835,494;   -0,718;    1,864
621,715;20853,916;   -1,173;   -0,682
622,293;20792,847;   -0,537;   -0,773
622,871;21243,116;   -0,718;    0,500
623,450;20876,271;    0,373;   -0,864
624,028;20790,284;    0,191;   -0,955
624,606;20461,289;   -1,718;    1,682
625,183;20758,377;   -1,536;   -1,136
625,761;20477,937;    1,009;    1,136
626,339;20847,190;    1,373;    2,591
626,917;21155,881;   -0,172;   -0,045
627,495;21180,498;   -0,354;    1,318
628,073;20680,925;   -0,263;    2,864
628,650;20426,458;    0,100;    2,136
629,228;20780,173;    0,373;    4,409
629,806;20257,156;    2,282;    1,136
630,383;20479,834;    1,464;   -0,318
630,961;20346,636;    2,555;   -0,955
631,539;20089,928;    2,464;    0,227
632,116;19592,272;   11,373;   15,409
632,694;20107,895;    2,555;    6,500
633,271;20347,025;    0,828;    2,682
633,848;20347,366;    1,828;    2,045
634,426;20313,055;   -1,081;    1,773
635,003;19505,283;    1,101;   -0,409
635,580;19855,433;    1,192;    3,682
636,158;20366,180;    3,737;    1,227
636,735;20323,232;    0,555;   -0,500
637,312;20432,722;   -0,809;   -0,682
637,889;20522,012;   -4,354;   -0,682
638,466;20127,339;   -3,990;   -0,409
639,043;20118,606;    2,101;   -1,136
639,620;20333,050;   -2,262;   -0,955
640,197;20632,897;    1,100;    1,682
640,774;20739,997;   -0,172;    1,136
641,351;21122,278;    0,737;    1,136
641,928;20660,742;   -0,627;    1,409
642,505;20382,478;    0,828;   -0,500
643,082;20526,032;   -1,718;    1,227
643,658;19571,768;   -0,718;    1,500
644,235;20226,867;    1,191;    2,500
644,812;20527,058;    1,918;    0,773
645,388;20300,067;   -0,991;    1,409
645,965;20337,803;   -0,809;    1,682
646,542;20434,084;   -1,445;   -0,227
647,118;20476,093;    1,009;   -0,955
647,695;20715,556;   -0,263;    1,136
648,271;20627,565;   -0,536;    0,500
648,848;20891,391;    0,736;    2,227
649,424;20782,309;    0,827;    1,318
650,000;20465,409;   -0,354;   -1,045
650,577;20346,690;   -0,627;   -0,955
651,153;20777,608;   -1,809;    0,955
651,729;21642,890;    1,191;    0,864
652,305;22156,353;    0,645;    2,773
652,881;26593,271;   -0,082;    1,136
653,458;32102,825;    1,100;    0,227
654,034;34541,561;    0,282;    1,591
654,610;35414,478;    0,554;    0,773
655,186;36584,760;    0,645;    3,045
655,762;36315,041;   -0,991;    0,409
656,338;36259,868;    0,100;    0,136
656,913;37177,059;   -0,082;    0,409
657,489;36453,249;    0,827;   -0,318
658,065;36595,712;   -0,173;   -1,591
658,641;37234,358;   -0,900;   -0,864
659,217;36546,003;   -0,991;    0,409
659,792;36074,193;    0,645;   -0,409
660,368;36310,111;   -2,173;   -0,682
660,944;35858,847;   -2,082;    1,227
661,519;31237,946;   -0,628;    0,409
662,095;26285,682;   -1,719;    0,591
662,670;22996,418;    1,281;   -0,136
663,246;22407,154;    1,009;   -0,409
663,821;21987,981;    0,281;    1,682
664,396;21483,263;    0,009;    1,864
664,972;21777,090;    0,009;   -0,500
665,547;22031,189;    1,372;    0,136
666,122;22099,107;   -1,082;    0,318
666,698;22287,934;   -0,173;    0,318
667,273;21626,670;   -0,173;    0,136
667,848;22411,042;    2,372;    1,500
668,423;22236,233;    2,190;    2,318
668,998;22688,332;    2,827;   -0,682
669,573;23211,432;   -3,264;   -1,500
670,148;23051,259;   -1,446;   -0,682
670,723;22844,086;   -1,810;    0,318
671,298;23243,731;    2,372;    1,045
671,873;23328,921;   -0,082;   -0,136
672,448;23266,021;    0,645;    0,136
673,023;23552,393;   -1,992;   -0,227
673,597;23854,856;    0,827;    2,318
674,172;23702,774;   -0,355;    0,318
674,747;23165,056;    0,372;   -1,045
675,321;22939,064;   -0,628;    3,318
675,896;22579,891;    0,645;    1,045
676,471;23471,082;    2,645;    1,591
677,045;23261,636;   -1,264;    0,682
677,620;23288,281;    0,190;    1,136
678,194;23573,835;   -2,628;    1,136
678,769;23232,207;   -1,083;   -0,318
679,343;23506,034;   -0,628;    1,773
679,917;23353,407;   -1,446;    1,955
680,492;23409,143;    0,826;    3,227
681,066;23532,697;    3,372;    0,409
681,640;23565,342;    1,463;   -0,318
682,214;24353,532;    0,735;    0,500
682,788;23925,632;   -1,356;   -0,773
683,363;23838,095;   -1,810;    1,682
683,937;23570,286;   -1,719;   -0,318
684,511;24209,749;    0,463;   -0,591
685,085;23929,030;   -1,356;    0,318
685,659;23682,948;   -2,538;    0,864
686,232;24003,048;   -0,356;   -0,318
686,806;23733,784;   -0,901;    0,409
687,380;24268,520;   -0,174;    0,591
687,954;24501,801;   -1,174;    1,136
688,528;24200,355;   -0,719;    1,955
689,101;24875,727;   -3,992;    1,045
689,675;24478,463;   -0,356;   -0,136
690,249;23925,472;   -0,719;    0,409
690,822;24247,572;    0,280;    0,318
691,396;24364,035;   -0,265;    1,227
691,969;23877,316;    1,280;    0,136
692,543;24290,871;   -0,447;   -1,955
693,116;23942,334;   -0,265;   -1,409
693,690;23819,252;    0,099;    0,500
694,263;24396,169;   -1,083;    2,955
694,836;24420,996;    1,371;    3,591
695,410;23189,914;   -0,265;    1,773
695,983;23572,286;    0,189;    0,591
696,556;23557,295;   -0,447;   -1,045
697,129;23911,577;   -0,356;    1,409
697,703;23601,858;   -1,629;    1,955
698,276;23589,412;    1,462;   -0,773
698,849;23425,148;    1,280;    1,409
699,422;23779,975;   -1,083;    0,591
699,995;23526,620;    0,007;    0,136
700,568;24028,083;   -0,629;    3,045
701,140;24029,274;   -2,811;    1,682
701,713;23790,919;   -0,174;    2,409
702,286;23505,291;   -0,538;    0,864
702,859;23396,573;   -0,902;   -0,591
703,432;22674,945;    0,825;    0,682
704,004;23105,317;    0,462;    0,318
704,577;22962,962;   -0,629;    0,136
705,150;23494,880;    0,189;    2,500
705,722;23277,616;   -0,356;   -3,227
706,295;23132,079;   -0,175;   -0,591
706,867;23045,997;   -0,175;    1,955
707,440;23196,278;   -1,720;   -0,409
708,012;23490,287;    0,462;    0,591
708,584;23377,478;    2,462;    0,227
709,157;23606,577;    1,825;   -0,591
709,729;23284,131;    2,280;    2,045
710,301;24039,231;    0,734;    0,045
710,874;24079,694;   -1,447;   -0,227
711,446;23052,885;    0,371;    0,864
712,018;22842,621;    0,098;    0,500
712,590;22644,720;   -1,993;    1,682
713,162;23222,638;    0,825;    1,318
713,734;23424,101;    1,825;   -2,045
714,306;23351,656;   -1,902;   -0,409
714,878;22093,573;    0,825;    0,864
715,450;22898,400;    0,643;    0,864
716,022;23149,954;    1,552;    1,318
716,593;23264,872;    0,189;    0,591
717,165;23179,154;   -3,175;   -1,227
717,737;22967,708;    0,280;    0,409
718,309;22680,807;    0,280;   -0,045
718,880;22602,452;   -0,539;   -1,409
719,452;22785,825;   -0,175;   -1,591
720,024;22515,288;    0,734;   -0,591
720,595;22988,024;   -2,902;    0,955
721,167;22551,305;    0,370;   -2,045
721,738;22168,314;   -0,812;   -1,045
722,309;22264,232;   -0,993;   -1,227
722,881;22025,968;   -1,357;    0,773
723,452;22547,249;   -2,630;    2,864
724,023;22738,440;   -0,721;    2,682
724,595;22510,721;    0,007;    0,682
725,166;22215,548;    0,007;   -0,409
725,737;21963,920;    1,734;    0,227
726,308;22069,747;   -0,266;    0,318
726,879;22468,483;   -1,630;    1,227
727,450;22309,583;    0,552;   -0,045
728,021;22237,592;    3,097;    0,682
728,592;22066,328;    0,734;    0,500
729,163;22445,609;    0,643;   -0,136
729,734;22443,981;    0,188;   -0,227
730,305;22768,081;    1,734;    0,136
730,876;23086,908;    0,188;    2,955
731,447;22847,371;    2,188;    2,682
732,017;22931,471;    1,097;    1,864
732,588;22434,297;    0,734;    1,227
733,159;22641,124;    0,643;   -1,045
733,729;22401,860;    0,006;    0,409
734,300;21801,869;    0,915;    0,864
734,870;22142,969;    3,461;    0,591
735,441;22690,796;    0,370;   -0,591
736,011;22480,895;    0,643;   -1,591
736,582;22419,631;   -0,812;    0,045
737,152;21869,185;   -1,721;   -2,045
737,722;22351,285;   -0,267;   -0,682
738,293;22034,384;   -1,358;    1,318
738,863;22001,211;    2,461;    2,318
739,433;21847,311;    5,279;    0,318
740,003;22405,774;   -0,994;   -0,682
740,573;21860,237;    2,097;   -1,591
741,143;21867,882;   -1,085;    0,318
741,713;22528,618;    1,188;   -0,500
742,283;22263,173;    0,915;    1,591
742,853;22086,181;    1,915;    1,591
743,423;21554,463;    1,733;    0,045
743,993;21633,199;   -0,358;    1,500
744,563;21109,389;    0,097;   -0,864
745,133;21103,489;   -0,812;   -0,864
745,702;21730,043;   -0,267;    1,773
746,272;20966,233;   -0,176;    0,591
746,842;20820,060;   -1,358;   -0,591
747,411;21222,342;   -0,267;   -0,318
747,981;21349,987;    0,097;    0,500
748,551;21344,905;    2,278;   -1,045
749,120;21229,641;    0,642;   -0,227
749,690;21571,013;   -0,631;    2,409
750,259;21914,567;    1,369;    2,955
750,828;21825,212;    1,551;   -1,955
751,398;22051,494;    1,278;   -0,045
751,967;21702,957;    2,187;    0,409
752,536;21811,875;   -0,813;   -0,227
753,105;22204,520;    0,096;    0,227
753,675;21999,165;    0,096;    1,773
754,244;21913,082;   -0,904;    3,591
754,813;21988,182;    0,551;    1,227
755,382;21582,464;    0,460;    0,955
755,951;22091,745;    1,551;    3,682
756,520;21692,208;   -0,085;    1,864
757,089;22205,671;    0,278;    0,500
757,658;22309,589;    1,733;    1,227
758,227;22318,598;    1,096;    0,318
758,795;22557,879;    1,187;    1,136
759,364;22818,797;   -0,086;   -0,591
759,933;21915,169;   -1,176;   -0,045
760,501;21387,360;    0,733;   -1,318
761,070;21881,550;   -2,813;   -1,409
761,639;22550,196;   -1,904;    1,318
762,207;21982,204;    1,551;   -0,955
762,776;21882,940;    0,369;    0,864
763,344;21808,313;   -0,995;    0,591
763,913;20840,503;   -0,722;    1,409
764,481;21596,239;    1,005;   -0,136
765,049;21462,339;   -1,358;    1,409
765,618;21352,711;   -0,086;    0,318
766,186;21435,811;    0,278;    0,136
766,754;21618,637;    0,005;    1,864
767,322;20773,919;   -1,995;    0,409
767,890;20738,837;   -0,722;   -1,773
768,459;21171,664;   -2,177;   -0,318
769,027;21339,036;    1,641;    3,409
769,595;20366,954;    3,278;    2,591
770,163;20722,962;    3,823;    2,955
770,730;20572,426;    0,732;   -0,136
771,298;20424,707;    0,187;   -1,409
771,866;20523,079;   -1,541;    4,955
772,434;20846,270;   -0,631;   -1,864
773,002;21007,369;    0,005;    0,682
773,569;20631,378;    0,914;    1,682
774,137;20497,296;   -0,268;   -0,045
774,705;21225,486;    0,278;   -0,136
775,272;20754,495;    0,641;    0,682
775,840;20568,958;   -0,177;    2,682
776,407;20140,785;    0,277;    1,955
776,975;19728,703;   -0,632;    0,318
777,542;20682,257;   -1,086;   -0,045
778,110;20545,720;   -1,268;   -0,045
778,677;20216,002;   -2,359;   -0,864
779,244;20032,647;    2,186;    1,045
779,812;20130,292;    1,823;    0,864
780,379;19979,755;    0,005;    1,136
780,946;20239,037;    1,005;   -0,773
781,513;20492,954;   -1,450;    0,318
782,080;19907,690;   -0,086;    2,864
782,647;20604,426;   -0,268;    3,045
783,214;20249,162;   -0,177;    3,864
783,781;19943,171;   -0,723;   -0,682
784,348;19775,816;   -0,632;    1,500
784,915;20155,188;   -3,177;    0,318
785,482;19976,106;    1,368;    2,591
786,049;20359,660;    0,186;   -0,591
786,615;20485,305;    0,277;   -0,955
787,182;20230,496;    0,186;   -0,682
787,749;19943,686;   -2,814;    1,409
788,315;19354,150;   -1,632;   -0,409
788,882;19639,158;    1,550;   -1,227
789,448;20337,258;    1,732;   -0,955
790,015;20345,721;    1,095;    3,227
790,581;19914,457;    1,459;    0,227
791,148;19804,284;    0,641;    1,045
791,714;19964,384;   -0,541;    3,136
792,280;19695,756;    0,186;    1,591
792,847;19341,401;    0,550;    2,500
793,413;19790,773;   -0,269;   -0,318
793,979;19425,964;    3,459;   -1,318
794,545;19555,609;    4,459;    2,682
795,111;18982,709;    2,186;    1,318
795,678;19127,808;    0,731;   -1,682
796,244;18839,453;    3,368;    0,136
796,810;19326,280;    1,731;    0,773
797,375;19083,743;    0,549;   -2,136
797,941;19094,661;   -0,541;    0,591
798,507;19217,761;   -0,451;   -0,955
799,073;18757,951;   -0,360;    0,591
799,639;18825,869;   -2,632;    3,136
800,205;18909,151;    0,095;    2,682
800,770;18472,796;    0,640;    1,773
801,336;18531,259;    1,368;   -0,955
801,901;18368,268;    4,549;    3,136
802,467;18886,822;   -0,542;    2,045
803,033;18200,558;   -0,087;    0,864
803,598;18432,385;    1,913;   -1,045
804,163;18477,757;    1,095;   -0,318
804,729;18432,129;   -0,178;    1,136
805,294;18764,592;    0,822;    2,227
805,859;18579,328;    0,731;   -0,409
806,425;18159,883;    1,186;    2,682
806,990;17845,528;    2,186;    4,318
807,555;18194,264;   -1,451;    2,591
808,120;18147,636;    0,822;   -0,409
808,685;18147,190;    0,185;   -2,500
809,250;17717,926;    0,004;   -0,500
809,815;17955,298;    1,913;    0,682
810,380;18496,398;   -0,269;    1,591
810,945;18977,861;   -1,087;    2,045
811,510;18188,870;    2,094;    1,591
812,075;17973,788;   -0,633;   -1,409
812,640;18033,978;    2,003;    1,409
813,204;18059,896;    0,822;   -0,227
813,769;18530,177;    2,094;   -0,045
814,334;18015,004;    0,458;    0,864
814,898;18045,104;    0,367;    0,591
815,463;17906,203;    1,276;   -0,773
816,027;17885,394;   -0,724;   -2,318
816,592;18031,585;    0,640;   -2,045
817,156;17636,866;    2,094;    1,136
817,721;17546,511;    4,276;    2,318
818,285;17461,611;    2,912;    1,500
818,849;18021,619;   -1,451;    1,682
819,414;17886,083;   -0,269;    2,955
819,978;17515,182;   -1,269;    1,773
820,542;18051,009;    2,003;    0,500
821,106;17809,745;   -0,815;    0,682
821,670;17939,299;   -0,815;    2,591
822,234;17661,671;   -0,270;    1,409
822,798;17077,953;    0,003;    0,500
823,362;17086,598;   -0,633;    4,227
823,926;16477,425;    0,094;    1,136
824,490;16712,524;   -0,997;   -0,682
825,054;17164,260;   -0,088;   -1,136
825,618;16821,360;   -1,542;   -1,500
826,181;16807,823;    0,458;   -1,318
826,745;16718,014;    1,367;   -1,045
827,309;17055,568;    1,185;    1,318
827,872;16536,031;    1,367;    0,955
828,436;17394,949;    1,185;   -0,773
828,999;17464,776;   -0,997;    1,227
829,563;16418,239;   -0,179;    1,136
830,126;16218,611;   -0,179;   -0,591
830,690;16263,347;   -1,997;    2,864
831,253;15801,902;   -0,543;    2,227
831,816;15950,547;   -1,906;    0,500
832,380;15934,464;    0,185;    0,864
832,943;16167,837;   -1,361;   -0,500
833,506;15652,027;    2,639;   -1,227
834,069;16379,672;    3,912;   -0,955
834,632;16466,408;    1,730;    1,318
835,195;16367,871;    1,003;    0,955
835,758;15616,244;   -0,997;    1,955
836,321;15488,253;    0,730;   -1,045
836,884;15562,716;   -0,725;   -0,955
837,447;15586,361;   -2,816;    1,773
838,010;15838,460;    0,366;    3,227
838,573;16130,833;   -1,179;    0,773
839,135;16137,569;   -1,361;   -0,955
839,698;15640,487;    1,275;    0,409
840,261;15149,222;    1,003;   -0,227
840,823;14972,049;   -0,543;    0,864
841,386;15251,422;   -0,452;   -2,409
841,948;15195,339;   -1,361;    1,773
842,511;14972,894;    0,912;    1,682
843,073;15135,721;    1,912;    0,227
843,636;14918,456;   -0,361;   -0,227
844,198;14883,829;    0,911;    0,591
844,760;15032,383;    1,093;    1,955
845,322;14660,210;    0,548;    1,136
845,885;15026,764;    0,730;    0,591
846,447;15447,136;   -1,998;    0,227
847,009;15142,418;    1,911;   -0,682
847,571;15367,154;    0,820;   -2,045
848,133;15457,799;   -1,089;   -1,864
848,695;15291,262;   -0,543;    1,409
849,257;14916,362;   -1,089;   -1,682
849,819;15069,370;   -0,998;   -0,409
850,381;15094,743;   -0,725;   -0,864
850,942;15393,660;    1,093;   -0,591
851,504;15383,033;    1,184;    0,227
852,066;15391,405;    1,275;   -1,591
852,628;14994,959;   -0,180;    1,955
853,189;14544,604;    1,638;    2,682
853,751;14672,977;   -0,907;    1,409
854,312;14506,894;   -0,453;   -1,682
854,874;14981,630;   -2,089;   -0,773
855,435;15418,185;   -0,907;   -1,682
855,997;15604,557;   -1,816;   -0,136
856,558;14952,020;    0,366;    1,773
857,119;15039,665;    0,820;    2,864
857,681;14700,219;    0,002;    0,318
858,242;14796,773;    1,911;   -2,136
858,803;15202,146;    0,456;   -0,773
859,364;15747,791;    0,184;   -4,773
859,925;15154,254;   -2,453;   -0,955
860,486;14984,445;   -0,453;   -0,955
861,047;14732,181;   -0,544;   -1,227
861,608;14641,007;   -1,089;   -0,773
862,169;14739,562;    0,638;   -0,045
862,730;14483,661;    0,456;    1,409
863,291;14709,034;   -0,635;   -0,500
863,852;15060,860;   -0,635;    1,955
864,412;14569,324;   -0,271;   -0,864
864,973;13297,332;   -0,089;    0,500
865,534;13218,705;   -1,726;    0,227
866,094;14548,168;    1,820;    0,227
866,655;14261,358;    1,274;    3,318
867,215;14491,731;    0,274;    0,136
867,776;14331,285;    0,547;   -0,136
868,336;14431,748;   -1,453;    0,136
868,897;14034,848;    2,638;    1,682
869,457;13780,856;    1,365;    0,318
870,017;13976,956;    0,547;   -1,227
870,578;14463,783;   -0,817;    0,773
871,138;14146,701;   -2,089;   -0,955
871,698;13703,346;   -0,817;   -1,318
872,258;13626,264;   -0,453;   -2,864
872,818;14020,818;    2,729;    0,045
873,378;13982,008;    0,638;    1,045
873,938;13526,290;    0,547;    0,500
874,498;13820,662;    0,274;   -1,955
875,058;13731,216;    2,183;    1,773
875,618;13593,770;    1,910;   -2,682
876,177;13538,688;    1,274;    0,136
876,737;13207,879;   -0,090;    1,955
877,297;13286,160;    0,183;    1,955
877,856;13299,078;   -0,362;    0,318
878,416;13246,723;    1,183;   -0,136
878,976;13440,459;   -1,817;    0,409
879,535;13551,104;    0,092;    3,136
880,095;13376,658;   -0,544;    0,045
880,654;13516,485;   -1,090;    1,318
881,213;13657,312;    2,456;    1,500
881,773;13264,957;    2,637;    2,682
882,332;13660,875;    3,365;    5,136
882,891;13498,429;    3,092;    2,136
883,451;13890,892;   -1,272;    1,682
884,010;13347,264;   -2,908;   -0,409
884,569;13438,909;   -0,999;   -0,045
885,128;13584,191;    2,819;   -1,864
885,687;13683,654;    4,455;    0,682
886,246;13455,754;    1,455;    2,136
886,805;13170,853;    2,455;    2,045
887,364;13354,771;   -0,999;   -0,500
887,922;13700,053;   -1,181;    0,045
888,481;13261,061;   -1,545;    0,591
889,040;13572,070;    1,183;    2,136
889,599;14131,079;    2,455;    1,409
890,157;14182,360;    1,455;    2,409
890,716;13821,914;   -0,090;    0,227
891,274;13665,287;    0,092;   -1,136
891,833;14043,386;    1,546;    0,864
892,391;13927,668;   -0,454;    0,500
892,950;14030,131;    1,819;   -0,773
893,508;14341,412;    0,455;   -0,409
894,067;13669,148;    0,637;    0,136
894,625;13601,611;   -0,636;   -1,500
895,183;13812,166;   -0,363;   -0,682
895,741;13742,265;    1,728;   -1,773
896,299;13569,819;   -0,545;   -2,409
896,858;13758,919;    0,819;   -1,591
897,416;13906,928;    2,728;   -1,318
897,974;13671,573;    1,819;    0,318
898,532;13885,036;    6,091;    2,682
899,089;13735,954;    2,091;   -0,682
899,647;13756,508;   -1,454;    1,318
900,205;13611,426;    1,182;    1,045
900,763;13749,253;   -0,454;    0,227
901,321;13742,170;    2,364;   -1,409
901,878;13175,724;   -1,000;   -0,773
902,436;13096,733;   -1,363;    1,318
902,994;13569,924;    4,728;    3,682
903,551;13040,660;    0,728;    0,409
904,109;13380,668;    0,182;   -1,409
904,666;12987,950;    2,455;    1,045
905,224;12814,777;    0,182;   -0,409
905,781;12668,149;    0,727;   -0,318
906,338;12723,430;   -1,363;    1,045
906,895;12635,621;    0,637;    2,045
907,453;12603,630;    1,727;    1,136
908,010;12628,457;   -0,909;    0,409
908,567;12313,374;    1,273;    0,591
909,124;11830,656;    0,364;   -1,500
909,681;11918,210;   -2,909;    0,682
910,238;12072,946;    0,636;   -1,318
910,795;12372,500;   -0,273;   -1,136
911,352;12055,591;   -2,909;   -2,682
911,909;11526,045;   -1,364;   -0,864
912,466;12005,682;   -3,182;    1,500
913,022;11574,864;   -1,636;    0,500
913,579;11934,955;   -0,909;    2,045
914,136;11651,409;    1,636;    0,955
914,692;12005,682;    0,091;   -1,227
915,249;11624,591;    1,455;    0,409
915,806;11830,955;    0,182;    1,955
916,362;11652,136;    1,909;    1,864
916,918;11209,591;    2,000;    1,045
917,475;11249,045;   -1,182;    0,955
918,031;11286,227;    3,364;   -0,045
918,587;10823,682;   -0,909;   -0,318
919,144;11032,045;   -2,273;    0,227
919,700;11288,045;    1,727;    0,773
920,256;10879,136;    0,727;    0,045
920,812;10587,136;   -0,727;   -1,045
921,368;10629,682;   -1,727;   -1,045
921,924;10304,227;    0,182;   -0,136
922,480; 9917,136;   -0,545;    1,227
923,036;10525,955;    1,273;    1,955
923,592;10489,682;    0,455;    0,318
924,148;10424,045;    0,455;   -0,955
924,704; 9829,591;   -1,364;   -0,409
925,259;10092,227;   -0,273;    0,591
925,815; 9905,227;    1,455;    0,500
926,371; 9440,136;    2,909;    1,409
926,926; 9365,136;    2,091;    0,591
927,482; 9042,955;   -1,364;    0,773
928,037; 8936,591;    0,909;    2,045
928,593; 9290,773;    1,636;    1,045
929,148; 9101,773;   -1,818;   -1,500
929,704; 8644,500;   -1,455;   -0,500
930,259; 8843,864;    0,091;   -0,136
930,814; 8058,864;   -0,818;    1,955
931,369; 7786,227;    1,091;   -0,773
931,925; 7660,682;   -0,091;    0,136
932,480; 7600,955;   -2,818;   -2,591
933,035; 7600,591;    0,545;   -0,318
933,590; 7404,682;    0,364;   -1,773
934,145; 7071,591;   -1,364;   -0,318
934,700; 7374,955;    0,455;   -0,591
935,255; 7226,045;   -0,091;    0,045
935,809; 6661,955;    3,182;    0,864
936,364; 5894,045;   -0,455;   -0,136
936,919; 5916,227;    0,455;   -1,773
937,474; 5814,864;    1,455;    0,136
938,028; 5623,045;   -1,636;    1,136
938,583; 5245,136;    1,818;    4,682
939,138; 5433,773;    2,091;    2,136
939,692; 4956,955;    1,636;   -1,136
940,247; 4730,318;   -0,727;   -1,045
940,801; 4429,773;   -0,636;    0,227
941,355; 4324,682;   -0,364;    2,591
941,910; 4008,227;   -0,273;   -2,136
942,464; 4123,955;   -0,818;   -0,318
943,018; 4018,682;    1,000;   -0,227
943,572; 3943,500;    2,545;   -0,682
944,126; 3492,682;    0,091;   -0,409
944,681; 3391,864;    3,091;    0,227
945,235; 3355,045;    1,000;   -0,591
945,789; 3297,591;    0,364;   -1,864
946,342; 3481,318;    0,455;   -0,591
946,896; 3242,682;   -2,273;    0,955
947,450; 3026,955;    1,545;   -0,227
948,004; 3289,682;    1,727;   -0,045
948,558; 3227,864;    0,273;   -0,864
949,111; 3169,227;   -0,273;   -0,318
949,665; 3284,045;    1,636;   -0,682
950,219; 3156,955;   -0,091;   -1,045
950,772; 3178,955;   -1,909;    1,864
951,326; 3116,409;    0,545;   -0,955
951,879; 3165,045;    0,727;   -2,318
952,433; 3217,500;    0,000;    2,227
952,986; 3051,500;    2,909;    0,682
953,539; 3018,500;   -0,273;    0,591
954,093; 2929,136;    0,545;   -1,318
954,646; 3091,500;    0,909;    1,318
955,199; 2914,773;    0,000;   -0,500
955,752; 2867,682;   -0,455;    1,773
956,305; 2786,864;   -0,091;    2,955
956,858; 2926,318;    0,818;   -0,318
957,411; 3102,682;   -0,545;    2,136
957,964; 2946,136;    1,364;    2,136
958,517; 2905,591;   -1,545;    3,136
959,070; 2775,045;   -0,455;    1,955
959,623; 2923,045;    1,091;    1,500
960,176; 2696,773;    1,727;    2,045
960,728; 2688,227;   -2,727;    0,773
961,281; 2738,682;    0,545;    0,500
961,834; 2750,318;   -0,909;    0,864
962,386; 2667,227;    1,727;    1,045
962,939; 2607,500;    0,364;   -0,318
963,491; 2719,773;    0,455;    1,136
964,043; 2619,045;    1,182;    2,409
964,596; 2735,591;   -1,000;    2,227
965,148; 2586,591;   -1,000;    1,773
965,700; 2510,864;    1,091;   -0,227
966,253; 2680,409;   -0,636;    0,318
966,805; 2541,318;   -2,273;    0,773
967,357; 2552,682;    1,091;   -1,500
967,909; 2555,045;    0,455;   -1,227
968,461; 2603,591;    0,545;    3,136
969,013; 2530,500;   -0,182;   -0,864
969,565; 2632,682;   -0,455;   -1,136
970,117; 2785,045;   -0,364;    1,045
970,669; 2555,045;    0,182;   -0,136
971,220; 2382,318;   -0,455;   -1,500
971,772; 2351,500;   -0,636;   -0,318
972,324; 2473,773;    0,091;   -0,500
972,876; 2395,227;    0,818;   -0,045
973,427; 2567,591;    1,909;   -1,045
973,979; 2558,318;   -0,727;   -2,500
974,530; 2518,318;    1,818;    1,318
975,082; 2525,500;   -0,545;    1,682
975,633; 2440,045;    1,091;    1,682
976,184; 2581,500;    0,909;    0,773
976,736; 2422,955;    0,091;    0,227
977,287; 2269,500;   -0,909;   -0,500
977,838; 2392,318;    0,909;   -0,318
978,389; 2444,591;   -1,000;   -0,500
978,940; 2307,409;    0,545;   -0,409
979,491; 2321,227;    0,091;   -0,500
980,042; 2327,955;    0,182;    3,045
980,593; 2350,409;   -2,545;    0,227
981,144; 2426,409;    2,545;   -0,500
981,695; 2441,682;    1,455;    1,500
982,246; 2373,864;   -0,273;    1,045
982,797; 2480,500;   -1,727;    0,682
983,347; 2606,318;    0,364;    0,591
983,898; 2785,136;    3,091;    0,409
984,449; 2628,682;    2,182;    0,773
984,999; 2480,682;    1,455;   -1,136
985,550; 2302,227;    0,182;   -0,318
986,100; 2286,864;   -0,455;   -0,318
986,651; 2314,500;   -0,818;    0,045
987,201; 2314,500;   -1,000;   -0,591
987,751; 2389,500;    0,818;    2,864
988,302; 2401,318;    2,636;    1,500
988,852; 2406,864;    0,455;   -1,136
989,402; 2489,409;    0,091;    0,682
989,952; 2414,864;   -2,182;    0,864
990,502; 2443,773;   -0,091;    0,682
991,052; 2389,136;   -0,727;    0,045
991,602; 2283,500;   -2,909;    1,318
992,152; 2312,500;    0,455;    0,682
992,702; 2309,409;    1,364;   -0,045
993,252; 2232,500;   -3,000;   -0,500
993,802; 2329,318;   -0,273;    1,318
994,352; 2517,591;   -1,545;    1,136
994,901; 2531,864;   -0,182;    3,227
995,451; 2462,409;   -0,182;    0,318
996,000; 2545,045;    1,636;    0,318
996,550; 2317,864;    2,273;    0,227
997,100; 2322,227;    1,273;   -0,045
997,649; 2596,773;    2,182;    0,955
998,198; 2261,318;    1,727;   -1,500
998,748; 2477,682;    1,091;   -2,318
999,297; 2344,136;   -0,818;   -0,409
999,846; 2433,955;    1,000;   -0,773
1000,395; 2446,409;   -0,818;    0,500
1000,945; 2491,682;    1,818;   -0,773
1001,494; 2541,045;    2,364;    0,682
1002,043; 2506,227;    4,636;    0,864
1002,592; 2315,682;   -1,091;    1,955
1003,141; 2460,227;   -0,455;   -0,682
1003,690; 2382,318;    1,727;    0,500
1004,238; 2410,136;    1,455;   -0,045
1004,787; 2088,227;    1,364;    1,227
1005,336; 2334,136;    0,364;    0,682
1005,885; 2416,227;    1,364;   -2,773
1006,433; 2511,955;    0,545;    0,955
1006,982; 2661,682;    0,455;    1,682
1007,531; 2523,591;   -1,818;   -0,227
1008,079; 2420,682;   -2,273;    0,500
1008,627; 2537,591;   -1,455;    0,409
1009,176; 2327,682;    0,000;   -1,955
1009,724; 2360,773;    1,091;    0,864
1010,273; 2470,045;    1,273;    0,500
1010,821; 2502,136;    0,091;    1,409
1011,369; 2261,318;   -1,364;    1,318
1011,917; 2262,409;   -1,364;   -0,591
1012,465; 2529,136;    1,273;   -1,591
1013,013; 2595,136;    2,091;   -1,682
1013,561; 2542,955;    0,455;   -0,773
1014,109; 2625,955;   -1,909;    1,682
1014,657; 2478,227;    0,364;    0,591
1015,205; 2542,409;    1,636;   -0,955
1015,753; 2542,955;   -0,545;   -1,409
1016,301; 2594,591;   -2,636;    3,045
1016,848; 2600,500;   -1,273;    0,409
1017,396; 2665,409;    2,545;    0,045
1017,944; 2766,864;    1,182;    1,864
1018,491; 2526,682;    0,273;    1,409
1019,039; 2781,409;    0,455;    0,591
1019,586; 2592,864;   -1,364;    1,682
1020,134; 2653,136;    0,455;    1,500
1020,681; 2706,864;    0,182;   -1,136
1021,228; 2650,136;    2,909;   -2,227
1021,776; 2510,591;    1,182;   -1,136
1022,323; 2786,682;    0,455;    0,773
1022,870; 2709,045;   -1,000;   -0,045
1023,417; 2632,500;    2,636;    1,864
1023,964; 2679,045;    2,636;    1,227
1024,511; 2578,500;    1,000;    0,773
1025,058; 2400,045;    3,182;   -0,045
1025,605; 2449,318;   -2,273;    3,136
1026,152; 2710,136;    1,727;   -0,591
1026,699; 2427,682;    1,818;    1,318
1027,245; 2544,136;   -0,091;    0,318
1027,792; 2702,955;   -1,000;    1,409
1028,339; 2666,864;    2,364;   -0,045
1028,885; 2512,682;    1,000;   -0,227
1029,432; 2460,409;   -0,091;    0,227
1029,978; 2551,227;   -1,000;   -1,591
1030,525; 2443,136;    1,000;    0,409
1031,071; 2596,409;   -1,364;    1,136
1031,618; 2792,136;    0,364;    1,682
1032,164; 2550,045;   -0,091;    3,045
1032,710; 2612,500;    1,636;   -1,500
1033,256; 2507,409;   -0,636;   -0,136
1033,803; 2452,136;   -0,545;    1,500
1034,349; 2209,955;   -1,364;    0,136
1034,895; 2342,955;    0,000;   -0,318
1035,441; 2322,136;   -0,818;    0,318
1035,987; 2345,773;   -2,364;   -0,682
1036,533; 2392,864;   -1,455;   -0,955
1037,078; 2613,318;    1,455;    1,682
1037,624; 2403,318;    2,455;   -0,955
1038,170; 2397,045;    0,455;   -0,318
1038,716; 2364,682;    1,636;   -0,409
1039,261; 2244,227;   -2,273;   -0,773
1039,807; 2190,955;   -0,091;    3,409
1040,352; 2274,045;   -1,909;   -0,318
1040,898; 2320,500;   -1,545;   -0,682
1041,443; 2201,864;   -1,455;   -2,591
1041,989; 2337,591;    1,091;    1,591
1042,534; 2161,318;   -0,364;    2,591
1043,079; 2210,500;    2,909;    0,955
1043,625; 2086,409;    1,818;    0,500
1044,170; 2136,682;   -1,364;    1,045
1044,715; 2406,500;    2,455;    0,955
1045,260; 2227,318;    2,182;   -0,955
1045,805; 2204,500;    1,182;   -0,591
1046,350; 2136,955;    1,364;   -0,409
1046,895; 2176,136;    2,909;    1,591
1047,440; 2154,955;    5,364;    0,409
1047,985; 2022,409;    2,818;   -0,955
1048,530; 1935,045;    1,545;    1,227
1049,074; 2019,409;    0,000;    0,318
1049,619; 1971,591;   -1,364;    1,955
1050,164; 1823,500;    0,455;    0,227
1050,708; 1872,227;   -0,455;    0,045
1051,253; 2268,227;    1,273;   -2,227
1051,797; 1972,682;    0,818;   -1,318
1052,342; 1913,955;   -1,182;    1,045
1052,886; 1951,318;    0,364;   -1,409
1053,430; 1799,227;   -1,364;    0,136
1053,975; 1841,045;   -0,818;   -0,318
1054,519; 1843,045;   -0,727;    3,227
1055,063; 1904,409;    0,909;    1,318
1055,607; 1792,136;   -0,182;    0,227
1056,151; 1820,318;    2,909;    1,682
1056,695; 1695,591;    2,273;   -1,136
1057,239; 1758,045;   -1,727;   -0,682
1057,783; 1791,864;    0,818;   -1,500
1058,327; 1770,318;    0,000;    1,409
1058,871; 2012,318;   -0,545;    1,318
1059,415; 1728,045;   -0,818;   -0,045
1059,958; 2027,318;    1,455;    2,591
1060,502; 1723,136;   -1,000;   -0,773
1061,046; 1589,227;    0,364;   -0,955
1061,589; 1556,409;   -3,000;   -1,136
1062,133; 1450,864;   -1,273;    1,864
1062,676; 1426,682;    1,182;    0,864
1063,220; 1458,045;    1,091;    0,500
1063,763; 1473,591;    0,909;    1,136
1064,306; 1564,136;   -0,909;    1,864
1064,849; 1481,318;   -0,909;    0,591
1065,393; 1468,409;    2,000;   -1,500
1065,936; 1538,409;    0,182;   -0,409
1066,479; 1403,773;   -1,455;    1,318
1067,022; 1444,227;   -0,273;   -0,227
1067,565; 1362,318;   -0,091;   -1,318
1068,108; 1371,682;    0,727;   -0,591
1068,651; 1329,864;   -0,636;    1,409
1069,194; 1273,773;   -0,455;   -1,682
1069,736; 1307,955;   -1,273;    0,955
1070,279; 1267,864;   -1,364;   -0,500
1070,822; 1355,045;   -2,000;   -0,318
1071,364; 1497,864;   -0,364;    1,318
1071,907; 1279,955;   -0,727;    3,227
1072,450; 1123,955;    0,000;   -0,045
1072,992; 1165,955;   -0,273;    3,136
1073,535; 1341,591;    2,091;    2,136
1074,077; 1124,773;   -0,727;    2,045
1074,619; 1107,227;   -1,364;    0,591
1075,161; 1150,682;   -1,091;    1,500
1075,704; 1338,864;    1,545;    1,227
1076,246; 1104,227;   -0,182;    0,682
1076,788; 1013,773;   -0,364;    1,773
1077,330; 1078,045;    1,273;    2,136
1077,872; 1086,682;    0,909;    0,955
1078,414; 1343,773;    2,727;    0,773
1078,956; 1075,955;    1,273;   -0,227
1079,498; 1353,045;    1,636;    0,318
1080,040; 1052,227;    1,909;   -1,318
1080,581;  977,591;    1,636;   -0,318
1081,123;  891,682;    0,091;   -0,773
1081,665;  939,682;   -1,182;   -0,955
1082,206; 1273,409;    1,364;   -0,500
1082,748; 1122,227;    0,727;    2,045
1083,289;  975,773;   -2,000;    1,318
1083,831;  921,773;   -0,545;    0,227
1084,372;  967,227;    0,000;    0,591
1084,913;  960,409;    1,091;    0,864
1085,455;  898,227;   -1,909;   -2,045
1085,996;  889,955;   -2,273;    0,136
1086,537;  935,864;   -0,091;    0,864
1087,078;  959,409;   -0,909;   -2,136
1087,619; 1022,227;   -1,273;    0,227
1088,160;  928,773;    0,000;    1,318
1088,701;  897,045;   -1,091;    0,682
1089,242;  836,955;    1,364;   -2,227
1089,783;  953,591;   -0,273;    1,409
1090,324;  935,409;    0,455;    0,682
1090,865;  808,591;    2,727;   -0,409
1091,405;  746,045;    0,727;    2,227
1091,946;  790,409;    0,182;   -0,955
1092,487;  707,864;    0,818;   -1,409
1093,027;  905,136;   -1,364;   -1,500
1093,568;  763,591;   -0,364;    1,227
1094,108;  866,227;    0,273;    1,773
1094,649;  789,682;   -1,182;    0,136
1095,189;  736,227;   -0,636;   -0,682
1095,729;  697,682;   -0,091;    0,955
1096,269;  676,500;    0,727;   -0,955
1096,810; 1004,136;   -1,364;    0,500
1097,350;  841,682;    1,364;   -0,773
1097,890;  745,591;    0,364;    1,227
1098,430; 1014,682;    2,364;    2,864
1098,970;  893,955;    2,182;    1,682
1099,510;  715,318;    0,545;   -2,318
1100,050;  662,136;    1,000;   -1,591
1100,589;  630,227;   -0,727;   -0,318
1101,129;  763,500;    0,818;   -0,955
1101,669;  934,409;    1,727;    2,136
1102,209;  752,318;   -0,091;    2,227
1102,748;  701,409;    0,000;    0,955
1103,288;  696,045;    1,273;   -1,227
1103,827;  722,955;    3,091;   -2,227
1104,367;  593,682;   -0,091;   -2,409
1104,906;  565,318;    1,364;   -1,136
1105,445;  647,864;    0,636;   -1,136
1105,985;  601,955;   -0,727;    1,500
1106,524;  648,955;   -1,727;   -0,682
1107,063;  618,591;   -2,727;    1,409
1107,602;  587,227;   -1,909;   -1,500
1108,141;  519,955;   -1,909;    1,500
1108,680;  634,045;   -3,455;   -0,591
1109,219;  557,591;   -0,909;   -0,500
1109,758;  555,864;    0,455;    0,682
1110,297;  526,955;    1,000;   -0,682
1110,836;  491,864;   -0,727;    0,955
1111,375;  653,773;   -2,545;    0,409
1111,913;  657,227;   -1,000;    0,773
1112,452;  590,136;   -0,273;    0,136
1112,991;  478,500;    1,091;    1,955
1113,529;  448,864;   -0,818;   -0,045
1114,068;  512,591;   -0,273;    2,955
1114,606;  412,773;   -0,364;   -0,955
1115,144;  588,136;   -1,273;    1,045
1115,683;  524,318;   -0,727;    0,318
1116,221;  575,773;   -0,455;   -0,864
1116,759;  478,591;    0,636;   -0,864
1117,297;  684,773;    0,000;    1,864
1117,836;  489,409;   -2,182;   -1,227
1118,374;  498,318;    0,182;   -0,682
1118,912;  446,864;    0,909;    2,682
1119,450;  441,864;    1,000;    0,864
1119,988;  481,227;    1,545;    2,136
1120,525;  938,682;    5,091;    3,318
1121,063;  642,409;    1,182;    1,864
1121,601;  459,773;   -0,909;   -1,227
1122,139;  410,500;   -0,727;   -2,045
1122,676;  614,773;   -0,727;    2,773
1123,214;  547,773;   -1,182;    4,409
1123,751;  353,409;    1,727;    2,227
1124,289;  486,500;   -0,091;   -0,409
1124,826;  362,318;    1,727;    0,227
1125,364;  273,409;    1,727;   -0,955
1125,901;  476,136;    1,182;    1,227
1126,438;  584,955;    0,818;    0,955
1126,975;  315,500;   -0,727;   -0,773
1127,513;  379,773;    0,273;    2,136
1128,050;  290,045;    1,636;   -0,682
1128,587;  384,773;    2,000;   -0,227
1129,124;  428,227;    0,091;    1,318
1129,661;  300,773;    0,273;    0,227
1130,198;  465,500;    1,636;    0,773
1130,734;  402,500;    0,182;    1,409
1131,271;  266,318;   -0,909;    0,864
1131,808;  441,591;    2,909;    3,045
1132,345;  320,773;    1,545;    0,318
1132,881;  193,318;   -1,545;   -1,864
1133,418;  339,318;    0,727;   -1,136
1133,954;  269,682;    2,455;   -2,682
1134,491;  353,591;    1,364;   -0,773
1135,027;  252,318;    2,364;    0,864
1135,564;  344,409;    0,273;    2,955
1136,100;  328,773;    0,364;    2,136
1136,636;  207,955;   -1,273;   -1,045
1137,172;  313,500;    0,000;   -1,045
1137,708;  242,864;   -1,364;   -1,045
1138,245;  237,318;    1,273;   -1,227
1138,781;  180,045;    1,091;   -3,318
1139,317;  254,773;    1,273;   -1,409
1139,852;  253,500;    3,091;    0,136
1140,388;  366,500;   -1,182;   -0,409
1140,924;  251,318;   -1,091;   -2,227
1141,460;  184,500;   -1,636;    0,136
1141,996;  131,227;   -1,364;    2,682
1142,531;  174,318;    1,364;    3,318
1143,067;  395,955;    1,182;    1,045
1143,602;  446,409;   -0,091;   -0,318
1144,138;  289,136;   -2,636;    1,045
1144,673;  163,136;   -1,455;    1,409
1145,209;  227,045;   -1,909;   -0,318
1145,744;  145,864;   -0,727;    0,864
1146,279;  290,500;    1,818;   -0,136
1146,815;  202,773;    1,545;   -2,682
1147,350;  245,500;   -1,364;    0,045
1147,885;  157,136;   -0,818;   -1,318
1148,420;  156,500;   -2,273;    0,773
1148,955;  137,773;   -1,727;    1,864
1149,490;  160,773;   -0,909;   -1,591
1150,025;  152,136;    0,455;   -1,773
1150,560;  262,591;    1,091;   -0,955
1151,094;  224,318;    1,455;   -0,591
1151,629;  224,318;    1,636;    0,864
1152,164;  154,500;    1,364;    1,318
1152,698;  119,136;   -0,182;   -0,136
1153,233;   81,864;    0,091;   -0,682
1153,767;  128,864;   -3,000;   -2,318
1154,302;  176,500;   -1,455;    1,773
1154,836;  178,591;   -0,455;   -2,136
1155,371;  232,409;   -1,364;    3,682
1155,905;  182,955;   -0,636;    1,682
1156,439;  153,773;   -0,636;   -0,500
1156,973;  185,136;    0,364;    0,318
1157,507;  116,045;   -0,364;    0,682
1158,042;  151,682;   -0,727;    1,045
1158,576;  190,773;    0,182;    1,773
1159,110;  184,318;   -0,818;    2,409
1159,643;  150,318;    0,636;   -0,045
1160,177;   85,682;   -1,545;    1,500

