
Integration time [ms]:   0,040
Averaging Nr. [scans]: 11
Smoothing Nr. [pixels]: 0
Data measured with spectrometer [name]: 7318044SP
Wave   ;Sample   ;Dark     ;Reference
[nm]   ;[counts] ;[counts] ;[counts] 

186,757;   14,800;   31,551;    1,318
187,357;   70,000;   22,551;    0,955
187,958;   39,100;   15,460;   -1,591
188,558;   87,233;    8,915;   -1,227
189,159;   58,396;    6,733;   -4,500
189,759;   18,260;    7,278;   -3,591
190,360;   18,675;    2,824;   -2,136
190,960;   69,284;    2,915;   -4,136
191,560;   85,906;    3,189;   -6,591
192,161;  366,847;    4,372;   -3,500
192,761;  182,338;    4,010;   -3,227
193,361;  120,077;    1,556;   -3,773
193,962;  175,561;    2,010;   -2,682
194,562;   87,789;    1,189;   -3,955
195,162;  139,512;   -2,448;   -2,227
195,762;  325,632;   -3,176;   -0,045
196,362;  257,488;    1,370;   -2,500
196,963;  109,249;    2,006;   -0,864
197,563;  197,608;    1,551;   -0,955
198,163;  131,744;    0,096;   -0,682
198,763;  153,505;    1,733;   -0,500
199,363;  272,503;    3,096;   -0,500
199,963;  229,754;    0,369;    0,409
200,563;  197,018;    2,823;   -1,409
201,163;  172,223;    3,277;   -0,227
201,763;  279,715;    3,732;    0,318
202,363;  207,869;    1,459;    1,500
202,963;  336,108;    1,459;    1,045
203,563;  459,751;    0,277;    0,500
204,162;  288,703;    2,096;   -1,864
204,762;  276,618;    0,550;    0,591
205,362;  245,129;    3,004;    1,955
205,962;  353,031;    3,096;    1,955
206,562;  354,430;    1,823;    2,318
207,161;  315,338;   -0,087;    0,318
207,761;  482,464;    1,277;    2,409
208,361;  349,906;   -0,268;    1,409
208,960;  468,808;    0,459;    1,500
209,560;  555,195;    1,277;    1,591
210,160;  527,227;    0,550;    1,864
210,759;  493,245;    4,186;    1,227
211,359;  510,174;    1,459;    1,045
211,958;  783,532;    1,277;    2,045
212,558;  879,741;    1,732;    1,864
213,157;  706,880;    1,822;    1,500
213,757; 1187,056;    3,822;   -0,227
214,356;  857,374;    1,277;   -0,409
214,956; 1218,848;    3,095;    0,409
215,555;  817,292;    2,095;    2,136
216,154;  748,962;   -2,723;   -0,591
216,754;  767,577;    0,277;    0,773
217,353;  922,046;   -0,268;   -1,045
217,952;  761,755;   -0,178;    0,318
218,552; 1014,221;    1,368;   -0,773
219,151;  910,019;    0,277;    0,955
219,750;  917,563;    0,004;   -0,227
220,349; 1077,240;   -0,451;    1,045
220,948; 1115,481;   -1,360;    1,136
221,548; 1168,884;    0,913;    1,227
222,147; 1289,046;   -0,087;   -0,409
222,746; 1588,540;   -0,451;   -0,955
223,345; 1465,957;    0,731;    0,500
223,944; 1478,447;   -0,451;    0,773
224,543; 1677,944;    1,004;   -1,409
225,142; 1774,137;    0,094;    0,136
225,741; 1696,306;   -0,814;    1,045
226,340; 1741,212;   -0,451;   -0,955
226,939; 2216,024;   -0,996;   -0,136
227,538; 2212,217;   -0,360;   -0,773
228,137; 2367,814;   -0,814;    0,864
228,735; 2558,712;   -0,541;    1,227
229,334; 2275,509;   -0,905;   -0,227
229,933; 2671,689;    0,459;    0,591
230,532; 2786,924;    1,186;   -0,409
231,131; 2825,691;    1,732;    0,318
231,729; 3027,999;   -2,450;   -2,318
232,328; 3191,661;   -0,723;   -1,500
232,927; 3294,411;    1,004;   -0,500
233,525; 3427,622;    3,640;    0,045
234,124; 3668,072;    2,368;   -1,591
234,723; 3692,340;    0,913;   -1,045
235,321; 3846,750;    2,277;    0,136
235,920; 4134,465;    1,186;   -1,227
236,518; 4385,875;    3,459;    0,318
237,117; 4612,860;    0,004;   -0,227
237,715; 4787,759;    0,640;   -0,500
238,314; 4813,229;   -0,087;   -2,318
238,912; 4937,445;   -0,723;   -1,409
239,510; 4999,675;    0,459;   -1,227
240,109; 5187,905;    0,004;    3,773
240,707; 5223,379;   -0,996;    1,227
241,305; 5630,669;    0,550;    0,136
241,904; 5878,124;   -0,178;   -2,045
242,502; 5803,338;   -0,632;   -0,227
243,100; 5764,374;   -0,087;   -0,955
243,698; 6044,454;    0,732;    1,682
244,297; 6226,247;   -0,632;    0,682
244,895; 6020,547;   -0,269;   -2,318
245,493; 6373,893;    2,186;   -0,591
246,091; 6430,089;    1,368;   -1,318
246,689; 6427,078;    1,004;    0,591
247,287; 6602,397;    0,822;   -1,136
247,885; 6906,157;   -1,451;    1,227
248,483; 7025,352;    1,822;   -0,500
249,081; 7181,962;    0,185;    1,591
249,679; 7338,863;   -0,178;    1,682
250,277; 7579,263;   -1,723;    0,864
250,875; 7605,294;   -1,087;   -1,045
251,473; 7620,632;   -1,178;    0,500
252,071; 7827,443;    1,459;    1,045
252,669; 7984,538;   -1,814;    0,318
253,267; 8260,811;   -0,087;    0,773
253,864; 8243,852;   -0,360;    0,682
254,462; 8062,033;    1,640;    1,591
255,060; 8043,435;   -0,269;    1,318
255,658; 8425,720;    0,822;   -0,136
256,255; 8857,750;    0,186;   -2,045
256,853; 8690,884;   -0,269;    1,409
257,451; 8715,144;    0,822;    1,864
258,048; 8995,999;    1,822;    1,864
258,646; 8723,114;    1,731;   -1,045
259,243; 8971,157;   -0,087;    2,227
259,841; 9016,697;   -0,814;    0,318
260,438; 8894,406;   -0,087;    0,864
261,036; 9668,474;   -1,905;    1,409
261,633; 9514,287;   -0,087;    2,227
262,231; 9279,085;    2,731;   -0,045
262,828; 9358,035;   -0,905;    1,136
263,425; 9427,796;    0,913;   -0,591
264,023; 9710,435;    0,186;    0,045
264,620; 9262,274;   -0,360;   -0,318
265,217; 9630,185;   -2,087;    3,136
265,815; 9696,395;   -1,905;    2,136
266,412; 9498,934;    0,731;    0,136
267,009; 9555,679;   -1,451;    0,773
267,606; 9425,296;    0,822;   -0,955
268,203; 9412,732;   -0,269;   -0,591
268,801; 9714,379;    1,731;    0,591
269,398;10026,222;   -0,360;    2,500
269,995;10018,853;    0,277;    1,591
270,592; 9789,452;   -0,632;   -0,500
271,189; 9999,620;    0,186;    0,409
271,786;10107,023;   -0,632;    1,227
272,383; 9956,131;   -1,087;    0,227
272,980;10204,030;    0,277;    0,318
273,577;10695,506;    0,004;    1,227
274,174;10245,400;    0,822;    2,591
274,771;10245,811;   -0,814;   -0,773
275,367;10407,586;    2,277;    1,409
275,964;10355,782;    0,731;   -0,500
276,561;10459,570;    1,549;   -1,045
277,158;10713,590;    0,095;   -1,773
277,755;10862,781;    2,185;    0,409
278,351;10230,194;   -0,451;   -1,500
278,948;10535,554;   -0,815;    0,045
279,545;10574,460;   -1,360;    2,318
280,141;11258,647;   -1,723;   -2,045
280,738;11121,698;   -0,451;   -0,136
281,334;11404,132;   -1,633;    0,591
281,931;10767,633;   -0,087;   -1,318
282,528;10842,522;    0,822;   -0,500
283,124;11585,397;   -1,087;   -0,500
283,721;11535,499;   -0,451;    1,409
284,317;11308,166;    0,185;    2,500
284,913;11902,487;   -1,360;    0,591
285,510;12143,850;    0,640;   -0,318
286,106;12163,859;   -2,269;   -0,955
286,703;11744,034;   -0,360;    1,955
287,299;11968,424;   -1,451;   -0,591
287,895;12186,217;    0,822;   -1,045
288,491;12765,404;    0,186;    2,136
289,088;12480,285;   -2,360;    2,409
289,684;12613,083;   -1,723;    1,500
290,280;12599,796;    0,368;    0,682
290,876;12696,048;    1,822;    5,500
291,472;12581,715;    1,276;    2,227
292,068;12726,517;    1,367;    0,227
292,665;12440,151;    2,095;    0,773
293,261;11984,096;    0,276;    2,136
293,857;12424,957;    2,913;    2,136
294,453;12348,042;    3,550;    0,955
295,049;12246,249;   -0,268;    1,955
295,644;12274,605;    0,095;    0,136
296,240;12151,662;   -0,905;   -0,136
296,836;12213,063;   -0,995;    0,318
297,432;12507,632;    1,096;   -0,500
298,028;12567,518;    0,732;    0,773
298,624;12993,186;    1,459;    1,864
299,220;13271,874;    2,368;    0,591
299,815;12939,070;    1,005;   -0,409
300,411;12714,612;    0,914;    1,773
301,007;12705,667;    1,368;    0,227
301,602;12805,142;   -0,541;   -2,318
302,198;12988,106;    0,732;   -0,773
302,794;13299,081;    1,187;   -0,500
303,389;13448,477;   -1,177;    1,045
303,985;13555,566;    0,550;    1,409
304,580;13525,525;    1,459;    1,591
305,176;13472,124;   -3,086;    0,136
305,771;13439,618;   -1,268;   -1,227
306,367;13286,750;    4,095;    0,136
306,962;13627,778;    0,641;    1,500
307,558;13343,347;   -0,450;    0,136
308,153;13269,771;    1,095;   -1,136
308,748;13543,036;   -0,814;    1,682
309,344;13511,329;   -0,632;   -1,318
309,939;13616,721;   -1,905;   -1,318
310,534;13939,343;   -0,086;   -1,682
311,130;13908,206;    0,459;   -2,500
311,725;13621,928;    1,004;   -0,500
312,320;13936,856;    2,459;    0,045
312,915;13750,536;    1,459;   -1,045
313,510;13860,881;    1,550;   -0,500
314,105;14367,983;    1,096;    1,409
314,700;13709,341;   -3,086;   -1,045
315,295;13298,343;   -0,904;    0,045
315,890;12845,120;    1,277;    0,864
316,485;13186,858;   -0,359;   -0,318
317,080;13299,527;   -3,086;    1,591
317,675;13881,776;    2,005;   -0,682
318,270;13265,432;    5,550;    3,318
318,865;13259,058;    3,278;    3,045
319,460;13126,017;   -0,904;    0,591
320,055;13345,655;   -0,541;   -1,227
320,650;12979,567;   -1,995;   -0,591
321,244;13069,617;   -0,177;   -1,409
321,839;14090,646;   -1,541;   -0,227
322,434;13984,038;   -1,086;   -1,591
323,029;13582,701;    1,732;    1,591
323,623;13377,945;    1,550;    0,773
324,218;13164,535;    2,368;    1,409
324,812;13052,092;    1,096;    1,591
325,407;12846,926;   -0,814;    2,045
326,002;12760,186;    0,277;   -0,409
326,596;13048,491;    0,914;    1,318
327,191;13252,224;    0,823;   -1,045
327,785;12832,036;   -0,813;   -0,227
328,379;13103,621;    1,368;    0,136
328,974;12928,473;    0,914;   -3,955
329,568;13113,318;    0,186;   -2,409
330,163;12938,575;    2,096;    1,045
330,757;13325,038;    2,459;    1,591
331,351;12613,136;    0,459;    0,682
331,945;12912,707;    0,914;    1,409
332,540;12487,601;   -1,723;   -0,591
333,134;12623,480;   -1,086;    0,773
333,728;12926,022;    0,005;    0,318
334,322;13221,724;   -1,177;   -0,864
334,916;12506,928;    0,277;    0,955
335,510;12835,876;   -0,450;   -0,136
336,105;13108,042;   -1,086;    1,591
336,699;12827,725;   -1,086;    0,591
337,293;12727,782;   -1,723;    0,318
337,887;12912,072;   -2,723;    1,955
338,481;13057,625;    0,459;    0,591
339,074;13148,099;   -0,359;    2,682
339,668;12971,648;   -1,632;    1,227
340,262;13288,252;    1,732;    3,227
340,856;12772,546;    1,822;   -0,682
341,450;12054,609;    1,004;    1,864
342,044;13036,691;    1,459;    0,136
342,637;12765,177;    0,913;   -2,136
343,231;12659,484;   -2,360;    0,682
343,825;12621,441;   -1,086;   -0,591
344,419;12540,771;   -1,995;    0,500
345,012;12311,799;    2,459;    4,045
345,606;12325,337;    4,641;    1,591
346,199;12172,232;   -1,813;   -0,227
346,793;11629,508;    1,914;    2,045
347,386;11789,411;   -0,813;   -1,136
347,980;11832,141;   -0,268;   -0,045
348,573;11593,754;    2,278;    0,409
349,167;11257,982;    5,278;    4,773
349,760;11624,038;    2,914;    2,682
350,354;11591,477;   -0,813;    1,136
350,947;11345,282;    1,096;    1,682
351,540;10984,021;   -0,358;   -1,409
352,134;10885,526;    1,096;    1,136
352,727;11003,451;   -0,086;    1,136
353,320;10756,159;    0,005;    0,591
353,913;10582,984;   -1,995;    1,864
354,507;10794,038;    0,823;   -1,227
355,100;10766,701;    0,460;    0,864
355,693; 9978,850;    2,005;    2,409
356,286;10007,788;    0,823;    2,773
356,879;10370,877;   -0,722;    1,227
357,472; 9965,125;   -0,904;    1,500
358,065;10185,374;   -0,722;    2,500
358,658;10085,685;   -0,540;    2,318
359,251; 9700,524;   -1,631;   -0,591
359,844; 9164,433;   -1,904;   -1,136
360,437; 9343,052;   -2,995;    0,045
361,030; 9595,490;    1,369;   -0,682
361,623; 9195,508;    2,824;    0,318
362,215; 9249,831;   -0,086;    2,045
362,808; 9080,986;   -2,358;   -1,682
363,401; 9271,843;   -2,449;    0,136
363,994; 8975,986;   -0,631;   -1,500
364,586; 8871,164;    0,824;   -1,500
365,179; 9114,550;   -0,449;   -1,136
365,772; 8598,062;   -1,995;    2,045
366,364; 8948,964;    1,915;   -3,227
366,957; 9116,199;    2,279;   -0,045
367,549; 9174,013;    2,188;   -0,864
368,142; 8793,473;    1,825;   -1,500
368,734; 8975,972;    0,734;   -2,136
369,327; 8908,314;    1,643;   -0,500
369,919; 8831,654;   -1,538;    0,409
370,512; 8596,992;   -1,083;   -0,500
371,104; 8364,311;   -0,901;    1,591
371,696; 8598,889;    1,191;   -0,955
372,289; 8676,363;    0,373;    1,136
372,881; 8810,302;   -2,080;    1,318
373,473; 8723,761;   -2,170;    1,136
374,066; 8540,626;   -0,169;    0,500
374,658; 8380,549;    0,378;    1,136
375,250; 8748,863;    0,653;   -1,409
375,842; 8582,231;    0,473;   -0,045
376,434; 8452,120;   -0,435;   -0,409
377,026; 9054,092;    0,204;   -2,500
377,618; 8953,487;   -0,158;   -0,682
378,210; 8797,011;   -0,338;   -1,955
378,802; 8641,003;    0,754;   -0,591
379,394; 8618,817;    1,846;    0,682
379,986; 9290,734;    1,393;   -0,955
380,578; 9388,037;   -0,153;    0,773
381,170; 8624,745;   -0,972;    0,045
381,762; 8583,217;    0,755;    1,409
382,354; 8843,892;   -0,065;   -1,318
382,945; 8955,542;   -2,976;    0,318
383,537; 9107,645;   -2,705;   -1,955
384,129; 9107,288;   -2,160;   -1,136
384,721; 9316,864;   -0,252;    0,955
385,312; 9270,225;   -0,161;   -0,955
385,904; 9322,324;   -2,706;    1,591
386,496; 8662,142;   -0,979;    1,045
387,087; 8831,853;    1,022;    2,500
387,679; 8888,179;   -1,160;    0,045
388,270; 9051,660;    2,840;    2,045
388,862; 9159,956;    1,295;   -0,318
389,453; 9055,395;   -0,887;    1,045
390,045; 9365,361;   -0,705;   -2,682
390,636; 9264,947;    0,204;   -0,591
391,227; 9128,674;   -0,523;   -0,045
391,819; 9223,402;    0,204;    0,773
392,410; 9334,534;    1,022;    0,045
393,001; 9245,419;   -0,979;   -1,591
393,593; 9571,068;    1,930;   -0,045
394,184; 9420,986;    1,385;   -0,409
394,775; 9371,394;    1,839;    2,136
395,366; 9511,247;    1,385;    0,773
395,957; 9558,498;    0,113;    0,136
396,548; 9883,049;   -0,342;    2,682
397,139;10210,803;   -2,433;    0,591
397,730; 9922,556;   -1,888;    0,955
398,321; 9981,631;   -1,252;    0,955
398,912;10054,932;   -0,615;    0,136
399,503;10094,217;   -3,524;   -1,409
400,094; 9489,150;    0,294;    1,682
400,685; 9383,894;   -0,433;    0,045
401,276; 9467,900;    0,930;   -0,955
401,867; 9781,103;   -0,888;    0,773
402,458; 9857,935;   -2,251;   -2,318
403,048; 9851,542;    1,112;    0,591
403,639; 9416,664;    0,840;    0,864
404,230; 9652,324;    2,476;    0,318
404,821; 9584,944;   -0,615;    0,045
405,411; 9717,535;    1,203;   -2,591
406,002; 9289,415;   -1,252;   -1,136
406,592; 9139,410;    2,294;    0,045
407,183; 9464,433;    0,566;   -1,500
407,774; 9367,442;    3,475;   -0,136
408,364; 9735,039;    0,930;    0,409
408,954; 9313,396;    0,384;    1,227
409,545; 9378,273;    1,021;    1,045
410,135; 8876,118;    1,293;    0,500
410,726; 9062,051;    1,838;    0,318
411,316; 9485,541;    0,111;    0,773
411,906; 9099,355;   -0,253;   -0,409
412,497; 8546,811;   -1,070;   -0,045
413,087; 9221,082;   -1,980;   -0,227
413,677; 9624,266;   -0,707;    3,864
414,267; 9459,735;    0,656;    1,409
414,857; 9478,981;   -2,980;    4,227
415,448; 9778,079;    0,839;    0,500
416,038; 9425,166;    0,020;   -0,591
416,628; 9411,234;   -0,889;    0,409
417,218; 8830,896;    0,565;    3,318
417,808; 9105,505;    0,202;   -0,409
418,398; 9620,823;    0,020;    2,682
418,988; 9634,297;    2,020;    0,591
419,578; 9941,297;   -0,707;    1,409
420,168;10311,377;   -1,343;   -0,955
420,757; 9867,022;   -1,343;   -1,500
421,347; 9530,896;    0,111;   -0,227
421,937; 9731,261;    2,292;    1,409
422,527; 9662,309;    0,838;   -0,773
423,116; 9468,028;   -0,253;   -0,045
423,706; 9829,587;   -1,889;    0,318
424,296; 9826,111;    1,384;    0,682
424,885;10251,748;   -0,071;   -3,045
425,475;10565,363;    1,474;   -2,864
426,065;10456,375;   -0,980;   -0,318
426,654;10060,700;   -0,435;   -0,318
427,244;10214,258;    0,020;    1,409
427,833; 9632,546;    1,383;   -0,500
428,423;10127,094;   -0,526;    1,136
429,012;10936,565;   -0,344;   -1,136
429,601;10429,203;   -1,344;    0,136
430,191;10662,231;    1,292;    4,318
430,780;10323,081;   -0,344;   -0,409
431,369;10202,032;    0,746;   -0,045
431,959;10858,392;   -1,254;    0,500
432,548;10647,276;   -1,163;   -0,045
433,137;10795,223;   -1,254;   -1,318
433,726;11360,763;    0,292;    0,500
434,315;10664,371;   -0,526;    2,409
434,905;10736,105;   -1,254;    1,409
435,494;10595,834;    0,746;    0,955
436,083;11114,237;   -0,981;   -0,955
436,672;10989,184;    0,110;    0,500
437,261;10528,385;    0,292;   -1,955
437,850;10648,426;    1,383;    0,682
438,439;10679,243;    3,291;    1,955
439,027;10514,510;    3,655;    1,773
439,616;10854,849;    2,927;    1,227
440,205;10739,157;    0,200;   -2,136
440,794;10869,539;    2,109;   -0,045
441,383;11172,227;   -1,346;   -0,591
441,971;10991,093;   -2,436;    0,591
442,560;10852,748;    0,563;   -1,773
443,149;10593,982;    0,379;   -1,318
443,737;10708,595;   -0,074;   -2,318
444,326;11010,325;    0,018;    0,318
444,915;11107,760;   -1,982;    0,864
445,503;11549,824;   -2,891;   -0,318
446,092;10741,001;    0,382;    2,136
446,680;11314,343;    0,382;    0,318
447,269;11497,587;   -0,346;   -0,318
447,857;11221,892;    0,018;   -1,773
448,445;11358,910;    0,563;    1,318
449,034;11581,335;   -1,528;   -1,136
449,622;11720,254;   -1,073;    3,500
450,210;10882,896;    2,017;    2,227
450,799;11448,699;    0,290;   -0,591
451,387;11433,545;    1,381;   -0,591
451,975;11009,791;    2,654;    0,864
452,563;11096,292;    3,472;    2,318
453,151;11168,784;   -0,528;   -1,227
453,739;11082,644;   -1,347;    0,136
454,328;10889,016;    2,381;   -2,136
454,916;10596,039;    2,562;   -0,136
455,504;10786,185;    1,017;    1,227
456,092;10967,717;    0,017;   -1,591
456,679;10962,260;    1,472;    0,682
457,267;10894,202;    4,017;    1,045
457,855;11040,023;    1,017;    1,409
458,443;10825,644;   -0,165;    1,682
459,031;10937,392;    0,108;    2,409
459,619;11441,583;   -1,801;    2,864
460,206;11608,077;    0,835;    2,045
460,794;11696,442;   -2,983;   -0,227
461,382;11941,706;   -0,529;   -0,864
461,970;11518,548;    1,198;    1,864
462,557;11508,106;   -0,711;   -0,682
463,145;11723,045;   -3,165;   -1,682
463,732;11874,024;    2,016;   -1,045
464,320;11842,678;   -0,075;   -3,045
464,907;11485,457;    2,743;   -0,773
465,495;11338,664;    0,743;   -1,227
466,082;11524,044;   -1,984;   -0,045
466,670;11423,814;   -2,529;    1,227
467,257;11832,103;   -1,711;    2,045
467,844;11968,505;   -0,075;    0,045
468,432;12020,855;    0,834;    3,500
469,019;11458,030;    0,925;   -1,773
469,606;11955,552;    0,470;    3,682
470,193;11791,994;   -1,439;    0,227
470,780;11341,014;   -2,075;    0,864
471,368;11686,967;   -1,257;   -0,773
471,955;11468,235;    1,379;   -0,682
472,542;11114,638;    0,652;   -1,136
473,129;11307,811;   -0,166;    0,136
473,716;10987,429;    1,470;    0,591
474,303;11263,996;    0,652;   -0,864
474,890;11594,260;   -1,439;   -0,500
475,477;11621,911;   -1,621;    0,409
476,064;11515,767;    1,106;   -1,591
476,650;11471,397;    0,288;    0,318
477,237;11270,852;   -0,258;    0,955
477,824;11428,405;   -1,076;    0,864
478,411;11465,362;   -1,894;   -0,318
478,997;11691,790;    0,560;   -0,773
479,584;11765,804;    1,196;   -0,409
480,171;12536,767;   -0,440;   -0,773
480,757;12155,362;    2,651;    0,773
481,344;12501,482;    0,469;    0,409
481,931;12035,133;    1,105;    1,045
482,517;13219,587;   -1,258;    0,318
483,104;13918,407;    1,106;    2,864
483,690;14227,803;   -1,804;    0,045
484,276;14586,072;   -0,895;    0,227
484,863;14310,296;    2,469;    1,136
485,449;14952,901;   -0,077;    0,318
486,035;14912,614;   -1,986;   -0,136
486,622;15386,298;   -0,895;    0,045
487,208;15314,232;    1,378;    1,500
487,794;15163,106;    0,741;    0,318
488,380;15296,646;    0,105;   -1,409
488,967;15349,427;   -1,168;   -0,409
489,553;15401,563;   -1,895;   -1,409
490,139;15595,732;    1,559;    0,773
490,725;14949,604;    0,741;   -0,227
491,311;14380,425;    3,287;    3,045
491,897;13588,094;   -0,986;    1,500
492,483;13350,850;    0,105;    1,227
493,069;13195,103;    3,923;    0,864
493,655;13164,885;    1,650;    0,682
494,241;13061,525;    1,377;   -0,955
494,826;13517,825;    0,287;   -1,045
495,412;12938,131;    2,559;   -0,682
495,998;13080,222;   -0,805;   -0,318
496,584;13231,572;    0,377;    1,045
497,169;13241,110;    1,014;   -0,682
497,755;13191,643;    0,650;    1,227
498,341;13811,554;    0,559;    0,318
498,926;13343,509;    1,832;    1,955
499,512;13535,025;    1,286;    2,955
500,097;13699,207;    0,195;   -0,318
500,683;13632,806;   -0,350;    2,136
501,268;14023,406;   -0,169;   -0,955
501,854;13700,046;   -0,169;    1,227
502,439;13610,982;   -0,624;   -1,773
503,024;13894,371;    0,195;    0,500
503,610;13951,100;   -0,078;   -0,682
504,195;13955,252;    0,558;    1,955
504,780;14076,904;    2,922;    1,227
505,366;13882,294;    3,013;    2,864
505,951;13570,762;    0,740;    1,045
506,536;13602,095;   -3,260;   -3,682
507,121;13593,364;    0,285;   -0,318
507,706;14137,396;    2,376;    1,045
508,291;14555,500;    2,649;    1,136
508,876;13972,031;   -0,988;    2,591
509,461;13362,170;   -0,169;   -0,773
510,046;13857,161;    0,194;    0,318
510,631;14104,525;   -0,351;   -0,773
511,216;13716,277;    2,467;   -0,500
511,801;14108,911;   -0,442;    2,591
512,386;14463,758;    0,740;    0,500
512,971;14393,603;   -2,988;    0,955
513,555;13917,002;   -0,897;   -1,500
514,140;14750,202;   -0,442;   -3,136
514,725;14772,420;   -0,715;   -1,136
515,309;14902,992;   -0,533;    0,318
515,894;14304,947;   -0,624;   -2,227
516,479;14785,782;   -0,624;   -0,955
517,063;14594,776;    0,376;    1,227
517,648;14721,910;    1,012;   -1,136
518,232;14418,196;   -0,261;   -1,409
518,817;14790,820;   -0,079;    1,682
519,401;14989,176;    2,194;    0,591
519,985;14452,727;    1,103;    1,136
520,570;14337,590;    0,830;   -1,955
521,154;14630,433;    2,102;    0,591
521,738;14819,551;   -2,352;    2,409
522,323;15394,187;   -0,170;    1,682
522,907;15127,121;    0,466;   -0,136
523,491;14813,062;    0,557;    0,955
524,075;14808,504;    2,284;    0,591
524,659;14894,902;    1,466;    0,591
525,243;14353,706;    1,739;    0,409
525,827;14639,572;    0,648;   -0,045
526,411;15542,902;   -1,989;   -0,136
526,995;15769,975;   -0,352;    1,409
527,579;15368,462;   -0,443;   -1,045
528,163;15657,212;    0,375;   -1,500
528,747;15579,795;    2,466;   -0,773
529,331;15891,685;   -0,080;   -1,409
529,915;16085,995;    1,738;    0,955
530,499;16103,325;   -0,807;    1,227
531,082;15815,895;   -0,534;    1,591
531,666;15183,161;    1,374;    0,773
532,250;15885,601;    1,284;    2,682
532,833;16275,164;    0,920;    2,773
533,417;16096,856;   -1,807;    0,864
534,001;16099,275;    1,647;   -0,318
534,584;16805,897;    0,374;    0,500
535,168;16674,512;    0,465;    1,409
535,751;16767,296;    0,647;    0,045
536,334;16183,120;   -0,898;   -0,409
536,918;16779,940;    0,011;    1,591
537,501;16882,544;   -0,899;    1,318
538,085;16876,074;   -0,444;    1,045
538,668;17097,061;    0,829;    2,409
539,251;17429,776;    1,829;    3,773
539,834;17399,370;    0,101;    0,773
540,418;17343,430;   -1,990;    4,318
541,001;17526,675;   -0,990;    1,773
541,584;17521,235;    2,101;    2,227
542,167;17197,871;    1,374;    2,955
542,750;17384,455;    1,919;   -0,773
543,333;16951,593;    0,555;    2,136
543,916;17736,210;    0,192;    2,500
544,499;18390,465;   -1,354;    0,227
545,082;18393,372;    1,374;    3,591
545,665;18553,502;    1,919;    1,500
546,248;18926,866;    1,010;   -0,318
546,830;18549,869;   -0,445;    1,955
547,413;18975,263;    1,010;   -0,773
547,996;19544,187;    0,555;    0,500
548,579;19323,335;    0,919;    0,955
549,161;19167,879;    1,828;    2,682
549,744;18874,027;   -0,809;    0,409
550,326;19413,321;   -0,809;   -1,136
550,909;19202,164;    2,737;    0,591
551,492;19587,620;   -0,263;    0,227
552,074;19352,556;   -0,173;   -1,318
552,657;20007,078;    2,373;    0,045
553,239;19743,405;   -0,173;   -0,773
553,821;19637,009;   -1,082;    1,045
554,404;19128,943;    1,282;    1,136
554,986;19526,344;    0,464;    1,045
555,568;20124,761;    1,191;   -0,955
556,151;19334,658;    1,191;   -0,227
556,733;19509,836;   -0,264;   -0,864
557,315;19999,179;    0,100;    0,500
557,897;19842,102;    0,554;   -0,500
558,479;20005,794;   -1,991;    1,318
559,061;20107,660;   -0,719;   -0,864
559,643;20470,295;   -0,264;    0,045
560,225;20895,850;    1,645;    2,864
560,807;20876,295;    0,918;    0,318
561,389;20295,234;    0,554;    2,318
561,971;21165,095;    0,463;    2,136
562,553;20945,614;   -1,628;    1,591
563,135;21103,525;   -0,537;    1,136
563,717;20678,298;    3,372;    1,136
564,298;21471,621;    3,645;   -0,045
564,880;21176,593;    0,645;   -1,409
565,462;21355,593;    0,645;    1,318
566,043;22636,819;   -0,446;    2,318
566,625;22200,445;    1,918;    1,227
567,207;22047,819;    1,099;    1,682
567,788;23313,691;   -1,264;    1,500
568,370;24155,106;    1,917;   -0,500
568,951;24010,823;    0,190;    0,227
569,533;24951,074;   -0,628;   -0,500
570,114;25472,676;   -0,446;    0,682
570,695;26118,639;   -0,174;   -1,318
571,277;26690,586;   -0,265;   -1,682
571,858;27510,785;    2,008;   -1,136
572,439;28496,431;    1,554;   -1,045
573,021;28665,032;    2,099;   -2,773
573,602;29249,802;   -1,265;    0,318
574,183;30263,907;   -2,083;    2,227
574,764;30461,205;   -1,629;    0,409
575,345;31144,777;    0,917;   -0,136
575,926;31731,964;   -0,356;    0,136
576,507;31654,882;    1,099;   -0,227
577,088;32851,666;    3,099;    1,682
577,669;32981,381;    0,735;    1,955
578,250;33895,089;    0,644;   -1,045
578,831;34641,328;   -1,356;   -2,227
579,412;34889,914;   -0,810;    0,955
579,993;35694,912;    1,008;    0,227
580,573;36040,866;   -0,629;   -0,955
581,154;35029,153;    0,735;   -0,591
581,735;36007,246;    0,644;    0,773
582,315;35525,155;   -0,629;    2,136
582,896;35724,568;   -0,174;    1,227
583,477;35097,189;    0,189;    1,227
584,057;35330,878;    0,553;    0,955
584,638;35660,912;    2,553;    2,318
585,218;35668,766;   -0,538;    2,682
585,799;35808,169;    0,281;   -0,227
586,379;35655,848;    0,372;    1,591
586,959;34290,702;    0,735;    0,318
587,540;33471,376;   -0,629;    2,227
588,120;33010,073;    1,007;   -0,045
588,700;31901,224;    2,553;    2,136
589,281;32248,525;    0,462;   -0,955
589,861;32264,714;    0,099;   -1,682
590,441;32072,638;    2,371;   -2,682
591,021;30935,720;   -0,265;   -2,591
591,601;31115,807;   -0,537;    0,500
592,181;31110,889;   -0,719;   -0,773
592,761;30316,027;    0,007;    1,409
593,341;30208,112;   -0,901;    0,045
593,921;30206,541;   -0,265;    1,591
594,501;30091,554;   -0,538;    1,318
595,081;29959,917;    0,917;   -0,318
595,661;30335,910;   -1,447;    0,955
596,240;30866,932;   -0,537;    0,136
596,820;30576,308;    0,372;    1,955
597,400;30727,639;    2,008;    0,773
597,980;30973,244;    2,008;    1,045
598,559;30923,607;    2,735;   -0,227
599,139;30562,672;   -0,174;   -1,227
599,718;30533,490;   -0,174;   -0,409
600,298;30803,278;    0,735;    0,682
600,877;31008,185;    2,917;    1,409
601,457;31284,106;    2,281;    1,136
602,036;31180,160;    0,190;    2,045
602,616;31487,506;    0,644;    1,682
603,195;31853,277;   -0,355;    3,500
603,774;31427,853;   -0,901;    2,045
604,354;31266,568;    0,826;   -0,500
604,933;30682,684;    0,463;    1,864
605,512;30748,202;    3,554;    0,591
606,091;30795,350;   -0,537;    3,773
606,671;31676,628;    0,281;    0,773
607,250;30780,377;    1,644;    3,136
607,829;30961,495;    2,372;    3,227
608,408;30767,750;    1,190;    2,591
608,987;29723,781;    1,281;    3,409
609,566;30037,285;   -1,265;   -2,500
610,145;30175,972;   -1,082;    0,682
610,723;30603,685;    4,372;    6,864
611,302;29826,503;   -0,446;    1,682
611,881;29284,589;    5,008;   11,227
612,460;30219,587;    1,645;    3,955
613,039;30596,134;   -0,082;    2,045
613,617;29231,844;    1,736;    4,773
614,196;29447,803;    1,099;    1,227
614,775;29782,534;    1,009;    2,409
615,353;29714,200;    0,736;    0,864
615,932;29394,017;    0,100;    2,409
616,510;30005,159;    0,554;    0,591
617,089;29541,469;    7,100;   17,591
617,667;29199,936;    2,372;    6,136
618,246;29070,660;   -1,537;    1,318
618,824;29240,942;   -3,355;   -0,955
619,402;28795,770;   -2,900;   -1,773
619,981;29299,904;   -0,173;   -1,045
620,559;29071,410;    0,009;    1,682
621,137;28561,532;   -0,718;    1,864
621,715;28607,881;   -1,173;   -0,682
622,293;28508,941;   -0,537;   -0,773
622,871;28974,997;   -0,718;    0,500
623,450;28535,751;    0,373;   -0,864
624,028;28388,161;    0,191;   -0,955
624,606;28035,168;   -1,718;    1,682
625,183;28446,348;   -1,536;   -1,136
625,761;28005,973;    1,009;    1,136
626,339;28329,551;    1,373;    2,591
626,917;28744,567;   -0,172;   -0,045
627,495;28745,178;   -0,354;    1,318
628,073;28147,779;   -0,263;    2,864
628,650;27808,184;    0,100;    2,136
629,228;28266,923;    0,373;    4,409
629,806;27615,750;    2,282;    1,136
630,383;27900,353;    1,464;   -0,318
630,961;27644,239;    2,555;   -0,955
631,539;27420,661;    2,464;    0,227
632,116;26773,148;   11,373;   15,409
632,694;27333,738;    2,555;    6,500
633,271;27681,338;    0,828;    2,682
633,848;27591,215;    1,828;    2,045
634,426;27557,379;   -1,081;    1,773
635,003;26642,324;    1,101;   -0,409
635,580;27030,554;    1,192;    3,682
636,158;27569,638;    3,737;    1,227
636,735;27611,100;    0,555;   -0,500
637,312;27782,690;   -0,809;   -0,682
637,889;27840,292;   -4,354;   -0,682
638,466;27255,580;   -3,990;   -0,409
639,043;27289,849;    2,101;   -1,136
639,620;27618,896;   -2,262;   -0,955
640,197;27952,622;    1,100;    1,682
640,774;28035,421;   -0,172;    1,136
641,351;28416,039;    0,737;    1,136
641,928;27832,020;   -0,627;    1,409
642,505;27513,273;    0,828;   -0,500
643,082;27608,527;   -1,718;    1,227
643,658;26603,054;   -0,718;    1,500
644,235;27378,489;    1,191;    2,500
644,812;27719,925;    1,918;    0,773
645,388;27457,815;   -0,991;    1,409
645,965;27533,160;   -0,809;    1,682
646,542;27578,595;   -1,445;   -0,227
647,118;27580,667;    1,009;   -0,955
647,695;27877,375;   -0,263;    1,136
648,271;27751,447;   -0,536;    0,500
648,848;28093,519;    0,736;    2,227
649,424;27982,500;    0,827;    1,318
650,000;27757,481;   -0,354;   -1,045
650,577;27546,281;   -0,627;   -0,955
651,153;28040,898;   -1,809;    0,955
651,729;29057,061;    1,191;    0,864
652,305;29876,769;    0,645;    2,773
652,881;35851,296;   -0,082;    1,136
653,458;43316,913;    1,100;    0,227
654,034;46881,440;    0,282;    1,591
654,610;48213,784;    0,554;    0,773
655,186;49479,584;    0,645;    3,045
655,762;49208,201;   -0,991;    0,409
656,338;49146,364;    0,100;    0,136
656,913;50175,709;   -0,082;    0,409
657,489;49419,871;    0,827;   -0,318
658,065;49454,398;   -0,173;   -1,591
658,641;50117,106;   -0,900;   -0,864
659,217;49386,905;   -0,991;    0,409
659,792;48837,523;    0,645;   -0,409
660,368;49002,231;   -2,173;   -0,682
660,944;48046,030;   -2,082;    1,227
661,519;41974,102;   -0,628;    0,409
662,095;35336,265;   -1,719;    0,591
662,670;30833,155;    1,281;   -0,136
663,246;29894,500;    1,009;   -0,409
663,821;29352,754;    0,281;    1,682
664,396;28818,280;    0,009;    1,864
664,972;29154,989;    0,009;   -0,500
665,547;29404,515;    1,372;    0,136
666,122;29461,042;   -1,082;    0,318
666,698;29808,477;   -0,173;    0,318
667,273;29107,822;   -0,173;    0,136
667,848;29957,712;    2,372;    1,500
668,423;29793,511;    2,190;    2,318
668,998;30365,220;    2,827;   -0,682
669,573;30921,201;   -3,264;   -1,500
670,148;30777,454;   -1,446;   -0,682
670,723;30511,890;   -1,810;    0,318
671,298;30941,053;    2,372;    1,045
671,873;31097,579;   -0,082;   -0,136
672,448;31070,379;    0,645;    0,136
673,023;31386,269;   -1,992;   -0,227
673,597;31742,432;    0,827;    2,318
674,172;31518,413;   -0,355;    0,318
674,747;30922,121;    0,372;   -1,045
675,321;30761,284;   -0,628;    3,318
675,896;30336,356;    0,645;    1,045
676,471;31407,791;    2,645;    1,591
677,045;31125,863;   -1,264;    0,682
677,620;31209,026;    0,190;    1,136
678,194;31480,007;   -2,628;    1,136
678,769;31078,352;   -1,083;   -0,318
679,343;31329,333;   -0,628;    1,773
679,917;31205,769;   -1,446;    1,955
680,492;31281,568;    0,826;    3,227
681,066;31462,458;    3,372;    0,409
681,640;31469,894;    1,463;   -0,318
682,214;32339,966;    0,735;    0,500
682,788;31903,856;   -1,356;   -0,773
683,363;31829,019;   -1,810;    1,682
683,937;31559,363;   -1,719;   -0,318
684,511;32350,526;    0,463;   -0,591
685,085;32019,143;   -1,356;    0,318
685,659;31687,852;   -2,538;    0,864
686,232;31998,651;   -0,356;   -0,318
686,806;31712,541;   -0,901;    0,409
687,380;32389,795;   -0,174;    0,591
687,954;32570,594;   -1,174;    1,136
688,528;32297,212;   -0,719;    1,955
689,101;33045,556;   -3,992;    1,045
689,675;32577,810;   -0,356;   -0,136
690,249;31985,155;   -0,719;    0,409
690,822;32245,408;    0,280;    0,318
691,396;32369,844;   -0,265;    1,227
691,969;31877,552;    1,280;    0,136
692,543;32307,806;   -0,447;   -1,955
693,116;31945,787;   -0,265;   -1,409
693,690;31847,768;    0,099;    0,500
694,263;32432,477;   -1,083;    2,955
694,836;32402,730;    1,371;    3,591
695,410;31084,893;   -0,265;    1,773
695,983;31583,965;    0,189;    0,591
696,556;31459,128;   -0,447;   -1,045
697,129;31854,836;   -0,356;    1,409
697,703;31507,817;   -1,629;    1,955
698,276;31483,435;    1,462;   -0,773
698,849;31273,961;    1,280;    1,409
699,422;31654,033;   -1,083;    0,591
699,995;31324,560;    0,007;    0,136
700,568;31865,086;   -0,629;    3,045
701,140;31871,067;   -2,811;    1,682
701,713;31543,867;   -0,174;    2,409
702,286;31318,484;   -0,538;    0,864
702,859;31191,556;   -0,902;   -0,591
703,432;30305,991;    0,825;    0,682
704,004;30853,245;    0,462;    0,318
704,577;30740,135;   -0,629;    0,136
705,150;31323,026;    0,189;    2,500
705,722;31041,825;   -0,356;   -3,227
706,295;30838,442;   -0,175;   -0,591
706,867;30667,514;   -0,175;    1,955
707,440;30941,132;   -1,720;   -0,409
708,012;31177,476;    0,462;    0,591
708,584;31104,548;    2,462;    0,227
709,157;31348,802;    1,825;   -0,591
709,729;30986,056;    2,280;    2,045
710,301;31882,946;    0,734;    0,045
710,874;31907,472;   -1,447;   -0,227
711,446;30746,090;    0,371;    0,864
712,018;30621,071;    0,098;    0,500
712,590;30378,961;   -1,993;    1,682
713,162;30940,851;    0,825;    1,318
713,734;31185,378;    1,825;   -2,045
714,306;31024,722;   -1,902;   -0,409
714,878;29670,976;    0,825;    0,864
715,450;30538,684;    0,643;    0,864
716,022;30763,211;    1,552;    1,318
716,593;30911,192;    0,189;    0,591
717,165;30853,446;   -3,175;   -1,227
717,737;30526,790;    0,280;    0,409
718,309;30226,408;    0,280;   -0,045
718,880;30155,571;   -0,539;   -1,409
719,452;30349,461;   -0,175;   -1,591
720,024;29959,442;    0,734;   -0,591
720,595;30520,696;   -2,902;    0,955
721,167;30062,404;    0,370;   -2,045
721,738;29585,567;   -0,812;   -1,045
722,309;29580,911;   -0,993;   -1,227
722,881;29378,438;   -1,357;    0,773
723,452;29997,237;   -2,630;    2,864
724,023;30120,309;   -0,721;    2,682
724,595;29870,472;    0,007;    0,682
725,166;29636,089;    0,007;   -0,409
725,737;29360,252;    1,734;    0,227
726,308;29406,233;   -0,266;    0,318
726,879;29884,033;   -1,630;    1,227
727,450;29722,468;    0,552;   -0,045
728,021;29657,722;    3,097;    0,682
728,592;29465,794;    0,734;    0,500
729,163;29821,229;    0,643;   -0,136
729,734;29871,483;    0,188;   -0,227
730,305;30196,282;    1,734;    0,136
730,876;30575,173;    0,188;    2,955
731,447;30317,881;    2,188;    2,682
732,017;30476,317;    1,097;    1,864
732,588;29851,116;    0,734;    1,227
733,159;30102,642;    0,643;   -1,045
733,729;29898,441;    0,006;    0,409
734,300;29173,241;    0,915;    0,864
734,870;29570,858;    3,461;    0,591
735,441;30142,566;    0,370;   -0,591
736,011;29901,093;    0,643;   -1,591
736,582;29807,710;   -0,812;    0,045
737,152;29323,691;   -1,721;   -2,045
737,722;29714,763;   -0,267;   -0,682
738,293;29409,926;   -1,358;    1,318
738,863;29338,907;    2,461;    2,318
739,433;29105,161;    5,279;    0,318
740,003;29741,506;   -0,994;   -0,682
740,573;29153,032;    2,097;   -1,591
741,143;29041,650;   -1,085;    0,318
741,713;29864,903;    1,188;   -0,500
742,283;29586,612;    0,915;    1,591
742,853;29321,684;    1,915;    1,591
743,423;28698,847;    1,733;    0,045
743,993;28867,737;   -0,358;    1,500
744,563;28230,172;    0,097;   -0,864
745,133;28189,881;   -0,812;   -0,864
745,702;28889,134;   -0,267;    1,773
746,272;28070,934;   -0,176;    0,591
746,842;27879,915;   -1,358;   -0,591
747,411;28245,350;   -0,267;   -0,318
747,981;28421,695;    0,097;    0,500
748,551;28434,585;    2,278;   -1,045
749,120;28306,475;    0,642;   -0,227
749,690;28709,547;   -0,631;    2,409
750,259;29102,528;    1,369;    2,955
750,828;29017,964;    1,551;   -1,955
751,398;29278,218;    1,278;   -0,045
751,967;28843,653;    2,187;    0,409
752,536;29005,725;   -0,813;   -0,227
753,105;29431,252;    0,096;    0,227
753,675;29284,414;    0,096;    1,773
754,244;29136,941;   -0,904;    3,591
754,813;29173,558;    0,551;    1,227
755,382;28747,812;    0,460;    0,955
755,951;29425,339;    1,551;    3,682
756,520;28899,683;   -0,085;    1,864
757,089;29533,846;    0,278;    0,500
757,658;29680,827;    1,733;    1,227
758,227;29637,081;    1,096;    0,318
758,795;29936,062;    1,187;    1,136
759,364;30136,770;   -0,086;   -0,591
759,933;29121,933;   -1,176;   -0,045
760,501;28619,642;    0,733;   -1,318
761,070;29105,259;   -2,813;   -1,409
761,639;29840,967;   -1,904;    1,318
762,207;29248,221;    1,551;   -0,955
762,776;29124,929;    0,369;    0,864
763,344;29096,365;   -0,995;    0,591
763,913;28094,528;   -0,722;    1,409
764,481;28911,327;    1,005;   -0,136
765,049;28628,217;   -1,358;    1,409
765,618;28432,016;   -0,086;    0,318
766,186;28559,452;    0,278;    0,136
766,754;28754,251;    0,005;    1,864
767,322;27684,323;   -1,995;    0,409
767,890;27731,122;   -0,722;   -1,773
768,459;28180,285;   -2,177;   -0,318
769,027;28392,630;    1,641;    3,409
769,595;27275,247;    3,278;    2,591
770,163;27747,138;    3,823;    2,955
770,730;27445,937;    0,732;   -0,136
771,298;27243,281;    0,187;   -1,409
771,866;27327,353;   -1,541;    4,955
772,434;27702,698;   -0,631;   -1,864
773,002;27867,952;    0,005;    0,682
773,569;27493,933;    0,914;    1,682
774,137;27331,368;   -0,268;   -0,045
774,705;28104,259;    0,278;   -0,136
775,272;27601,603;    0,641;    0,682
775,840;27298,584;   -0,177;    2,682
776,407;26841,838;    0,277;    1,955
776,975;26458,637;   -0,632;    0,318
777,542;27460,255;   -1,086;   -0,045
778,110;27285,054;   -1,268;   -0,045
778,677;26924,490;   -2,359;   -0,864
779,244;26647,016;    2,186;    1,045
779,812;26811,088;    1,823;    0,864
780,379;26667,342;    0,005;    1,136
780,946;26900,959;    1,005;   -0,773
781,513;27258,213;   -1,450;    0,318
782,080;26580,649;   -0,086;    2,864
782,647;27369,084;   -0,268;    3,045
783,214;26914,883;   -0,177;    3,864
783,781;26562,046;   -0,723;   -0,682
784,348;26460,755;   -0,632;    1,500
784,915;26845,645;   -3,177;    0,318
785,482;26666,353;    1,368;    2,591
786,049;27072,061;    0,186;   -0,591
786,615;27222,406;    0,277;   -0,955
787,182;26913,751;    0,186;   -0,682
787,749;26599,186;   -2,814;    1,409
788,315;25934,531;   -1,632;   -0,409
788,882;26250,876;    1,550;   -1,227
789,448;26974,584;    1,732;   -0,955
790,015;26907,656;    1,095;    3,227
790,581;26498,092;    1,459;    0,227
791,148;26433,800;    0,641;    1,045
791,714;26592,235;   -0,541;    3,136
792,280;26182,762;    0,186;    1,591
792,847;25764,925;    0,550;    2,500
793,413;26393,269;   -0,269;   -0,318
793,979;25924,251;    3,459;   -1,318
794,545;26006,504;    4,459;    2,682
795,111;25379,849;    2,186;    1,318
795,678;25586,285;    0,731;   -1,682
796,244;25209,811;    3,368;    0,136
796,810;25689,792;    1,731;    0,773
797,375;25426,319;    0,549;   -2,136
797,941;25432,572;   -0,541;    0,591
798,507;25638,099;   -0,451;   -0,955
799,073;25160,353;   -0,360;    0,591
799,639;25184,879;   -2,632;    3,136
800,205;25215,042;    0,095;    2,682
800,770;24757,296;    0,640;    1,773
801,336;24831,640;    1,368;   -0,955
801,901;24562,349;    4,549;    3,136
802,467;25085,784;   -0,542;    2,045
803,033;24376,220;   -0,087;    0,864
803,598;24630,837;    1,913;   -1,045
804,163;24675,091;    1,095;   -0,318
804,729;24635,618;   -0,178;    1,136
805,294;25045,508;    0,822;    2,227
805,859;24832,943;    0,731;   -0,409
806,425;24267,106;    1,186;    2,682
806,990;23942,269;    2,186;    4,318
807,555;24460,887;   -1,451;    2,591
808,120;24349,322;    0,822;   -0,409
808,685;24371,758;    0,185;   -2,500
809,250;23831,011;    0,004;   -0,500
809,815;24153,629;    1,913;    0,682
810,380;24690,792;   -0,269;    1,591
810,945;25336,682;   -1,087;    2,045
811,510;24414,117;    2,094;    1,591
812,075;24099,462;   -0,633;   -1,409
812,640;24101,716;    2,003;    1,409
813,204;24140,061;    0,822;   -0,227
813,769;24643,223;    2,094;   -0,045
814,334;24051,932;    0,458;    0,864
814,898;24093,458;    0,367;    0,591
815,463;23925,348;    1,276;   -0,773
816,027;23963,057;   -0,724;   -2,318
816,592;23983,220;    0,640;   -2,045
817,156;23553,019;    2,094;    1,136
817,721;23418,273;    4,276;    2,318
818,285;23324,072;    2,912;    1,500
818,849;23980,871;   -1,451;    1,682
819,414;23846,125;   -0,269;    2,955
819,978;23421,470;   -1,269;    1,773
820,542;24005,723;    2,003;    0,500
821,106;23721,068;   -0,815;    0,682
821,670;23853,049;   -0,815;    2,591
822,234;23530,666;   -0,270;    1,409
822,798;22888,193;    0,003;    0,500
823,362;22857,174;   -0,633;    4,227
823,926;22162,155;    0,094;    1,136
824,490;22399,227;   -0,997;   -0,682
825,054;22825,663;   -0,088;   -1,136
825,618;22440,098;   -1,542;   -1,500
826,181;22441,261;    0,458;   -1,318
826,745;22348,969;    1,367;   -1,045
827,309;22681,405;    1,185;    1,318
827,872;22031,022;    1,367;    0,955
828,436;23028,458;    1,185;   -0,773
828,999;23048,439;   -0,997;    1,227
829,563;21860,511;   -0,179;    1,136
830,126;21681,492;   -0,179;   -0,591
830,690;21676,564;   -1,997;    2,864
831,253;21234,363;   -0,543;    2,227
831,816;21337,435;   -1,906;    0,500
832,380;21261,234;    0,185;    0,864
832,943;21474,579;   -1,361;   -0,500
833,506;20926,015;    2,639;   -1,227
834,069;21770,905;    3,912;   -0,955
834,632;21801,249;    1,730;    1,318
835,195;21712,958;    1,003;    0,955
835,758;20857,302;   -0,997;    1,955
836,321;20727,829;    0,730;   -1,045
836,884;20816,537;   -0,725;   -0,955
837,447;20821,882;   -2,816;    1,773
838,010;21093,408;    0,366;    3,227
838,573;21433,844;   -1,179;    0,773
839,135;21356,643;   -1,361;   -0,955
839,698;20787,715;    1,275;    0,409
840,261;20300,424;    1,003;   -0,227
840,823;20109,677;   -0,543;    0,864
841,386;20406,567;   -0,452;   -2,409
841,948;20302,185;   -1,361;    1,773
842,511;20068,075;    0,912;    1,682
843,073;20167,420;    1,912;    0,227
843,636;19943,037;   -0,361;   -0,227
844,198;19891,200;    0,911;    0,591
844,760;20044,454;    1,093;    1,955
845,322;19651,980;    0,548;    1,136
845,885;20115,325;    0,730;    0,591
846,447;20558,942;   -1,998;    0,227
847,009;20134,651;    1,911;   -0,682
847,571;20493,268;    0,820;   -2,045
848,133;20582,704;   -1,089;   -1,864
848,695;20367,412;   -0,543;    1,409
849,257;19906,120;   -1,089;   -1,682
849,819;20097,465;   -0,998;   -0,409
850,381;20149,264;   -0,725;   -0,864
850,942;20521,973;    1,093;   -0,591
851,504;20533,590;    1,184;    0,227
852,066;20504,298;    1,275;   -1,591
852,628;20010,643;   -0,180;    1,955
853,189;19545,351;    1,638;    2,682
853,751;19649,969;   -0,907;    1,409
854,312;19461,586;   -0,453;   -1,682
854,874;20005,749;   -2,089;   -0,773
855,435;20524,639;   -0,907;   -1,682
855,997;20688,438;   -1,816;   -0,136
856,558;19975,692;    0,366;    1,773
857,119;20096,491;    0,820;    2,864
857,681;19744,836;    0,002;    0,318
858,242;19841,453;    1,911;   -2,136
858,803;20240,616;    0,456;   -0,773
859,364;20821,779;    0,184;   -4,773
859,925;20128,851;   -2,453;   -0,955
860,486;19969,650;   -0,453;   -0,955
861,047;19697,177;   -0,544;   -1,227
861,608;19468,885;   -1,089;   -0,773
862,169;19594,775;    0,638;   -0,045
862,730;19387,574;    0,456;    1,409
863,291;19659,465;   -0,635;   -0,500
863,852;20040,809;   -0,635;    1,955
864,412;19458,972;   -0,271;   -0,864
864,973;18011,590;   -0,089;    0,500
865,534;17904,025;   -1,726;    0,227
866,094;19424,552;    1,820;    0,227
866,655;19070,078;    1,274;    3,318
867,215;19294,968;    0,274;    0,136
867,776;19172,222;    0,547;   -0,136
868,336;19312,567;   -1,453;    0,136
868,897;18773,911;    2,638;    1,682
869,457;18487,802;    1,365;    0,318
870,017;18706,055;    0,547;   -1,227
870,578;19226,400;   -0,817;    0,773
871,138;18940,563;   -2,089;   -0,955
871,698;18462,817;   -0,817;   -1,318
872,258;18313,980;   -0,453;   -2,864
872,818;18718,870;    2,729;    0,045
873,378;18658,851;    0,638;    1,045
873,938;18220,014;    0,547;    0,500
874,498;18565,631;    0,274;   -1,955
875,058;18450,703;    2,183;    1,773
875,618;18258,411;    1,910;   -2,682
876,177;18204,847;    1,274;    0,136
876,737;17814,101;   -0,090;    1,955
877,297;17854,900;    0,183;    1,955
877,856;17851,426;   -0,362;    0,318
878,416;17780,044;    1,183;   -0,136
878,976;18003,388;   -1,817;    0,409
879,535;18143,188;    0,092;    3,136
880,095;17907,896;   -0,544;    0,045
880,654;18033,513;   -1,090;    1,318
881,213;18124,767;    2,456;    1,500
881,773;17738,930;    2,637;    2,682
882,332;18127,820;    3,365;    5,136
882,891;17958,438;    3,092;    2,136
883,451;18451,964;   -1,272;    1,682
884,010;17864,582;   -2,908;   -0,409
884,569;17967,835;   -0,999;   -0,045
885,128;18111,362;    2,819;   -1,864
885,687;18197,616;    4,455;    0,682
886,246;17927,324;    1,455;    2,136
886,805;17669,941;    2,455;    2,045
887,364;17968,741;   -0,999;   -0,500
887,922;18300,994;   -1,181;    0,045
888,481;17807,975;   -1,545;    0,591
889,040;18142,138;    1,183;    2,136
889,599;18825,756;    2,455;    1,409
890,157;18902,737;    1,455;    2,409
890,716;18546,627;   -0,090;    0,227
891,274;18348,426;    0,092;   -1,136
891,833;18809,407;    1,546;    0,864
892,391;18671,115;   -0,454;    0,500
892,950;18736,006;    1,819;   -0,773
893,508;19148,532;    0,455;   -0,409
894,067;18438,968;    0,637;    0,136
894,625;18322,403;   -0,636;   -1,500
895,183;18594,112;   -0,363;   -0,682
895,741;18427,820;    1,728;   -1,773
896,299;18276,710;   -0,545;   -2,409
896,858;18468,964;    0,819;   -1,591
897,416;18600,581;    2,728;   -1,318
897,974;18307,835;    1,819;    0,318
898,532;18520,361;    6,091;    2,682
899,089;18384,342;    2,091;   -0,682
899,647;18413,869;   -1,454;    1,318
900,205;18066,577;    1,182;    1,045
900,763;18282,013;   -0,454;    0,227
901,321;18314,539;    2,364;   -1,409
901,878;17671,611;   -1,000;   -0,773
902,436;17570,047;   -1,363;    1,318
902,994;17968,846;    4,728;    3,682
903,551;17381,918;    0,728;    0,409
904,109;17791,172;    0,182;   -1,409
904,666;17328,244;    2,455;    1,045
905,224;17131,498;    0,182;   -0,409
905,781;16915,842;    0,727;   -0,318
906,338;16986,460;   -1,363;    1,045
906,895;16911,804;    0,637;    2,045
907,453;16864,149;    1,727;    1,136
908,010;16895,494;   -0,909;    0,409
908,567;16518,929;    1,273;    0,591
909,124;15973,729;    0,364;   -1,500
909,681;16075,801;   -2,909;    0,682
910,238;16207,054;    0,636;   -1,318
910,795;16513,581;   -0,273;   -1,136
911,352;16148,490;   -2,909;   -2,682
911,909;15513,217;   -1,364;   -0,864
912,466;16026,126;   -3,182;    1,500
913,022;15555,308;   -1,636;    0,500
913,579;15904,217;   -0,909;    2,045
914,136;15586,217;    1,636;    0,955
914,692;15940,490;    0,091;   -1,227
915,249;15548,581;    1,455;    0,409
915,806;15794,035;    0,182;    1,955
916,362;15528,490;    1,909;    1,864
916,918;15114,035;    2,000;    1,045
917,475;15073,399;   -1,182;    0,955
918,031;15096,672;    3,364;   -0,045
918,587;14549,217;   -0,909;   -0,318
919,144;14785,490;   -2,273;    0,227
919,700;15070,672;    1,727;    0,773
920,256;14641,126;    0,727;    0,045
920,812;14235,035;   -0,727;   -1,045
921,368;14219,308;   -1,727;   -1,045
921,924;13855,490;    0,182;   -0,136
922,480;13439,490;   -0,545;    1,227
923,036;14045,399;    1,273;    1,955
923,592;13997,035;    0,455;    0,318
924,148;13925,672;    0,455;   -0,955
924,704;13219,126;   -1,364;   -0,409
925,259;13464,126;   -0,273;    0,591
925,815;13198,035;    1,455;    0,500
926,371;12675,672;    2,909;    1,409
926,926;12590,672;    2,091;    0,591
927,482;12206,399;   -1,364;    0,773
928,037;12116,672;    0,909;    2,045
928,593;12382,944;    1,636;    1,045
929,148;12192,672;   -1,818;   -1,500
929,704;11661,308;   -1,455;   -0,500
930,259;11885,035;    0,091;   -0,136
930,814;10914,581;   -0,818;    1,955
931,369;10566,854;    1,091;   -0,773
931,925;10425,581;   -0,091;    0,136
932,480;10350,217;   -2,818;   -2,591
933,035;10249,217;    0,545;   -0,318
933,590; 9986,399;    0,364;   -1,773
934,145; 9549,944;   -1,364;   -0,318
934,700; 9901,217;    0,455;   -0,591
935,255; 9701,490;   -0,091;    0,045
935,809; 8969,672;    3,182;    0,864
936,364; 8045,490;   -0,455;   -0,136
936,919; 7973,763;    0,455;   -1,773
937,474; 7834,490;    1,455;    0,136
938,028; 7592,944;   -1,636;    1,136
938,583; 7051,399;    1,818;    4,682
939,138; 7294,854;    2,091;    2,136
939,692; 6698,126;    1,636;   -1,136
940,247; 6406,763;   -0,727;   -1,045
940,801; 5943,763;   -0,636;    0,227
941,355; 5784,308;   -0,364;    2,591
941,910; 5420,126;   -0,273;   -2,136
942,464; 5559,126;   -0,818;   -0,318
943,018; 5350,944;    1,000;   -0,227
943,572; 5291,035;    2,545;   -0,682
944,126; 4656,126;    0,091;   -0,409
944,681; 4548,308;    3,091;    0,227
945,235; 4531,672;    1,000;   -0,591
945,789; 4480,308;    0,364;   -1,864
946,342; 4570,581;    0,455;   -0,591
946,896; 4362,308;   -2,273;    0,955
947,450; 4095,308;    1,545;   -0,227
948,004; 4320,581;    1,727;   -0,045
948,558; 4323,944;    0,273;   -0,864
949,111; 4229,581;   -0,273;   -0,318
949,665; 4259,217;    1,636;   -0,682
950,219; 4116,126;   -0,091;   -1,045
950,772; 4210,035;   -1,909;    1,864
951,326; 4107,217;    0,545;   -0,955
951,879; 4228,035;    0,727;   -2,318
952,433; 4249,944;    0,000;    2,227
952,986; 4049,581;    2,909;    0,682
953,539; 4030,672;   -0,273;    0,591
954,093; 3953,581;    0,545;   -1,318
954,646; 4101,944;    0,909;    1,318
955,199; 3906,035;    0,000;   -0,500
955,752; 3763,581;   -0,455;    1,773
956,305; 3724,581;   -0,091;    2,955
956,858; 3929,399;    0,818;   -0,318
957,411; 4089,217;   -0,545;    2,136
957,964; 3900,217;    1,364;    2,136
958,517; 3886,490;   -1,545;    3,136
959,070; 3711,854;   -0,455;    1,955
959,623; 3787,581;    1,091;    1,500
960,176; 3530,217;    1,727;    2,045
960,728; 3529,126;   -2,727;    0,773
961,281; 3566,308;    0,545;    0,500
961,834; 3635,217;   -0,909;    0,864
962,386; 3552,399;    1,727;    1,045
962,939; 3471,854;    0,364;   -0,318
963,491; 3614,399;    0,455;    1,136
964,043; 3490,217;    1,182;    2,409
964,596; 3627,490;   -1,000;    2,227
965,148; 3450,490;   -1,000;    1,773
965,700; 3373,035;    1,091;   -0,227
966,253; 3515,308;   -0,636;    0,318
966,805; 3336,126;   -2,273;    0,773
967,357; 3409,763;    1,091;   -1,500
967,909; 3357,399;    0,455;   -1,227
968,461; 3475,672;    0,545;    3,136
969,013; 3402,217;   -0,182;   -0,864
969,565; 3488,490;   -0,455;   -1,136
970,117; 3516,308;   -0,364;    1,045
970,669; 3366,581;    0,182;   -0,136
971,220; 3226,854;   -0,455;   -1,500
971,772; 3146,035;   -0,636;   -0,318
972,324; 3275,944;    0,091;   -0,500
972,876; 3214,126;    0,818;   -0,045
973,427; 3353,217;    1,909;   -1,045
973,979; 3320,490;   -0,727;   -2,500
974,530; 3376,581;    1,818;    1,318
975,082; 3370,399;   -0,545;    1,682
975,633; 3252,035;    1,091;    1,682
976,184; 3399,944;    0,909;    0,773
976,736; 3165,672;    0,091;    0,227
977,287; 2974,035;   -0,909;   -0,500
977,838; 3170,308;    0,909;   -0,318
978,389; 3246,308;   -1,000;   -0,500
978,940; 3113,126;    0,545;   -0,409
979,491; 3134,308;    0,091;   -0,500
980,042; 3072,035;    0,182;    3,045
980,593; 3138,581;   -2,545;    0,227
981,144; 3188,854;    2,545;   -0,500
981,695; 3135,217;    1,455;    1,500
982,246; 3104,308;   -0,273;    1,045
982,797; 3295,490;   -1,727;    0,682
983,347; 3384,672;    0,364;    0,591
983,898; 3551,672;    3,091;    0,409
984,449; 3363,672;    2,182;    0,773
984,999; 3281,581;    1,455;   -1,136
985,550; 3025,581;    0,182;   -0,318
986,100; 3071,217;   -0,455;   -0,318
986,651; 3109,126;   -0,818;    0,045
987,201; 3099,763;   -1,000;   -0,591
987,751; 3170,217;    0,818;    2,864
988,302; 3143,944;    2,636;    1,500
988,852; 3180,399;    0,455;   -1,136
989,402; 3227,399;    0,091;    0,682
989,952; 3142,581;   -2,182;    0,864
990,502; 3250,763;   -0,091;    0,682
991,052; 3197,854;   -0,727;    0,045
991,602; 3071,672;   -2,909;    1,318
992,152; 3074,490;    0,455;    0,682
992,702; 3041,581;    1,364;   -0,045
993,252; 2959,854;   -3,000;   -0,500
993,802; 3061,126;   -0,273;    1,318
994,352; 3291,399;   -1,545;    1,136
994,901; 3387,035;   -0,182;    3,227
995,451; 3299,854;   -0,182;    0,318
996,000; 3393,217;    1,636;    0,318
996,550; 3104,399;    2,273;    0,227
997,100; 3096,763;    1,273;   -0,045
997,649; 3378,854;    2,182;    0,955
998,198; 2984,672;    1,727;   -1,500
998,748; 3209,308;    1,091;   -2,318
999,297; 3121,217;   -0,818;   -0,409
999,846; 3166,490;    1,000;   -0,773
1000,395; 3214,581;   -0,818;    0,500
1000,945; 3161,399;    1,818;   -0,773
1001,494; 3273,581;    2,364;    0,682
1002,043; 3251,126;    4,636;    0,864
1002,592; 3089,490;   -1,091;    1,955
1003,141; 3243,763;   -0,455;   -0,682
1003,690; 3086,308;    1,727;    0,500
1004,238; 3194,854;    1,455;   -0,045
1004,787; 2805,672;    1,364;    1,227
1005,336; 3031,399;    0,364;    0,682
1005,885; 3203,944;    1,364;   -2,773
1006,433; 3349,581;    0,545;    0,955
1006,982; 3373,672;    0,455;    1,682
1007,531; 3291,308;   -1,818;   -0,227
1008,079; 3250,944;   -2,273;    0,500
1008,627; 3397,308;   -1,455;    0,409
1009,176; 3117,672;    0,000;   -1,955
1009,724; 3168,944;    1,091;    0,864
1010,273; 3213,944;    1,273;    0,500
1010,821; 3325,308;    0,091;    1,409
1011,369; 3057,854;   -1,364;    1,318
1011,917; 3041,763;   -1,364;   -0,591
1012,465; 3328,944;    1,273;   -1,591
1013,013; 3449,126;    2,091;   -1,682
1013,561; 3315,944;    0,455;   -0,773
1014,109; 3365,217;   -1,909;    1,682
1014,657; 3250,035;    0,364;    0,591
1015,205; 3368,944;    1,636;   -0,955
1015,753; 3411,672;   -0,545;   -1,409
1016,301; 3433,399;   -2,636;    3,045
1016,848; 3429,672;   -1,273;    0,409
1017,396; 3484,581;    2,545;    0,045
1017,944; 3624,490;    1,182;    1,864
1018,491; 3376,944;    0,273;    1,409
1019,039; 3500,399;    0,455;    0,591
1019,586; 3432,944;   -1,364;    1,682
1020,134; 3547,308;    0,455;    1,500
1020,681; 3569,126;    0,182;   -1,136
1021,228; 3559,217;    2,909;   -2,227
1021,776; 3370,581;    1,182;   -1,136
1022,323; 3597,490;    0,455;    0,773
1022,870; 3523,399;   -1,000;   -0,045
1023,417; 3424,944;    2,636;    1,864
1023,964; 3561,854;    2,636;    1,227
1024,511; 3403,035;    1,000;    0,773
1025,058; 3206,944;    3,182;   -0,045
1025,605; 3264,763;   -2,273;    3,136
1026,152; 3485,308;    1,727;   -0,591
1026,699; 3210,035;    1,818;    1,318
1027,245; 3368,399;   -0,091;    0,318
1027,792; 3590,854;   -1,000;    1,409
1028,339; 3468,126;    2,364;   -0,045
1028,885; 3302,126;    1,000;   -0,227
1029,432; 3256,035;   -0,091;    0,227
1029,978; 3328,944;   -1,000;   -1,591
1030,525; 3211,490;    1,000;    0,409
1031,071; 3461,399;   -1,364;    1,136
1031,618; 3550,035;    0,364;    1,682
1032,164; 3330,035;   -0,091;    3,045
1032,710; 3377,581;    1,636;   -1,500
1033,256; 3288,854;   -0,636;   -0,136
1033,803; 3285,126;   -0,545;    1,500
1034,349; 2987,126;   -1,364;    0,136
1034,895; 3134,490;    0,000;   -0,318
1035,441; 3135,581;   -0,818;    0,318
1035,987; 3140,672;   -2,364;   -0,682
1036,533; 3113,035;   -1,455;   -0,955
1037,078; 3332,581;    1,455;    1,682
1037,624; 3142,672;    2,455;   -0,955
1038,170; 3184,581;    0,455;   -0,318
1038,716; 3093,581;    1,636;   -0,409
1039,261; 2984,490;   -2,273;   -0,773
1039,807; 2917,944;   -0,091;    3,409
1040,352; 2986,308;   -1,909;   -0,318
1040,898; 3031,672;   -1,545;   -0,682
1041,443; 2936,944;   -1,455;   -2,591
1041,989; 2947,035;    1,091;    1,591
1042,534; 2831,672;   -0,364;    2,591
1043,079; 2946,126;    2,909;    0,955
1043,625; 2740,581;    1,818;    0,500
1044,170; 2785,944;   -1,364;    1,045
1044,715; 3047,035;    2,455;    0,955
1045,260; 2859,763;    2,182;   -0,955
1045,805; 2900,944;    1,182;   -0,591
1046,350; 2819,399;    1,364;   -0,409
1046,895; 2785,581;    2,909;    1,591
1047,440; 2733,944;    5,364;    0,409
1047,985; 2623,035;    2,818;   -0,955
1048,530; 2554,581;    1,545;    1,227
1049,074; 2631,399;    0,000;    0,318
1049,619; 2593,763;   -1,364;    1,955
1050,164; 2378,763;    0,455;    0,227
1050,708; 2419,399;   -0,455;    0,045
1051,253; 2781,854;    1,273;   -2,227
1051,797; 2489,854;    0,818;   -1,318
1052,342; 2503,581;   -1,182;    1,045
1052,886; 2509,854;    0,364;   -1,409
1053,430; 2385,854;   -1,364;    0,136
1053,975; 2386,126;   -0,818;   -0,318
1054,519; 2357,217;   -0,727;    3,227
1055,063; 2378,490;    0,909;    1,318
1055,607; 2264,035;   -0,182;    0,227
1056,151; 2288,672;    2,909;    1,682
1056,695; 2201,217;    2,273;   -1,136
1057,239; 2275,399;   -1,727;   -0,682
1057,783; 2296,490;    0,818;   -1,500
1058,327; 2232,763;    0,000;    1,409
1058,871; 2467,399;   -0,545;    1,318
1059,415; 2167,126;   -0,818;   -0,045
1059,958; 2429,854;    1,455;    2,591
1060,502; 2146,581;   -1,000;   -0,773
1061,046; 2045,944;    0,364;   -0,955
1061,589; 2024,308;   -3,000;   -1,136
1062,133; 1896,854;   -1,273;    1,864
1062,676; 1848,126;    1,182;    0,864
1063,220; 1841,854;    1,091;    0,500
1063,763; 1881,308;    0,909;    1,136
1064,306; 1974,035;   -0,909;    1,864
1064,849; 1852,217;   -0,909;    0,591
1065,393; 1847,854;    2,000;   -1,500
1065,936; 1967,490;    0,182;   -0,409
1066,479; 1844,490;   -1,455;    1,318
1067,022; 1864,035;   -0,273;   -0,227
1067,565; 1761,035;   -0,091;   -1,318
1068,108; 1777,672;    0,727;   -0,591
1068,651; 1746,399;   -0,636;    1,409
1069,194; 1682,308;   -0,455;   -1,682
1069,736; 1686,308;   -1,273;    0,955
1070,279; 1655,490;   -1,364;   -0,500
1070,822; 1714,854;   -2,000;   -0,318
1071,364; 1803,308;   -0,364;    1,318
1071,907; 1629,035;   -0,727;    3,227
1072,450; 1525,490;    0,000;   -0,045
1072,992; 1511,944;   -0,273;    3,136
1073,535; 1665,035;    2,091;    2,136
1074,077; 1452,399;   -0,727;    2,045
1074,619; 1414,854;   -1,364;    0,591
1075,161; 1453,126;   -1,091;    1,500
1075,704; 1636,126;    1,545;    1,227
1076,246; 1423,672;   -0,182;    0,682
1076,788; 1349,399;   -0,364;    1,773
1077,330; 1412,581;    1,273;    2,136
1077,872; 1386,763;    0,909;    0,955
1078,414; 1616,672;    2,727;    0,773
1078,956; 1358,308;    1,273;   -0,227
1079,498; 1622,490;    1,636;    0,318
1080,040; 1318,490;    1,909;   -1,318
1080,581; 1243,672;    1,636;   -0,318
1081,123; 1175,581;    0,091;   -0,773
1081,665; 1222,217;   -1,182;   -0,955
1082,206; 1535,944;    1,364;   -0,500
1082,748; 1374,126;    0,727;    2,045
1083,289; 1253,035;   -2,000;    1,318
1083,831; 1150,217;   -0,545;    0,227
1084,372; 1203,399;    0,000;    0,591
1084,913; 1211,672;    1,091;    0,864
1085,455; 1160,944;   -1,909;   -2,045
1085,996; 1139,672;   -2,273;    0,136
1086,537; 1160,581;   -0,091;    0,864
1087,078; 1196,944;   -0,909;   -2,136
1087,619; 1249,217;   -1,273;    0,227
1088,160; 1152,399;    0,000;    1,318
1088,701; 1129,126;   -1,091;    0,682
1089,242; 1068,763;    1,364;   -2,227
1089,783; 1185,399;   -0,273;    1,409
1090,324; 1147,399;    0,455;    0,682
1090,865; 1011,126;    2,727;   -0,409
1091,405;  967,217;    0,727;    2,227
1091,946; 1007,672;    0,182;   -0,955
1092,487;  938,490;    0,818;   -1,409
1093,027; 1102,944;   -1,364;   -1,500
1093,568;  953,763;   -0,364;    1,227
1094,108; 1069,399;    0,273;    1,773
1094,649; 1001,763;   -1,182;    0,136
1095,189;  935,126;   -0,636;   -0,682
1095,729;  881,763;   -0,091;    0,955
1096,269;  877,854;    0,727;   -0,955
1096,810; 1218,854;   -1,364;    0,500
1097,350; 1032,944;    1,364;   -0,773
1097,890;  923,581;    0,364;    1,227
1098,430; 1188,763;    2,364;    2,864
1098,970; 1063,763;    2,182;    1,682
1099,510;  914,035;    0,545;   -2,318
1100,050;  836,035;    1,000;   -1,591
1100,589;  806,399;   -0,727;   -0,318
1101,129;  934,763;    0,818;   -0,955
1101,669; 1096,672;    1,727;    2,136
1102,209;  905,126;   -0,091;    2,227
1102,748;  858,763;    0,000;    0,955
1103,288;  851,672;    1,273;   -1,227
1103,827;  884,581;    3,091;   -2,227
1104,367;  759,490;   -0,091;   -2,409
1104,906;  718,399;    1,364;   -1,136
1105,445;  794,944;    0,636;   -1,136
1105,985;  742,944;   -0,727;    1,500
1106,524;  789,854;   -1,727;   -0,682
1107,063;  766,126;   -2,727;    1,409
1107,602;  731,854;   -1,909;   -1,500
1108,141;  645,126;   -1,909;    1,500
1108,680;  763,217;   -3,455;   -0,591
1109,219;  695,035;   -0,909;   -0,500
1109,758;  694,126;    0,455;    0,682
1110,297;  669,399;    1,000;   -0,682
1110,836;  613,490;   -0,727;    0,955
1111,375;  784,854;   -2,545;    0,409
1111,913;  788,854;   -1,000;    0,773
1112,452;  726,399;   -0,273;    0,136
1112,991;  599,308;    1,091;    1,955
1113,529;  563,217;   -0,818;   -0,045
1114,068;  638,035;   -0,273;    2,955
1114,606;  527,581;   -0,364;   -0,955
1115,144;  701,308;   -1,273;    1,045
1115,683;  629,217;   -0,727;    0,318
1116,221;  681,944;   -0,455;   -0,864
1116,759;  583,672;    0,636;   -0,864
1117,297;  794,217;    0,000;    1,864
1117,836;  597,035;   -2,182;   -1,227
1118,374;  606,035;    0,182;   -0,682
1118,912;  542,944;    0,909;    2,682
1119,450;  532,581;    1,000;    0,864
1119,988;  589,581;    1,545;    2,136
1120,525; 1057,672;    5,091;    3,318
1121,063;  749,490;    1,182;    1,864
1121,601;  542,854;   -0,909;   -1,227
1122,139;  502,399;   -0,727;   -2,045
1122,676;  718,581;   -0,727;    2,773
1123,214;  635,490;   -1,182;    4,409
1123,751;  438,944;    1,727;    2,227
1124,289;  580,763;   -0,091;   -0,409
1124,826;  439,035;    1,727;    0,227
1125,364;  359,581;    1,727;   -0,955
1125,901;  561,126;    1,182;    1,227
1126,438;  682,490;    0,818;    0,955
1126,975;  390,399;   -0,727;   -0,773
1127,513;  470,308;    0,273;    2,136
1128,050;  365,672;    1,636;   -0,682
1128,587;  468,126;    2,000;   -0,227
1129,124;  531,399;    0,091;    1,318
1129,661;  374,672;    0,273;    0,227
1130,198;  533,490;    1,636;    0,773
1130,734;  493,672;    0,182;    1,409
1131,271;  338,944;   -0,909;    0,864
1131,808;  518,308;    2,909;    3,045
1132,345;  390,035;    1,545;    0,318
1132,881;  250,490;   -1,545;   -1,864
1133,418;  399,308;    0,727;   -1,136
1133,954;  336,763;    2,455;   -2,682
1134,491;  422,672;    1,364;   -0,773
1135,027;  309,944;    2,364;    0,864
1135,564;  399,217;    0,273;    2,955
1136,100;  388,126;    0,364;    2,136
1136,636;  271,763;   -1,273;   -1,045
1137,172;  378,217;    0,000;   -1,045
1137,708;  296,399;   -1,364;   -1,045
1138,245;  301,854;    1,273;   -1,227
1138,781;  242,126;    1,091;   -3,318
1139,317;  325,763;    1,273;   -1,409
1139,852;  302,490;    3,091;    0,136
1140,388;  428,944;   -1,182;   -0,409
1140,924;  310,854;   -1,091;   -2,227
1141,460;  235,944;   -1,636;    0,136
1141,996;  162,763;   -1,364;    2,682
1142,531;  227,126;    1,364;    3,318
1143,067;  462,217;    1,182;    1,045
1143,602;  513,399;   -0,091;   -0,318
1144,138;  346,854;   -2,636;    1,045
1144,673;  215,308;   -1,455;    1,409
1145,209;  279,308;   -1,909;   -0,318
1145,744;  192,217;   -0,727;    0,864
1146,279;  351,490;    1,818;   -0,136
1146,815;  247,763;    1,545;   -2,682
1147,350;  286,672;   -1,364;    0,045
1147,885;  192,763;   -0,818;   -1,318
1148,420;  191,944;   -2,273;    0,773
1148,955;  181,763;   -1,727;    1,864
1149,490;  213,581;   -0,909;   -1,591
1150,025;  185,944;    0,455;   -1,773
1150,560;  307,672;    1,091;   -0,955
1151,094;  278,490;    1,455;   -0,591
1151,629;  281,217;    1,636;    0,864
1152,164;  202,035;    1,364;    1,318
1152,698;  152,308;   -0,182;   -0,136
1153,233;  107,035;    0,091;   -0,682
1153,767;  163,763;   -3,000;   -2,318
1154,302;  213,581;   -1,455;    1,773
1154,836;  221,399;   -0,455;   -2,136
1155,371;  284,035;   -1,364;    3,682
1155,905;  222,126;   -0,636;    1,682
1156,439;  180,217;   -0,636;   -0,500
1156,973;  222,126;    0,364;    0,318
1157,507;  151,763;   -0,364;    0,682
1158,042;  187,763;   -0,727;    1,045
1158,576;  241,944;    0,182;    1,773
1159,110;  226,217;   -0,818;    2,409
1159,643;  192,035;    0,636;   -0,045
1160,177;  117,854;   -1,545;    1,500

