
Integration time [ms]:   0,040
Averaging Nr. [scans]: 11
Smoothing Nr. [pixels]: 0
Data measured with spectrometer [name]: 7318044SP
Wave   ;Sample   ;Dark     ;Reference
[nm]   ;[counts] ;[counts] ;[counts] 

186,757;   21,766;   31,551;    1,318
187,357;   65,868;   22,551;    0,955
187,958;   33,699;   15,460;   -1,591
188,558;   77,701;    8,915;   -1,227
189,159;   38,738;    6,733;   -4,500
189,759;   14,452;    7,278;   -3,591
190,360;    6,709;    2,824;   -2,136
190,960;   50,290;    2,915;   -4,136
191,560;   66,490;    3,189;   -6,591
192,161;  318,513;    4,372;   -3,500
192,761;  165,447;    4,010;   -3,227
193,361;  107,173;    1,556;   -3,773
193,962;  159,051;    2,010;   -2,682
194,562;   85,227;    1,189;   -3,955
195,162;  120,587;   -2,448;   -2,227
195,762;  298,942;   -3,176;   -0,045
196,362;  246,060;    1,370;   -2,500
196,963;   99,321;    2,006;   -0,864
197,563;  174,506;    1,551;   -0,955
198,163;  111,535;    0,096;   -0,682
198,763;  135,598;    1,733;   -0,500
199,363;  249,443;    3,096;   -0,500
199,963;  200,393;    0,369;    0,409
200,563;  170,979;    2,823;   -1,409
201,163;  159,616;    3,277;   -0,227
201,763;  250,499;    3,732;    0,318
202,363;  187,811;    1,459;    1,500
202,963;  312,111;    1,459;    1,045
203,563;  424,916;    0,277;    0,500
204,162;  259,046;    2,096;   -1,864
204,762;  244,400;    0,550;    0,591
205,362;  206,775;    3,004;    1,955
205,962;  305,265;    3,096;    1,955
206,562;  312,644;    1,823;    2,318
207,161;  276,504;   -0,087;    0,318
207,761;  443,852;    1,277;    2,409
208,361;  307,565;   -0,268;    1,409
208,960;  424,670;    0,459;    1,500
209,560;  488,452;    1,277;    1,591
210,160;  464,178;    0,550;    1,864
210,759;  426,242;    4,186;    1,227
211,359;  435,804;    1,459;    1,045
211,958;  714,867;    1,277;    2,045
212,558;  797,399;    1,732;    1,864
213,157;  625,140;    1,822;    1,500
213,757; 1082,817;    3,822;   -0,227
214,356;  770,322;    1,277;   -0,409
214,956; 1122,034;    3,095;    0,409
215,555;  715,207;    2,095;    2,136
216,154;  656,324;   -2,723;   -0,591
216,754;  655,168;    0,277;    0,773
217,353;  792,049;   -0,268;   -1,045
217,952;  635,274;   -0,178;    0,318
218,552;  896,352;    1,368;   -0,773
219,151;  769,586;    0,277;    0,955
219,750;  778,575;    0,004;   -0,227
220,349;  884,079;   -0,451;    1,045
220,948;  952,262;   -1,360;    1,136
221,548;  965,520;    0,913;    1,227
222,147; 1076,883;   -0,087;   -0,409
222,746; 1369,119;   -0,451;   -0,955
223,345; 1248,600;    0,731;    0,500
223,944; 1245,365;   -0,451;    0,773
224,543; 1402,987;    1,004;   -1,409
225,142; 1520,498;    0,094;    0,136
225,741; 1404,248;   -0,814;    1,045
226,340; 1436,846;   -0,451;   -0,955
226,939; 1890,364;   -0,996;   -0,136
227,538; 1802,949;   -0,360;   -0,773
228,137; 1955,986;   -0,814;    0,864
228,735; 2075,999;   -0,541;    1,227
229,334; 1826,207;   -0,905;   -0,227
229,933; 2223,597;    0,459;    0,591
230,532; 2334,388;    1,186;   -0,409
231,131; 2374,426;    1,732;    0,318
231,729; 2491,934;   -2,450;   -2,318
232,328; 2579,765;   -0,723;   -1,500
232,927; 2634,205;    1,004;   -0,500
233,525; 2737,416;    3,640;    0,045
234,124; 2948,635;    2,368;   -1,591
234,723; 2939,259;    0,913;   -1,045
235,321; 3066,572;    2,277;    0,136
235,920; 3299,376;    1,186;   -1,227
236,518; 3531,234;    3,459;    0,318
237,117; 3660,572;    0,004;   -0,227
237,715; 3806,986;    0,640;   -0,500
238,314; 3855,531;   -0,087;   -2,318
238,912; 3966,557;   -0,723;   -1,409
239,510; 3958,427;    0,459;   -1,227
240,109; 4139,062;    0,004;    3,773
240,707; 4131,335;   -0,996;    1,227
241,305; 4478,089;    0,550;    0,136
241,904; 4659,089;   -0,178;   -2,045
242,502; 4606,868;   -0,632;   -0,227
243,100; 4549,467;   -0,087;   -0,955
243,698; 4754,244;    0,732;    1,682
244,297; 4906,739;   -0,632;    0,682
244,895; 4752,961;   -0,269;   -2,318
245,493; 5074,170;    2,186;   -0,591
246,091; 5078,377;    1,368;   -1,318
246,689; 5036,117;    1,004;    0,591
247,287; 5155,468;    0,822;   -1,136
247,885; 5426,119;   -1,451;    1,227
248,483; 5491,091;    1,822;   -0,500
249,081; 5619,029;    0,185;    1,591
249,679; 5763,107;   -0,178;    1,682
250,277; 6015,664;   -1,723;    0,864
250,875; 5974,090;   -1,087;   -1,045
251,473; 6013,949;   -1,178;    0,500
252,071; 6196,000;    1,459;    1,045
252,669; 6271,001;   -1,814;    0,318
253,267; 6505,744;   -0,087;    0,773
253,864; 6462,650;   -0,360;    0,682
254,462; 6375,248;    1,640;    1,591
255,060; 6296,767;   -0,269;    1,318
255,658; 6610,456;    0,822;   -0,136
256,255; 6997,117;    0,186;   -2,045
256,853; 6853,210;   -0,269;    1,409
257,451; 6817,559;    0,822;    1,864
258,048; 7118,169;    1,822;    1,864
258,646; 6833,352;    1,731;   -1,045
259,243; 7045,210;   -0,087;    2,227
259,841; 7083,780;   -0,814;    0,318
260,438; 6970,807;   -0,087;    0,864
261,036; 7605,025;   -1,905;    1,409
261,633; 7496,884;   -0,087;    2,227
262,231; 7248,702;    2,731;   -0,045
262,828; 7340,297;   -0,905;    1,136
263,425; 7412,013;    0,913;   -0,591
264,023; 7665,858;    0,186;    0,045
264,620; 7225,378;   -0,360;   -0,318
265,217; 7540,443;   -2,087;    3,136
265,815; 7607,691;   -1,905;    2,136
266,412; 7429,053;    0,731;    0,136
267,009; 7483,754;   -1,451;    0,773
267,606; 7405,352;    0,822;   -0,955
268,203; 7336,545;   -0,269;   -0,591
268,801; 7589,676;    1,731;    0,591
269,398; 7879,379;   -0,360;    2,500
269,995; 7890,025;    0,277;    1,591
270,592; 7674,506;   -0,632;   -0,500
271,189; 7834,314;    0,186;    0,409
271,786; 7935,844;   -0,632;    1,227
272,383; 7849,909;   -1,087;    0,227
272,980; 8002,338;    0,277;    0,318
273,577; 8421,115;    0,004;    1,227
274,174; 8002,817;    0,822;    2,591
274,771; 7998,910;   -0,814;   -0,773
275,367; 8196,583;    2,277;    1,409
275,964; 8138,389;    0,731;   -0,500
276,561; 8206,053;    1,549;   -1,045
277,158; 8409,561;    0,095;   -1,773
277,755; 8549,847;    2,185;    0,409
278,351; 7967,456;   -0,451;   -1,500
278,948; 8265,562;   -0,815;    0,045
279,545; 8220,288;   -1,360;    2,318
280,141; 8892,065;   -1,723;   -2,045
280,738; 8711,481;   -0,451;   -0,136
281,334; 8922,288;   -1,633;    0,591
281,931; 8377,199;   -0,087;   -1,318
282,528; 8449,926;    0,822;   -0,500
283,124; 9102,885;   -1,087;   -0,500
283,721; 8990,796;   -0,451;    1,409
284,317; 8799,511;    0,185;    2,500
284,913; 9379,381;   -1,360;    0,591
285,510; 9550,836;    0,640;   -0,318
286,106; 9578,341;   -2,269;   -0,955
286,703; 9165,847;   -0,360;    1,955
287,299; 9347,599;   -1,451;   -0,591
287,895; 9542,495;    0,822;   -1,045
288,491;10055,197;    0,186;    2,136
289,088; 9855,600;   -2,360;    2,409
289,684; 9933,092;   -1,723;    1,500
290,280; 9956,013;    0,368;    0,682
290,876;10032,456;    1,822;    5,500
291,472; 9925,678;    1,276;    2,227
292,068;10007,406;    1,367;    0,227
292,665; 9728,689;    2,095;    0,773
293,261; 9362,106;    0,276;    2,136
293,857; 9773,766;    2,913;    2,136
294,453; 9695,428;    3,550;    0,955
295,049; 9620,917;   -0,268;    1,955
295,644; 9640,257;    0,095;    0,136
296,240; 9539,541;   -0,905;   -0,136
296,836; 9598,189;   -0,995;    0,318
297,432; 9871,811;    1,096;   -0,500
298,028; 9927,772;    0,732;    0,773
298,624;10257,968;    1,459;    1,864
299,220;10458,331;    2,368;    0,591
299,815;10129,592;    1,005;   -0,409
300,411; 9966,644;    0,914;    1,773
301,007; 9975,084;    1,368;    0,227
301,602; 9994,774;   -0,541;   -2,318
302,198;10176,031;    0,732;   -0,773
302,794;10452,435;    1,187;   -0,500
303,389;10532,578;   -1,177;    1,045
303,985;10631,513;    0,550;    1,409
304,580;10611,084;    1,459;    1,591
305,176;10558,528;   -3,086;    0,136
305,771;10470,256;   -1,268;   -1,227
306,367;10387,139;    4,095;    0,136
306,962;10661,955;    0,641;    1,500
307,558;10369,812;   -0,450;    0,136
308,153;10323,969;    1,095;   -1,136
308,748;10552,748;   -0,814;    1,682
309,344;10566,711;   -0,632;   -1,318
309,939;10684,216;   -1,905;   -1,318
310,534;10875,464;   -0,086;   -1,682
311,130;10800,878;    0,459;   -2,500
311,725;10540,138;    1,004;   -0,500
312,320;10870,631;    2,459;    0,045
312,915;10723,178;    1,459;   -1,045
313,510;10851,515;    1,550;   -0,500
314,105;11256,941;    1,096;    1,409
314,700;10639,747;   -3,086;   -1,045
315,295;10298,266;   -0,904;    0,045
315,890; 9865,799;    1,277;    0,864
316,485;10186,658;   -0,359;   -0,318
317,080;10272,657;   -3,086;    1,591
317,675;10801,345;    2,005;   -0,682
318,270;10312,966;    5,550;    3,318
318,865;10300,070;    3,278;    3,045
319,460;10121,657;   -0,904;    0,591
320,055;10293,615;   -0,541;   -1,227
320,650; 9991,835;   -1,995;   -0,591
321,244;10035,369;   -0,177;   -1,409
321,839;10939,617;   -1,541;   -0,227
322,434;10820,085;   -1,086;   -1,591
323,029;10511,019;    1,732;    1,591
323,623;10373,112;    1,550;    0,773
324,218;10168,018;    2,368;    1,409
324,812;10062,877;    1,096;    1,591
325,407; 9884,657;   -0,814;    2,045
326,002; 9822,059;    0,277;   -0,409
326,596;10132,967;    0,914;    1,318
327,191;10289,851;    0,823;   -1,045
327,785; 9904,967;   -0,813;   -0,227
328,379;10144,786;    1,368;    0,136
328,974; 9928,358;    0,914;   -3,955
329,568;10154,981;    0,186;   -2,409
330,163; 9986,201;    2,096;    1,045
330,757;10346,139;    2,459;    1,591
331,351; 9684,852;    0,459;    0,682
331,945; 9972,175;    0,914;    1,409
332,540; 9640,839;   -1,723;   -0,591
333,134; 9803,178;   -1,086;    0,773
333,728;10056,268;    0,005;    0,318
334,322;10325,293;   -1,177;   -0,864
334,916; 9607,464;    0,277;    0,955
335,510; 9966,540;   -0,450;   -0,136
336,105;10200,669;   -1,086;    1,591
336,699; 9896,255;   -1,086;    0,591
337,293; 9875,919;   -1,723;    0,318
337,887; 9975,111;   -2,723;    1,955
338,481;10147,605;    0,459;    0,591
339,074;10264,750;   -0,359;    2,682
339,668;10098,243;   -1,632;    1,227
340,262;10409,100;    1,732;    3,227
340,856; 9899,491;    1,822;   -0,682
341,450; 9262,167;    1,004;    1,864
342,044;10103,555;    1,459;    0,136
342,637; 9930,062;    0,913;   -2,136
343,231; 9782,702;   -2,360;    0,682
343,825; 9697,177;   -1,086;   -0,591
344,419; 9705,552;   -1,995;    0,500
345,012; 9556,604;    2,459;    4,045
345,606; 9574,837;    4,641;    1,591
346,199; 9380,303;   -1,813;   -0,227
346,793; 8961,615;    1,914;    2,045
347,386; 9140,318;   -0,813;   -1,136
347,980; 9126,705;   -0,268;   -0,045
348,573; 8967,703;    2,278;    0,409
349,167; 8693,364;    5,278;    4,773
349,760; 9011,183;    2,914;    2,682
350,354; 8953,907;   -0,813;    1,136
350,947; 8729,116;    1,096;    1,682
351,540; 8457,168;   -0,358;   -1,409
352,134; 8379,391;    1,096;    1,136
352,727; 8478,224;   -0,086;    1,136
353,320; 8268,352;    0,005;    0,591
353,913; 8096,573;   -1,995;    1,864
354,507; 8327,418;    0,823;   -1,227
355,100; 8304,859;    0,460;    0,864
355,693; 7671,518;    2,005;    2,409
356,286; 7691,767;    0,823;    2,773
356,879; 8022,612;   -0,722;    1,227
357,472; 7602,508;   -0,904;    1,500
358,065; 7840,234;   -0,722;    2,500
358,658; 7732,897;   -0,540;    2,318
359,251; 7420,235;   -1,631;   -0,591
359,844; 6969,000;   -1,904;   -1,136
360,437; 7157,353;   -2,995;    0,045
361,030; 7404,027;    1,369;   -0,682
361,623; 7020,674;    2,824;    0,318
362,215; 7096,844;   -0,086;    2,045
362,808; 6929,312;   -2,358;   -1,682
363,401; 7117,934;   -2,449;    0,136
363,994; 6937,478;   -0,631;   -1,500
364,586; 6808,697;    0,824;   -1,500
365,179; 7007,501;   -0,449;   -1,136
365,772; 6527,870;   -1,995;    2,045
366,364; 6792,489;    1,915;   -3,227
366,957; 6997,082;    2,279;   -0,045
367,549; 7005,263;    2,188;   -0,864
368,142; 6696,495;    1,825;   -1,500
368,734; 6865,076;    0,734;   -2,136
369,327; 6812,594;    1,643;   -0,500
369,919; 6755,812;   -1,538;    0,409
370,512; 6585,458;   -1,083;   -0,500
371,104; 6425,179;   -0,901;    1,591
371,696; 6583,612;    1,191;   -0,955
372,289; 6644,127;    0,373;    1,136
372,881; 6785,378;   -2,080;    1,318
373,473; 6681,670;   -2,170;    1,136
374,066; 6530,280;   -0,169;    0,500
374,658; 6397,678;    0,378;    1,136
375,250; 6695,480;    0,653;   -1,409
375,842; 6586,110;    0,473;   -0,045
376,434; 6481,316;   -0,435;   -0,409
377,026; 6990,205;    0,204;   -2,500
377,618; 6861,978;   -0,158;   -0,682
378,210; 6721,376;   -0,338;   -1,955
378,802; 6601,676;    0,754;   -0,591
379,394; 6620,575;    1,846;    0,682
379,986; 7130,178;    1,393;   -0,955
380,578; 7212,968;   -0,153;    0,773
381,170; 6640,832;   -0,972;    0,045
381,762; 6577,349;    0,755;    1,409
382,354; 6733,999;   -0,065;   -1,318
382,945; 6857,273;   -2,976;    0,318
383,537; 6975,808;   -2,705;   -1,955
384,129; 6970,626;   -2,160;   -1,136
384,721; 7147,409;   -0,252;    0,955
385,312; 7085,659;   -0,161;   -0,955
385,904; 7212,566;   -2,706;    1,591
386,496; 6595,641;   -0,979;    1,045
387,087; 6763,429;    1,022;    2,500
387,679; 6775,076;   -1,160;    0,045
388,270; 6901,464;    2,840;    2,045
388,862; 7002,374;    1,295;   -0,318
389,453; 6887,958;   -0,887;    1,045
390,045; 7148,477;   -0,705;   -2,682
390,636; 7048,254;    0,204;   -0,591
391,227; 6931,270;   -0,523;   -0,045
391,819; 7014,596;    0,204;    0,773
392,410; 7075,169;    1,022;    0,045
393,001; 7039,187;   -0,979;   -1,591
393,593; 7319,383;    1,930;   -0,045
394,184; 7192,707;    1,385;   -0,409
394,775; 7083,447;    1,839;    2,136
395,366; 7251,886;    1,385;    0,773
395,957; 7254,715;    0,113;    0,136
396,548; 7544,561;   -0,342;    2,682
397,139; 7859,077;   -2,433;    0,591
397,730; 7584,250;   -1,888;    0,955
398,321; 7625,303;   -1,252;    0,955
398,912; 7656,771;   -0,615;    0,136
399,503; 7744,096;   -3,524;   -1,409
400,094; 7217,552;    0,294;    1,682
400,685; 7081,381;   -0,433;    0,045
401,276; 7153,212;    0,930;   -0,955
401,867; 7437,875;   -0,888;    0,773
402,458; 7508,484;   -2,251;   -2,318
403,048; 7520,058;    1,112;    0,591
403,639; 7108,003;    0,840;    0,864
404,230; 7379,512;    2,476;    0,318
404,821; 7325,732;   -0,615;    0,045
405,411; 7455,617;    1,203;   -2,591
406,002; 7060,603;   -1,252;   -1,136
406,592; 6966,826;    2,294;    0,045
407,183; 7245,244;    0,566;   -1,500
407,774; 7149,659;    3,475;   -0,136
408,364; 7438,567;    0,930;    0,409
408,954; 7077,126;    0,384;    1,227
409,545; 7163,529;    1,021;    1,045
410,135; 6687,985;    1,293;    0,500
410,726; 6853,093;    1,838;    0,318
411,316; 7215,350;    0,111;    0,773
411,906; 6892,456;   -0,253;   -0,409
412,497; 6387,596;   -1,070;   -0,045
413,087; 6946,713;   -1,980;   -0,227
413,677; 7337,119;   -0,707;    3,864
414,267; 7191,508;    0,656;    1,409
414,857; 7221,613;   -2,980;    4,227
415,448; 7463,765;    0,839;    0,500
416,038; 7146,727;    0,020;   -0,591
416,628; 7103,431;   -0,889;    0,409
417,218; 6655,951;    0,565;    3,318
417,808; 6911,874;    0,202;   -0,409
418,398; 7311,159;    0,020;    2,682
418,988; 7352,433;    2,020;    0,591
419,578; 7572,834;   -0,707;    1,409
420,168; 7897,066;   -1,343;   -0,955
420,757; 7518,609;   -1,343;   -1,500
421,347; 7188,421;    0,111;   -0,227
421,937; 7350,759;    2,292;    1,409
422,527; 7334,227;    0,838;   -0,773
423,116; 7160,744;   -0,253;   -0,045
423,706; 7434,641;   -1,889;    0,318
424,296; 7385,485;    1,384;    0,682
424,885; 7802,394;   -0,071;   -3,045
425,475; 8112,200;    1,474;   -2,864
426,065; 7983,070;   -0,980;   -0,318
426,654; 7629,047;   -0,435;   -0,318
427,244; 7774,902;    0,020;    1,409
427,833; 7284,447;    1,383;   -0,500
428,423; 7693,345;   -0,526;    1,136
429,012; 8392,179;   -0,344;   -1,136
429,601; 7901,569;   -1,344;    0,136
430,191; 8131,113;    1,292;    4,318
430,780; 7777,112;   -0,344;   -0,409
431,369; 7724,193;    0,746;   -0,045
431,959; 8301,881;   -1,254;    0,500
432,548; 8082,596;   -1,163;   -0,045
433,137; 8185,805;   -1,254;   -1,318
433,726; 8693,466;    0,292;    0,500
434,315; 8091,688;   -0,526;    2,409
434,905; 8203,197;   -1,254;    1,409
435,494; 8088,027;    0,746;    0,955
436,083; 8505,558;   -0,981;   -0,955
436,672; 8411,312;    0,110;    0,500
437,261; 8000,911;    0,292;   -1,955
437,850; 8127,559;    1,383;    0,682
438,439; 8162,056;    3,291;    1,955
439,027; 8021,225;    3,655;    1,773
439,616; 8313,538;    2,927;    1,227
440,205; 8178,758;    0,200;   -2,136
440,794; 8243,292;    2,109;   -0,045
441,383; 8491,216;   -1,346;   -0,591
441,971; 8333,358;   -2,436;    0,591
442,560; 8169,711;    0,563;   -1,773
443,149; 7931,914;    0,379;   -1,318
443,737; 8089,119;   -0,074;   -2,318
444,326; 8313,400;    0,018;    0,318
444,915; 8387,399;   -1,982;    0,864
445,503; 8783,087;   -2,891;   -0,318
446,092; 8074,892;    0,382;    2,136
446,680; 8588,881;    0,382;    0,318
447,269; 8711,557;   -0,346;   -0,318
447,857; 8462,753;    0,018;   -1,773
448,445; 8594,416;    0,563;    1,318
449,034; 8769,610;   -1,528;   -1,136
449,622; 8897,870;   -1,073;    3,500
450,210; 8240,042;    2,017;    2,227
450,799; 8750,861;    0,290;   -0,591
451,387; 8702,329;    1,381;   -0,591
451,975; 8374,289;    2,654;    0,864
452,563; 8502,768;    3,472;    2,318
453,151; 8488,939;   -0,528;   -1,227
453,739; 8413,748;   -1,347;    0,136
454,328; 8271,617;    2,381;   -2,136
454,916; 8024,527;    2,562;   -0,136
455,504; 8189,110;    1,017;    1,227
456,092; 8341,213;    0,017;   -1,591
456,679; 8291,421;    1,472;    0,682
457,267; 8329,890;    4,017;    1,045
457,855; 8422,346;    1,017;    1,409
458,443; 8154,491;   -0,165;    1,682
459,031; 8329,684;    0,108;    2,409
459,619; 8747,371;   -1,801;    2,864
460,206; 8829,009;    0,835;    2,045
460,794; 8922,581;   -2,983;   -0,227
461,382; 9130,583;   -0,529;   -0,864
461,970; 8771,531;    1,198;    1,864
462,557; 8763,310;   -0,711;   -0,682
463,145; 8923,881;   -3,165;   -1,682
463,732; 9066,195;    2,016;   -1,045
464,320; 9000,184;   -0,075;   -3,045
464,907; 8732,911;    2,743;   -0,773
465,495; 8581,901;    0,743;   -1,227
466,082; 8714,431;   -1,984;   -0,045
466,670; 8629,561;   -2,529;    1,227
467,257; 9029,250;   -1,711;    2,045
467,844; 9183,978;   -0,075;    0,045
468,432; 9198,043;    0,834;    3,500
469,019; 8696,656;    0,925;   -1,773
469,606; 9159,200;    0,470;    3,682
470,193; 9019,254;   -1,439;    0,227
470,780; 8615,785;   -2,075;    0,864
471,368; 8919,487;   -1,257;   -0,773
471,955; 8741,513;    1,379;   -0,682
472,542; 8431,476;    0,652;   -1,136
473,129; 8620,227;   -0,166;    0,136
473,716; 8362,110;    1,470;    0,591
474,303; 8535,811;    0,652;   -0,864
474,890; 8857,867;   -1,439;   -0,500
475,477; 8886,037;   -1,621;    0,409
476,064; 8762,662;    1,106;   -1,591
476,650; 8693,998;    0,288;    0,318
477,237; 8552,816;   -0,258;    0,955
477,824; 8696,128;   -1,076;    0,864
478,411; 8686,271;   -1,894;   -0,318
478,997; 8884,792;    0,560;   -0,773
479,584; 8939,470;    1,196;   -0,409
480,171; 9601,534;   -0,440;   -0,773
480,757; 9292,484;    2,651;    0,773
481,344; 9572,573;    0,469;    0,409
481,931; 9068,137;    1,105;    1,045
482,517;10082,304;   -1,258;    0,318
483,104;10630,807;    1,106;    2,864
483,690;10852,769;   -1,804;    0,045
484,276;11082,965;   -0,895;    0,227
484,863;10831,678;    2,469;    1,136
485,449;11404,278;   -0,077;    0,318
486,035;11349,253;   -1,986;   -0,136
486,622;11750,705;   -0,895;    0,045
487,208;11689,226;    1,378;    1,500
487,794;11543,916;    0,741;    0,318
488,380;11636,631;    0,105;   -1,409
488,967;11696,491;   -1,168;   -0,409
489,553;11767,360;   -1,895;   -1,409
490,139;11959,672;    1,559;    0,773
490,725;11391,243;    0,741;   -0,227
491,311;10957,918;    3,287;    3,045
491,897;10300,880;   -0,986;    1,500
492,483;10180,257;    0,105;    1,227
493,069;10121,529;    3,923;    0,864
493,655;10075,219;    1,650;    0,682
494,241; 9977,803;    1,377;   -0,955
494,826;10361,554;    0,287;   -1,045
495,412; 9842,217;    2,559;   -0,682
495,998; 9967,013;   -0,805;   -0,318
496,584;10089,934;    0,377;    1,045
497,169;10082,493;    1,014;   -0,682
497,755;10003,821;    0,650;    1,227
498,341;10614,415;    0,559;    0,318
498,926;10240,819;    1,832;    1,955
499,512;10361,189;    1,286;    2,955
500,097;10413,446;    0,195;   -0,318
500,683;10365,146;   -0,350;    2,136
501,268;10706,783;   -0,169;   -0,955
501,854;10463,875;   -0,169;    1,227
502,439;10374,877;   -0,624;   -1,773
503,024;10571,291;    0,195;    0,500
503,610;10611,265;   -0,078;   -0,682
504,195;10605,421;    0,558;    1,955
504,780;10747,913;    2,922;    1,227
505,366;10592,354;    3,013;    2,864
505,951;10322,528;    0,740;    1,045
506,536;10368,177;   -3,260;   -3,682
507,121;10318,631;    0,285;   -0,318
507,706;10809,683;    2,376;    1,045
508,291;11162,061;    2,649;    1,136
508,876;10628,286;   -0,988;    2,591
509,461;10139,102;   -0,169;   -0,773
510,046;10544,816;    0,194;    0,318
510,631;10760,581;   -0,351;   -0,773
511,216;10410,374;    2,467;   -0,500
511,801;10778,567;   -0,442;    2,591
512,386;11060,543;    0,740;    0,500
512,971;11001,818;   -2,988;    0,955
513,555;10593,855;   -0,897;   -1,500
514,140;11344,882;   -0,442;   -3,136
514,725;11310,624;   -0,715;   -1,136
515,309;11412,065;   -0,533;    0,318
515,894;10883,870;   -0,624;   -2,227
516,479;11318,832;   -0,624;   -0,955
517,063;11163,039;    0,376;    1,227
517,648;11259,260;    1,012;   -1,136
518,232;10916,472;   -0,261;   -1,409
518,817;11265,693;   -0,079;    1,682
519,401;11479,926;    2,194;    0,591
519,985;10983,666;    1,103;    1,136
520,570;10869,005;    0,830;   -1,955
521,154;11138,707;    2,102;    0,591
521,738;11314,437;   -2,352;    2,409
522,323;11813,603;   -0,170;    1,682
522,907;11596,086;    0,466;   -0,136
523,491;11313,502;    0,557;    0,955
524,075;11246,450;    2,284;    0,591
524,659;11335,422;    1,466;    0,591
525,243;10895,579;    1,739;    0,409
525,827;11108,411;    0,648;   -0,045
526,411;11893,786;   -1,989;   -0,136
526,995;12085,176;   -0,352;    1,409
527,579;11703,608;   -0,443;   -1,045
528,163;11984,336;    0,375;   -1,500
528,747;11949,401;    2,466;   -0,773
529,331;12203,219;   -0,080;   -1,409
529,915;12354,882;    1,738;    0,955
530,499;12311,401;   -0,807;    1,227
531,082;12067,088;   -0,534;    1,591
531,666;11568,299;    1,374;    0,773
532,250;12167,895;    1,284;    2,682
532,833;12484,247;    0,920;    2,773
533,417;12322,429;   -1,807;    0,864
534,001;12277,119;    1,647;   -0,318
534,584;12920,056;    0,374;    0,500
535,168;12762,900;    0,465;    1,409
535,751;12849,585;    0,647;    0,045
536,334;12301,469;   -0,898;   -0,409
536,918;12828,170;    0,011;    1,591
537,501;12905,444;   -0,899;    1,318
538,085;12907,899;   -0,444;    1,045
538,668;13087,756;    0,829;    2,409
539,251;13426,614;    1,829;    3,773
539,834;13380,574;    0,101;    0,773
540,418;13335,602;   -1,990;    4,318
541,001;13421,680;   -0,990;    1,773
541,584;13376,774;    2,101;    2,227
542,167;13121,304;    1,374;    2,955
542,750;13153,305;    1,919;   -0,773
543,333;12790,489;    0,555;    2,136
543,916;13525,981;    0,192;    2,500
544,499;14114,189;   -1,354;    0,227
545,082;14089,761;    1,374;    3,591
545,665;14192,163;    1,919;    1,500
546,248;14519,307;    1,010;   -0,318
546,830;14170,164;   -0,445;    1,955
547,413;14553,477;    1,010;   -0,773
547,996;15037,556;    0,555;    0,500
548,579;14817,947;    0,919;    0,955
549,161;14636,882;    1,828;    2,682
549,744;14381,455;   -0,809;    0,409
550,326;14844,884;   -0,809;   -1,136
550,909;14707,313;    2,737;    0,591
551,492;15062,961;   -0,263;    0,227
552,074;14870,873;   -0,173;   -1,318
552,657;15407,288;    2,373;    0,045
553,239;15154,224;   -0,173;   -0,773
553,821;15029,300;   -1,082;    1,045
554,404;14553,911;    1,282;    1,136
554,986;14932,393;    0,464;    1,045
555,568;15496,965;    1,191;   -0,955
556,151;14807,277;    1,191;   -0,227
556,733;14931,548;   -0,264;   -0,864
557,315;15365,044;    0,100;    0,500
557,897;15152,070;    0,554;   -0,500
558,479;15251,161;   -1,991;    1,318
559,061;15436,501;   -0,719;   -0,864
559,643;15780,292;   -0,264;    0,045
560,225;16039,900;    1,645;    2,864
560,807;16045,565;    0,918;    0,318
561,389;15571,098;    0,554;    2,318
561,971;16261,880;    0,463;    2,136
562,553;16081,878;   -1,628;    1,591
563,135;16215,579;   -0,537;    1,136
563,717;15823,657;    3,372;    1,136
564,298;16477,917;    3,645;   -0,045
564,880;16229,154;    0,645;   -1,409
565,462;16324,063;    0,645;    1,318
566,043;17416,515;   -0,446;    2,318
566,625;16972,437;    1,918;    1,227
567,207;16766,296;    1,099;    1,682
567,788;17828,595;   -1,264;    1,500
568,370;18579,973;    1,917;   -0,500
568,951;18382,479;    0,190;    0,227
569,533;19108,338;   -0,628;   -0,500
570,114;19571,789;   -0,446;    0,682
570,695;20029,103;   -0,174;   -1,318
571,277;20399,403;   -0,265;   -1,682
571,858;21085,649;    2,008;   -1,136
572,439;21889,518;    1,554;   -1,045
573,021;21981,405;    2,099;   -2,773
573,602;22376,119;   -1,265;    0,318
574,183;23235,198;   -2,083;    2,227
574,764;23265,756;   -1,629;    0,409
575,345;23774,159;    0,917;   -0,136
575,926;24252,936;   -0,356;    0,136
576,507;24237,404;    1,099;   -0,227
577,088;25287,106;    3,099;    1,682
577,669;25317,471;    0,735;    1,955
578,250;26058,925;    0,644;   -1,045
578,831;26612,733;   -1,356;   -2,227
579,412;26721,873;   -0,810;    0,955
579,993;27478,263;    1,008;    0,227
580,573;27744,004;   -0,629;   -0,955
581,154;26797,393;    0,735;   -0,591
581,735;27685,458;    0,644;    0,773
582,315;27220,276;   -0,629;    2,136
582,896;27385,756;   -0,174;    1,227
583,477;26818,355;    0,189;    1,227
584,057;27100,237;    0,553;    0,955
584,638;27364,627;    2,553;    2,318
585,218;27357,445;   -0,538;    2,682
585,799;27494,574;    0,281;   -0,227
586,379;27448,560;    0,372;    1,591
586,959;26309,522;    0,735;    0,318
587,540;25672,148;   -0,629;    2,227
588,120;25270,994;    1,007;   -0,045
588,700;24433,863;    2,553;    2,136
589,281;24760,224;    0,462;   -0,955
589,861;24749,809;    0,099;   -1,682
590,441;24559,471;    2,371;   -2,682
591,021;23544,276;   -0,265;   -2,591
591,601;23817,222;   -0,537;    0,500
592,181;23894,027;   -0,719;   -0,773
592,761;23163,954;    0,007;    1,409
593,341;23087,964;   -0,901;    0,045
593,921;23138,080;   -0,265;    1,591
594,501;23057,003;   -0,538;    1,318
595,081;22929,495;    0,917;   -0,318
595,661;23293,236;   -1,447;    0,955
596,240;23789,066;   -0,537;    0,136
596,820;23488,065;    0,372;    1,955
597,400;23504,483;    2,008;    0,773
597,980;23705,195;    2,008;    1,045
598,559;23693,521;    2,735;   -0,227
599,139;23449,353;   -0,174;   -1,227
599,718;23337,808;   -0,174;   -0,409
600,298;23616,638;    0,735;    0,682
600,877;23908,702;    2,917;    1,409
601,457;24111,428;    2,281;    1,136
602,036;23994,235;    0,190;    2,045
602,616;24189,572;    0,644;    1,682
603,195;24544,350;   -0,355;    3,500
603,774;24104,792;   -0,901;    2,045
604,354;23969,558;    0,826;   -0,500
604,933;23500,442;    0,463;    1,864
605,512;23576,948;    3,554;    0,591
606,091;23630,505;   -0,537;    3,773
606,671;24396,389;    0,281;    0,773
607,250;23661,727;    1,644;    3,136
607,829;23820,660;    2,372;    3,227
608,408;23653,051;    1,190;    2,591
608,987;22780,814;    1,281;    3,409
609,566;23034,587;   -1,265;   -2,500
610,145;23169,646;   -1,082;    0,682
610,723;23528,620;    4,372;    6,864
611,302;22848,749;   -0,446;    1,682
611,881;22428,918;    5,008;   11,227
612,460;23173,490;    1,645;    3,955
613,039;23537,774;   -0,082;    2,045
613,617;22371,089;    1,736;    4,773
614,196;22539,425;    1,099;    1,227
614,775;22872,774;    1,009;    2,409
615,353;22809,344;    0,736;    0,864
615,932;22611,643;    0,100;    2,409
616,510;23169,514;    0,554;    0,591
617,089;22736,760;    7,100;   17,591
617,667;22552,085;    2,372;    6,136
618,246;22370,720;   -1,537;    1,318
618,824;22546,916;   -3,355;   -0,955
619,402;22115,175;   -2,900;   -1,773
619,981;22557,707;   -0,173;   -1,045
620,559;22393,342;    0,009;    1,682
621,137;21894,057;   -0,718;    1,864
621,715;21961,395;   -1,173;   -0,682
622,293;21937,226;   -0,537;   -0,773
622,871;22363,590;   -0,718;    0,500
623,450;21967,705;    0,373;   -0,864
624,028;21888,563;    0,191;   -0,955
624,606;21526,822;   -1,718;    1,682
625,183;21859,159;   -1,536;   -1,136
625,761;21611,353;    1,009;    1,136
626,339;21947,459;    1,373;    2,591
626,917;22248,988;   -0,172;   -0,045
627,495;22214,521;   -0,354;    1,318
628,073;21688,922;   -0,263;    2,864
628,650;21369,768;    0,100;    2,136
629,228;21777,873;    0,373;    4,409
629,806;21269,106;    2,282;    1,136
630,383;21457,572;    1,464;   -0,318
630,961;21353,405;    2,555;   -0,955
631,539;21117,936;    2,464;    0,227
632,116;20594,587;   11,373;   15,409
632,694;21022,001;    2,555;    6,500
633,271;21263,986;    0,828;    2,682
633,848;21302,714;    1,828;    2,045
634,426;21284,998;   -1,081;    1,773
635,003;20407,073;    1,101;   -0,409
635,580;20748,034;    1,192;    3,682
636,158;21269,646;    3,737;    1,227
636,735;21268,194;    0,555;   -0,500
637,312;21343,896;   -0,809;   -0,682
637,889;21429,582;   -4,354;   -0,682
638,466;20971,293;   -3,990;   -0,409
639,043;20965,603;    2,101;   -1,136
639,620;21242,771;   -2,262;   -0,955
640,197;21522,146;    1,100;    1,682
640,774;21650,887;   -0,172;    1,136
641,351;22040,172;    0,737;    1,136
641,928;21544,367;   -0,627;    1,409
642,505;21204,926;    0,828;   -0,500
643,082;21295,120;   -1,718;    1,227
643,658;20400,679;   -0,718;    1,500
644,235;21092,055;    1,191;    2,500
644,812;21370,250;    1,918;    0,773
645,388;21106,354;   -0,991;    1,409
645,965;21235,185;   -0,809;    1,682
646,542;21289,744;   -1,445;   -0,227
647,118;21343,757;    1,009;   -0,955
647,695;21530,224;   -0,263;    1,136
648,271;21406,419;   -0,536;    0,500
648,848;21717,796;    0,736;    2,227
649,424;21584,900;    0,827;    1,318
650,000;21348,731;   -0,354;   -1,045
650,577;21171,380;   -0,627;   -0,955
651,153;21581,938;   -1,809;    0,955
651,729;22488,951;    1,191;    0,864
652,305;23057,237;    0,645;    2,773
652,881;27632,341;   -0,082;    1,136
653,458;33291,172;    1,100;    0,227
654,034;35860,458;    0,282;    1,591
654,610;36793,289;    0,554;    0,773
655,186;37965,848;    0,645;    3,045
655,762;37558,042;   -0,991;    0,409
656,338;37603,601;    0,100;    0,136
656,913;38510,432;   -0,082;    0,409
657,489;37766,263;    0,827;   -0,318
658,065;37868,458;   -0,173;   -1,591
658,641;38482,835;   -0,900;   -0,864
659,217;37805,302;   -0,991;    0,409
659,792;37300,224;    0,645;   -0,409
660,368;37620,692;   -2,173;   -0,682
660,944;36998,159;   -2,082;    1,227
661,519;32267,536;   -0,628;    0,409
662,095;27222,912;   -1,719;    0,591
662,670;23814,562;    1,281;   -0,136
663,246;23200,393;    1,009;   -0,409
663,821;22738,133;    0,281;    1,682
664,396;22176,055;    0,009;    1,864
664,972;22438,250;    0,009;   -0,500
665,547;22790,172;    1,372;    0,136
666,122;22817,912;   -1,082;    0,318
666,698;23115,289;   -0,173;    0,318
667,273;22426,757;   -0,173;    0,136
667,848;23173,951;    2,372;    1,500
668,423;23030,328;    2,190;    2,318
668,998;23520,341;    2,827;   -0,682
669,573;24005,808;   -3,264;   -1,500
670,148;23818,549;   -1,446;   -0,682
670,723;23549,562;   -1,810;    0,318
671,298;23973,120;    2,372;    1,045
671,873;24055,133;   -0,082;   -0,136
672,448;24018,601;    0,645;    0,136
673,023;24316,795;   -1,992;   -0,227
673,597;24657,808;    0,827;    2,318
674,172;24467,549;   -0,355;    0,318
674,747;23939,743;    0,372;   -1,045
675,321;23674,302;   -0,628;    3,318
675,896;23308,769;    0,645;    1,045
676,471;24233,146;    2,645;    1,591
677,045;24029,341;   -1,264;    0,682
677,620;24064,899;    0,190;    1,136
678,194;24327,730;   -2,628;    1,136
678,769;23934,652;   -1,083;   -0,318
679,343;24190,938;   -0,628;    1,773
679,917;24138,951;   -1,446;    1,955
680,492;24139,873;    0,826;    3,227
681,066;24286,795;    3,372;    0,409
681,640;24353,263;    1,463;   -0,318
682,214;25065,549;    0,735;    0,500
682,788;24651,471;   -1,356;   -0,773
683,363;24522,665;   -1,810;    1,682
683,937;24273,042;   -1,719;   -0,318
684,511;24994,873;    0,463;   -0,591
685,085;24699,341;   -1,356;    0,318
685,659;24412,445;   -2,538;    0,864
686,232;24707,730;   -0,356;   -0,318
686,806;24420,107;   -0,901;    0,409
687,380;25058,302;   -0,174;    0,591
687,954;25234,133;   -1,174;    1,136
688,528;24887,328;   -0,719;    1,955
689,101;25612,613;   -3,992;    1,045
689,675;25207,626;   -0,356;   -0,136
690,249;24613,548;   -0,719;    0,409
690,822;24945,016;    0,280;    0,318
691,396;25105,574;   -0,265;    1,227
691,969;24584,315;    1,280;    0,136
692,543;25005,873;   -0,447;   -1,955
693,116;24652,613;   -0,265;   -1,409
693,690;24549,626;    0,099;    0,500
694,263;25077,821;   -1,083;    2,955
694,836;25075,743;    1,371;    3,591
695,410;23858,665;   -0,265;    1,773
695,983;24295,860;    0,189;    0,591
696,556;24275,237;   -0,447;   -1,045
697,129;24574,159;   -0,356;    1,409
697,703;24279,263;   -1,629;    1,955
698,276;24278,276;    1,462;   -0,773
698,849;24068,107;    1,280;    1,409
699,422;24413,211;   -1,083;    0,591
699,995;24177,133;    0,007;    0,136
700,568;24594,873;   -0,629;    3,045
701,140;24630,704;   -2,811;    1,682
701,713;24443,808;   -0,174;    2,409
702,286;24199,730;   -0,538;    0,864
702,859;24044,107;   -0,902;   -0,591
703,432;23352,120;    0,825;    0,682
704,004;23725,951;    0,462;    0,318
704,577;23607,691;   -0,629;    0,136
705,150;24154,522;    0,189;    2,500
705,722;23928,354;   -0,356;   -3,227
706,295;23766,821;   -0,175;   -0,591
706,867;23656,016;   -0,175;    1,955
707,440;23891,392;   -1,720;   -0,409
708,012;24137,042;    0,462;    0,591
708,584;24029,055;    2,462;    0,227
709,157;24313,068;    1,825;   -0,591
709,729;23958,808;    2,280;    2,045
710,301;24688,457;    0,734;    0,045
710,874;24737,289;   -1,447;   -0,227
711,446;23644,665;    0,371;    0,864
712,018;23546,587;    0,098;    0,500
712,590;23338,055;   -1,993;    1,682
713,162;23864,886;    0,825;    1,318
713,734;24064,172;    1,825;   -2,045
714,306;23922,094;   -1,902;   -0,409
714,878;22735,198;    0,825;    0,864
715,450;23545,938;    0,643;    0,864
716,022;23760,042;    1,552;    1,318
716,593;23892,509;    0,189;    0,591
717,165;23813,886;   -3,175;   -1,227
717,737;23571,172;    0,280;    0,409
718,309;23231,457;    0,280;   -0,045
718,880;23264,834;   -0,539;   -1,409
719,452;23433,665;   -0,175;   -1,591
720,024;23105,223;    0,734;   -0,591
720,595;23594,327;   -2,902;    0,955
721,167;23191,613;    0,370;   -2,045
721,738;22757,353;   -0,812;   -1,045
722,309;22817,366;   -0,993;   -1,227
722,881;22608,107;   -1,357;    0,773
723,452;23161,301;   -2,630;    2,864
724,023;23308,314;   -0,721;    2,682
724,595;23104,509;    0,007;    0,682
725,166;22825,249;    0,007;   -0,409
725,737;22567,626;    1,734;    0,227
726,308;22624,730;   -0,266;    0,318
726,879;22989,288;   -1,630;    1,227
727,450;22856,301;    0,552;   -0,045
728,021;22837,405;    3,097;    0,682
728,592;22662,873;    0,734;    0,500
729,163;22994,431;    0,643;   -0,136
729,734;22987,717;    0,188;   -0,227
730,305;23315,094;    1,734;    0,136
730,876;23673,834;    0,188;    2,955
731,447;23451,756;    2,188;    2,682
732,017;23502,678;    1,097;    1,864
732,588;23068,600;    0,734;    1,227
733,159;23225,704;    0,643;   -1,045
733,729;22942,080;    0,006;    0,409
734,300;22327,275;    0,915;    0,864
734,870;22694,470;    3,461;    0,591
735,441;23197,029;    0,370;   -0,591
736,011;23027,769;    0,643;   -1,591
736,582;22998,873;   -0,812;    0,045
737,152;22414,340;   -1,721;   -2,045
737,722;22854,990;   -0,267;   -0,682
738,293;22561,003;   -1,358;    1,318
738,863;22506,652;    2,461;    2,318
739,433;22370,301;    5,279;    0,318
740,003;22920,860;   -0,994;   -0,682
740,573;22381,054;    2,097;   -1,591
741,143;22324,431;   -1,085;    0,318
741,713;23059,717;    1,188;   -0,500
742,283;22862,457;    0,915;    1,591
742,853;22639,925;    1,915;    1,591
743,423;22052,665;    1,733;    0,045
743,993;22171,587;   -0,358;    1,500
744,563;21697,600;    0,097;   -0,864
745,133;21632,976;   -0,812;   -0,864
745,702;22245,262;   -0,267;    1,773
746,272;21497,912;   -0,176;    0,591
746,842;21344,561;   -1,358;   -0,591
747,411;21767,119;   -0,267;   -0,318
747,981;21845,496;    0,097;    0,500
748,551;21900,963;    2,278;   -1,045
749,120;21744,613;    0,642;   -0,227
749,690;22116,899;   -0,631;    2,409
750,259;22429,002;    1,369;    2,955
750,828;22309,379;    1,551;   -1,955
751,398;22553,847;    1,278;   -0,045
751,967;22185,132;    2,187;    0,409
752,536;22314,509;   -0,813;   -0,227
753,105;22716,522;    0,096;    0,227
753,675;22524,171;    0,096;    1,773
754,244;22500,457;   -0,904;    3,591
754,813;22498,834;    0,551;    1,227
755,382;22073,665;    0,460;    0,955
755,951;22626,950;    1,551;    3,682
756,520;22201,782;   -0,085;    1,864
757,089;22749,522;    0,278;    0,500
757,658;22855,717;    1,733;    1,227
758,227;22829,366;    1,096;    0,318
758,795;23066,379;    1,187;    1,136
759,364;23287,392;   -0,086;   -0,591
759,933;22391,405;   -1,176;   -0,045
760,501;21932,963;    0,733;   -1,318
761,070;22372,885;   -2,813;   -1,409
761,639;23073,171;   -1,904;    1,318
762,207;22506,730;    1,551;   -0,955
762,776;22388,015;    0,369;    0,864
763,344;22338,937;   -0,995;    0,591
763,913;21340,587;   -0,722;    1,409
764,481;22123,781;    1,005;   -0,136
765,049;21972,704;   -1,358;    1,409
765,618;21845,353;   -0,086;    0,318
766,186;21932,093;    0,278;    0,136
766,754;22135,833;    0,005;    1,864
767,322;21160,210;   -1,995;    0,409
767,890;21192,859;   -0,722;   -1,773
768,459;21628,418;   -2,177;   -0,318
769,027;21837,704;    1,641;    3,409
769,595;20802,716;    3,278;    2,591
770,163;21248,639;    3,823;    2,955
770,730;21026,652;    0,732;   -0,136
771,298;20874,028;    0,187;   -1,409
771,866;20969,496;   -1,541;    4,955
772,434;21279,418;   -0,631;   -1,864
773,002;21447,794;    0,005;    0,682
773,569;21121,353;    0,914;    1,682
774,137;20969,366;   -0,268;   -0,045
774,705;21704,833;    0,278;   -0,136
775,272;21240,392;    0,641;    0,682
775,840;21024,405;   -0,177;    2,682
776,407;20585,509;    0,277;    1,955
776,975;20211,249;   -0,632;    0,318
777,542;21106,898;   -1,086;   -0,045
778,110;20959,275;   -1,268;   -0,045
778,677;20646,651;   -2,359;   -0,864
779,244;20425,755;    2,186;    1,045
779,812;20585,223;    1,823;    0,864
780,379;20459,145;    0,005;    1,136
780,946;20662,612;    1,005;   -0,773
781,513;20925,625;   -1,450;    0,318
782,080;20404,729;   -0,086;    2,864
782,647;21103,561;   -0,268;    3,045
783,214;20746,210;   -0,177;    3,864
783,781;20421,768;   -0,723;   -0,682
784,348;20246,690;   -0,632;    1,500
784,915;20608,794;   -3,177;    0,318
785,482;20449,353;    1,368;    2,591
786,049;20837,366;    0,186;   -0,591
786,615;20927,651;    0,277;   -0,955
787,182;20678,119;    0,186;   -0,682
787,749;20382,223;   -2,814;    1,409
788,315;19804,418;   -1,632;   -0,409
788,882;20083,067;    1,550;   -1,227
789,448;20760,625;    1,732;   -0,955
790,015;20740,366;    1,095;    3,227
790,581;20356,924;    1,459;    0,227
791,148;20277,028;    0,641;    1,045
791,714;20444,132;   -0,541;    3,136
792,280;20139,963;    0,186;    1,591
792,847;19726,612;    0,550;    2,500
793,413;20183,534;   -0,269;   -0,318
793,979;19851,820;    3,459;   -1,318
794,545;19937,560;    4,459;    2,682
795,111;19401,392;    2,186;    1,318
795,678;19589,223;    0,731;   -1,682
796,244;19245,145;    3,368;    0,136
796,810;19765,612;    1,731;    0,773
797,375;19506,171;    0,549;   -2,136
797,941;19520,638;   -0,541;    0,591
798,507;19641,560;   -0,451;   -0,955
799,073;19195,937;   -0,360;    0,591
799,639;19310,950;   -2,632;    3,136
800,205;19296,054;    0,095;    2,682
800,770;18875,976;    0,640;    1,773
801,336;18953,807;    1,368;   -0,955
801,901;18774,820;    4,549;    3,136
802,467;19285,288;   -0,542;    2,045
803,033;18626,028;   -0,087;    0,864
803,598;18818,223;    1,913;   -1,045
804,163;18832,963;    1,095;   -0,318
804,729;18860,794;   -0,178;    1,136
805,294;19142,716;    0,822;    2,227
805,859;18969,638;    0,731;   -0,409
806,425;18568,833;    1,186;    2,682
806,990;18224,028;    2,186;    4,318
807,555;18606,223;   -1,451;    2,591
808,120;18573,872;    0,822;   -0,409
808,685;18580,794;    0,185;   -2,500
809,250;18129,171;    0,004;   -0,500
809,815;18379,456;    1,913;    0,682
810,380;18872,197;   -0,269;    1,591
810,945;19411,391;   -1,087;    2,045
811,510;18646,950;    2,094;    1,591
812,075;18354,872;   -0,633;   -1,409
812,640;18466,521;    2,003;    1,409
813,204;18533,898;    0,822;   -0,227
813,769;18953,547;    2,094;   -0,045
814,334;18418,560;    0,458;    0,864
814,898;18466,482;    0,367;    0,591
815,463;18318,223;    1,276;   -0,773
816,027;18304,872;   -0,724;   -2,318
816,592;18412,794;    0,640;   -2,045
817,156;17980,261;    2,094;    1,136
817,721;17898,638;    4,276;    2,318
818,285;17858,106;    2,912;    1,500
818,849;18408,209;   -1,451;    1,682
819,414;18271,041;   -0,269;    2,955
819,978;17836,963;   -1,269;    1,773
820,542;18429,885;    2,003;    0,500
821,106;18170,443;   -0,815;    0,682
821,670;18262,365;   -0,815;    2,591
822,234;17995,469;   -0,270;    1,409
822,798;17469,573;    0,003;    0,500
823,362;17469,859;   -0,633;    4,227
823,926;16861,326;    0,094;    1,136
824,490;17045,521;   -0,997;   -0,682
825,054;17458,716;   -0,088;   -1,136
825,618;17189,729;   -1,542;   -1,500
826,181;17135,560;    0,458;   -1,318
826,745;17046,300;    1,367;   -1,045
827,309;17370,404;    1,185;    1,318
827,872;16818,872;    1,367;    0,955
828,436;17727,339;    1,185;   -0,773
828,999;17797,716;   -0,997;    1,227
829,563;16703,274;   -0,179;    1,136
830,126;16565,287;   -0,179;   -0,591
830,690;16610,846;   -1,997;    2,864
831,253;16190,768;   -0,543;    2,227
831,816;16300,054;   -1,906;    0,500
832,380;16270,612;    0,185;    0,864
832,943;16514,989;   -1,361;   -0,500
833,506;15975,911;    2,639;   -1,227
834,069;16684,651;    3,912;   -0,955
834,632;16749,209;    1,730;    1,318
835,195;16713,040;    1,003;    0,955
835,758;15904,235;   -0,997;    1,955
836,321;15801,976;    0,730;   -1,045
836,884;15927,534;   -0,725;   -0,955
837,447;15936,638;   -2,816;    1,773
838,010;16191,469;    0,366;    3,227
838,573;16464,209;   -1,179;    0,773
839,135;16461,040;   -1,361;   -0,955
839,698;15903,235;    1,275;    0,409
840,261;15464,248;    1,003;   -0,227
840,823;15346,534;   -0,543;    0,864
841,386;15593,456;   -0,452;   -2,409
841,948;15556,651;   -1,361;    1,773
842,511;15295,300;    0,912;    1,682
843,073;15424,949;    1,912;    0,227
843,636;15210,235;   -0,361;   -0,227
844,198;15158,794;    0,911;    0,591
844,760;15288,352;    1,093;    1,955
845,322;14963,456;    0,548;    1,136
845,885;15366,196;    0,730;    0,591
846,447;15767,755;   -1,998;    0,227
847,009;15471,131;    1,911;   -0,682
847,571;15673,417;    0,820;   -2,045
848,133;15777,248;   -1,089;   -1,864
848,695;15605,352;   -0,543;    1,409
849,257;15190,910;   -1,089;   -1,682
849,819;15410,196;   -0,998;   -0,409
850,381;15393,482;   -0,725;   -0,864
850,942;15709,858;    1,093;   -0,591
851,504;15693,053;    1,184;    0,227
852,066;15715,612;    1,275;   -1,591
852,628;15272,988;   -0,180;    1,955
853,189;14822,183;    1,638;    2,682
853,751;14990,832;   -0,907;    1,409
854,312;14795,936;   -0,453;   -1,682
854,874;15299,495;   -2,089;   -0,773
855,435;15757,326;   -0,907;   -1,682
855,997;15920,339;   -1,816;   -0,136
856,558;15260,170;    0,366;    1,773
857,119;15326,819;    0,820;    2,864
857,681;15032,105;    0,002;    0,318
858,242;15118,209;    1,911;   -2,136
858,803;15542,131;    0,456;   -0,773
859,364;16050,599;    0,184;   -4,773
859,925;15419,066;   -2,453;   -0,955
860,486;15270,443;   -0,453;   -0,955
861,047;15007,547;   -0,544;   -1,227
861,608;14873,287;   -1,089;   -0,773
862,169;15029,118;    0,638;   -0,045
862,730;14811,404;    0,456;    1,409
863,291;15071,326;   -0,635;   -0,500
863,852;15353,521;   -0,635;    1,955
864,412;14844,988;   -0,271;   -0,864
864,973;13571,728;   -0,089;    0,500
865,534;13465,651;   -1,726;    0,227
866,094;14824,391;    1,820;    0,227
866,655;14558,949;    1,274;    3,318
867,215;14809,417;    0,274;    0,136
867,776;14633,521;    0,547;   -0,136
868,336;14727,988;   -1,453;    0,136
868,897;14349,547;    2,638;    1,682
869,457;14052,105;    1,365;    0,318
870,017;14282,027;    0,547;   -1,227
870,578;14761,495;   -0,817;    0,773
871,138;14442,689;   -2,089;   -0,955
871,698;14012,793;   -0,817;   -1,318
872,258;13950,897;   -0,453;   -2,864
872,818;14314,001;    2,729;    0,045
873,378;14268,196;    0,638;    1,045
873,938;13839,573;    0,547;    0,500
874,498;14108,858;    0,274;   -1,955
875,058;14056,235;    2,183;    1,773
875,618;13928,066;    1,910;   -2,682
876,177;13838,624;    1,274;    0,136
876,737;13505,456;   -0,090;    1,955
877,297;13572,196;    0,183;    1,955
877,856;13585,027;   -0,362;    0,318
878,416;13520,858;    1,183;   -0,136
878,976;13716,598;   -1,817;    0,409
879,535;13885,611;    0,092;    3,136
880,095;13629,261;   -0,544;    0,045
880,654;13767,001;   -1,090;    1,318
881,213;13914,650;    2,456;    1,500
881,773;13526,118;    2,637;    2,682
882,332;13900,222;    3,365;    5,136
882,891;13749,235;    3,092;    2,136
883,451;14164,793;   -1,272;    1,682
884,010;13610,806;   -2,908;   -0,409
884,569;13735,092;   -0,999;   -0,045
885,128;13836,741;    2,819;   -1,864
885,687;13948,936;    4,455;    0,682
886,246;13670,404;    1,455;    2,136
886,805;13473,235;    2,455;    2,045
887,364;13661,157;   -0,999;   -0,500
887,922;13978,715;   -1,181;    0,045
888,481;13501,274;   -1,545;    0,591
889,040;13806,014;    1,183;    2,136
889,599;14388,663;    2,455;    1,409
890,157;14451,676;    1,455;    2,409
890,716;14098,598;   -0,090;    0,227
891,274;13950,884;    0,092;   -1,136
891,833;14346,079;    1,546;    0,864
892,391;14224,001;   -0,454;    0,500
892,950;14294,196;    1,819;   -0,773
893,508;14601,845;    0,455;   -0,409
894,067;13962,494;    0,637;    0,136
894,625;13885,326;   -0,636;   -1,500
895,183;14103,975;   -0,363;   -0,682
895,741;14065,533;    1,728;   -1,773
896,299;13861,183;   -0,545;   -2,409
896,858;14052,832;    0,819;   -1,591
897,416;14215,754;    2,728;   -1,318
897,974;13960,313;    1,819;    0,318
898,532;14170,962;    6,091;    2,682
899,089;14038,611;    2,091;   -0,682
899,647;14072,806;   -1,454;    1,318
900,205;13879,455;    1,182;    1,045
900,763;14000,559;   -0,454;    0,227
901,321;14028,754;    2,364;   -1,409
901,878;13455,131;   -1,000;   -0,773
902,436;13369,689;   -1,363;    1,318
902,994;13818,429;    4,728;    3,682
903,551;13273,897;    0,728;    0,409
904,109;13605,819;    0,182;   -1,409
904,666;13270,196;    2,455;    1,045
905,224;13089,481;    0,182;   -0,409
905,781;12947,858;    0,727;   -0,318
906,338;12954,235;   -1,363;    1,045
906,895;12914,248;    0,637;    2,045
907,453;12859,170;    1,727;    1,136
908,010;12858,364;   -0,909;    0,409
908,567;12584,832;    1,273;    0,591
909,124;12088,936;    0,364;   -1,500
909,681;12155,222;   -2,909;    0,682
910,238;12321,962;    0,636;   -1,318
910,795;12633,066;   -0,273;   -1,136
911,352;12281,702;   -2,909;   -2,682
911,909;11771,702;   -1,364;   -0,864
912,466;12262,611;   -3,182;    1,500
913,022;11808,247;   -1,636;    0,500
913,579;12155,338;   -0,909;    2,045
914,136;11890,884;    1,636;    0,955
914,692;12225,793;    0,091;   -1,227
915,249;11822,975;    1,455;    0,409
915,806;12091,975;    0,182;    1,955
916,362;11902,793;    1,909;    1,864
916,918;11481,157;    2,000;    1,045
917,475;11469,066;   -1,182;    0,955
918,031;11522,429;    3,364;   -0,045
918,587;11045,066;   -0,909;   -0,318
919,144;11250,066;   -2,273;    0,227
919,700;11515,066;    1,727;    0,773
920,256;11112,611;    0,727;    0,045
920,812;10805,338;   -0,727;   -1,045
921,368;10834,247;   -1,727;   -1,045
921,924;10514,702;    0,182;   -0,136
922,480;10163,702;   -0,545;    1,227
923,036;10742,884;    1,273;    1,955
923,592;10620,793;    0,455;    0,318
924,148;10648,429;    0,455;   -0,955
924,704;10010,429;   -1,364;   -0,409
925,259;10284,429;   -0,273;    0,591
925,815;10084,247;    1,455;    0,500
926,371; 9625,066;    2,909;    1,409
926,926; 9530,520;    2,091;    0,591
927,482; 9217,520;   -1,364;    0,773
928,037; 9133,066;    0,909;    2,045
928,593; 9455,975;    1,636;    1,045
929,148; 9267,338;   -1,818;   -1,500
929,704; 8819,793;   -1,455;   -0,500
930,259; 9035,338;    0,091;   -0,136
930,814; 8235,338;   -0,818;    1,955
931,369; 7926,066;    1,091;   -0,773
931,925; 7839,975;   -0,091;    0,136
932,480; 7786,247;   -2,818;   -2,591
933,035; 7746,520;    0,545;   -0,318
933,590; 7550,793;    0,364;   -1,773
934,145; 7200,429;   -1,364;   -0,318
934,700; 7492,520;    0,455;   -0,591
935,255; 7331,702;   -0,091;    0,045
935,809; 6803,247;    3,182;    0,864
936,364; 6030,247;   -0,455;   -0,136
936,919; 6043,429;    0,455;   -1,773
937,474; 5947,520;    1,455;    0,136
938,028; 5731,247;   -1,636;    1,136
938,583; 5338,247;    1,818;    4,682
939,138; 5557,066;    2,091;    2,136
939,692; 5051,611;    1,636;   -1,136
940,247; 4847,884;   -0,727;   -1,045
940,801; 4516,884;   -0,636;    0,227
941,355; 4438,157;   -0,364;    2,591
941,910; 4090,520;   -0,273;   -2,136
942,464; 4213,611;   -0,818;   -0,318
943,018; 4096,429;    1,000;   -0,227
943,572; 4026,611;    2,545;   -0,682
944,126; 3555,066;    0,091;   -0,409
944,681; 3457,429;    3,091;    0,227
945,235; 3445,611;    1,000;   -0,591
945,789; 3393,338;    0,364;   -1,864
946,342; 3540,975;    0,455;   -0,591
946,896; 3317,702;   -2,273;    0,955
947,450; 3079,429;    1,545;   -0,227
948,004; 3344,520;    1,727;   -0,045
948,558; 3290,520;    0,273;   -0,864
949,111; 3225,975;   -0,273;   -0,318
949,665; 3327,611;    1,636;   -0,682
950,219; 3214,338;   -0,091;   -1,045
950,772; 3242,884;   -1,909;    1,864
951,326; 3168,157;    0,545;   -0,955
951,879; 3229,066;    0,727;   -2,318
952,433; 3275,793;    0,000;    2,227
952,986; 3089,611;    2,909;    0,682
953,539; 3054,247;   -0,273;    0,591
954,093; 2988,338;    0,545;   -1,318
954,646; 3141,975;    0,909;    1,318
955,199; 2957,338;    0,000;   -0,500
955,752; 2922,066;   -0,455;    1,773
956,305; 2846,429;   -0,091;    2,955
956,858; 3000,975;    0,818;   -0,318
957,411; 3154,975;   -0,545;    2,136
957,964; 2998,157;    1,364;    2,136
958,517; 2949,702;   -1,545;    3,136
959,070; 2813,975;   -0,455;    1,955
959,623; 2961,338;    1,091;    1,500
960,176; 2753,157;    1,727;    2,045
960,728; 2737,338;   -2,727;    0,773
961,281; 2779,338;    0,545;    0,500
961,834; 2804,520;   -0,909;    0,864
962,386; 2723,066;    1,727;    1,045
962,939; 2652,429;    0,364;   -0,318
963,491; 2778,066;    0,455;    1,136
964,043; 2651,793;    1,182;    2,409
964,596; 2800,157;   -1,000;    2,227
965,148; 2632,247;   -1,000;    1,773
965,700; 2565,066;    1,091;   -0,227
966,253; 2720,611;   -0,636;    0,318
966,805; 2575,429;   -2,273;    0,773
967,357; 2601,611;    1,091;   -1,500
967,909; 2602,247;    0,455;   -1,227
968,461; 2655,338;    0,545;    3,136
969,013; 2595,066;   -0,182;   -0,864
969,565; 2681,247;   -0,455;   -1,136
970,117; 2835,520;   -0,364;    1,045
970,669; 2596,793;    0,182;   -0,136
971,220; 2423,247;   -0,455;   -1,500
971,772; 2398,338;   -0,636;   -0,318
972,324; 2516,338;    0,091;   -0,500
972,876; 2440,429;    0,818;   -0,045
973,427; 2609,975;    1,909;   -1,045
973,979; 2589,520;   -0,727;   -2,500
974,530; 2556,157;    1,818;    1,318
975,082; 2571,520;   -0,545;    1,682
975,633; 2499,884;    1,091;    1,682
976,184; 2640,429;    0,909;    0,773
976,736; 2460,520;    0,091;    0,227
977,287; 2307,520;   -0,909;   -0,500
977,838; 2443,429;    0,909;   -0,318
978,389; 2484,793;   -1,000;   -0,500
978,940; 2353,793;    0,545;   -0,409
979,491; 2369,702;    0,091;   -0,500
980,042; 2359,338;    0,182;    3,045
980,593; 2387,066;   -2,545;    0,227
981,144; 2475,066;    2,545;   -0,500
981,695; 2475,793;    1,455;    1,500
982,246; 2421,247;   -0,273;    1,045
982,797; 2512,975;   -1,727;    0,682
983,347; 2621,702;    0,364;    0,591
983,898; 2823,157;    3,091;    0,409
984,449; 2675,884;    2,182;    0,773
984,999; 2518,975;    1,455;   -1,136
985,550; 2339,611;    0,182;   -0,318
986,100; 2330,066;   -0,455;   -0,318
986,651; 2361,338;   -0,818;    0,045
987,201; 2356,247;   -1,000;   -0,591
987,751; 2419,702;    0,818;    2,864
988,302; 2422,611;    2,636;    1,500
988,852; 2453,247;    0,455;   -1,136
989,402; 2517,338;    0,091;    0,682
989,952; 2452,338;   -2,182;    0,864
990,502; 2479,702;   -0,091;    0,682
991,052; 2432,975;   -0,727;    0,045
991,602; 2341,247;   -2,909;    1,318
992,152; 2340,157;    0,455;    0,682
992,702; 2331,884;    1,364;   -0,045
993,252; 2268,884;   -3,000;   -0,500
993,802; 2382,520;   -0,273;    1,318
994,352; 2565,157;   -1,545;    1,136
994,901; 2569,611;   -0,182;    3,227
995,451; 2514,702;   -0,182;    0,318
996,000; 2598,702;    1,636;    0,318
996,550; 2367,975;    2,273;    0,227
997,100; 2381,066;    1,273;   -0,045
997,649; 2634,429;    2,182;    0,955
998,198; 2299,611;    1,727;   -1,500
998,748; 2508,157;    1,091;   -2,318
999,297; 2376,429;   -0,818;   -0,409
999,846; 2478,066;    1,000;   -0,773
1000,395; 2479,520;   -0,818;    0,500
1000,945; 2503,975;    1,818;   -0,773
1001,494; 2574,884;    2,364;    0,682
1002,043; 2546,338;    4,636;    0,864
1002,592; 2361,793;   -1,091;    1,955
1003,141; 2505,611;   -0,455;   -0,682
1003,690; 2418,611;    1,727;    0,500
1004,238; 2469,520;    1,455;   -0,045
1004,787; 2112,066;    1,364;    1,227
1005,336; 2379,611;    0,364;    0,682
1005,885; 2467,338;    1,364;   -2,773
1006,433; 2547,702;    0,545;    0,955
1006,982; 2696,247;    0,455;    1,682
1007,531; 2532,066;   -1,818;   -0,227
1008,079; 2463,520;   -2,273;    0,500
1008,627; 2585,157;   -1,455;    0,409
1009,176; 2374,884;    0,000;   -1,955
1009,724; 2396,429;    1,091;    0,864
1010,273; 2509,066;    1,273;    0,500
1010,821; 2566,611;    0,091;    1,409
1011,369; 2317,793;   -1,364;    1,318
1011,917; 2317,975;   -1,364;   -0,591
1012,465; 2573,702;    1,273;   -1,591
1013,013; 2651,975;    2,091;   -1,682
1013,561; 2601,520;    0,455;   -0,773
1014,109; 2668,793;   -1,909;    1,682
1014,657; 2541,611;    0,364;    0,591
1015,205; 2604,157;    1,636;   -0,955
1015,753; 2581,611;   -0,545;   -1,409
1016,301; 2658,975;   -2,636;    3,045
1016,848; 2656,520;   -1,273;    0,409
1017,396; 2713,793;    2,545;    0,045
1017,944; 2817,520;    1,182;    1,864
1018,491; 2566,429;    0,273;    1,409
1019,039; 2814,157;    0,455;    0,591
1019,586; 2656,702;   -1,364;    1,682
1020,134; 2710,066;    0,455;    1,500
1020,681; 2762,611;    0,182;   -1,136
1021,228; 2711,702;    2,909;   -2,227
1021,776; 2564,702;    1,182;   -1,136
1022,323; 2825,066;    0,455;    0,773
1022,870; 2758,793;   -1,000;   -0,045
1023,417; 2686,611;    2,636;    1,864
1023,964; 2739,066;    2,636;    1,227
1024,511; 2627,793;    1,000;    0,773
1025,058; 2444,793;    3,182;   -0,045
1025,605; 2485,429;   -2,273;    3,136
1026,152; 2737,702;    1,727;   -0,591
1026,699; 2468,975;    1,818;    1,318
1027,245; 2604,157;   -0,091;    0,318
1027,792; 2756,520;   -1,000;    1,409
1028,339; 2711,066;    2,364;   -0,045
1028,885; 2558,884;    1,000;   -0,227
1029,432; 2472,338;   -0,091;    0,227
1029,978; 2586,429;   -1,000;   -1,591
1030,525; 2489,975;    1,000;    0,409
1031,071; 2637,247;   -1,364;    1,136
1031,618; 2847,520;    0,364;    1,682
1032,164; 2611,338;   -0,091;    3,045
1032,710; 2649,975;    1,636;   -1,500
1033,256; 2545,338;   -0,636;   -0,136
1033,803; 2501,066;   -0,545;    1,500
1034,349; 2244,157;   -1,364;    0,136
1034,895; 2392,157;    0,000;   -0,318
1035,441; 2384,975;   -0,818;    0,318
1035,987; 2403,429;   -2,364;   -0,682
1036,533; 2438,520;   -1,455;   -0,955
1037,078; 2662,611;    1,455;    1,682
1037,624; 2457,793;    2,455;   -0,955
1038,170; 2441,611;    0,455;   -0,318
1038,716; 2401,884;    1,636;   -0,409
1039,261; 2281,611;   -2,273;   -0,773
1039,807; 2235,429;   -0,091;    3,409
1040,352; 2315,247;   -1,909;   -0,318
1040,898; 2355,611;   -1,545;   -0,682
1041,443; 2243,157;   -1,455;   -2,591
1041,989; 2362,066;    1,091;    1,591
1042,534; 2206,338;   -0,364;    2,591
1043,079; 2240,611;    2,909;    0,955
1043,625; 2094,611;    1,818;    0,500
1044,170; 2166,066;   -1,364;    1,045
1044,715; 2435,338;    2,455;    0,955
1045,260; 2253,429;    2,182;   -0,955
1045,805; 2237,157;    1,182;   -0,591
1046,350; 2171,520;    1,364;   -0,409
1046,895; 2210,975;    2,909;    1,591
1047,440; 2187,884;    5,364;    0,409
1047,985; 2044,247;    2,818;   -0,955
1048,530; 1952,975;    1,545;    1,227
1049,074; 2055,247;    0,000;    0,318
1049,619; 2004,793;   -1,364;    1,955
1050,164; 1832,793;    0,455;    0,227
1050,708; 1900,429;   -0,455;    0,045
1051,253; 2308,884;    1,273;   -2,227
1051,797; 2005,793;    0,818;   -1,318
1052,342; 1937,793;   -1,182;    1,045
1052,886; 1991,247;    0,364;   -1,409
1053,430; 1838,975;   -1,364;    0,136
1053,975; 1864,884;   -0,818;   -0,318
1054,519; 1876,066;   -0,727;    3,227
1055,063; 1930,157;    0,909;    1,318
1055,607; 1826,611;   -0,182;    0,227
1056,151; 1844,429;    2,909;    1,682
1056,695; 1726,975;    2,273;   -1,136
1057,239; 1784,702;   -1,727;   -0,682
1057,783; 1807,884;    0,818;   -1,500
1058,327; 1809,157;    0,000;    1,409
1058,871; 2038,157;   -0,545;    1,318
1059,415; 1759,247;   -0,818;   -0,045
1059,958; 2051,247;    1,455;    2,591
1060,502; 1750,338;   -1,000;   -0,773
1061,046; 1610,157;    0,364;   -0,955
1061,589; 1576,066;   -3,000;   -1,136
1062,133; 1479,702;   -1,273;    1,864
1062,676; 1465,975;    1,182;    0,864
1063,220; 1492,702;    1,091;    0,500
1063,763; 1505,884;    0,909;    1,136
1064,306; 1582,884;   -0,909;    1,864
1064,849; 1491,066;   -0,909;    0,591
1065,393; 1483,429;    2,000;   -1,500
1065,936; 1572,884;    0,182;   -0,409
1066,479; 1447,611;   -1,455;    1,318
1067,022; 1475,520;   -0,273;   -0,227
1067,565; 1391,975;   -0,091;   -1,318
1068,108; 1397,338;    0,727;   -0,591
1068,651; 1356,157;   -0,636;    1,409
1069,194; 1307,884;   -0,455;   -1,682
1069,736; 1344,520;   -1,273;    0,955
1070,279; 1297,247;   -1,364;   -0,500
1070,822; 1374,611;   -2,000;   -0,318
1071,364; 1506,975;   -0,364;    1,318
1071,907; 1306,520;   -0,727;    3,227
1072,450; 1167,157;    0,000;   -0,045
1072,992; 1200,611;   -0,273;    3,136
1073,535; 1357,975;    2,091;    2,136
1074,077; 1145,975;   -0,727;    2,045
1074,619; 1129,611;   -1,364;    0,591
1075,161; 1162,429;   -1,091;    1,500
1075,704; 1365,066;    1,545;    1,227
1076,246; 1138,702;   -0,182;    0,682
1076,788; 1038,429;   -0,364;    1,773
1077,330; 1105,975;    1,273;    2,136
1077,872; 1097,884;    0,909;    0,955
1078,414; 1345,884;    2,727;    0,773
1078,956; 1083,793;    1,273;   -0,227
1079,498; 1365,338;    1,636;    0,318
1080,040; 1075,611;    1,909;   -1,318
1080,581;  994,338;    1,636;   -0,318
1081,123;  904,520;    0,091;   -0,773
1081,665;  952,793;   -1,182;   -0,955
1082,206; 1282,975;    1,364;   -0,500
1082,748; 1141,884;    0,727;    2,045
1083,289;  997,611;   -2,000;    1,318
1083,831;  921,975;   -0,545;    0,227
1084,372;  988,975;    0,000;    0,591
1084,913;  985,338;    1,091;    0,864
1085,455;  917,429;   -1,909;   -2,045
1085,996;  916,338;   -2,273;    0,136
1086,537;  948,157;   -0,091;    0,864
1087,078;  960,157;   -0,909;   -2,136
1087,619; 1023,157;   -1,273;    0,227
1088,160;  935,702;    0,000;    1,318
1088,701;  904,157;   -1,091;    0,682
1089,242;  860,157;    1,364;   -2,227
1089,783;  977,520;   -0,273;    1,409
1090,324;  948,611;    0,455;    0,682
1090,865;  820,157;    2,727;   -0,409
1091,405;  759,520;    0,727;    2,227
1091,946;  802,157;    0,182;   -0,955
1092,487;  724,975;    0,818;   -1,409
1093,027;  922,429;   -1,364;   -1,500
1093,568;  774,611;   -0,364;    1,227
1094,108;  878,247;    0,273;    1,773
1094,649;  807,066;   -1,182;    0,136
1095,189;  730,702;   -0,636;   -0,682
1095,729;  705,066;   -0,091;    0,955
1096,269;  701,066;    0,727;   -0,955
1096,810; 1030,066;   -1,364;    0,500
1097,350;  860,520;    1,364;   -0,773
1097,890;  756,157;    0,364;    1,227
1098,430; 1021,611;    2,364;    2,864
1098,970;  896,793;    2,182;    1,682
1099,510;  729,520;    0,545;   -2,318
1100,050;  676,338;    1,000;   -1,591
1100,589;  657,975;   -0,727;   -0,318
1101,129;  784,793;    0,818;   -0,955
1101,669;  943,338;    1,727;    2,136
1102,209;  760,066;   -0,091;    2,227
1102,748;  711,429;    0,000;    0,955
1103,288;  710,793;    1,273;   -1,227
1103,827;  731,793;    3,091;   -2,227
1104,367;  606,611;   -0,091;   -2,409
1104,906;  584,520;    1,364;   -1,136
1105,445;  661,793;    0,636;   -1,136
1105,985;  608,520;   -0,727;    1,500
1106,524;  659,157;   -1,727;   -0,682
1107,063;  633,338;   -2,727;    1,409
1107,602;  588,247;   -1,909;   -1,500
1108,141;  525,157;   -1,909;    1,500
1108,680;  637,702;   -3,455;   -0,591
1109,219;  574,157;   -0,909;   -0,500
1109,758;  569,520;    0,455;    0,682
1110,297;  545,157;    1,000;   -0,682
1110,836;  488,338;   -0,727;    0,955
1111,375;  664,247;   -2,545;    0,409
1111,913;  680,247;   -1,000;    0,773
1112,452;  601,429;   -0,273;    0,136
1112,991;  484,975;    1,091;    1,955
1113,529;  448,338;   -0,818;   -0,045
1114,068;  528,702;   -0,273;    2,955
1114,606;  427,793;   -0,364;   -0,955
1115,144;  599,247;   -1,273;    1,045
1115,683;  530,702;   -0,727;    0,318
1116,221;  575,429;   -0,455;   -0,864
1116,759;  484,338;    0,636;   -0,864
1117,297;  690,975;    0,000;    1,864
1117,836;  483,793;   -2,182;   -1,227
1118,374;  499,975;    0,182;   -0,682
1118,912;  445,702;    0,909;    2,682
1119,450;  442,884;    1,000;    0,864
1119,988;  498,702;    1,545;    2,136
1120,525;  944,157;    5,091;    3,318
1121,063;  648,884;    1,182;    1,864
1121,601;  461,611;   -0,909;   -1,227
1122,139;  424,338;   -0,727;   -2,045
1122,676;  621,611;   -0,727;    2,773
1123,214;  547,429;   -1,182;    4,409
1123,751;  365,157;    1,727;    2,227
1124,289;  494,429;   -0,091;   -0,409
1124,826;  366,157;    1,727;    0,227
1125,364;  290,975;    1,727;   -0,955
1125,901;  476,338;    1,182;    1,227
1126,438;  590,247;    0,818;    0,955
1126,975;  318,157;   -0,727;   -0,773
1127,513;  395,066;    0,273;    2,136
1128,050;  295,611;    1,636;   -0,682
1128,587;  393,066;    2,000;   -0,227
1129,124;  441,611;    0,091;    1,318
1129,661;  306,066;    0,273;    0,227
1130,198;  478,157;    1,636;    0,773
1130,734;  420,611;    0,182;    1,409
1131,271;  283,793;   -0,909;    0,864
1131,808;  449,338;    2,909;    3,045
1132,345;  332,884;    1,545;    0,318
1132,881;  201,611;   -1,545;   -1,864
1133,418;  333,429;    0,727;   -1,136
1133,954;  274,975;    2,455;   -2,682
1134,491;  349,247;    1,364;   -0,773
1135,027;  256,611;    2,364;    0,864
1135,564;  344,429;    0,273;    2,955
1136,100;  332,702;    0,364;    2,136
1136,636;  219,611;   -1,273;   -1,045
1137,172;  316,429;    0,000;   -1,045
1137,708;  244,338;   -1,364;   -1,045
1138,245;  241,338;    1,273;   -1,227
1138,781;  179,520;    1,091;   -3,318
1139,317;  264,520;    1,273;   -1,409
1139,852;  257,338;    3,091;    0,136
1140,388;  362,157;   -1,182;   -0,409
1140,924;  248,975;   -1,091;   -2,227
1141,460;  190,338;   -1,636;    0,136
1141,996;  128,975;   -1,364;    2,682
1142,531;  178,793;    1,364;    3,318
1143,067;  387,429;    1,182;    1,045
1143,602;  451,247;   -0,091;   -0,318
1144,138;  299,520;   -2,636;    1,045
1144,673;  167,429;   -1,455;    1,409
1145,209;  230,975;   -1,909;   -0,318
1145,744;  152,793;   -0,727;    0,864
1146,279;  289,429;    1,818;   -0,136
1146,815;  201,247;    1,545;   -2,682
1147,350;  253,611;   -1,364;    0,045
1147,885;  155,884;   -0,818;   -1,318
1148,420;  167,157;   -2,273;    0,773
1148,955;  145,884;   -1,727;    1,864
1149,490;  162,520;   -0,909;   -1,591
1150,025;  152,066;    0,455;   -1,773
1150,560;  261,975;    1,091;   -0,955
1151,094;  228,793;    1,455;   -0,591
1151,629;  234,702;    1,636;    0,864
1152,164;  158,884;    1,364;    1,318
1152,698;  123,066;   -0,182;   -0,136
1153,233;   83,429;    0,091;   -0,682
1153,767;  134,520;   -3,000;   -2,318
1154,302;  178,157;   -1,455;    1,773
1154,836;  179,247;   -0,455;   -2,136
1155,371;  232,611;   -1,364;    3,682
1155,905;  188,520;   -0,636;    1,682
1156,439;  156,702;   -0,636;   -0,500
1156,973;  187,520;    0,364;    0,318
1157,507;  126,793;   -0,364;    0,682
1158,042;  148,429;   -0,727;    1,045
1158,576;  191,975;    0,182;    1,773
1159,110;  182,975;   -0,818;    2,409
1159,643;  161,520;    0,636;   -0,045
1160,177;  101,520;   -1,545;    1,500

