
Integration time [ms]:   0,040
Averaging Nr. [scans]: 11
Smoothing Nr. [pixels]: 0
Data measured with spectrometer [name]: 7318044SP
Wave   ;Sample   ;Dark     ;Reference
[nm]   ;[counts] ;[counts] ;[counts] 

186,757;   24,833;   31,551;    1,318
187,357;   63,489;   22,551;    0,955
187,958;   37,497;   15,460;   -1,591
188,558;   82,903;    8,915;   -1,227
189,159;   49,793;    6,733;   -4,500
189,759;   22,022;    7,278;   -3,591
190,360;   25,439;    2,824;   -2,136
190,960;   66,960;    2,915;   -4,136
191,560;   78,223;    3,189;   -6,591
192,161;  359,540;    4,372;   -3,500
192,761;  188,314;    4,010;   -3,227
193,361;  113,691;    1,556;   -3,773
193,962;  176,350;    2,010;   -2,682
194,562;   94,837;    1,189;   -3,955
195,162;  131,280;   -2,448;   -2,227
195,762;  314,215;   -3,176;   -0,045
196,362;  264,342;    1,370;   -2,500
196,963;  102,830;    2,006;   -0,864
197,563;  188,277;    1,551;   -0,955
198,163;  136,047;    0,096;   -0,682
198,763;  143,536;    1,733;   -0,500
199,363;  267,716;    3,096;   -0,500
199,963;  227,239;    0,369;    0,409
200,563;  196,320;    2,823;   -1,409
201,163;  176,888;    3,277;   -0,227
201,763;  282,471;    3,732;    0,318
202,363;  197,624;    1,459;    1,500
202,963;  326,498;    1,459;    1,045
203,563;  454,415;    0,277;    0,500
204,162;  284,912;    2,096;   -1,864
204,762;  264,006;    0,550;    0,591
205,362;  238,701;    3,004;    1,955
205,962;  341,423;    3,096;    1,955
206,562;  333,002;    1,823;    2,318
207,161;  306,181;   -0,087;    0,318
207,761;  480,309;    1,277;    2,409
208,361;  344,025;   -0,268;    1,409
208,960;  457,835;    0,459;    1,500
209,560;  542,402;    1,277;    1,591
210,160;  518,071;    0,550;    1,864
210,759;  470,453;    4,186;    1,227
211,359;  485,380;    1,459;    1,045
211,958;  777,285;    1,277;    2,045
212,558;  877,403;    1,732;    1,864
213,157;  702,723;    1,822;    1,500
213,757; 1170,898;    3,822;   -0,227
214,356;  850,126;    1,277;   -0,409
214,956; 1210,328;    3,095;    0,409
215,555;  804,679;    2,095;    2,136
216,154;  732,076;   -2,723;   -0,591
216,754;  747,873;    0,277;    0,773
217,353;  915,434;   -0,268;   -1,045
217,952;  749,778;   -0,178;    0,318
218,552;  998,970;    1,368;   -0,773
219,151;  893,495;    0,277;    0,955
219,750;  886,129;    0,004;   -0,227
220,349; 1042,808;   -0,451;    1,045
220,948; 1101,502;   -1,360;    1,136
221,548; 1142,179;    0,913;    1,227
222,147; 1254,887;   -0,087;   -0,409
222,746; 1543,652;   -0,451;   -0,955
223,345; 1434,796;    0,731;    0,500
223,944; 1454,378;   -0,451;    0,773
224,543; 1625,422;    1,004;   -1,409
225,142; 1738,066;    0,094;    0,136
225,741; 1651,874;   -0,814;    1,045
226,340; 1678,052;   -0,451;   -0,955
226,939; 2152,047;   -0,996;   -0,136
227,538; 2146,057;   -0,360;   -0,773
228,137; 2290,383;   -0,814;    0,864
228,735; 2495,100;   -0,541;    1,227
229,334; 2207,533;   -0,905;   -0,227
229,933; 2589,622;    0,459;    0,591
230,532; 2714,858;    1,186;   -0,409
231,131; 2757,897;    1,732;    0,318
231,729; 2931,296;   -2,450;   -2,318
232,328; 3087,321;   -0,723;   -1,500
232,927; 3190,345;    1,004;   -0,500
233,525; 3310,281;    3,640;    0,045
234,124; 3543,097;    2,368;   -1,591
234,723; 3555,364;    0,913;   -1,045
235,321; 3718,955;    2,277;    0,136
235,920; 3987,943;    1,186;   -1,227
236,518; 4255,716;    3,459;    0,318
237,117; 4459,701;    0,004;   -0,227
237,715; 4643,237;    0,640;   -0,500
238,314; 4697,526;   -0,087;   -2,318
238,912; 4788,742;   -0,723;   -1,409
239,510; 4832,426;    0,459;   -1,227
240,109; 5052,112;    0,004;    3,773
240,707; 5065,404;   -0,996;    1,227
241,305; 5463,785;    0,550;    0,136
241,904; 5711,240;   -0,178;   -2,045
242,502; 5669,272;   -0,632;   -0,227
243,100; 5603,216;   -0,087;   -0,955
243,698; 5860,206;    0,732;    1,682
244,297; 6085,180;   -0,632;    0,682
244,895; 5890,024;   -0,269;   -2,318
245,493; 6261,915;    2,186;   -0,591
246,091; 6314,293;    1,368;   -1,318
246,689; 6306,010;    1,004;    0,591
247,287; 6453,056;    0,822;   -1,136
247,885; 6742,360;   -1,451;    1,227
248,483; 6873,375;    1,822;   -0,500
249,081; 7044,256;    0,185;    1,591
249,679; 7202,247;   -0,178;    1,682
250,277; 7462,195;   -1,723;    0,864
250,875; 7463,499;   -1,087;   -1,045
251,473; 7495,473;   -1,178;    0,500
252,071; 7711,012;    1,459;    1,045
252,669; 7897,924;   -1,814;    0,318
253,267; 8112,104;   -0,087;    0,773
253,864; 8089,602;   -0,360;    0,682
254,462; 7964,783;    1,640;    1,591
255,060; 7913,548;   -0,269;    1,318
255,658; 8256,651;    0,822;   -0,136
256,255; 8677,591;    0,186;   -2,045
256,853; 8540,996;   -0,269;    1,409
257,451; 8559,803;    0,822;    1,864
258,048; 8872,931;    1,822;    1,864
258,646; 8596,045;    1,731;   -1,045
259,243; 8791,360;   -0,087;    2,227
259,841; 8872,991;   -0,814;    0,318
260,438; 8727,882;   -0,087;    0,864
261,036; 9501,406;   -1,905;    1,409
261,633; 9379,218;   -0,087;    2,227
262,231; 9090,198;    2,731;   -0,045
262,828; 9199,241;   -0,905;    1,136
263,425; 9273,274;    0,913;   -0,591
264,023; 9583,184;    0,186;    0,045
264,620; 9117,932;   -0,360;   -0,318
265,217; 9466,116;   -2,087;    3,136
265,815; 9569,416;   -1,905;    2,136
266,412; 9316,410;    0,731;    0,136
267,009; 9414,792;   -1,451;    0,773
267,606; 9315,317;    0,822;   -0,955
268,203; 9274,937;   -0,269;   -0,591
268,801; 9603,492;    1,731;    0,591
269,398; 9889,426;   -0,360;    2,500
269,995; 9873,150;    0,277;    1,591
270,592; 9624,748;   -0,632;   -0,500
271,189; 9879,187;    0,186;    0,409
271,786;10010,318;   -0,632;    1,227
272,383; 9820,427;   -1,087;    0,227
272,980;10047,325;    0,277;    0,318
273,577;10524,621;    0,004;    1,227
274,174;10081,697;    0,822;    2,591
274,771;10103,742;   -0,814;   -0,773
275,367;10261,974;    2,277;    1,409
275,964;10237,806;    0,731;   -0,500
276,561;10304,592;    1,549;   -1,045
277,158;10554,611;    0,095;   -1,773
277,755;10684,801;    2,185;    0,409
278,351;10093,761;   -0,451;   -1,500
278,948;10445,120;   -0,815;    0,045
279,545;10429,026;   -1,360;    2,318
280,141;11099,306;   -1,723;   -2,045
280,738;11007,266;   -0,451;   -0,136
281,334;11289,608;   -1,633;    0,591
281,931;10671,652;   -0,087;   -1,318
282,528;10751,178;    0,822;   -0,500
283,124;11487,874;   -1,087;   -0,500
283,721;11420,064;   -0,451;    1,409
284,317;11233,640;    0,185;    2,500
284,913;11796,688;   -1,360;    0,591
285,510;11987,779;    0,640;   -0,318
286,106;12042,243;   -2,269;   -0,955
286,703;11643,873;   -0,360;    1,955
287,299;11876,082;   -1,451;   -0,591
287,895;12069,785;    0,822;   -1,045
288,491;12680,335;    0,186;    2,136
289,088;12394,306;   -2,360;    2,409
289,684;12492,106;   -1,723;    1,500
290,280;12536,183;    0,368;    0,682
290,876;12596,252;    1,822;    5,500
291,472;12474,190;    1,276;    2,227
292,068;12639,719;    1,367;    0,227
292,665;12317,537;    2,095;    0,773
293,261;11907,754;    0,276;    2,136
293,857;12372,343;    2,913;    2,136
294,453;12276,884;    3,550;    0,955
295,049;12163,911;   -0,268;    1,955
295,644;12203,085;    0,095;    0,136
296,240;12055,961;   -0,905;   -0,136
296,836;12134,908;   -0,995;    0,318
297,432;12442,933;    1,096;   -0,500
298,028;12505,455;    0,732;    0,773
298,624;12947,122;    1,459;    1,864
299,220;13199,720;    2,368;    0,591
299,815;12876,188;    1,005;   -0,409
300,411;12643,457;    0,914;    1,773
301,007;12655,968;    1,368;    0,227
301,602;12715,896;   -0,541;   -2,318
302,198;12870,498;    0,732;   -0,773
302,794;13249,109;    1,187;   -0,500
303,389;13384,322;   -1,177;    1,045
303,985;13459,411;    0,550;    1,409
304,580;13451,916;    1,459;    1,591
305,176;13400,059;   -3,086;    0,136
305,771;13323,007;   -1,268;   -1,227
306,367;13198,957;    4,095;    0,136
306,962;13559,350;    0,641;    1,500
307,558;13286,192;   -0,450;    0,136
308,153;13195,343;    1,095;   -1,136
308,748;13447,427;   -0,814;    1,682
309,344;13454,173;   -0,632;   -1,318
309,939;13576,020;   -1,905;   -1,318
310,534;13842,369;   -0,086;   -1,682
311,130;13789,960;    0,459;   -2,500
311,725;13484,681;    1,004;   -0,500
312,320;13829,247;    2,459;    0,045
312,915;13650,834;    1,459;   -1,045
313,510;13752,089;    1,550;   -0,500
314,105;14289,738;    1,096;    1,409
314,700;13631,914;   -3,086;   -1,045
315,295;13206,371;   -0,904;    0,045
315,890;12744,875;    1,277;    0,864
316,485;13127,339;   -0,359;   -0,318
317,080;13211,644;   -3,086;    1,591
317,675;13820,621;    2,005;   -0,682
318,270;13200,824;    5,550;    3,318
318,865;13205,359;    3,278;    3,045
319,460;13030,408;   -0,904;    0,591
320,055;13240,775;   -0,541;   -1,227
320,650;12906,233;   -1,995;   -0,591
321,244;12964,919;   -0,177;   -1,409
321,839;13953,855;   -1,541;   -0,227
322,434;13850,702;   -1,086;   -1,591
323,029;13488,911;    1,732;    1,591
323,623;13316,427;    1,550;    0,773
324,218;13049,473;    2,368;    1,409
324,812;12983,028;    1,096;    1,591
325,407;12808,771;   -0,814;    2,045
326,002;12675,759;    0,277;   -0,409
326,596;12982,882;    0,914;    1,318
327,191;13211,887;    0,823;   -1,045
327,785;12751,064;   -0,813;   -0,227
328,379;13004,830;    1,368;    0,136
328,974;12828,046;    0,914;   -3,955
329,568;13032,164;    0,186;   -2,409
330,163;12832,148;    2,096;    1,045
330,757;13209,883;    2,459;    1,591
331,351;12511,436;    0,459;    0,682
331,945;12837,098;    0,914;    1,409
332,540;12414,174;   -1,723;   -0,591
333,134;12571,325;   -1,086;    0,773
333,728;12850,412;    0,005;    0,318
334,322;13177,206;   -1,177;   -0,864
334,916;12438,317;    0,277;    0,955
335,510;12805,812;   -0,450;   -0,136
336,105;13060,796;   -1,086;    1,591
336,699;12772,296;   -1,086;    0,591
337,293;12681,534;   -1,723;    0,318
337,887;12819,463;   -2,723;    1,955
338,481;12949,651;    0,459;    0,591
339,074;13102,852;   -0,359;    2,682
339,668;12956,037;   -1,632;    1,227
340,262;13192,278;    1,732;    3,227
340,856;12678,208;    1,822;   -0,682
341,450;11999,724;    1,004;    1,864
342,044;12965,989;    1,459;    0,136
342,637;12731,021;    0,913;   -2,136
343,231;12601,507;   -2,360;    0,682
343,825;12537,559;   -1,086;   -0,591
344,419;12500,616;   -1,995;    0,500
345,012;12264,554;    2,459;    4,045
345,606;12277,548;    4,641;    1,591
346,199;12109,261;   -1,813;   -0,227
346,793;11608,810;    1,914;    2,045
347,386;11785,166;   -0,813;   -1,136
347,980;11769,898;   -0,268;   -0,045
348,573;11542,149;    2,278;    0,409
349,167;11222,287;    5,278;    4,773
349,760;11573,524;    2,914;    2,682
350,354;11559,603;   -0,813;    1,136
350,947;11299,497;    1,096;    1,682
351,540;10918,782;   -0,358;   -1,409
352,134;10840,740;    1,096;    1,136
352,727;10928,936;   -0,086;    1,136
353,320;10720,190;    0,005;    0,591
353,913;10570,743;   -1,995;    1,864
354,507;10785,250;    0,823;   -1,227
355,100;10720,914;    0,460;    0,864
355,693; 9955,338;    2,005;    2,409
356,286;10000,729;    0,823;    2,773
356,879;10369,636;   -0,722;    1,227
357,472; 9930,065;   -0,904;    1,500
358,065;10138,770;   -0,722;    2,500
358,658;10040,989;   -0,540;    2,318
359,251; 9692,010;   -1,631;   -0,591
359,844; 9110,102;   -1,904;   -1,136
360,437; 9311,992;   -2,995;    0,045
361,030; 9590,249;    1,369;   -0,682
361,623; 9171,905;    2,824;    0,318
362,215; 9204,318;   -0,086;    2,045
362,808; 9011,200;   -2,358;   -1,682
363,401; 9219,877;   -2,449;    0,136
363,994; 8940,656;   -0,631;   -1,500
364,586; 8832,836;    0,824;   -1,500
365,179; 9096,496;   -0,449;   -1,136
365,772; 8541,095;   -1,995;    2,045
366,364; 8876,818;    1,915;   -3,227
366,957; 9070,510;    2,279;   -0,045
367,549; 9083,144;    2,188;   -0,864
368,142; 8741,605;    1,825;   -1,500
368,734; 8961,288;    0,734;   -2,136
369,327; 8886,449;    1,643;   -0,500
369,919; 8785,701;   -1,538;    0,409
370,512; 8538,769;   -1,083;   -0,500
371,104; 8287,547;   -0,901;    1,591
371,696; 8489,040;    1,191;   -0,955
372,289; 8613,063;    0,373;    1,136
372,881; 8796,553;   -2,080;    1,318
373,473; 8707,654;   -2,170;    1,136
374,066; 8474,529;   -0,169;    0,500
374,658; 8316,192;    0,378;    1,136
375,250; 8698,245;    0,653;   -1,409
375,842; 8526,808;    0,473;   -0,045
376,434; 8425,800;   -0,435;   -0,409
377,026; 9029,877;    0,204;   -2,500
377,618; 8928,741;   -0,158;   -0,682
378,210; 8775,278;   -0,338;   -1,955
378,802; 8610,460;    0,754;   -0,591
379,394; 8593,463;    1,846;    0,682
379,986; 9196,204;    1,393;   -0,955
380,578; 9285,145;   -0,153;    0,773
381,170; 8621,848;   -0,972;    0,045
381,762; 8551,494;    0,755;    1,409
382,354; 8774,250;   -0,065;   -1,318
382,945; 8904,890;   -2,976;    0,318
383,537; 9057,890;   -2,705;   -1,955
384,129; 9030,433;   -2,160;   -1,136
384,721; 9271,370;   -0,252;    0,955
385,312; 9216,092;   -0,161;   -0,955
385,904; 9267,739;   -2,706;    1,591
386,496; 8626,104;   -0,979;    1,045
387,087; 8779,545;    1,022;    2,500
387,679; 8841,691;   -1,160;    0,045
388,270; 8957,537;    2,840;    2,045
388,862; 9082,014;    1,295;   -0,318
389,453; 9007,817;   -0,887;    1,045
390,045; 9310,328;   -0,705;   -2,682
390,636; 9239,643;    0,204;   -0,591
391,227; 9065,369;   -0,523;   -0,045
391,819; 9138,641;    0,204;    0,773
392,410; 9243,226;    1,022;    0,045
393,001; 9175,743;   -0,979;   -1,591
393,593; 9500,846;    1,930;   -0,045
394,184; 9353,674;    1,385;   -0,409
394,775; 9304,082;    1,839;    2,136
395,366; 9451,846;    1,385;    0,773
395,957; 9512,554;    0,113;    0,136
396,548; 9842,558;   -0,342;    2,682
397,139;10177,405;   -2,433;    0,591
397,730; 9894,519;   -1,888;    0,955
398,321; 9947,683;   -1,252;    0,955
398,912; 9979,438;   -0,615;    0,136
399,503;10012,269;   -3,524;   -1,409
400,094; 9393,655;    0,294;    1,682
400,685; 9257,765;   -0,433;    0,045
401,276; 9399,316;    0,930;   -0,955
401,867; 9725,610;   -0,888;    0,773
402,458; 9814,352;   -2,251;   -2,318
403,048; 9771,866;    1,112;    0,591
403,639; 9340,627;    0,840;    0,864
404,230; 9590,194;    2,476;    0,318
404,821; 9501,815;   -0,615;    0,045
405,411; 9644,586;    1,203;   -2,591
406,002; 9263,467;   -1,252;   -1,136
406,592; 9115,369;    2,294;    0,045
407,183; 9411,845;    0,566;   -1,500
407,774; 9320,218;    3,475;   -0,136
408,364; 9658,362;    0,930;    0,409
408,954; 9256,899;    0,384;    1,227
409,545; 9282,413;    1,021;    1,045
410,135; 8800,529;    1,293;    0,500
410,726; 8975,459;    1,838;    0,318
411,316; 9382,496;    0,111;    0,773
411,906; 9011,674;   -0,253;   -0,409
412,497; 8433,768;   -1,070;   -0,045
413,087; 9116,493;   -1,980;   -0,227
413,677; 9515,220;   -0,707;    3,864
414,267; 9359,871;    0,656;    1,409
414,857; 9358,208;   -2,980;    4,227
415,448; 9658,671;    0,839;    0,500
416,038; 9311,031;    0,020;   -0,591
416,628; 9310,915;   -0,889;    0,409
417,218; 8722,758;    0,565;    3,318
417,808; 9021,549;    0,202;   -0,409
418,398; 9517,775;    0,020;    2,682
418,988; 9572,158;    2,020;    0,591
419,578; 9855,886;   -0,707;    1,409
420,168;10164,604;   -1,343;   -0,955
420,757; 9782,523;   -1,343;   -1,500
421,347; 9417,847;    0,111;   -0,227
421,937; 9593,758;    2,292;    1,409
422,527; 9534,806;    0,838;   -0,773
423,116; 9346,435;   -0,253;   -0,045
423,706; 9741,358;   -1,889;    0,318
424,296; 9706,155;    1,384;    0,682
424,885;10100,609;   -0,071;   -3,045
425,475;10408,587;    1,474;   -2,864
426,065;10291,600;   -0,980;   -0,318
426,654; 9935,195;   -0,435;   -0,318
427,244;10074,936;    0,020;    1,409
427,833; 9498,225;    1,383;   -0,500
428,423; 9987,316;   -0,526;    1,136
429,012;10770,513;   -0,344;   -1,136
429,601;10254,969;   -1,344;    0,136
430,191;10498,998;    1,292;    4,318
430,780;10150,213;   -0,344;   -0,409
431,369;10031,434;    0,746;   -0,045
431,959;10686,339;   -1,254;    0,500
432,548;10489,859;   -1,163;   -0,045
433,137;10637,896;   -1,254;   -1,318
433,726;11186,619;    0,292;    0,500
434,315;10473,226;   -0,526;    2,409
434,905;10587,958;   -1,254;    1,409
435,494;10452,325;    0,746;    0,955
436,083;10931,820;   -0,981;   -0,955
436,672;10800,402;    0,110;    0,500
437,261;10327,148;    0,292;   -1,955
437,850;10444,280;    1,383;    0,682
438,439;10464,913;    3,291;    1,955
439,027;10309,089;    3,655;    1,773
439,616;10648,791;    2,927;    1,227
440,205;10502,191;    0,200;   -2,136
440,794;10632,298;    2,109;   -0,045
441,383;10931,531;   -1,346;   -0,591
441,971;10769,124;   -2,436;    0,591
442,560;10585,959;    0,563;   -1,773
443,149;10325,541;    0,379;   -1,318
443,737;10499,620;   -0,074;   -2,318
444,326;10731,991;    0,018;    0,318
444,915;10818,335;   -1,982;    0,864
445,503;11254,855;   -2,891;   -0,318
446,092;10457,758;    0,382;    2,136
446,680;11039,827;    0,382;    0,318
447,269;11192,071;   -0,346;   -0,318
447,857;10927,193;    0,018;   -1,773
448,445;11023,574;    0,563;    1,318
449,034;11254,544;   -1,528;   -1,136
449,622;11405,463;   -1,073;    3,500
450,210;10579,739;    2,017;    2,227
450,799;11134,996;    0,290;   -0,591
451,387;11074,842;    1,381;   -0,591
451,975;10692,725;    2,654;    0,864
452,563;10807,681;    3,472;    2,318
453,151;10825,808;   -0,528;   -1,227
453,739;10796,302;   -1,347;    0,136
454,328;10625,039;    2,381;   -2,136
454,916;10283,061;    2,562;   -0,136
455,504;10445,026;    1,017;    1,227
456,092;10596,012;    0,017;   -1,591
456,679;10637,374;    1,472;    0,682
457,267;10567,951;    4,017;    1,045
457,855;10743,045;    1,017;    1,409
458,443;10497,027;   -0,165;    1,682
459,031;10611,595;    0,108;    2,409
459,619;11080,968;   -1,801;    2,864
460,206;11266,552;    0,835;    2,045
460,794;11322,826;   -2,983;   -0,227
461,382;11601,634;   -0,529;   -0,864
461,970;11167,203;    1,198;    1,864
462,557;11154,488;   -0,711;   -0,682
463,145;11395,246;   -3,165;   -1,682
463,732;11518,587;    2,016;   -1,045
464,320;11460,422;   -0,075;   -3,045
464,907;11117,928;    2,743;   -0,773
465,495;10972,951;    0,743;   -1,227
466,082;11144,424;   -1,984;   -0,045
466,670;11066,921;   -2,529;    1,227
467,257;11452,300;   -1,711;    2,045
467,844;11608,248;   -0,075;    0,045
468,432;11639,688;    0,834;    3,500
469,019;11070,588;    0,925;   -1,773
469,606;11558,293;    0,470;    3,682
470,193;11386,461;   -1,439;    0,227
470,780;10965,209;   -2,075;    0,864
471,368;11288,617;   -1,257;   -0,773
471,955;11086,248;    1,379;   -0,682
472,542;10668,922;    0,652;   -1,136
473,129;10907,278;   -0,166;    0,136
473,716;10616,170;    1,470;    0,591
474,303;10847,827;    0,652;   -0,864
474,890;11162,362;   -1,439;   -0,500
475,477;11183,648;   -1,621;    0,409
476,064;11053,048;    1,106;   -1,591
476,650;11041,498;    0,288;    0,318
477,237;10852,953;   -0,258;    0,955
477,824;11026,141;   -1,076;    0,864
478,411;11029,280;   -1,894;   -0,318
478,997;11254,525;    0,560;   -0,773
479,584;11310,629;    1,196;   -0,409
480,171;12052,047;   -0,440;   -0,773
480,757;11683,459;    2,651;    0,773
481,344;12012,943;    0,469;    0,409
481,931;11513,681;    1,105;    1,045
482,517;12696,864;   -1,258;    0,318
483,104;13391,686;    1,106;    2,864
483,690;13657,900;   -1,804;    0,045
484,276;14013,259;   -0,895;    0,227
484,863;13743,484;    2,469;    1,136
485,449;14389,178;   -0,077;    0,318
486,035;14299,072;   -1,986;   -0,136
486,622;14792,394;   -0,895;    0,045
487,208;14736,055;    1,378;    1,500
487,794;14558,564;    0,741;    0,318
488,380;14652,376;    0,105;   -1,409
488,967;14722,337;   -1,168;   -0,409
489,553;14825,928;   -1,895;   -1,409
490,139;15001,188;    1,559;    0,773
490,725;14388,332;    0,741;   -0,227
491,311;13853,609;    3,287;    3,045
491,897;13126,822;   -0,986;    1,500
492,483;12870,760;    0,105;    1,227
493,069;12701,104;    3,923;    0,864
493,655;12700,431;    1,650;    0,682
494,241;12631,616;    1,377;   -0,955
494,826;13065,917;    0,287;   -1,045
495,412;12524,860;    2,559;   -0,682
495,998;12677,403;   -0,805;   -0,318
496,584;12854,844;    0,377;    1,045
497,169;12866,473;    1,014;   -0,682
497,755;12830,095;    0,650;    1,227
498,341;13439,917;    0,559;    0,318
498,926;13022,871;    1,832;    1,955
499,512;13216,564;    1,286;    2,955
500,097;13407,657;    0,195;   -0,318
500,683;13341,165;   -0,350;    2,136
501,268;13684,221;   -0,169;   -0,955
501,854;13373,315;   -0,169;    1,227
502,439;13308,794;   -0,624;   -1,773
503,024;13573,457;    0,195;    0,500
503,610;13661,913;   -0,078;   -0,682
504,195;13709,973;    0,558;    1,955
504,780;13870,718;    2,922;    1,227
505,366;13678,472;    3,013;    2,864
505,951;13408,572;    0,740;    1,045
506,536;13434,997;   -3,260;   -3,682
507,121;13428,812;    0,285;   -0,318
507,706;13952,207;    2,376;    1,045
508,291;14363,401;    2,649;    1,136
508,876;13831,839;   -0,988;    2,591
509,461;13271,888;   -0,169;   -0,773
510,046;13736,152;    0,194;    0,318
510,631;13982,244;   -0,351;   -0,773
511,216;13630,631;    2,467;   -0,500
511,801;13996,358;   -0,442;    2,591
512,386;14389,749;    0,740;    0,500
512,971;14349,138;   -2,988;    0,955
513,555;13867,811;   -0,897;   -1,500
514,140;14700,465;   -0,442;   -3,136
514,725;14717,954;   -0,715;   -1,136
515,309;14874,072;   -0,533;    0,318
515,894;14230,845;   -0,624;   -2,227
516,479;14724,043;   -0,624;   -0,955
517,063;14582,220;    0,376;    1,227
517,648;14720,899;    1,012;   -1,136
518,232;14374,091;   -0,261;   -1,409
518,817;14719,533;   -0,079;    1,682
519,401;14950,889;    2,194;    0,591
519,985;14439,622;    1,103;    1,136
520,570;14331,030;    0,830;   -1,955
521,154;14631,872;    2,102;    0,591
521,738;14805,170;   -2,352;    2,409
522,323;15402,445;   -0,170;    1,682
522,907;15114,650;    0,466;   -0,136
523,491;14856,500;    0,557;    0,955
524,075;14819,306;    2,284;    0,591
524,659;14918,613;    1,466;    0,591
525,243;14361,144;    1,739;    0,409
525,827;14637,555;    0,648;   -0,045
526,411;15531,249;   -1,989;   -0,136
526,995;15714,777;   -0,352;    1,409
527,579;15350,171;   -0,443;   -1,045
528,163;15677,375;    0,375;   -1,500
528,747;15558,049;    2,466;   -0,773
529,331;15868,302;   -0,080;   -1,409
529,915;16060,157;    1,738;    0,955
530,499;16046,669;   -0,807;    1,227
531,082;15761,513;   -0,534;    1,591
531,666;15175,595;    1,374;    0,773
532,250;15899,400;    1,284;    2,682
532,833;16271,144;    0,920;    2,773
533,417;16112,381;   -1,807;    0,864
534,001;16116,526;    1,647;   -0,318
534,584;16820,602;    0,374;    0,500
535,168;16632,580;    0,465;    1,409
535,751;16709,003;    0,647;    0,045
536,334;16122,280;   -0,898;   -0,409
536,918;16719,373;    0,011;    1,591
537,501;16916,704;   -0,899;    1,318
538,085;16893,779;   -0,444;    1,045
538,668;17110,311;    0,829;    2,409
539,251;17456,208;    1,829;    3,773
539,834;17442,893;    0,101;    0,773
540,418;17358,043;   -1,990;    4,318
541,001;17518,651;   -0,990;    1,773
541,584;17471,845;    2,101;    2,227
542,167;17211,574;    1,374;    2,955
542,750;17364,249;    1,919;   -0,773
543,333;16944,021;    0,555;    2,136
543,916;17735,184;    0,192;    2,500
544,499;18405,984;   -1,354;    0,227
545,082;18389,073;    1,374;    3,591
545,665;18540,749;    1,919;    1,500
546,248;18904,657;    1,010;   -0,318
546,830;18534,116;   -0,445;    1,955
547,413;18985,690;    1,010;   -0,773
547,996;19528,431;    0,555;    0,500
548,579;19289,033;    0,919;    0,955
549,161;19115,940;    1,828;    2,682
549,744;18881,815;   -0,809;    0,409
550,326;19410,109;   -0,809;   -1,136
550,909;19234,133;    2,737;    0,591
551,492;19546,681;   -0,263;    0,227
552,074;19369,161;   -0,173;   -1,318
552,657;19972,865;    2,373;    0,045
553,239;19689,464;   -0,173;   -0,773
553,821;19568,433;   -1,082;    1,045
554,404;19057,548;    1,282;    1,136
554,986;19490,948;    0,464;    1,045
555,568;20102,001;    1,191;   -0,955
556,151;19340,353;    1,191;   -0,227
556,733;19470,895;   -0,264;   -0,864
557,315;19967,690;    0,100;    0,500
557,897;19855,523;    0,554;   -0,500
558,479;19972,487;   -1,991;    1,318
559,061;20083,170;   -0,719;   -0,864
559,643;20465,896;   -0,264;    0,045
560,225;20840,909;    1,645;    2,864
560,807;20862,078;    0,918;    0,318
561,389;20286,290;    0,554;    2,318
561,971;21166,695;    0,463;    2,136
562,553;20987,124;   -1,628;    1,591
563,135;21089,308;   -0,537;    1,136
563,717;20732,990;    3,372;    1,136
564,298;21469,676;    3,645;   -0,045
564,880;21154,555;    0,645;   -1,409
565,462;21338,736;    0,645;    1,318
566,043;22617,964;   -0,446;    2,318
566,625;22168,045;    1,918;    1,227
567,207;21992,964;    1,099;    1,682
567,788;23232,289;   -1,264;    1,500
568,370;24123,704;    1,917;   -0,500
568,951;24040,694;    0,190;    0,227
569,533;24997,580;   -0,628;   -0,500
570,114;25510,458;   -0,446;    0,682
570,695;26120,691;   -0,174;   -1,318
571,277;26737,001;   -0,265;   -1,682
571,858;27496,928;    2,008;   -1,136
572,439;28471,483;    1,554;   -1,045
573,021;28713,172;    2,099;   -2,773
573,602;29317,397;   -1,265;    0,318
574,183;30334,047;   -2,083;    2,227
574,764;30517,345;   -1,629;    0,409
575,345;31140,462;    0,917;   -0,136
575,926;31766,196;   -0,356;    0,136
576,507;31684,205;    1,099;   -0,227
577,088;32907,353;    3,099;    1,682
577,669;32979,703;    0,735;    1,955
578,250;33905,775;    0,644;   -1,045
578,831;34642,285;   -1,356;   -2,227
579,412;34837,054;   -0,810;    0,955
579,993;35730,234;    1,008;    0,227
580,573;36128,279;   -0,629;   -0,955
581,154;35096,566;    0,735;   -0,591
581,735;36002,568;    0,644;    0,773
582,315;35513,659;   -0,629;    2,136
582,896;35720,982;   -0,174;    1,227
583,477;35089,328;    0,189;    1,227
584,057;35351,200;    0,553;    0,955
584,638;35638,598;    2,553;    2,318
585,218;35661,906;   -0,538;    2,682
585,799;35779,309;    0,281;   -0,227
586,379;35630,444;    0,372;    1,591
586,959;34215,570;    0,735;    0,318
587,540;33456,969;   -0,629;    2,227
588,120;32993,119;    1,007;   -0,045
588,700;31923,090;    2,553;    2,136
589,281;32252,393;    0,462;   -0,955
589,861;32255,490;    0,099;   -1,682
590,441;32008,414;    2,371;   -2,682
591,021;30868,223;   -0,265;   -2,591
591,601;31043,312;   -0,537;    0,500
592,181;31053,758;   -0,719;   -0,773
592,761;30306,528;    0,007;    1,409
593,341;30236,525;   -0,901;    0,045
593,921;30226,773;   -0,265;    1,591
594,501;30117,967;   -0,538;    1,318
595,081;29887,513;    0,917;   -0,318
595,661;30335,960;   -1,447;    0,955
596,240;30885,346;   -0,537;    0,136
596,820;30548,087;    0,372;    1,955
597,400;30727,962;    2,008;    0,773
597,980;30894,113;    2,008;    1,045
598,559;30857,657;    2,735;   -0,227
599,139;30547,176;   -0,174;   -1,227
599,718;30519,812;   -0,174;   -0,409
600,298;30751,873;    0,735;    0,682
600,877;31021,145;    2,917;    1,409
601,457;31297,976;    2,281;    1,136
602,036;31248,756;    0,190;    2,045
602,616;31475,739;    0,644;    1,682
603,195;31817,966;   -0,355;    3,500
603,774;31327,814;   -0,901;    2,045
604,354;31228,620;    0,826;   -0,500
604,933;30660,826;    0,463;    1,864
605,512;30734,709;    3,554;    0,591
606,091;30794,312;   -0,537;    3,773
606,671;31606,862;    0,281;    0,773
607,250;30690,702;    1,644;    3,136
607,829;30971,639;    2,372;    3,227
608,408;30806,439;    1,190;    2,591
608,987;29754,018;    1,281;    3,409
609,566;30044,153;   -1,265;   -2,500
610,145;30124,663;   -1,082;    0,682
610,723;30524,466;    4,372;    6,864
611,302;29767,104;   -0,446;    1,682
611,881;29321,825;    5,008;   11,227
612,460;30151,187;    1,645;    3,955
613,039;30519,644;   -0,082;    2,045
613,617;29232,897;    1,736;    4,773
614,196;29424,221;    1,099;    1,227
614,775;29758,862;    1,009;    2,409
615,353;29636,074;    0,736;    0,864
615,932;29380,982;    0,100;    2,409
616,510;30019,124;    0,554;    0,591
617,089;29494,707;    7,100;   17,591
617,667;29199,083;    2,372;    6,136
618,246;29079,262;   -1,537;    1,318
618,824;29186,452;   -3,355;   -0,955
619,402;28711,736;   -2,900;   -1,773
619,981;29286,052;   -0,173;   -1,045
620,559;29053,740;    0,009;    1,682
621,137;28507,134;   -0,718;    1,864
621,715;28613,574;   -1,173;   -0,682
622,293;28521,362;   -0,537;   -0,773
622,871;28917,327;   -0,718;    0,500
623,450;28509,991;    0,373;   -0,864
624,028;28366,309;    0,191;   -0,955
624,606;28079,499;   -1,718;    1,682
625,183;28416,679;   -1,536;   -1,136
625,761;28015,487;    1,009;    1,136
626,339;28318,882;    1,373;    2,591
626,917;28717,809;   -0,172;   -0,045
627,495;28730,420;   -0,354;    1,318
628,073;28156,294;   -0,263;    2,864
628,650;27803,789;    0,100;    2,136
629,228;28255,891;    0,373;    4,409
629,806;27646,992;    2,282;    1,136
630,383;27870,140;    1,464;   -0,318
630,961;27687,116;    2,555;   -0,955
631,539;27413,176;    2,464;    0,227
632,116;26764,935;   11,373;   15,409
632,694;27296,344;    2,555;    6,500
633,271;27618,764;    0,828;    2,682
633,848;27595,004;    1,828;    2,045
634,426;27586,351;   -1,081;    1,773
635,003;26684,843;    1,101;   -0,409
635,580;27007,982;    1,192;    3,682
636,158;27586,337;    3,737;    1,227
636,735;27565,980;    0,555;   -0,500
637,312;27702,114;   -0,809;   -0,682
637,889;27798,173;   -4,354;   -0,682
638,466;27231,373;   -3,990;   -0,409
639,043;27307,098;    2,101;   -1,136
639,620;27594,599;   -2,262;   -0,955
640,197;27923,320;    1,100;    1,682
640,774;27972,119;   -0,172;    1,136
641,351;28436,736;    0,737;    1,136
641,928;27892,626;   -0,627;    1,409
642,505;27506,789;    0,828;   -0,500
643,082;27595,861;   -1,718;    1,227
643,658;26562,751;   -0,718;    1,500
644,235;27360,913;    1,191;    2,500
644,812;27745,712;    1,918;    0,773
645,388;27436,602;   -0,991;    1,409
645,965;27532,311;   -0,809;    1,682
646,542;27618,655;   -1,445;   -0,227
647,118;27577,272;    1,009;   -0,955
647,695;27854,708;   -0,263;    1,136
648,271;27772,052;   -0,536;    0,500
648,848;28178,033;    0,736;    2,227
649,424;27987,923;    0,827;    1,318
650,000;27706,450;   -0,354;   -1,045
650,577;27530,249;   -0,627;   -0,955
651,153;28007,502;   -1,809;    0,955
651,729;29101,392;    1,191;    0,864
652,305;29928,646;    0,645;    2,773
652,881;35919,082;   -0,082;    1,136
653,458;43392,062;    1,100;    0,227
654,034;46903,043;    0,282;    1,591
654,610;48173,115;    0,554;    0,773
655,186;49495,732;    0,645;    3,045
655,762;49130,532;   -0,991;    0,409
656,338;49232,603;    0,100;    0,136
656,913;50201,584;   -0,082;    0,409
657,489;49441,292;    0,827;   -0,318
658,065;49429,364;   -0,173;   -1,591
658,641;50154,800;   -0,900;   -0,864
659,217;49376,599;   -0,991;    0,409
659,792;48778,307;    0,645;   -0,409
660,368;48948,015;   -2,173;   -0,682
660,944;48047,905;   -2,082;    1,227
661,519;41886,431;   -0,628;    0,409
662,095;35298,594;   -1,719;    0,591
662,670;30867,757;    1,281;   -0,136
663,246;29975,738;    1,009;   -0,409
663,821;29391,355;    0,281;    1,682
664,396;28842,245;    0,009;    1,864
664,972;29125,226;    0,009;   -0,500
665,547;29451,752;    1,372;    0,136
666,122;29490,551;   -1,082;    0,318
666,698;29767,169;   -0,173;    0,318
667,273;29093,877;   -0,173;    0,136
667,848;29903,403;    2,372;    1,500
668,423;29784,111;    2,190;    2,318
668,998;30367,183;    2,827;   -0,682
669,573;30909,437;   -3,264;   -1,500
670,148;30737,600;   -1,446;   -0,682
670,723;30509,490;   -1,810;    0,318
671,298;30936,743;    2,372;    1,045
671,873;31092,270;   -0,082;   -0,136
672,448;31028,614;    0,645;    0,136
673,023;31353,686;   -1,992;   -0,227
673,597;31762,485;    0,827;    2,318
674,172;31485,193;   -0,355;    0,318
674,747;30916,992;    0,372;   -1,045
675,321;30751,882;   -0,628;    3,318
675,896;30373,045;    0,645;    1,045
676,471;31388,480;    2,645;    1,591
677,045;31168,461;   -1,264;    0,682
677,620;31190,988;    0,190;    1,136
678,194;31441,969;   -2,628;    1,136
678,769;31022,768;   -1,083;   -0,318
679,343;31336,294;   -0,628;    1,773
679,917;31196,820;   -1,446;    1,955
680,492;31339,801;    0,826;    3,227
681,066;31479,600;    3,372;    0,409
681,640;31436,036;    1,463;   -0,318
682,214;32322,835;    0,735;    0,500
682,788;31865,452;   -1,356;   -0,773
683,363;31859,797;   -1,810;    1,682
683,937;31520,141;   -1,719;   -0,318
684,511;32271,031;    0,463;   -0,591
685,085;31951,740;   -1,356;    0,318
685,659;31663,902;   -2,538;    0,864
686,232;31986,065;   -0,356;   -0,318
686,806;31723,591;   -0,901;    0,409
687,380;32328,300;   -0,174;    0,591
687,954;32530,644;   -1,174;    1,136
688,528;32266,989;   -0,719;    1,955
689,101;33034,424;   -3,992;    1,045
689,675;32609,678;   -0,356;   -0,136
690,249;32027,659;   -0,719;    0,409
690,822;32236,185;    0,280;    0,318
691,396;32355,348;   -0,265;    1,227
691,969;31860,601;    1,280;    0,136
692,543;32332,673;   -0,447;   -1,955
693,116;31908,381;   -0,265;   -1,409
693,690;31810,635;    0,099;    0,500
694,263;32369,980;   -1,083;    2,955
694,836;32416,506;    1,371;    3,591
695,410;31046,396;   -0,265;    1,773
695,983;31480,468;    0,189;    0,591
696,556;31478,449;   -0,447;   -1,045
697,129;31890,066;   -0,356;    1,409
697,703;31488,319;   -1,629;    1,955
698,276;31440,300;    1,462;   -0,773
698,849;31230,918;    1,280;    1,409
699,422;31544,535;   -1,083;    0,591
699,995;31295,879;    0,007;    0,136
700,568;31798,042;   -0,629;    3,045
701,140;31858,296;   -2,811;    1,682
701,713;31551,913;   -0,174;    2,409
702,286;31282,985;   -0,538;    0,864
702,859;31209,329;   -0,902;   -0,591
703,432;30300,129;    0,825;    0,682
704,004;30787,928;    0,462;    0,318
704,577;30645,818;   -0,629;    0,136
705,150;31268,708;    0,189;    2,500
705,722;31060,507;   -0,356;   -3,227
706,295;30839,397;   -0,175;   -0,591
706,867;30679,650;   -0,175;    1,955
707,440;30923,268;   -1,720;   -0,409
708,012;31191,703;    0,462;    0,591
708,584;31135,229;    2,462;    0,227
709,157;31418,210;    1,825;   -0,591
709,729;30958,464;    2,280;    2,045
710,301;31855,354;    0,734;    0,045
710,874;31904,517;   -1,447;   -0,227
711,446;30792,952;    0,371;    0,864
712,018;30633,388;    0,098;    0,500
712,590;30389,096;   -1,993;    1,682
713,162;30933,077;    0,825;    1,318
713,734;31155,421;    1,825;   -2,045
714,306;30986,129;   -1,902;   -0,409
714,878;29663,110;    0,825;    0,864
715,450;30545,546;    0,643;    0,864
716,022;30743,072;    1,552;    1,318
716,593;30876,326;    0,189;    0,591
717,165;30877,488;   -3,175;   -1,227
717,737;30552,469;    0,280;    0,409
718,309;30160,268;    0,280;   -0,045
718,880;30101,795;   -0,539;   -1,409
719,452;30335,867;   -0,175;   -1,591
720,024;29894,120;    0,734;   -0,591
720,595;30500,828;   -2,902;    0,955
721,167;30068,809;    0,370;   -2,045
721,738;29567,881;   -0,812;   -1,045
722,309;29595,044;   -0,993;   -1,227
722,881;29326,025;   -1,357;    0,773
723,452;29951,551;   -2,630;    2,864
724,023;30085,987;   -0,721;    2,682
724,595;29864,331;    0,007;    0,682
725,166;29593,403;    0,007;   -0,409
725,737;29333,384;    1,734;    0,227
726,308;29374,638;   -0,266;    0,318
726,879;29860,618;   -1,630;    1,227
727,450;29680,599;    0,552;   -0,045
728,021;29642,308;    3,097;    0,682
728,592;29424,470;    0,734;    0,500
729,163;29799,178;    0,643;   -0,136
729,734;29881,159;    0,188;   -0,227
730,305;30244,231;    1,734;    0,136
730,876;30610,758;    0,188;    2,955
731,447;30315,829;    2,188;    2,682
732,017;30381,538;    1,097;    1,864
732,588;29826,609;    0,734;    1,227
733,159;30080,227;    0,643;   -1,045
733,729;29844,298;    0,006;    0,409
734,300;29127,916;    0,915;    0,864
734,870;29533,987;    3,461;    0,591
735,441;30118,059;    0,370;   -0,591
736,011;29910,495;    0,643;   -1,591
736,582;29860,930;   -0,812;    0,045
737,152;29280,638;   -1,721;   -2,045
737,722;29668,347;   -0,267;   -0,682
738,293;29375,418;   -1,358;    1,318
738,863;29334,217;    2,461;    2,318
739,433;29066,380;    5,279;    0,318
740,003;29735,270;   -0,994;   -0,682
740,573;29140,160;    2,097;   -1,591
741,143;29061,050;   -1,085;    0,318
741,713;29843,213;    1,188;   -0,500
742,283;29526,830;    0,915;    1,591
742,853;29285,720;    1,915;    1,591
743,423;28713,065;    1,733;    0,045
743,993;28889,500;   -0,358;    1,500
744,563;28198,754;    0,097;   -0,864
745,133;28164,189;   -0,812;   -0,864
745,702;28849,807;   -0,267;    1,773
746,272;28050,424;   -0,176;    0,591
746,842;27815,677;   -1,358;   -0,591
747,411;28237,386;   -0,267;   -0,318
747,981;28406,730;    0,097;    0,500
748,551;28442,711;    2,278;   -1,045
749,120;28342,601;    0,642;   -0,227
749,690;28665,037;   -0,631;    2,409
750,259;29022,836;    1,369;    2,955
750,828;28999,726;    1,551;   -1,955
751,398;29237,070;    1,278;   -0,045
751,967;28773,415;    2,187;    0,409
752,536;29001,032;   -0,813;   -0,227
753,105;29390,558;    0,096;    0,227
753,675;29171,357;    0,096;    1,773
754,244;29118,156;   -0,904;    3,591
754,813;29171,956;    0,551;    1,227
755,382;28760,936;    0,460;    0,955
755,951;29374,190;    1,551;    3,682
756,520;28895,535;   -0,085;    1,864
757,089;29503,879;    0,278;    0,500
757,658;29668,042;    1,733;    1,227
758,227;29616,568;    1,096;    0,318
758,795;29963,095;    1,187;    1,136
759,364;30165,803;   -0,086;   -0,591
759,933;29155,602;   -1,176;   -0,045
760,501;28621,765;    0,733;   -1,318
761,070;29123,927;   -2,813;   -1,409
761,639;29848,090;   -1,904;    1,318
762,207;29203,253;    1,551;   -0,955
762,776;29121,416;    0,369;    0,864
763,344;29077,487;   -0,995;    0,591
763,913;28115,923;   -0,722;    1,409
764,481;28866,086;    1,005;   -0,136
765,049;28572,976;   -1,358;    1,409
765,618;28488,502;   -0,086;    0,318
766,186;28575,846;    0,278;    0,136
766,754;28765,736;    0,005;    1,864
767,322;27724,717;   -1,995;    0,409
767,890;27744,335;   -0,722;   -1,773
768,459;28173,043;   -2,177;   -0,318
769,027;28395,842;    1,641;    3,409
769,595;27268,550;    3,278;    2,591
770,163;27698,622;    3,823;    2,955
770,730;27404,603;    0,732;   -0,136
771,298;27224,220;    0,187;   -1,409
771,866;27257,110;   -1,541;    4,955
772,434;27691,000;   -0,631;   -1,864
773,002;27855,345;    0,005;    0,682
773,569;27474,416;    0,914;    1,682
774,137;27357,034;   -0,268;   -0,045
774,705;28112,015;    0,278;   -0,136
775,272;27576,814;    0,641;    0,682
775,840;27265,431;   -0,177;    2,682
776,407;26864,957;    0,277;    1,955
776,975;26449,484;   -0,632;    0,318
777,542;27407,919;   -1,086;   -0,045
778,110;27270,173;   -1,268;   -0,045
778,677;26921,154;   -2,359;   -0,864
779,244;26669,680;    2,186;    1,045
779,812;26758,479;    1,823;    0,864
780,379;26599,369;    0,005;    1,136
780,946;26929,623;    1,005;   -0,773
781,513;27223,785;   -1,450;    0,318
782,080;26560,766;   -0,086;    2,864
782,647;27389,111;   -0,268;    3,045
783,214;26948,728;   -0,177;    3,864
783,781;26551,982;   -0,723;   -0,682
784,348;26396,235;   -0,632;    1,500
784,915;26841,125;   -3,177;    0,318
785,482;26611,925;    1,368;    2,591
786,049;27075,087;    0,186;   -0,591
786,615;27214,795;    0,277;   -0,955
787,182;26891,595;    0,186;   -0,682
787,749;26593,303;   -2,814;    1,409
788,315;25952,829;   -1,632;   -0,409
788,882;26184,355;    1,550;   -1,227
789,448;26959,064;    1,732;   -0,955
790,015;26927,590;    1,095;    3,227
790,581;26541,298;    1,459;    0,227
791,148;26440,734;    0,641;    1,045
791,714;26626,624;   -0,541;    3,136
792,280;26235,695;    0,186;    1,591
792,847;25774,949;    0,550;    2,500
793,413;26329,657;   -0,269;   -0,318
793,979;25868,093;    3,459;   -1,318
794,545;25958,892;    4,459;    2,682
795,111;25330,509;    2,186;    1,318
795,678;25508,308;    0,731;   -1,682
796,244;25160,107;    3,368;    0,136
796,810;25715,088;    1,731;    0,773
797,375;25448,705;    0,549;   -2,136
797,941;25475,959;   -0,541;    0,591
798,507;25593,940;   -0,451;   -0,955
799,073;25128,194;   -0,360;    0,591
799,639;25136,629;   -2,632;    3,136
800,205;25154,610;    0,095;    2,682
800,770;24714,318;    0,640;    1,773
801,336;24822,390;    1,368;   -0,955
801,901;24532,007;    4,549;    3,136
802,467;25102,443;   -0,542;    2,045
803,033;24378,787;   -0,087;    0,864
803,598;24609,223;    1,913;   -1,045
804,163;24648,294;    1,095;   -0,318
804,729;24622,003;   -0,178;    1,136
805,294;25072,438;    0,822;    2,227
805,859;24838,328;    0,731;   -0,409
806,425;24273,400;    1,186;    2,682
806,990;23922,108;    2,186;    4,318
807,555;24417,180;   -1,451;    2,591
808,120;24302,161;    0,822;   -0,409
808,685;24330,505;    0,185;   -2,500
809,250;23804,123;    0,004;   -0,500
809,815;24171,558;    1,913;    0,682
810,380;24697,357;   -0,269;    1,591
810,945;25269,065;   -1,087;    2,045
811,510;24362,319;    2,094;    1,591
812,075;24126,664;   -0,633;   -1,409
812,640;24144,917;    2,003;    1,409
813,204;24170,807;    0,822;   -0,227
813,769;24639,606;    2,094;   -0,045
814,334;24048,496;    0,458;    0,864
814,898;24065,295;    0,367;    0,591
815,463;23940,185;    1,276;   -0,773
816,027;23894,166;   -0,724;   -2,318
816,592;23970,874;    0,640;   -2,045
817,156;23481,310;    2,094;    1,136
817,721;23369,473;    4,276;    2,318
818,285;23321,453;    2,912;    1,500
818,849;23992,162;   -1,451;    1,682
819,414;23857,506;   -0,269;    2,955
819,978;23402,942;   -1,269;    1,773
820,542;24009,832;    2,003;    0,500
821,106;23741,085;   -0,815;    0,682
821,670;23825,793;   -0,815;    2,591
822,234;23546,593;   -0,270;    1,409
822,798;22877,028;    0,003;    0,500
823,362;22822,554;   -0,633;    4,227
823,926;22140,990;    0,094;    1,136
824,490;22375,880;   -0,997;   -0,682
825,054;22829,133;   -0,088;   -1,136
825,618;22444,205;   -1,542;   -1,500
826,181;22410,004;    0,458;   -1,318
826,745;22359,076;    1,367;   -1,045
827,309;22683,784;    1,185;    1,318
827,872;22025,674;    1,367;    0,955
828,436;23006,746;    1,185;   -0,773
828,999;23028,363;   -0,997;    1,227
829,563;21790,344;   -0,179;    1,136
830,126;21672,325;   -0,179;   -0,591
830,690;21665,306;   -1,997;    2,864
831,253;21179,196;   -0,543;    2,227
831,816;21354,995;   -1,906;    0,500
832,380;21294,885;    0,185;    0,864
832,943;21518,502;   -1,361;   -0,500
833,506;20953,392;    2,639;   -1,227
834,069;21748,919;    3,912;   -0,955
834,632;21810,627;    1,730;    1,318
835,195;21649,517;    1,003;    0,955
835,758;20839,407;   -0,997;    1,955
836,321;20756,206;    0,730;   -1,045
836,884;20835,823;   -0,725;   -0,955
837,447;20809,713;   -2,816;    1,773
838,010;21097,694;    0,366;    3,227
838,573;21396,130;   -1,179;    0,773
839,135;21364,292;   -1,361;   -0,955
839,698;20791,910;    1,275;    0,409
840,261;20298,982;    1,003;   -0,227
840,823;20111,872;   -0,543;    0,864
841,386;20399,398;   -0,452;   -2,409
841,948;20287,924;   -1,361;    1,773
842,511;19985,178;    0,912;    1,682
843,073;20191,432;    1,912;    0,227
843,636;19936,231;   -0,361;   -0,227
844,198;19899,030;    0,911;    0,591
844,760;20032,374;    1,093;    1,955
845,322;19661,264;    0,548;    1,136
845,885;20109,700;    0,730;    0,591
846,447;20595,135;   -1,998;    0,227
847,009;20145,662;    1,911;   -0,682
847,571;20462,642;    0,820;   -2,045
848,133;20545,805;   -1,089;   -1,864
848,695;20388,877;   -0,543;    1,409
849,257;19926,040;   -1,089;   -1,682
849,819;20115,839;   -0,998;   -0,409
850,381;20152,274;   -0,725;   -0,864
850,942;20530,346;    1,093;   -0,591
851,504;20521,600;    1,184;    0,227
852,066;20550,490;    1,275;   -1,591
852,628;20019,380;   -0,180;    1,955
853,189;19563,542;    1,638;    2,682
853,751;19662,432;   -0,907;    1,409
854,312;19473,959;   -0,453;   -1,682
854,874;20011,576;   -2,089;   -0,773
855,435;20539,921;   -0,907;   -1,682
855,997;20712,901;   -1,816;   -0,136
856,558;19986,428;    0,366;    1,773
857,119;20096,591;    0,820;    2,864
857,681;19761,662;    0,002;    0,318
858,242;19833,825;    1,911;   -2,136
858,803;20219,897;    0,456;   -0,773
859,364;20784,696;    0,184;   -4,773
859,925;20080,131;   -2,453;   -0,955
860,486;19973,112;   -0,453;   -0,955
861,047;19700,002;   -0,544;   -1,227
861,608;19477,711;   -1,089;   -0,773
862,169;19597,601;    0,638;   -0,045
862,730;19377,763;    0,456;    1,409
863,291;19651,562;   -0,635;   -0,500
863,852;20078,361;   -0,635;    1,955
864,412;19468,706;   -0,271;   -0,864
864,973;17991,051;   -0,089;    0,500
865,534;17908,486;   -1,726;    0,227
866,094;19433,467;    1,820;    0,227
866,655;19080,993;    1,274;    3,318
867,215;19348,247;    0,274;    0,136
867,776;19139,591;    0,547;   -0,136
868,336;19285,118;   -1,453;    0,136
868,897;18786,099;    2,638;    1,682
869,457;18505,443;    1,365;    0,318
870,017;18677,970;    0,547;   -1,227
870,578;19235,405;   -0,817;    0,773
871,138;18904,386;   -2,089;   -0,955
871,698;18471,367;   -0,817;   -1,318
872,258;18341,620;   -0,453;   -2,864
872,818;18714,056;    2,729;    0,045
873,378;18674,310;    0,638;    1,045
873,938;18182,290;    0,547;    0,500
874,498;18521,362;    0,274;   -1,955
875,058;18419,798;    2,183;    1,773
875,618;18250,597;    1,910;   -2,682
876,177;18161,578;    1,274;    0,136
876,737;17771,831;   -0,090;    1,955
877,297;17813,267;    0,183;    1,955
877,856;17811,430;   -0,362;    0,318
878,416;17757,774;    1,183;   -0,136
878,976;17981,119;   -1,817;    0,409
879,535;18112,554;    0,092;    3,136
880,095;17870,080;   -0,544;    0,045
880,654;18015,152;   -1,090;    1,318
881,213;18124,315;    2,456;    1,500
881,773;17740,660;    2,637;    2,682
882,332;18127,277;    3,365;    5,136
882,891;17966,076;    3,092;    2,136
883,451;18465,875;   -1,272;    1,682
884,010;17864,492;   -2,908;   -0,409
884,569;17907,473;   -0,999;   -0,045
885,128;18076,727;    2,819;   -1,864
885,687;18175,617;    4,455;    0,682
886,246;17863,870;    1,455;    2,136
886,805;17658,942;    2,455;    2,045
887,364;17946,105;   -0,999;   -0,500
887,922;18325,722;   -1,181;    0,045
888,481;17864,158;   -1,545;    0,591
889,040;18133,320;    1,183;    2,136
889,599;18824,756;    2,455;    1,409
890,157;18848,100;    1,455;    2,409
890,716;18540,718;   -0,090;    0,227
891,274;18349,699;    0,092;   -1,136
891,833;18768,316;    1,546;    0,864
892,391;18696,660;   -0,454;    0,500
892,950;18787,369;    1,819;   -0,773
893,508;19154,622;    0,455;   -0,409
894,067;18442,876;    0,637;    0,136
894,625;18360,675;   -0,636;   -1,500
895,183;18603,110;   -0,363;   -0,682
895,741;18441,364;    1,728;   -1,773
896,299;18353,799;   -0,545;   -2,409
896,858;18503,780;    0,819;   -1,591
897,416;18616,125;    2,728;   -1,318
897,974;18342,560;    1,819;    0,318
898,532;18503,087;    6,091;    2,682
899,089;18381,977;    2,091;   -0,682
899,647;18392,685;   -1,454;    1,318
900,205;18125,757;    1,182;    1,045
900,763;18274,556;   -0,454;    0,227
901,321;18263,809;    2,364;   -1,409
901,878;17691,154;   -1,000;   -0,773
902,436;17579,680;   -1,363;    1,318
902,994;18026,025;    4,728;    3,682
903,551;17405,460;    0,728;    0,409
904,109;17785,259;    0,182;   -1,409
904,666;17368,059;    2,455;    1,045
905,224;17189,312;    0,182;   -0,409
905,781;16924,202;    0,727;   -0,318
906,338;16991,910;   -1,363;    1,045
906,895;16910,255;    0,637;    2,045
907,453;16843,054;    1,727;    1,136
908,010;16874,035;   -0,909;    0,409
908,567;16474,016;    1,273;    0,591
909,124;15979,178;    0,364;   -1,500
909,681;16059,614;   -2,909;    0,682
910,238;16144,413;    0,636;   -1,318
910,795;16489,576;   -0,273;   -1,136
911,352;16095,848;   -2,909;   -2,682
911,909;15526,667;   -1,364;   -0,864
912,466;16045,848;   -3,182;    1,500
913,022;15532,212;   -1,636;    0,500
913,579;15917,212;   -0,909;    2,045
914,136;15624,030;    1,636;    0,955
914,692;15941,667;    0,091;   -1,227
915,249;15554,121;    1,455;    0,409
915,806;15801,758;    0,182;    1,955
916,362;15528,939;    1,909;    1,864
916,918;15086,667;    2,000;    1,045
917,475;15037,212;   -1,182;    0,955
918,031;15070,848;    3,364;   -0,045
918,587;14526,030;   -0,909;   -0,318
919,144;14749,303;   -2,273;    0,227
919,700;15081,212;    1,727;    0,773
920,256;14690,485;    0,727;    0,045
920,812;14244,030;   -0,727;   -1,045
921,368;14246,303;   -1,727;   -1,045
921,924;13852,848;    0,182;   -0,136
922,480;13442,030;   -0,545;    1,227
923,036;14064,121;    1,273;    1,955
923,592;13967,576;    0,455;    0,318
924,148;13877,121;    0,455;   -0,955
924,704;13208,303;   -1,364;   -0,409
925,259;13449,939;   -0,273;    0,591
925,815;13200,485;    1,455;    0,500
926,371;12710,576;    2,909;    1,409
926,926;12589,667;    2,091;    0,591
927,482;12219,212;   -1,364;    0,773
928,037;12075,939;    0,909;    2,045
928,593;12380,485;    1,636;    1,045
929,148;12165,121;   -1,818;   -1,500
929,704;11672,121;   -1,455;   -0,500
930,259;11830,848;    0,091;   -0,136
930,814;10872,121;   -0,818;    1,955
931,369;10544,939;    1,091;   -0,773
931,925;10444,121;   -0,091;    0,136
932,480;10347,212;   -2,818;   -2,591
933,035;10198,212;    0,545;   -0,318
933,590; 9919,212;    0,364;   -1,773
934,145; 9524,394;   -1,364;   -0,318
934,700; 9886,667;    0,455;   -0,591
935,255; 9664,576;   -0,091;    0,045
935,809; 8936,394;    3,182;    0,864
936,364; 8007,394;   -0,455;   -0,136
936,919; 7970,939;    0,455;   -1,773
937,474; 7846,485;    1,455;    0,136
938,028; 7589,303;   -1,636;    1,136
938,583; 7050,939;    1,818;    4,682
939,138; 7304,121;    2,091;    2,136
939,692; 6676,394;    1,636;   -1,136
940,247; 6406,212;   -0,727;   -1,045
940,801; 5940,212;   -0,636;    0,227
941,355; 5796,939;   -0,364;    2,591
941,910; 5426,394;   -0,273;   -2,136
942,464; 5568,576;   -0,818;   -0,318
943,018; 5315,030;    1,000;   -0,227
943,572; 5262,485;    2,545;   -0,682
944,126; 4664,212;    0,091;   -0,409
944,681; 4556,576;    3,091;    0,227
945,235; 4536,121;    1,000;   -0,591
945,789; 4474,576;    0,364;   -1,864
946,342; 4548,212;    0,455;   -0,591
946,896; 4321,848;   -2,273;    0,955
947,450; 4103,848;    1,545;   -0,227
948,004; 4297,030;    1,727;   -0,045
948,558; 4278,303;    0,273;   -0,864
949,111; 4233,485;   -0,273;   -0,318
949,665; 4256,212;    1,636;   -0,682
950,219; 4118,121;   -0,091;   -1,045
950,772; 4226,121;   -1,909;    1,864
951,326; 4117,758;    0,545;   -0,955
951,879; 4234,394;    0,727;   -2,318
952,433; 4240,394;    0,000;    2,227
952,986; 4052,939;    2,909;    0,682
953,539; 4009,848;   -0,273;    0,591
954,093; 3945,848;    0,545;   -1,318
954,646; 4102,485;    0,909;    1,318
955,199; 3885,939;    0,000;   -0,500
955,752; 3740,485;   -0,455;    1,773
956,305; 3730,030;   -0,091;    2,955
956,858; 3914,212;    0,818;   -0,318
957,411; 4073,758;   -0,545;    2,136
957,964; 3903,030;    1,364;    2,136
958,517; 3887,576;   -1,545;    3,136
959,070; 3720,212;   -0,455;    1,955
959,623; 3775,394;    1,091;    1,500
960,176; 3529,212;    1,727;    2,045
960,728; 3533,394;   -2,727;    0,773
961,281; 3586,394;    0,545;    0,500
961,834; 3647,121;   -0,909;    0,864
962,386; 3548,576;    1,727;    1,045
962,939; 3474,303;    0,364;   -0,318
963,491; 3598,939;    0,455;    1,136
964,043; 3472,758;    1,182;    2,409
964,596; 3603,667;   -1,000;    2,227
965,148; 3433,667;   -1,000;    1,773
965,700; 3352,212;    1,091;   -0,227
966,253; 3517,667;   -0,636;    0,318
966,805; 3351,576;   -2,273;    0,773
967,357; 3392,576;    1,091;   -1,500
967,909; 3360,939;    0,455;   -1,227
968,461; 3472,758;    0,545;    3,136
969,013; 3402,121;   -0,182;   -0,864
969,565; 3472,576;   -0,455;   -1,136
970,117; 3508,212;   -0,364;    1,045
970,669; 3350,212;    0,182;   -0,136
971,220; 3227,121;   -0,455;   -1,500
971,772; 3159,394;   -0,636;   -0,318
972,324; 3278,758;    0,091;   -0,500
972,876; 3222,667;    0,818;   -0,045
973,427; 3371,667;    1,909;   -1,045
973,979; 3313,394;   -0,727;   -2,500
974,530; 3360,576;    1,818;    1,318
975,082; 3361,394;   -0,545;    1,682
975,633; 3252,121;    1,091;    1,682
976,184; 3390,212;    0,909;    0,773
976,736; 3181,303;    0,091;    0,227
977,287; 2969,030;   -0,909;   -0,500
977,838; 3182,758;    0,909;   -0,318
978,389; 3246,667;   -1,000;   -0,500
978,940; 3085,758;    0,545;   -0,409
979,491; 3113,758;    0,091;   -0,500
980,042; 3079,212;    0,182;    3,045
980,593; 3154,758;   -2,545;    0,227
981,144; 3184,939;    2,545;   -0,500
981,695; 3151,212;    1,455;    1,500
982,246; 3116,848;   -0,273;    1,045
982,797; 3282,212;   -1,727;    0,682
983,347; 3392,303;    0,364;    0,591
983,898; 3564,939;    3,091;    0,409
984,449; 3369,030;    2,182;    0,773
984,999; 3279,303;    1,455;   -1,136
985,550; 3036,576;    0,182;   -0,318
986,100; 3070,121;   -0,455;   -0,318
986,651; 3102,303;   -0,818;    0,045
987,201; 3080,576;   -1,000;   -0,591
987,751; 3161,848;    0,818;    2,864
988,302; 3153,121;    2,636;    1,500
988,852; 3172,121;    0,455;   -1,136
989,402; 3217,121;    0,091;    0,682
989,952; 3110,212;   -2,182;    0,864
990,502; 3248,303;   -0,091;    0,682
991,052; 3200,030;   -0,727;    0,045
991,602; 3059,121;   -2,909;    1,318
992,152; 3073,667;    0,455;    0,682
992,702; 3026,939;    1,364;   -0,045
993,252; 2946,758;   -3,000;   -0,500
993,802; 3052,667;   -0,273;    1,318
994,352; 3307,758;   -1,545;    1,136
994,901; 3388,667;   -0,182;    3,227
995,451; 3289,485;   -0,182;    0,318
996,000; 3382,303;    1,636;    0,318
996,550; 3092,939;    2,273;    0,227
997,100; 3084,121;    1,273;   -0,045
997,649; 3378,576;    2,182;    0,955
998,198; 2985,303;    1,727;   -1,500
998,748; 3202,121;    1,091;   -2,318
999,297; 3100,121;   -0,818;   -0,409
999,846; 3159,121;    1,000;   -0,773
1000,395; 3223,030;   -0,818;    0,500
1000,945; 3163,485;    1,818;   -0,773
1001,494; 3255,212;    2,364;    0,682
1002,043; 3263,576;    4,636;    0,864
1002,592; 3103,303;   -1,091;    1,955
1003,141; 3249,667;   -0,455;   -0,682
1003,690; 3104,758;    1,727;    0,500
1004,238; 3196,576;    1,455;   -0,045
1004,787; 2813,758;    1,364;    1,227
1005,336; 3028,303;    0,364;    0,682
1005,885; 3192,121;    1,364;   -2,773
1006,433; 3360,576;    0,545;    0,955
1006,982; 3385,030;    0,455;    1,682
1007,531; 3295,121;   -1,818;   -0,227
1008,079; 3234,848;   -2,273;    0,500
1008,627; 3375,758;   -1,455;    0,409
1009,176; 3118,303;    0,000;   -1,955
1009,724; 3180,394;    1,091;    0,864
1010,273; 3231,303;    1,273;    0,500
1010,821; 3333,848;    0,091;    1,409
1011,369; 3055,030;   -1,364;    1,318
1011,917; 3040,485;   -1,364;   -0,591
1012,465; 3318,121;    1,273;   -1,591
1013,013; 3446,939;    2,091;   -1,682
1013,561; 3312,303;    0,455;   -0,773
1014,109; 3374,030;   -1,909;    1,682
1014,657; 3230,485;    0,364;    0,591
1015,205; 3345,848;    1,636;   -0,955
1015,753; 3388,939;   -0,545;   -1,409
1016,301; 3435,485;   -2,636;    3,045
1016,848; 3435,667;   -1,273;    0,409
1017,396; 3487,212;    2,545;    0,045
1017,944; 3616,030;    1,182;    1,864
1018,491; 3344,030;    0,273;    1,409
1019,039; 3508,212;    0,455;    0,591
1019,586; 3409,212;   -1,364;    1,682
1020,134; 3527,758;    0,455;    1,500
1020,681; 3553,576;    0,182;   -1,136
1021,228; 3566,758;    2,909;   -2,227
1021,776; 3402,758;    1,182;   -1,136
1022,323; 3614,303;    0,455;    0,773
1022,870; 3540,485;   -1,000;   -0,045
1023,417; 3407,303;    2,636;    1,864
1023,964; 3575,485;    2,636;    1,227
1024,511; 3394,303;    1,000;    0,773
1025,058; 3186,939;    3,182;   -0,045
1025,605; 3226,485;   -2,273;    3,136
1026,152; 3484,848;    1,727;   -0,591
1026,699; 3198,212;    1,818;    1,318
1027,245; 3368,303;   -0,091;    0,318
1027,792; 3589,485;   -1,000;    1,409
1028,339; 3448,485;    2,364;   -0,045
1028,885; 3306,485;    1,000;   -0,227
1029,432; 3232,758;   -0,091;    0,227
1029,978; 3305,758;   -1,000;   -1,591
1030,525; 3208,030;    1,000;    0,409
1031,071; 3452,848;   -1,364;    1,136
1031,618; 3549,394;    0,364;    1,682
1032,164; 3344,576;   -0,091;    3,045
1032,710; 3390,758;    1,636;   -1,500
1033,256; 3302,576;   -0,636;   -0,136
1033,803; 3291,303;   -0,545;    1,500
1034,349; 2994,576;   -1,364;    0,136
1034,895; 3145,030;    0,000;   -0,318
1035,441; 3125,394;   -0,818;    0,318
1035,987; 3097,576;   -2,364;   -0,682
1036,533; 3115,303;   -1,455;   -0,955
1037,078; 3323,848;    1,455;    1,682
1037,624; 3121,212;    2,455;   -0,955
1038,170; 3184,121;    0,455;   -0,318
1038,716; 3072,394;    1,636;   -0,409
1039,261; 2978,030;   -2,273;   -0,773
1039,807; 2918,667;   -0,091;    3,409
1040,352; 2990,576;   -1,909;   -0,318
1040,898; 3045,030;   -1,545;   -0,682
1041,443; 2951,848;   -1,455;   -2,591
1041,989; 2967,848;    1,091;    1,591
1042,534; 2820,121;   -0,364;    2,591
1043,079; 2933,667;    2,909;    0,955
1043,625; 2721,030;    1,818;    0,500
1044,170; 2766,848;   -1,364;    1,045
1044,715; 3035,303;    2,455;    0,955
1045,260; 2865,394;    2,182;   -0,955
1045,805; 2892,394;    1,182;   -0,591
1046,350; 2818,758;    1,364;   -0,409
1046,895; 2776,303;    2,909;    1,591
1047,440; 2731,848;    5,364;    0,409
1047,985; 2605,212;    2,818;   -0,955
1048,530; 2536,212;    1,545;    1,227
1049,074; 2605,848;    0,000;    0,318
1049,619; 2585,758;   -1,364;    1,955
1050,164; 2374,667;    0,455;    0,227
1050,708; 2423,121;   -0,455;    0,045
1051,253; 2800,667;    1,273;   -2,227
1051,797; 2507,939;    0,818;   -1,318
1052,342; 2500,485;   -1,182;    1,045
1052,886; 2512,758;    0,364;   -1,409
1053,430; 2372,394;   -1,364;    0,136
1053,975; 2378,758;   -0,818;   -0,318
1054,519; 2375,212;   -0,727;    3,227
1055,063; 2383,121;    0,909;    1,318
1055,607; 2236,121;   -0,182;    0,227
1056,151; 2290,485;    2,909;    1,682
1056,695; 2214,576;    2,273;   -1,136
1057,239; 2273,394;   -1,727;   -0,682
1057,783; 2285,303;    0,818;   -1,500
1058,327; 2225,121;    0,000;    1,409
1058,871; 2455,212;   -0,545;    1,318
1059,415; 2155,939;   -0,818;   -0,045
1059,958; 2428,121;    1,455;    2,591
1060,502; 2155,485;   -1,000;   -0,773
1061,046; 2047,212;    0,364;   -0,955
1061,589; 2034,576;   -3,000;   -1,136
1062,133; 1914,212;   -1,273;    1,864
1062,676; 1838,485;    1,182;    0,864
1063,220; 1837,485;    1,091;    0,500
1063,763; 1853,303;    0,909;    1,136
1064,306; 1944,303;   -0,909;    1,864
1064,849; 1825,576;   -0,909;    0,591
1065,393; 1835,758;    2,000;   -1,500
1065,936; 1949,848;    0,182;   -0,409
1066,479; 1835,848;   -1,455;    1,318
1067,022; 1863,394;   -0,273;   -0,227
1067,565; 1754,485;   -0,091;   -1,318
1068,108; 1768,485;    0,727;   -0,591
1068,651; 1752,212;   -0,636;    1,409
1069,194; 1676,576;   -0,455;   -1,682
1069,736; 1689,485;   -1,273;    0,955
1070,279; 1658,758;   -1,364;   -0,500
1070,822; 1710,939;   -2,000;   -0,318
1071,364; 1812,394;   -0,364;    1,318
1071,907; 1625,758;   -0,727;    3,227
1072,450; 1512,030;    0,000;   -0,045
1072,992; 1518,848;   -0,273;    3,136
1073,535; 1663,576;    2,091;    2,136
1074,077; 1445,758;   -0,727;    2,045
1074,619; 1396,758;   -1,364;    0,591
1075,161; 1434,848;   -1,091;    1,500
1075,704; 1635,121;    1,545;    1,227
1076,246; 1413,303;   -0,182;    0,682
1076,788; 1356,758;   -0,364;    1,773
1077,330; 1427,121;    1,273;    2,136
1077,872; 1392,121;    0,909;    0,955
1078,414; 1624,848;    2,727;    0,773
1078,956; 1339,939;    1,273;   -0,227
1079,498; 1618,394;    1,636;    0,318
1080,040; 1313,576;    1,909;   -1,318
1080,581; 1254,848;    1,636;   -0,318
1081,123; 1164,212;    0,091;   -0,773
1081,665; 1222,485;   -1,182;   -0,955
1082,206; 1533,303;    1,364;   -0,500
1082,748; 1393,485;    0,727;    2,045
1083,289; 1258,121;   -2,000;    1,318
1083,831; 1167,576;   -0,545;    0,227
1084,372; 1210,030;    0,000;    0,591
1084,913; 1214,848;    1,091;    0,864
1085,455; 1161,212;   -1,909;   -2,045
1085,996; 1147,303;   -2,273;    0,136
1086,537; 1164,212;   -0,091;    0,864
1087,078; 1187,121;   -0,909;   -2,136
1087,619; 1239,667;   -1,273;    0,227
1088,160; 1155,394;    0,000;    1,318
1088,701; 1132,667;   -1,091;    0,682
1089,242; 1066,576;    1,364;   -2,227
1089,783; 1181,030;   -0,273;    1,409
1090,324; 1144,303;    0,455;    0,682
1090,865; 1009,303;    2,727;   -0,409
1091,405;  980,576;    0,727;    2,227
1091,946; 1016,939;    0,182;   -0,955
1092,487;  941,394;    0,818;   -1,409
1093,027; 1118,212;   -1,364;   -1,500
1093,568;  953,758;   -0,364;    1,227
1094,108; 1066,212;    0,273;    1,773
1094,649;  992,030;   -1,182;    0,136
1095,189;  915,848;   -0,636;   -0,682
1095,729;  882,485;   -0,091;    0,955
1096,269;  875,667;    0,727;   -0,955
1096,810; 1209,667;   -1,364;    0,500
1097,350; 1032,030;    1,364;   -0,773
1097,890;  926,485;    0,364;    1,227
1098,430; 1188,121;    2,364;    2,864
1098,970; 1066,485;    2,182;    1,682
1099,510;  915,303;    0,545;   -2,318
1100,050;  837,030;    1,000;   -1,591
1100,589;  799,758;   -0,727;   -0,318
1101,129;  929,939;    0,818;   -0,955
1101,669; 1099,394;    1,727;    2,136
1102,209;  910,667;   -0,091;    2,227
1102,748;  862,212;    0,000;    0,955
1103,288;  854,758;    1,273;   -1,227
1103,827;  882,121;    3,091;   -2,227
1104,367;  757,030;   -0,091;   -2,409
1104,906;  717,030;    1,364;   -1,136
1105,445;  786,667;    0,636;   -1,136
1105,985;  737,030;   -0,727;    1,500
1106,524;  794,303;   -1,727;   -0,682
1107,063;  752,848;   -2,727;    1,409
1107,602;  727,394;   -1,909;   -1,500
1108,141;  653,848;   -1,909;    1,500
1108,680;  766,303;   -3,455;   -0,591
1109,219;  698,848;   -0,909;   -0,500
1109,758;  699,121;    0,455;    0,682
1110,297;  667,758;    1,000;   -0,682
1110,836;  600,030;   -0,727;    0,955
1111,375;  777,303;   -2,545;    0,409
1111,913;  791,394;   -1,000;    0,773
1112,452;  737,030;   -0,273;    0,136
1112,991;  601,939;    1,091;    1,955
1113,529;  557,394;   -0,818;   -0,045
1114,068;  633,303;   -0,273;    2,955
1114,606;  534,121;   -0,364;   -0,955
1115,144;  707,303;   -1,273;    1,045
1115,683;  643,939;   -0,727;    0,318
1116,221;  685,394;   -0,455;   -0,864
1116,759;  592,667;    0,636;   -0,864
1117,297;  802,212;    0,000;    1,864
1117,836;  593,212;   -2,182;   -1,227
1118,374;  612,848;    0,182;   -0,682
1118,912;  550,121;    0,909;    2,682
1119,450;  532,212;    1,000;    0,864
1119,988;  584,939;    1,545;    2,136
1120,525; 1061,303;    5,091;    3,318
1121,063;  743,303;    1,182;    1,864
1121,601;  553,758;   -0,909;   -1,227
1122,139;  501,667;   -0,727;   -2,045
1122,676;  714,758;   -0,727;    2,773
1123,214;  634,939;   -1,182;    4,409
1123,751;  436,394;    1,727;    2,227
1124,289;  583,848;   -0,091;   -0,409
1124,826;  446,758;    1,727;    0,227
1125,364;  359,030;    1,727;   -0,955
1125,901;  563,212;    1,182;    1,227
1126,438;  682,121;    0,818;    0,955
1126,975;  396,848;   -0,727;   -0,773
1127,513;  466,212;    0,273;    2,136
1128,050;  363,212;    1,636;   -0,682
1128,587;  473,030;    2,000;   -0,227
1129,124;  522,121;    0,091;    1,318
1129,661;  373,212;    0,273;    0,227
1130,198;  559,030;    1,636;    0,773
1130,734;  488,121;    0,182;    1,409
1131,271;  339,212;   -0,909;    0,864
1131,808;  514,212;    2,909;    3,045
1132,345;  389,758;    1,545;    0,318
1132,881;  252,576;   -1,545;   -1,864
1133,418;  407,667;    0,727;   -1,136
1133,954;  341,121;    2,455;   -2,682
1134,491;  420,939;    1,364;   -0,773
1135,027;  307,667;    2,364;    0,864
1135,564;  405,758;    0,273;    2,955
1136,100;  390,212;    0,364;    2,136
1136,636;  268,212;   -1,273;   -1,045
1137,172;  367,758;    0,000;   -1,045
1137,708;  298,848;   -1,364;   -1,045
1138,245;  298,485;    1,273;   -1,227
1138,781;  240,030;    1,091;   -3,318
1139,317;  320,394;    1,273;   -1,409
1139,852;  301,848;    3,091;    0,136
1140,388;  424,212;   -1,182;   -0,409
1140,924;  306,576;   -1,091;   -2,227
1141,460;  235,667;   -1,636;    0,136
1141,996;  170,485;   -1,364;    2,682
1142,531;  227,394;    1,364;    3,318
1143,067;  454,667;    1,182;    1,045
1143,602;  517,303;   -0,091;   -0,318
1144,138;  355,485;   -2,636;    1,045
1144,673;  206,667;   -1,455;    1,409
1145,209;  277,394;   -1,909;   -0,318
1145,744;  188,576;   -0,727;    0,864
1146,279;  343,939;    1,818;   -0,136
1146,815;  247,667;    1,545;   -2,682
1147,350;  294,667;   -1,364;    0,045
1147,885;  202,576;   -0,818;   -1,318
1148,420;  191,030;   -2,273;    0,773
1148,955;  170,212;   -1,727;    1,864
1149,490;  201,576;   -0,909;   -1,591
1150,025;  190,303;    0,455;   -1,773
1150,560;  313,848;    1,091;   -0,955
1151,094;  279,485;    1,455;   -0,591
1151,629;  289,303;    1,636;    0,864
1152,164;  209,303;    1,364;    1,318
1152,698;  160,394;   -0,182;   -0,136
1153,233;  110,576;    0,091;   -0,682
1153,767;  162,576;   -3,000;   -2,318
1154,302;  218,212;   -1,455;    1,773
1154,836;  214,758;   -0,455;   -2,136
1155,371;  274,848;   -1,364;    3,682
1155,905;  229,848;   -0,636;    1,682
1156,439;  188,848;   -0,636;   -0,500
1156,973;  220,394;    0,364;    0,318
1157,507;  143,485;   -0,364;    0,682
1158,042;  184,394;   -0,727;    1,045
1158,576;  241,576;    0,182;    1,773
1159,110;  225,939;   -0,818;    2,409
1159,643;  199,121;    0,636;   -0,045
1160,177;  122,303;   -1,545;    1,500

