
Integration time [ms]:   0,040
Averaging Nr. [scans]: 11
Smoothing Nr. [pixels]: 0
Data measured with spectrometer [name]: 7318044SP
Wave   ;Sample   ;Dark     ;Reference
[nm]   ;[counts] ;[counts] ;[counts] 

186,757;    2,045;   31,551;    1,318
187,357;   23,907;   22,551;    0,955
187,958;    6,916;   15,460;   -1,591
188,558;   39,891;    8,915;   -1,227
189,159;   12,774;    6,733;   -4,500
189,759;  -15,874;    7,278;   -3,591
190,360;   -9,018;    2,824;   -2,136
190,960;   18,346;    2,915;   -4,136
191,560;   19,941;    3,189;   -6,591
192,161;  221,218;    4,372;   -3,500
192,761;   89,663;    4,010;   -3,227
193,361;   27,230;    1,556;   -3,773
193,962;   67,153;    2,010;   -2,682
194,562;   17,646;    1,189;   -3,955
195,162;   19,121;   -2,448;   -2,227
195,762;  122,675;   -3,176;   -0,045
196,362;   78,687;    1,370;   -2,500
196,963;   -0,255;    2,006;   -0,864
197,563;   40,332;    1,551;   -0,955
198,163;    1,135;    0,096;   -0,682
198,763;   12,492;    1,733;   -0,500
199,363;   48,242;    3,096;   -0,500
199,963;   23,153;    0,369;    0,409
200,563;   14,994;    2,823;   -1,409
201,163;   -1,389;    3,277;   -0,227
201,763;   26,228;    3,732;    0,318
202,363;   -2,653;    1,459;    1,500
202,963;   29,718;    1,459;    1,045
203,563;   79,808;    0,277;    0,500
204,162;   19,206;    2,096;   -1,864
204,762;    8,779;    0,550;    0,591
205,362;  -14,097;    3,004;    1,955
205,962;    6,626;    3,096;    1,955
206,562;    2,147;    1,823;    2,318
207,161;   -5,402;   -0,087;    0,318
207,761;   68,809;    1,277;    2,409
208,361;    3,905;   -0,268;    1,409
208,960;   23,178;    0,459;    1,500
209,560;   23,100;    1,277;    1,591
210,160;   34,117;    0,550;    1,864
210,759;   16,193;    4,186;    1,227
211,359;    7,252;    1,459;    1,045
211,958;   97,074;    1,277;    2,045
212,558;   98,977;    1,732;    1,864
213,157;   34,884;    1,822;    1,500
213,757;  169,257;    3,822;   -0,227
214,356;   52,964;    1,277;   -0,409
214,956;  143,167;    3,095;    0,409
215,555;   32,278;    2,095;    2,136
216,154;    3,212;   -2,723;   -0,591
216,754;    7,877;    0,277;    0,773
217,353;   22,330;   -0,268;   -1,045
217,952;  -14,863;   -0,178;    0,318
218,552;   42,668;    1,368;   -0,773
219,151;    3,524;    0,277;    0,955
219,750;   -5,785;    0,004;   -0,227
220,349;  -12,156;   -0,451;    1,045
220,948;   47,919;   -1,360;    1,136
221,548;    0,753;    0,913;    1,227
222,147;   14,576;   -0,087;   -0,409
222,746;   77,507;   -0,451;   -0,955
223,345;   26,436;    0,731;    0,500
223,944;   29,316;   -0,451;    0,773
224,543;   28,045;    1,004;   -1,409
225,142;   10,400;    0,094;    0,136
225,741;   19,827;   -0,814;    1,045
226,340;   12,509;   -0,451;   -0,955
226,939;   52,150;   -0,996;   -0,136
227,538;    6,441;   -0,360;   -0,773
228,137;   69,329;   -0,814;    0,864
228,735;   44,434;   -0,541;    1,227
229,334;  -15,083;   -0,905;   -0,227
229,933;   68,121;    0,459;    0,591
230,532;   65,109;    1,186;   -0,409
231,131;   99,066;    1,732;    0,318
231,729;   35,465;   -2,450;   -2,318
232,328;   -2,518;   -0,723;   -1,500
232,927;   19,399;    1,004;   -0,500
233,525;   13,920;    3,640;    0,045
234,124;   27,175;    2,368;   -1,591
234,723;   -1,938;    0,913;   -1,045
235,321;  -11,191;    2,277;    0,136
235,920;   -1,822;    1,186;   -1,227
236,518;   67,653;    3,459;    0,318
237,117;    2,986;    0,004;   -0,227
237,715;   15,604;    0,640;   -0,500
238,314;   22,794;   -0,087;   -2,318
238,912;   70,183;   -0,723;   -1,409
239,510;   36,149;    0,459;   -1,227
240,109;   86,537;    0,004;    3,773
240,707;   66,896;   -0,996;    1,227
241,305;    2,731;    0,550;    0,136
241,904;   33,277;   -0,178;   -2,045
242,502;   94,234;   -0,632;   -0,227
243,100;   41,905;   -0,087;   -0,955
243,698;    4,342;    0,732;    1,682
244,297;   17,357;   -0,632;    0,682
244,895;    9,383;   -0,269;   -2,318
245,493;   76,580;    2,186;   -0,591
246,091;   90,247;    1,368;   -1,318
246,689;   47,079;    1,004;    0,591
247,287;   36,704;    0,822;   -1,136
247,885;   18,058;   -1,451;    1,227
248,483;    1,602;    1,822;   -0,500
249,081;   37,581;    0,185;    1,591
249,679;   50,118;   -0,178;    1,682
250,277;    5,339;   -1,723;    0,864
250,875;   38,527;   -1,087;   -1,045
251,473;    8,179;   -1,178;    0,500
252,071;   44,966;    1,459;    1,045
252,669;   10,588;   -1,814;    0,318
253,267;   -3,711;   -0,087;    0,773
253,864;   21,795;   -0,360;    0,682
254,462;   64,827;    1,640;    1,591
255,060;   -1,466;   -0,269;    1,318
255,658;   -9,321;    0,822;   -0,136
256,255;   10,900;    0,186;   -2,045
256,853;   32,330;   -0,269;    1,409
257,451;    7,335;    0,822;    1,864
258,048;  165,042;    1,822;    1,864
258,646;   65,932;    1,731;   -1,045
259,243;   94,149;   -0,087;    2,227
259,841;   46,730;   -0,814;    0,318
260,438;    1,109;   -0,087;    0,864
261,036;   33,914;   -1,905;    1,409
261,633;    9,469;   -0,087;    2,227
262,231;   -1,798;    2,731;   -0,045
262,828;  -11,260;   -0,905;    1,136
263,425;   -4,020;    0,913;   -0,591
264,023;    4,353;    0,186;    0,045
264,620;   56,870;   -0,360;   -0,318
265,217;   90,847;   -2,087;    3,136
265,815;   19,246;   -1,905;    2,136
266,412;   42,000;    0,731;    0,136
267,009;   33,259;   -1,451;    0,773
267,606;   63,114;    0,822;   -0,955
268,203;    8,065;   -0,269;   -0,591
268,801;    9,083;    1,731;    0,591
269,398;    1,041;   -0,360;    2,500
269,995;   41,104;    0,277;    1,591
270,592;   24,851;   -0,632;   -0,500
271,189;   -5,479;    0,186;    0,409
271,786;  -15,191;   -0,632;    1,227
272,383;   50,795;   -1,087;    0,227
272,980;    8,659;    0,277;    0,318
273,577;   -2,888;    0,004;    1,227
274,174;   -6,555;    0,822;    2,591
274,771;   37,407;   -0,814;   -0,773
275,367;  180,672;    2,277;    1,409
275,964;   81,826;    0,731;   -0,500
276,561;   18,091;    1,549;   -1,045
277,158;  -10,518;    0,095;   -1,773
277,755;   69,399;    2,185;    0,409
278,351;   36,583;   -0,451;   -1,500
278,948;   48,388;   -0,815;    0,045
279,545;   37,765;   -1,360;    2,318
280,141;   72,846;   -1,723;   -2,045
280,738;   85,617;   -0,451;   -0,136
281,334;   22,313;   -1,633;    0,591
281,931;   -2,179;   -0,087;   -1,318
282,528;   49,644;    0,822;   -0,500
283,124;   71,373;   -1,087;   -0,500
283,721;   66,968;   -0,451;    1,409
284,317;   22,676;    0,185;    2,500
284,913;   78,096;   -1,360;    0,591
285,510;  130,187;    0,640;   -0,318
286,106;   75,527;   -2,269;   -0,955
286,703;   34,041;   -0,360;    1,955
287,299;   14,276;   -1,451;   -0,591
287,895;   14,532;    0,822;   -1,045
288,491;    6,223;    0,186;    2,136
289,088;   40,251;   -2,360;    2,409
289,684;   49,861;   -1,723;    1,500
290,280;   98,707;    0,368;    0,682
290,876;   69,949;    1,822;    5,500
291,472;   53,507;    1,276;    2,227
292,068;   69,226;    1,367;    0,227
292,665;   22,912;    2,095;    0,773
293,261;    0,583;    0,276;    2,136
293,857;   51,463;    2,913;    2,136
294,453;   26,681;    3,550;    0,955
295,049;  100,511;   -0,268;    1,955
295,644;   40,452;    0,095;    0,136
296,240;   -2,423;   -0,905;   -0,136
296,836;   28,979;   -0,995;    0,318
297,432;   62,623;    1,096;   -0,500
298,028;   66,129;    0,732;    0,773
298,624;   40,209;    1,459;    1,864
299,220;   39,129;    2,368;    0,591
299,815;   25,283;    1,005;   -0,409
300,411;   50,874;    0,914;    1,773
301,007;   69,444;    1,368;    0,227
301,602;   24,652;   -0,541;   -2,318
302,198;   77,585;    0,732;   -0,773
302,794;   32,782;    1,187;   -0,500
303,389;   -3,442;   -1,177;    1,045
303,985;    5,217;    0,550;    1,409
304,580;   70,069;    1,459;    1,591
305,176;   25,667;   -3,086;    0,136
305,771;  -27,435;   -1,268;   -1,227
306,367;  134,804;    4,095;    0,136
306,962;   55,561;    0,641;    1,500
307,558;   68,965;   -0,450;    0,136
308,153;   51,471;    1,095;   -1,136
308,748;   -3,470;   -0,814;    1,682
309,344;  119,466;   -0,632;   -1,318
309,939;  112,074;   -1,905;   -1,318
310,534;   24,133;   -0,086;   -1,682
311,130;   14,931;    0,459;   -2,500
311,725;   16,454;    1,004;   -0,500
312,320;   18,507;    2,459;    0,045
312,915;   49,301;    1,459;   -1,045
313,510;  125,738;    1,550;   -0,500
314,105;   25,933;    1,096;    1,409
314,700;   -5,181;   -3,086;   -1,045
315,295;   15,978;   -0,904;    0,045
315,890;    9,135;    1,277;    0,864
316,485;   36,608;   -0,359;   -0,318
317,080;    1,169;   -3,086;    1,591
317,675;  118,948;    2,005;   -0,682
318,270;  208,606;    5,550;    3,318
318,865;  148,256;    3,278;    3,045
319,460;   80,445;   -0,904;    0,591
320,055;   17,176;   -0,541;   -1,227
320,650;   15,676;   -1,995;   -0,591
321,244;   18,105;   -0,177;   -1,409
321,839;   15,413;   -1,541;   -0,227
322,434;   33,417;   -1,086;   -1,591
323,029;    2,288;    1,732;    1,591
323,623;    8,803;    1,550;    0,773
324,218;   91,387;    2,368;    1,409
324,812;   55,950;    1,096;    1,591
325,407;   38,718;   -0,814;    2,045
326,002;  106,482;    0,277;   -0,409
326,596;   71,680;    0,914;    1,318
327,191;    7,825;    0,823;   -1,045
327,785;   21,226;   -0,813;   -0,227
328,379;   16,124;    1,368;    0,136
328,974;   23,967;    0,914;   -3,955
329,568;   38,780;    0,186;   -2,409
330,163;   78,194;    2,096;    1,045
330,757;   22,358;    2,459;    1,591
331,351;   -9,188;    0,459;    0,682
331,945;   -6,203;    0,914;    1,409
332,540;   36,252;   -1,723;   -0,591
333,134;   33,031;   -1,086;    0,773
333,728;   42,227;    0,005;    0,318
334,322;   -8,459;   -1,177;   -0,864
334,916;   -2,514;    0,277;    0,955
335,510;   52,684;   -0,450;   -0,136
336,105;   37,098;   -1,086;    1,591
336,699;    5,846;   -1,086;    0,591
337,293;   25,671;   -1,723;    0,318
337,887;    8,533;   -2,723;    1,955
338,481;   45,837;    0,459;    0,591
339,074;   86,409;   -0,359;    2,682
339,668;   69,273;   -1,632;    1,227
340,262;  328,588;    1,732;    3,227
340,856;  138,137;    1,822;   -0,682
341,450;   22,893;    1,004;    1,864
342,044;   41,125;    1,459;    0,136
342,637;   72,992;    0,913;   -2,136
343,231;   29,386;   -2,360;    0,682
343,825;   14,769;   -1,086;   -0,591
344,419;   25,075;   -1,995;    0,500
345,012;  261,956;    2,459;    4,045
345,606;  155,742;    4,641;    1,591
346,199;   32,224;   -1,813;   -0,227
346,793;   76,451;    1,914;    2,045
347,386;   12,120;   -0,813;   -1,136
347,980;  -11,535;   -0,268;   -0,045
348,573;   20,393;    2,278;    0,409
349,167;  180,259;    5,278;    4,773
349,760;   87,983;    2,914;    2,682
350,354;   75,674;   -0,813;    1,136
350,947;   86,312;    1,096;    1,682
351,540;   45,275;   -0,358;   -1,409
352,134;   -0,900;    1,096;    1,136
352,727;   -0,010;   -0,086;    1,136
353,320;   12,782;    0,005;    0,591
353,913;  -11,005;   -1,995;    1,864
354,507;   75,288;    0,823;   -1,227
355,100;   20,100;    0,460;    0,864
355,693;  238,715;    2,005;    2,409
356,286;   99,841;    0,823;    2,773
356,879;   38,501;   -0,722;    1,227
357,472;   53,302;   -0,904;    1,500
358,065;   61,412;   -0,722;    2,500
358,658;    0,606;   -0,540;    2,318
359,251;   -7,604;   -1,631;   -0,591
359,844;   62,454;   -1,904;   -1,136
360,437;   92,137;   -2,995;    0,045
361,030;   20,006;    1,369;   -0,682
361,623;   33,596;    2,824;    0,318
362,215;  143,662;   -0,086;    2,045
362,808;   52,668;   -2,358;   -1,682
363,401;   16,411;   -2,449;    0,136
363,994;  136,058;   -0,631;   -1,500
364,586;   41,040;    0,824;   -1,500
365,179;   17,593;   -0,449;   -1,136
365,772;  -28,759;   -1,995;    2,045
366,364;   27,840;    1,915;   -3,227
366,957;   39,128;    2,279;   -0,045
367,549;   18,323;    2,188;   -0,864
368,142;   32,950;    1,825;   -1,500
368,734;   19,320;    0,734;   -2,136
369,327;  -10,502;    1,643;   -0,500
369,919;    3,758;   -1,538;    0,409
370,512;   16,554;   -1,083;   -0,500
371,104;  202,745;   -0,901;    1,591
371,696;  213,578;    1,191;   -0,955
372,289;  109,990;    0,373;    1,136
372,881;   79,291;   -2,080;    1,318
373,473;   10,426;   -2,170;    1,136
374,066;   72,526;   -0,169;    0,500
374,658;   60,208;    0,378;    1,136
375,250;   19,825;    0,653;   -1,409
375,842;   52,489;    0,473;   -0,045
376,434;   22,846;   -0,435;   -0,409
377,026;   -0,389;    0,204;   -2,500
377,618;   43,519;   -0,158;   -0,682
378,210;  -14,801;   -0,338;   -1,955
378,802;  -17,667;    0,754;   -0,591
379,394;  329,758;    1,846;    0,682
379,986;  103,393;    1,393;   -0,955
380,578;   12,491;   -0,153;    0,773
381,170;  262,325;   -0,972;    0,045
381,762;  170,590;    0,755;    1,409
382,354;  120,650;   -0,065;   -1,318
382,945;   46,602;   -2,976;    0,318
383,537;    5,973;   -2,705;   -1,955
384,129;    1,498;   -2,160;   -1,136
384,721;  108,938;   -0,252;    0,955
385,312;   52,048;   -0,161;   -0,955
385,904;  123,538;   -2,706;    1,591
386,496;   68,565;   -0,979;    1,045
387,087;  172,792;    1,022;    2,500
387,679;  114,657;   -1,160;    0,045
388,270;   85,619;    2,840;    2,045
388,862;   63,964;    1,295;   -0,318
389,453;   50,014;   -0,887;    1,045
390,045;   61,716;   -0,705;   -2,682
390,636;  -45,927;    0,204;   -0,591
391,227;   16,955;   -0,523;   -0,045
391,819;   -1,740;    0,204;    0,773
392,410;  222,713;    1,022;    0,045
393,001;   50,733;   -0,979;   -1,591
393,593;  109,728;    1,930;   -0,045
394,184;  140,887;    1,385;   -0,409
394,775;   36,171;    1,839;    2,136
395,366;  -37,254;    1,385;    0,773
395,957;  122,892;    0,113;    0,136
396,548;   15,887;   -0,342;    2,682
397,139;  120,999;   -2,433;    0,591
397,730;   48,476;   -1,888;    0,955
398,321;   62,954;   -1,252;    0,955
398,912;   10,048;   -0,615;    0,136
399,503;    7,920;   -3,524;   -1,409
400,094;   55,901;    0,294;    1,682
400,685;   50,673;   -0,433;    0,045
401,276;   12,513;    0,930;   -0,955
401,867;  -21,574;   -0,888;    0,773
402,458;  -53,939;   -2,251;   -2,318
403,048;   68,418;    1,112;    0,591
403,639;   29,766;    0,840;    0,864
404,230;  126,415;    2,476;    0,318
404,821;  173,557;   -0,615;    0,045
405,411;   95,873;    1,203;   -2,591
406,002;   15,779;   -1,252;   -1,136
406,592;  212,334;    2,294;    0,045
407,183;   99,165;    0,566;   -1,500
407,774;   78,051;    3,475;   -0,136
408,364;   34,425;    0,930;    0,409
408,954;  130,971;    0,384;    1,227
409,545;  126,014;    1,021;    1,045
410,135;  101,890;    1,293;    0,500
410,726;   58,208;    1,838;    0,318
411,316;  217,056;    0,111;    0,773
411,906;   72,861;   -0,253;   -0,409
412,497;   73,865;   -1,070;   -0,045
413,087;   29,433;   -1,980;   -0,227
413,677;  -28,221;   -0,707;    3,864
414,267;  -29,281;    0,656;    1,409
414,857;  -51,184;   -2,980;    4,227
415,448;  -45,249;    0,839;    0,500
416,038;  -13,839;    0,020;   -0,591
416,628;   23,822;   -0,889;    0,409
417,218;   72,689;    0,565;    3,318
417,808;  215,240;    0,202;   -0,409
418,398;  106,342;    0,020;    2,682
418,988;   -9,754;    2,020;    0,591
419,578;   86,214;   -0,707;    1,409
420,168;   15,378;   -1,343;   -0,955
420,757;  148,322;   -1,343;   -1,500
421,347;   46,844;    0,111;   -0,227
421,937;   21,457;    2,292;    1,409
422,527;  143,910;    0,838;   -0,773
423,116;  273,109;   -0,253;   -0,045
423,706;   28,627;   -1,889;    0,318
424,296;  -13,526;    1,384;    0,682
424,885;  105,564;   -0,071;   -3,045
425,475;   73,352;    1,474;   -2,864
426,065;  -17,594;   -0,980;   -0,318
426,654;  -40,123;   -0,435;   -0,318
427,244;  195,412;    0,020;    1,409
427,833;  175,329;    1,383;   -0,500
428,423;   60,825;   -0,526;    1,136
429,012;   48,625;   -0,344;   -1,136
429,601;  169,816;   -1,344;    0,136
430,191;   69,482;    1,292;    4,318
430,780;  -16,138;   -0,344;   -0,409
431,369;  145,893;    0,746;   -0,045
431,959;   39,938;   -1,254;    0,500
432,548;   -7,624;   -1,163;   -0,045
433,137;  -59,885;   -1,254;   -1,318
433,726;    6,788;    0,292;    0,500
434,315;   28,726;   -0,526;    2,409
434,905;  129,549;   -1,254;    1,409
435,494;  125,676;    0,746;    0,955
436,083;    1,964;   -0,981;   -0,955
436,672;   87,067;    0,110;    0,500
437,261;   39,821;    0,292;   -1,955
437,850;  262,483;    1,383;    0,682
438,439;  306,933;    3,291;    1,955
439,027;  402,456;    3,655;    1,773
439,616;  327,835;    2,927;    1,227
440,205;  116,079;    0,200;   -2,136
440,794;   62,583;    2,109;   -0,045
441,383;    4,112;   -1,346;   -0,591
441,971;  -13,468;   -2,436;    0,591
442,560;   -4,600;    0,563;   -1,773
443,149;  -90,021;    0,379;   -1,318
443,737;  -51,923;   -0,074;   -2,318
444,326;  -16,006;    0,018;    0,318
444,915;   27,181;   -1,982;    0,864
445,503;   34,246;   -2,891;   -0,318
446,092;  270,860;    0,382;    2,136
446,680;  207,284;    0,382;    0,318
447,269;  109,313;   -0,346;   -0,318
447,857;  106,666;    0,018;   -1,773
448,445;   68,775;    0,563;    1,318
449,034;    5,885;   -1,528;   -1,136
449,622;   13,871;   -1,073;    3,500
450,210;  261,171;    2,017;    2,227
450,799;  185,527;    0,290;   -0,591
451,387;  157,166;    1,381;   -0,591
451,975;  144,140;    2,654;    0,864
452,563;  219,279;    3,472;    2,318
453,151;   50,959;   -0,528;   -1,227
453,739;   87,808;   -1,347;    0,136
454,328;  196,421;    2,381;   -2,136
454,916;  120,765;    2,562;   -0,136
455,504;  141,821;    1,017;    1,227
456,092;   33,576;    0,017;   -1,591
456,679;    5,599;    1,472;    0,682
457,267;  387,589;    4,017;    1,045
457,855;   92,484;    1,017;    1,409
458,443;  -41,037;   -0,165;    1,682
459,031;   99,175;    0,108;    2,409
459,619;   72,788;   -1,801;    2,864
460,206;  -15,950;    0,835;    2,045
460,794;  -21,214;   -2,983;   -0,227
461,382;   20,114;   -0,529;   -0,864
461,970;   33,063;    1,198;    1,864
462,557;  -38,428;   -0,711;   -0,682
463,145;   72,975;   -3,165;   -1,682
463,732;  305,431;    2,016;   -1,045
464,320;   89,753;   -0,075;   -3,045
464,907;  221,127;    2,743;   -0,773
465,495;  137,786;    0,743;   -1,227
466,082;   64,185;   -1,984;   -0,045
466,670;   89,492;   -2,529;    1,227
467,257;  -13,286;   -1,711;    2,045
467,844;   81,975;   -0,075;    0,045
468,432;   57,035;    0,834;    3,500
469,019;   16,704;    0,925;   -1,773
469,606;   94,814;    0,470;    3,682
470,193;  128,915;   -1,439;    0,227
470,780;   84,937;   -2,075;    0,864
471,368;   21,980;   -1,257;   -0,773
471,955;  123,108;    1,379;   -0,682
472,542;   85,492;    0,652;   -1,136
473,129;  -18,821;   -0,166;    0,136
473,716;  -14,384;    1,470;    0,591
474,303;   12,406;    0,652;   -0,864
474,890;   28,857;   -1,439;   -0,500
475,477;  125,375;   -1,621;    0,409
476,064;   28,055;    1,106;   -1,591
476,650;  142,787;    0,288;    0,318
477,237;   52,969;   -0,258;    0,955
477,824;   34,091;   -1,076;    0,864
478,411;  -44,489;   -1,894;   -0,318
478,997;  -47,814;    0,560;   -0,773
479,584;  -92,719;    1,196;   -0,409
480,171;   58,269;   -0,440;   -0,773
480,757;  124,549;    2,651;    0,773
481,344;   24,033;    0,469;    0,409
481,931;  -57,593;    1,105;    1,045
482,517;   62,524;   -1,258;    0,318
483,104;  136,801;    1,106;    2,864
483,690;    6,395;   -1,804;    0,045
484,276;   -9,982;   -0,895;    0,227
484,863;  192,929;    2,469;    1,136
485,449;   47,491;   -0,077;    0,318
486,035;   10,550;   -1,986;   -0,136
486,622;   96,757;   -0,895;    0,045
487,208;   16,715;    1,378;    1,500
487,794;  -62,256;    0,741;    0,318
488,380;  -57,915;    0,105;   -1,409
488,967;  -60,830;   -1,168;   -0,409
489,553;  -45,033;   -1,895;   -1,409
490,139;   29,368;    1,559;    0,773
490,725;  -37,885;    0,741;   -0,227
491,311;   11,342;    3,287;    3,045
491,897;   -6,336;   -0,986;    1,500
492,483;   -0,333;    0,105;    1,227
493,069;  414,127;    3,923;    0,864
493,655;  139,793;    1,650;    0,682
494,241;   20,929;    1,377;   -0,955
494,826;   32,072;    0,287;   -1,045
495,412;   95,007;    2,559;   -0,682
495,998;    4,012;   -0,805;   -0,318
496,584;   56,586;    0,377;    1,045
497,169;   73,768;    1,014;   -0,682
497,755;    6,960;    0,650;    1,227
498,341;  138,146;    0,559;    0,318
498,926;  244,894;    1,832;    1,955
499,512;   -2,199;    1,286;    2,955
500,097;    3,555;    0,195;   -0,318
500,683;   27,361;   -0,350;    2,136
501,268;  -14,732;   -0,169;   -0,955
501,854;    6,890;   -0,169;    1,227
502,439;    2,494;   -0,624;   -1,773
503,024;   16,479;    0,195;    0,500
503,610;   39,365;   -0,078;   -0,682
504,195;   -7,947;    0,558;    1,955
504,780;   74,575;    2,922;    1,227
505,366;  155,841;    3,013;    2,864
505,951;   91,751;    0,740;    1,045
506,536;   18,498;   -3,260;   -3,682
507,121;   67,330;    0,285;   -0,318
507,706;   25,378;    2,376;    1,045
508,291;  -17,354;    2,649;    1,136
508,876;  -28,380;   -0,988;    2,591
509,461;   15,736;   -0,169;   -0,773
510,046;   59,636;    0,194;    0,318
510,631;   66,513;   -0,351;   -0,773
511,216;  -11,802;    2,467;   -0,500
511,801;   31,975;   -0,442;    2,591
512,386;   52,101;    0,740;    0,500
512,971;   60,705;   -2,988;    0,955
513,555;   89,403;   -0,897;   -1,500
514,140;   53,511;   -0,442;   -3,136
514,725;  160,942;   -0,715;   -1,136
515,309;   78,936;   -0,533;    0,318
515,894;   -8,348;   -0,624;   -2,227
516,479;   27,601;   -0,624;   -0,955
517,063;   33,365;    0,376;    1,227
517,648;   -4,601;    1,012;   -1,136
518,232;  -25,360;   -0,261;   -1,409
518,817;   48,859;   -0,079;    1,682
519,401;  143,100;    2,194;    0,591
519,985;  128,395;    1,103;    1,136
520,570;   18,166;    0,830;   -1,955
521,154;  107,124;    2,102;    0,591
521,738;  245,637;   -2,352;    2,409
522,323;  114,300;   -0,170;    1,682
522,907;  140,381;    0,466;   -0,136
523,491;   92,429;    0,557;    0,955
524,075;  106,739;    2,284;    0,591
524,659;  346,278;    1,466;    0,591
525,243;  328,156;    1,739;    0,409
525,827;  324,608;    0,648;   -0,045
526,411;  399,369;   -1,989;   -0,136
526,995;  625,293;   -0,352;    1,409
527,579;  797,042;   -0,443;   -1,045
528,163;  819,386;    0,375;   -1,500
528,747; 1118,639;    2,466;   -0,773
529,331; 1202,008;   -0,080;   -1,409
529,915; 1119,111;    1,738;    0,955
530,499; 1442,267;   -0,807;    1,227
531,082; 1760,797;   -0,534;    1,591
531,666; 1966,044;    1,374;    0,773
532,250; 2222,949;    1,284;    2,682
532,833; 2641,362;    0,920;    2,773
533,417; 2739,541;   -1,807;    0,864
534,001; 3027,297;    1,647;   -0,318
534,584; 3557,389;    0,374;    0,500
535,168; 3752,236;    0,465;    1,409
535,751; 4263,237;    0,647;    0,045
536,334; 4181,746;   -0,898;   -0,409
536,918; 4862,905;    0,011;    1,591
537,501; 5179,161;   -0,899;    1,318
538,085; 5547,426;   -0,444;    1,045
538,668; 5896,917;    0,829;    2,409
539,251; 6496,227;    1,829;    3,773
539,834; 6837,102;    0,101;    0,773
540,418; 7123,368;   -1,990;    4,318
541,001; 7411,182;   -0,990;    1,773
541,584; 7624,037;    2,101;    2,227
542,167; 7627,064;    1,374;    2,955
542,750; 7889,326;    1,919;   -0,773
543,333; 7750,469;    0,555;    2,136
543,916; 8615,806;    0,192;    2,500
544,499; 9221,366;   -1,354;    0,227
545,082; 9429,298;    1,374;    3,591
545,665; 9702,346;    1,919;    1,500
546,248;10088,015;    1,010;   -0,318
546,830; 9992,423;   -0,445;    1,955
547,413;10476,163;    1,010;   -0,773
547,996;11105,226;    0,555;    0,500
548,579;10975,233;    0,919;    0,955
549,161;10946,438;    1,828;    2,682
549,744;10826,262;   -0,809;    0,409
550,326;11362,598;   -0,809;   -1,136
550,909;11378,283;    2,737;    0,591
551,492;11842,137;   -0,263;    0,227
552,074;11754,741;   -0,173;   -1,318
552,657;12315,428;    2,373;    0,045
553,239;12155,630;   -0,173;   -0,773
553,821;12158,822;   -1,082;    1,045
554,404;11797,780;    1,282;    1,136
554,986;12238,883;    0,464;    1,045
555,568;12806,085;    1,191;   -0,955
556,151;12227,940;    1,191;   -0,227
556,733;12414,863;   -0,264;   -0,864
557,315;12865,137;    0,100;    0,500
557,897;12636,896;    0,554;   -0,500
558,479;12828,984;   -1,991;    1,318
559,061;13053,014;   -0,719;   -0,864
559,643;13374,823;   -0,264;    0,045
560,225;13713,381;    1,645;    2,864
560,807;13761,550;    0,918;    0,318
561,389;13352,985;    0,554;    2,318
561,971;14008,811;    0,463;    2,136
562,553;13923,025;   -1,628;    1,591
563,135;14073,639;   -0,537;    1,136
563,717;13718,264;    3,372;    1,136
564,298;14369,511;    3,645;   -0,045
564,880;14136,150;    0,645;   -1,409
565,462;14244,422;    0,645;    1,318
566,043;15302,733;   -0,446;    2,318
566,625;14936,202;    1,918;    1,227
567,207;14777,947;    1,099;    1,682
567,788;15740,695;   -1,264;    1,500
568,370;16456,315;    1,917;   -0,500
568,951;16239,115;    0,190;    0,227
569,533;16998,117;   -0,628;   -0,500
570,114;17444,450;   -0,446;    0,682
570,695;17914,716;   -0,174;   -1,318
571,277;18220,001;   -0,265;   -1,682
571,858;18878,804;    2,008;   -1,136
572,439;19624,690;    1,554;   -1,045
573,021;19765,511;    2,099;   -2,773
573,602;20158,331;   -1,265;    0,318
574,183;20973,121;   -2,083;    2,227
574,764;21012,229;   -1,629;    0,409
575,345;21464,710;    0,917;   -0,136
575,926;21933,518;   -0,356;    0,136
576,507;21902,163;    1,099;   -0,227
577,088;22927,410;    3,099;    1,682
577,669;22966,025;    0,735;    1,955
578,250;23696,939;    0,644;   -1,045
578,831;24178,887;   -1,356;   -2,227
579,412;24370,607;   -0,810;    0,955
579,993;25142,085;    1,008;    0,227
580,573;25459,096;   -0,629;   -0,955
581,154;24504,764;    0,735;   -0,591
581,735;25399,923;    0,644;    0,773
582,315;24946,559;   -0,629;    2,136
582,896;25180,865;   -0,174;    1,227
583,477;24643,071;    0,189;    1,227
584,057;24918,332;    0,553;    0,955
584,638;25198,267;    2,553;    2,318
585,218;25261,906;   -0,538;    2,682
585,799;25411,408;    0,281;   -0,227
586,379;25418,501;    0,372;    1,591
586,959;24260,718;    0,735;    0,318
587,540;23731,944;   -0,629;    2,227
588,120;23422,664;    1,007;   -0,045
588,700;22625,742;    2,553;    2,136
589,281;23007,500;    0,462;   -0,955
589,861;22964,349;    0,099;   -1,682
590,441;22764,744;    2,371;   -2,682
591,021;21839,917;   -0,265;   -2,591
591,601;22152,626;   -0,537;    0,500
592,181;22227,072;   -0,719;   -0,773
592,761;21558,189;    0,007;    1,409
593,341;21534,616;   -0,901;    0,045
593,921;21574,567;   -0,265;    1,591
594,501;21529,471;   -0,538;    1,318
595,081;21312,257;    0,917;   -0,318
595,661;21745,621;   -1,447;    0,955
596,240;22261,561;   -0,537;    0,136
596,820;21927,492;    0,372;    1,955
597,400;22011,053;    2,008;    0,773
597,980;22183,245;    2,008;    1,045
598,559;22212,459;    2,735;   -0,227
599,139;21965,010;   -0,174;   -1,227
599,718;21888,738;   -0,174;   -0,409
600,298;22188,757;    0,735;    0,682
600,877;22493,566;    2,917;    1,409
601,457;22667,133;    2,281;    1,136
602,036;22618,822;    0,190;    2,045
602,616;22872,895;    0,644;    1,682
603,195;23162,238;   -0,355;    3,500
603,774;22687,946;   -0,901;    2,045
604,354;22501,619;    0,826;   -0,500
604,933;22141,668;    0,463;    1,864
605,512;22250,370;    3,554;    0,591
606,091;22372,857;   -0,537;    3,773
606,671;23146,003;    0,281;    0,773
607,250;22373,156;    1,644;    3,136
607,829;22555,845;    2,372;    3,227
608,408;22419,769;    1,190;    2,591
608,987;21562,935;    1,281;    3,409
609,566;21847,880;   -1,265;   -2,500
610,145;21973,671;   -1,082;    0,682
610,723;22350,640;    4,372;    6,864
611,302;21701,699;   -0,446;    1,682
611,881;21275,949;    5,008;   11,227
612,460;22031,609;    1,645;    3,955
613,039;22376,099;   -0,082;    2,045
613,617;21263,451;    1,736;    4,773
614,196;21417,089;    1,099;    1,227
614,775;21784,466;    1,009;    2,409
615,353;21718,050;    0,736;    0,864
615,932;21540,255;    0,100;    2,409
616,510;22051,571;    0,554;    0,591
617,089;21687,732;    7,100;   17,591
617,667;21462,968;    2,372;    6,136
618,246;21341,891;   -1,537;    1,318
618,824;21536,718;   -3,355;   -0,955
619,402;21106,522;   -2,900;   -1,773
619,981;21517,797;   -0,173;   -1,045
620,559;21382,262;    0,009;    1,682
621,137;20965,242;   -0,718;    1,864
621,715;20987,393;   -1,173;   -0,682
622,293;20938,776;   -0,537;   -0,773
622,871;21377,228;   -0,718;    0,500
623,450;21006,372;    0,373;   -0,864
624,028;20928,938;    0,191;   -0,955
624,606;20603,301;   -1,718;    1,682
625,183;20976,656;   -1,536;   -1,136
625,761;20665,033;    1,009;    1,136
626,339;20979,932;    1,373;    2,591
626,917;21288,603;   -0,172;   -0,045
627,495;21328,950;   -0,354;    1,318
628,073;20803,279;   -0,263;    2,864
628,650;20519,641;    0,100;    2,136
629,228;20967,727;    0,373;    4,409
629,806;20431,704;    2,282;    1,136
630,383;20666,373;    1,464;   -0,318
630,961;20510,547;    2,555;   -0,955
631,539;20278,467;    2,464;    0,227
632,116;19770,456;   11,373;   15,409
632,694;20306,072;    2,555;    6,500
633,271;20495,096;    0,828;    2,682
633,848;20478,625;    1,828;    2,045
634,426;20505,212;   -1,081;    1,773
635,003;19685,514;    1,101;   -0,409
635,580;19958,207;    1,192;    3,682
636,158;20514,876;    3,737;    1,227
636,735;20467,485;    0,555;   -0,500
637,312;20602,711;   -0,809;   -0,682
637,889;20729,894;   -4,354;   -0,682
638,466;20255,838;   -3,990;   -0,409
639,043;20225,274;    2,101;   -1,136
639,620;20492,808;   -2,262;   -0,955
640,197;20766,700;    1,100;    1,682
640,774;20899,801;   -0,172;    1,136
641,351;21240,265;    0,737;    1,136
641,928;20821,912;   -0,627;    1,409
642,505;20492,012;    0,828;   -0,500
643,082;20606,022;   -1,718;    1,227
643,658;19700,214;   -0,718;    1,500
644,235;20346,315;    1,191;    2,500
644,812;20627,779;    1,918;    0,773
645,388;20424,607;   -0,991;    1,409
645,965;20498,799;   -0,809;    1,682
646,542;20603,991;   -1,445;   -0,227
647,118;20599,182;    1,009;   -0,955
647,695;20855,556;   -0,263;    1,136
648,271;20774,384;   -0,536;    0,500
648,848;21031,576;    0,736;    2,227
649,424;20933,222;    0,827;    1,318
650,000;20660,595;   -0,354;   -1,045
650,577;20502,696;   -0,627;   -0,955
651,153;20918,342;   -1,809;    0,955
651,729;21824,079;    1,191;    0,864
652,305;22357,180;    0,645;    2,773
652,881;26724,826;   -0,082;    1,136
653,458;32285,382;    1,100;    0,227
654,034;34778,301;    0,282;    1,591
654,610;35676,311;    0,554;    0,773
655,186;36839,502;    0,645;    3,045
655,762;36485,694;   -0,991;    0,409
656,338;36503,886;    0,100;    0,136
656,913;37392,259;   -0,082;    0,409
657,489;36684,996;    0,827;   -0,318
658,065;36731,552;   -0,173;   -1,591
658,641;37372,289;   -0,900;   -0,864
659,217;36778,026;   -0,991;    0,409
659,792;36283,127;    0,645;   -0,409
660,368;36511,682;   -2,173;   -0,682
660,944;35953,601;   -2,082;    1,227
661,519;31358,884;   -0,628;    0,409
662,095;26493,348;   -1,719;    0,591
662,670;23142,994;    1,281;   -0,136
663,246;22519,731;    1,009;   -0,409
663,821;22058,378;    0,281;    1,682
664,396;21597,933;    0,009;    1,864
664,972;21839,488;    0,009;   -0,500
665,547;22155,953;    1,372;    0,136
666,122;22183,690;   -1,082;    0,318
666,698;22421,700;   -0,173;    0,318
667,273;21795,164;   -0,173;    0,136
667,848;22594,992;    2,372;    1,500
668,423;22376,275;    2,190;    2,318
668,998;22861,648;    2,827;   -0,682
669,573;23378,931;   -3,264;   -1,500
670,148;23194,395;   -1,446;   -0,682
670,723;22965,042;   -1,810;    0,318
671,298;23335,324;    2,372;    1,045
671,873;23428,334;   -0,082;   -0,136
672,448;23377,435;    0,645;    0,136
673,023;23685,354;   -1,992;   -0,227
673,597;24010,364;    0,827;    2,318
674,172;23811,555;   -0,355;    0,318
674,747;23306,020;    0,372;   -1,045
675,321;23084,939;   -0,628;    3,318
675,896;22724,312;    0,645;    1,045
676,471;23637,049;    2,645;    1,591
677,045;23421,059;   -1,264;    0,682
677,620;23437,433;    0,190;    1,136
678,194;23725,443;   -2,628;    1,136
678,769;23363,089;   -1,083;   -0,318
679,343;23654,190;   -0,628;    1,773
679,917;23560,563;   -1,446;    1,955
680,492;23552,664;    0,826;    3,227
681,066;23683,947;    3,372;    0,409
681,640;23688,502;    1,463;   -0,318
682,214;24481,875;    0,735;    0,500
682,788;24057,885;   -1,356;   -0,773
683,363;24024,622;   -1,810;    1,682
683,937;23733,360;   -1,719;   -0,318
684,511;24374,460;    0,463;   -0,591
685,085;24136,016;   -1,356;    0,318
685,659;23852,480;   -2,538;    0,864
686,232;24158,490;   -0,356;   -0,318
686,806;23828,318;   -0,901;    0,409
687,380;24421,510;   -0,174;    0,591
687,954;24627,520;   -1,174;    1,136
688,528;24347,075;   -0,719;    1,955
689,101;25046,357;   -3,992;    1,045
689,675;24671,276;   -0,356;   -0,136
690,249;24039,650;   -0,719;    0,409
690,822;24453,387;    0,280;    0,318
691,396;24511,761;   -0,265;    1,227
691,969;24013,861;    1,280;    0,136
692,543;24454,689;   -0,447;   -1,955
693,116;24090,245;   -0,265;   -1,409
693,690;23992,527;    0,099;    0,500
694,263;24519,810;   -1,083;    2,955
694,836;24579,729;    1,371;    3,591
695,410;23325,466;   -0,265;    1,773
695,983;23725,840;    0,189;    0,591
696,556;23739,213;   -0,447;   -1,045
697,129;24094,496;   -0,356;    1,409
697,703;23764,960;   -1,629;    1,955
698,276;23756,788;    1,462;   -0,773
698,849;23637,162;    1,280;    1,409
699,422;23980,444;   -1,083;    0,591
699,995;23719,727;    0,007;    0,136
700,568;24150,009;   -0,629;    3,045
701,140;24108,292;   -2,811;    1,682
701,713;23909,847;   -0,174;    2,409
702,286;23669,403;   -0,538;    0,864
702,859;23534,594;   -0,902;   -0,591
703,432;22785,877;    0,825;    0,682
704,004;23193,432;    0,462;    0,318
704,577;23121,806;   -0,629;    0,136
705,150;23676,998;    0,189;    2,500
705,722;23429,826;   -0,356;   -3,227
706,295;23271,017;   -0,175;   -0,591
706,867;23152,482;   -0,175;    1,955
707,440;23357,946;   -1,720;   -0,409
708,012;23636,865;    0,462;    0,591
708,584;23508,329;    2,462;    0,227
709,157;23743,248;    1,825;   -0,591
709,729;23490,167;    2,280;    2,045
710,301;24251,905;    0,734;    0,045
710,874;24216,551;   -1,447;   -0,227
711,446;23145,833;    0,371;    0,864
712,018;23081,661;    0,098;    0,500
712,590;22858,308;   -1,993;    1,682
713,162;23334,772;    0,825;    1,318
713,734;23542,146;    1,825;   -2,045
714,306;23501,155;   -1,902;   -0,409
714,878;22245,802;    0,825;    0,864
715,450;23038,175;    0,643;    0,864
716,022;23300,821;    1,552;    1,318
716,593;23441,377;    0,189;    0,591
717,165;23359,205;   -3,175;   -1,227
717,737;23120,942;    0,280;    0,409
718,309;22780,497;    0,280;   -0,045
718,880;22780,962;   -0,539;   -1,409
719,452;22957,881;   -0,175;   -1,591
720,024;22646,527;    0,734;   -0,591
720,595;23180,173;   -2,902;    0,955
721,167;22755,819;    0,370;   -2,045
721,738;22281,920;   -0,812;   -1,045
722,309;22344,385;   -0,993;   -1,227
722,881;22143,485;   -1,357;    0,773
723,452;22702,041;   -2,630;    2,864
724,023;22889,232;   -0,721;    2,682
724,595;22688,151;    0,007;    0,682
725,166;22397,888;    0,007;   -0,409
725,737;22109,262;    1,734;    0,227
726,308;22169,272;   -0,266;    0,318
726,879;22593,827;   -1,630;    1,227
727,450;22396,837;    0,552;   -0,045
728,021;22414,029;    3,097;    0,682
728,592;22242,311;    0,734;    0,500
729,163;22549,230;    0,643;   -0,136
729,734;22564,604;    0,188;   -0,227
730,305;22934,250;    1,734;    0,136
730,876;23223,442;    0,188;    2,955
731,447;22964,361;    2,188;    2,682
732,017;23062,461;    1,097;    1,864
732,588;22589,290;    0,734;    1,227
733,159;22804,299;    0,643;   -1,045
733,729;22532,582;    0,006;    0,409
734,300;21857,683;    0,915;    0,864
734,870;22251,056;    3,461;    0,591
735,441;22771,248;    0,370;   -0,591
736,011;22568,349;    0,643;   -1,591
736,582;22519,722;   -0,812;    0,045
737,152;21983,278;   -1,721;   -2,045
737,722;22466,833;   -0,267;   -0,682
738,293;22164,570;   -1,358;    1,318
738,863;22090,035;    2,461;    2,318
739,433;21984,135;    5,279;    0,318
740,003;22547,691;   -0,994;   -0,682
740,573;22011,155;    2,097;   -1,591
741,143;21941,983;   -1,085;    0,318
741,713;22652,357;    1,188;   -0,500
742,283;22464,821;    0,915;    1,591
742,853;22235,649;    1,915;    1,591
743,423;21693,568;    1,733;    0,045
743,993;21775,760;   -0,358;    1,500
744,563;21214,951;    0,097;   -0,864
745,133;21199,961;   -0,812;   -0,864
745,702;21836,153;   -0,267;    1,773
746,272;21118,163;   -0,176;    0,591
746,842;20944,900;   -1,358;   -0,591
747,411;21349,364;   -0,267;   -0,318
747,981;21486,192;    0,097;    0,500
748,551;21505,202;    2,278;   -1,045
749,120;21393,212;    0,642;   -0,227
749,690;21684,040;   -0,631;    2,409
750,259;22026,414;    1,369;    2,955
750,828;21932,605;    1,551;   -1,955
751,398;22202,252;    1,278;   -0,045
751,967;21810,534;    2,187;    0,409
752,536;21932,362;   -0,813;   -0,227
753,105;22365,918;    0,096;    0,227
753,675;22155,018;    0,096;    1,773
754,244;22087,483;   -0,904;    3,591
754,813;22078,038;    0,551;    1,227
755,382;21712,503;    0,460;    0,955
755,951;22165,240;    1,551;    3,682
756,520;21804,977;   -0,085;    1,864
757,089;22295,259;    0,278;    0,500
757,658;22408,088;    1,733;    1,227
758,227;22435,916;    1,096;    0,318
758,795;22702,925;    1,187;    1,136
759,364;22915,390;   -0,086;   -0,591
759,933;22002,309;   -1,176;   -0,045
760,501;21538,137;    0,733;   -1,318
761,070;21959,056;   -2,813;   -1,409
761,639;22607,884;   -1,904;    1,318
762,207;22071,167;    1,551;   -0,955
762,776;21997,540;    0,369;    0,864
763,344;21943,277;   -0,995;    0,591
763,913;21032,105;   -0,722;    1,409
764,481;21804,570;    1,005;   -0,136
765,049;21646,307;   -1,358;    1,409
765,618;21481,135;   -0,086;    0,318
766,186;21557,872;    0,278;    0,136
766,754;21781,155;    0,005;    1,864
767,322;20847,983;   -1,995;    0,409
767,890;20902,174;   -0,722;   -1,773
768,459;21301,730;   -2,177;   -0,318
769,027;21435,012;    1,641;    3,409
769,595;20449,477;    3,278;    2,591
770,163;20922,577;    3,823;    2,955
770,730;20701,951;    0,732;   -0,136
771,298;20580,870;    0,187;   -1,409
771,866;20629,516;   -1,541;    4,955
772,434;20908,708;   -0,631;   -1,864
773,002;21085,445;    0,005;    0,682
773,569;20779,364;    0,914;    1,682
774,137;20612,828;   -0,268;   -0,045
774,705;21314,384;    0,278;   -0,136
775,272;20846,848;    0,641;    0,682
775,840;20666,949;   -0,177;    2,682
776,407;20228,413;    0,277;    1,955
776,975;19835,060;   -0,632;    0,318
777,542;20789,615;   -1,086;   -0,045
778,110;20653,352;   -1,268;   -0,045
778,677;20292,816;   -2,359;   -0,864
779,244;20112,463;    2,186;    1,045
779,812;20252,018;    1,823;    0,864
780,379;20101,392;    0,005;    1,136
780,946;20354,947;    1,005;   -0,773
781,513;20650,320;   -1,450;    0,318
782,080;20054,239;   -0,086;    2,864
782,647;20718,976;   -0,268;    3,045
783,214;20342,077;   -0,177;    3,864
783,781;19999,542;   -0,723;   -0,682
784,348;19885,461;   -0,632;    1,500
784,915;20319,380;   -3,177;    0,318
785,482;20112,117;    1,368;    2,591
786,049;20491,854;    0,186;   -0,591
786,615;20612,136;    0,277;   -0,955
787,182;20371,237;    0,186;   -0,682
787,749;20084,883;   -2,814;    1,409
788,315;19466,984;   -1,632;   -0,409
788,882;19770,540;    1,550;   -1,227
789,448;20444,368;    1,732;   -0,955
790,015;20411,014;    1,095;    3,227
790,581;20040,569;    1,459;    0,227
791,148;19931,943;    0,641;    1,045
791,714;20126,316;   -0,541;    3,136
792,280;19866,781;    0,186;    1,591
792,847;19451,336;    0,550;    2,500
793,413;19918,709;   -0,269;   -0,318
793,979;19603,719;    3,459;   -1,318
794,545;19677,820;    4,459;    2,682
795,111;19088,921;    2,186;    1,318
795,678;19209,385;    0,731;   -1,682
796,244;18934,850;    3,368;    0,136
796,810;19441,405;    1,731;    0,773
797,375;19189,142;    0,549;   -2,136
797,941;19188,516;   -0,541;    0,591
798,507;19307,162;   -0,451;   -0,955
799,073;18856,808;   -0,360;    0,591
799,639;18975,182;   -2,632;    3,136
800,205;18982,192;    0,095;    2,682
800,770;18602,201;    0,640;    1,773
801,336;18694,848;    1,368;   -0,955
801,901;18510,767;    4,549;    3,136
802,467;18985,504;   -0,542;    2,045
803,033;18351,786;   -0,087;    0,864
803,598;18580,524;    1,913;   -1,045
804,163;18585,261;    1,095;   -0,318
804,729;18526,089;   -0,178;    1,136
805,294;18921,826;    0,822;    2,227
805,859;18687,290;    0,731;   -0,409
806,425;18240,755;    1,186;    2,682
806,990;17962,765;    2,186;    4,318
807,555;18323,865;   -1,451;    2,591
808,120;18271,784;    0,822;   -0,409
808,685;18275,340;    0,185;   -2,500
809,250;17869,986;    0,004;   -0,500
809,815;18133,632;    1,913;    0,682
810,380;18615,187;   -0,269;    1,591
810,945;19145,470;   -1,087;    2,045
811,510;18344,753;    2,094;    1,591
812,075;18094,944;   -0,633;   -1,409
812,640;18148,863;    2,003;    1,409
813,204;18219,782;    0,822;   -0,227
813,769;18702,065;    2,094;   -0,045
814,334;18159,984;    0,458;    0,864
814,898;18195,994;    0,367;    0,591
815,463;17978,276;    1,276;   -0,773
816,027;18007,104;   -0,724;   -2,318
816,592;18100,387;    0,640;   -2,045
817,156;17676,397;    2,094;    1,136
817,721;17607,316;    4,276;    2,318
818,285;17601,871;    2,912;    1,500
818,849;18152,699;   -1,451;    1,682
819,414;18010,073;   -0,269;    2,955
819,978;17606,810;   -1,269;    1,773
820,542;18206,092;    2,003;    0,500
821,106;17967,830;   -0,815;    0,682
821,670;18044,567;   -0,815;    2,591
822,234;17762,395;   -0,270;    1,409
822,798;17213,314;    0,003;    0,500
823,362;17207,051;   -0,633;    4,227
823,926;16641,879;    0,094;    1,136
824,490;16816,707;   -0,997;   -0,682
825,054;17252,990;   -0,088;   -1,136
825,618;16952,272;   -1,542;   -1,500
826,181;16903,282;    0,458;   -1,318
826,745;16817,656;    1,367;   -1,045
827,309;17127,484;    1,185;    1,318
827,872;16569,948;    1,367;    0,955
828,436;17488,685;    1,185;   -0,773
828,999;17577,695;   -0,997;    1,227
829,563;16454,159;   -0,179;    1,136
830,126;16299,715;   -0,179;   -0,591
830,690;16384,452;   -1,997;    2,864
831,253;15934,735;   -0,543;    2,227
831,816;16047,199;   -1,906;    0,500
832,380;15994,391;    0,185;    0,864
832,943;16208,582;   -1,361;   -0,500
833,506;15718,229;    2,639;   -1,227
834,069;16466,057;    3,912;   -0,955
834,632;16523,067;    1,730;    1,318
835,195;16444,440;    1,003;    0,955
835,758;15695,904;   -0,997;    1,955
836,321;15545,369;    0,730;   -1,045
836,884;15669,015;   -0,725;   -0,955
837,447;15692,479;   -2,816;    1,773
838,010;15935,762;    0,366;    3,227
838,573;16227,045;   -1,179;    0,773
839,135;16202,873;   -1,361;   -0,955
839,698;15703,974;    1,275;    0,409
840,261;15252,165;    1,003;   -0,227
840,823;15080,539;   -0,543;    0,864
841,386;15371,821;   -0,452;   -2,409
841,948;15335,013;   -1,361;    1,773
842,511;15058,932;    0,912;    1,682
843,073;15193,487;    1,912;    0,227
843,636;14977,861;   -0,361;   -0,227
844,198;14964,143;    0,911;    0,591
844,760;15124,244;    1,093;    1,955
845,322;14791,436;    0,548;    1,136
845,885;15138,082;    0,730;    0,591
846,447;15541,728;   -1,998;    0,227
847,009;15232,466;    1,911;   -0,682
847,571;15483,566;    0,820;   -2,045
848,133;15609,940;   -1,089;   -1,864
848,695;15421,222;   -0,543;    1,409
849,257;15017,050;   -1,089;   -1,682
849,819;15199,788;   -0,998;   -0,409
850,381;15165,070;   -0,725;   -0,864
850,942;15507,716;    1,093;   -0,591
851,504;15468,635;    1,184;    0,227
852,066;15507,463;    1,275;   -1,591
852,628;15088,382;   -0,180;    1,955
853,189;14630,029;    1,638;    2,682
853,751;14785,675;   -0,907;    1,409
854,312;14597,048;   -0,453;   -1,682
854,874;15088,331;   -2,089;   -0,773
855,435;15537,341;   -0,907;   -1,682
855,997;15684,169;   -1,816;   -0,136
856,558;15021,542;    0,366;    1,773
857,119;15124,552;    0,820;    2,864
857,681;14814,017;    0,002;    0,318
858,242;14875,936;    1,911;   -2,136
858,803;15256,127;    0,456;   -0,773
859,364;15806,228;    0,184;   -4,773
859,925;15224,238;   -2,453;   -0,955
860,486;15075,612;   -0,453;   -0,955
861,047;14837,530;   -0,544;   -1,227
861,608;14667,086;   -1,089;   -0,773
862,169;14803,278;    0,638;   -0,045
862,730;14547,833;    0,456;    1,409
863,291;14800,479;   -0,635;   -0,500
863,852;15121,489;   -0,635;    1,955
864,412;14657,044;   -0,271;   -0,864
864,973;13381,963;   -0,089;    0,500
865,534;13298,337;   -1,726;    0,227
866,094;14634,347;    1,820;    0,227
866,655;14359,266;    1,274;    3,318
867,215;14609,366;    0,274;    0,136
867,776;14465,285;    0,547;   -0,136
868,336;14611,659;   -1,453;    0,136
868,897;14187,305;    2,638;    1,682
869,457;13907,679;    1,365;    0,318
870,017;14140,416;    0,547;   -1,227
870,578;14578,153;   -0,817;    0,773
871,138;14255,435;   -2,089;   -0,955
871,698;13814,082;   -0,817;   -1,318
872,258;13698,182;   -0,453;   -2,864
872,818;14107,829;    2,729;    0,045
873,378;14071,839;    0,638;    1,045
873,938;13624,121;    0,547;    0,500
874,498;13906,040;    0,274;   -1,955
875,058;13912,141;    2,183;    1,773
875,618;13697,242;    1,910;   -2,682
876,177;13641,797;    1,274;    0,136
876,737;13287,807;   -0,090;    1,955
877,297;13388,453;    0,183;    1,955
877,856;13400,099;   -0,362;    0,318
878,416;13309,564;    1,183;   -0,136
878,976;13484,846;   -1,817;    0,409
879,535;13665,584;    0,092;    3,136
880,095;13481,412;   -0,544;    0,045
880,654;13579,785;   -1,090;    1,318
881,213;13714,340;    2,456;    1,500
881,773;13363,259;    2,637;    2,682
882,332;13731,997;    3,365;    5,136
882,891;13562,734;    3,092;    2,136
883,451;13966,653;   -1,272;    1,682
884,010;13405,663;   -2,908;   -0,409
884,569;13497,127;   -0,999;   -0,045
885,128;13626,955;    2,819;   -1,864
885,687;13730,419;    4,455;    0,682
886,246;13511,338;    1,455;    2,136
886,805;13297,439;    2,455;    2,045
887,364;13452,813;   -0,999;   -0,500
887,922;13783,095;   -1,181;    0,045
888,481;13340,560;   -1,545;    0,591
889,040;13649,842;    1,183;    2,136
889,599;14216,307;    2,455;    1,409
890,157;14284,044;    1,455;    2,409
890,716;13927,872;   -0,090;    0,227
891,274;13753,154;    0,092;   -1,136
891,833;14164,255;    1,546;    0,864
892,391;14016,083;   -0,454;    0,500
892,950;14094,093;    1,819;   -0,773
893,508;14413,103;    0,455;   -0,409
894,067;13778,658;    0,637;    0,136
894,625;13696,032;   -0,636;   -1,500
895,183;13891,224;   -0,363;   -0,682
895,741;13886,415;    1,728;   -1,773
896,299;13668,062;   -0,545;   -2,409
896,858;13845,617;    0,819;   -1,591
897,416;13978,899;    2,728;   -1,318
897,974;13734,546;    1,819;    0,318
898,532;13938,101;    6,091;    2,682
899,089;13835,656;    2,091;   -0,682
899,647;13860,393;   -1,454;    1,318
900,205;13631,131;    1,182;    1,045
900,763;13808,777;   -0,454;    0,227
901,321;13823,787;    2,364;   -1,409
901,878;13282,615;   -1,000;   -0,773
902,436;13211,716;   -1,363;    1,318
902,994;13642,089;    4,728;    3,682
903,551;13104,735;    0,728;    0,409
904,109;13435,291;    0,182;   -1,409
904,666;13074,755;    2,455;    1,045
905,224;12911,765;    0,182;   -0,409
905,781;12729,229;    0,727;   -0,318
906,338;12776,239;   -1,363;    1,045
906,895;12720,704;    0,637;    2,045
907,453;12668,168;    1,727;    1,136
908,010;12690,269;   -0,909;    0,409
908,567;12367,461;    1,273;    0,591
909,124;11918,834;    0,364;   -1,500
909,681;11952,026;   -2,909;    0,682
910,238;12170,854;    0,636;   -1,318
910,795;12441,045;   -0,273;   -1,136
911,352;12118,773;   -2,909;   -2,682
911,909;11624,500;   -1,364;   -0,864
912,466;12092,409;   -3,182;    1,500
913,022;11647,409;   -1,636;    0,500
913,579;12008,409;   -0,909;    2,045
914,136;11738,227;    1,636;    0,955
914,692;12043,045;    0,091;   -1,227
915,249;11671,682;    1,455;    0,409
915,806;11884,318;    0,182;    1,955
916,362;11744,318;    1,909;    1,864
916,918;11308,500;    2,000;    1,045
917,475;11316,318;   -1,182;    0,955
918,031;11356,682;    3,364;   -0,045
918,587;10875,318;   -0,909;   -0,318
919,144;11110,682;   -2,273;    0,227
919,700;11364,409;    1,727;    0,773
920,256;10968,409;    0,727;    0,045
920,812;10680,227;   -0,727;   -1,045
921,368;10701,773;   -1,727;   -1,045
921,924;10377,318;    0,182;   -0,136
922,480;10012,136;   -0,545;    1,227
923,036;10571,591;    1,273;    1,955
923,592;10523,864;    0,455;    0,318
924,148;10454,773;    0,455;   -0,955
924,704; 9859,864;   -1,364;   -0,409
925,259;10111,591;   -0,273;    0,591
925,815; 9935,682;    1,455;    0,500
926,371; 9497,045;    2,909;    1,409
926,926; 9426,591;    2,091;    0,591
927,482; 9096,409;   -1,364;    0,773
928,037; 9019,682;    0,909;    2,045
928,593; 9368,045;    1,636;    1,045
929,148; 9166,318;   -1,818;   -1,500
929,704; 8709,318;   -1,455;   -0,500
930,259; 8896,227;    0,091;   -0,136
930,814; 8114,591;   -0,818;    1,955
931,369; 7826,045;    1,091;   -0,773
931,925; 7715,682;   -0,091;    0,136
932,480; 7668,045;   -2,818;   -2,591
933,035; 7641,682;    0,545;   -0,318
933,590; 7475,591;    0,364;   -1,773
934,145; 7111,045;   -1,364;   -0,318
934,700; 7402,955;    0,455;   -0,591
935,255; 7237,227;   -0,091;    0,045
935,809; 6704,773;    3,182;    0,864
936,364; 5925,500;   -0,455;   -0,136
936,919; 5929,136;    0,455;   -1,773
937,474; 5848,500;    1,455;    0,136
938,028; 5639,227;   -1,636;    1,136
938,583; 5280,500;    1,818;    4,682
939,138; 5507,682;    2,091;    2,136
939,692; 4991,682;    1,636;   -1,136
940,247; 4763,318;   -0,727;   -1,045
940,801; 4451,864;   -0,636;    0,227
941,355; 4350,682;   -0,364;    2,591
941,910; 4017,591;   -0,273;   -2,136
942,464; 4142,500;   -0,818;   -0,318
943,018; 4032,864;    1,000;   -0,227
943,572; 3972,955;    2,545;   -0,682
944,126; 3496,045;    0,091;   -0,409
944,681; 3394,045;    3,091;    0,227
945,235; 3365,409;    1,000;   -0,591
945,789; 3324,682;    0,364;   -1,864
946,342; 3496,136;    0,455;   -0,591
946,896; 3269,955;   -2,273;    0,955
947,450; 3059,318;    1,545;   -0,227
948,004; 3297,682;    1,727;   -0,045
948,558; 3245,591;    0,273;   -0,864
949,111; 3173,318;   -0,273;   -0,318
949,665; 3278,591;    1,636;   -0,682
950,219; 3168,318;   -0,091;   -1,045
950,772; 3185,864;   -1,909;    1,864
951,326; 3118,864;    0,545;   -0,955
951,879; 3161,500;    0,727;   -2,318
952,433; 3201,318;    0,000;    2,227
952,986; 3063,955;    2,909;    0,682
953,539; 3004,045;   -0,273;    0,591
954,093; 2940,227;    0,545;   -1,318
954,646; 3100,955;    0,909;    1,318
955,199; 2915,409;    0,000;   -0,500
955,752; 2881,864;   -0,455;    1,773
956,305; 2828,864;   -0,091;    2,955
956,858; 2948,682;    0,818;   -0,318
957,411; 3115,864;   -0,545;    2,136
957,964; 2957,136;    1,364;    2,136
958,517; 2932,773;   -1,545;    3,136
959,070; 2764,591;   -0,455;    1,955
959,623; 2928,227;    1,091;    1,500
960,176; 2712,409;    1,727;    2,045
960,728; 2691,773;   -2,727;    0,773
961,281; 2731,773;    0,545;    0,500
961,834; 2759,864;   -0,909;    0,864
962,386; 2678,500;    1,727;    1,045
962,939; 2614,318;    0,364;   -0,318
963,491; 2742,864;    0,455;    1,136
964,043; 2608,136;    1,182;    2,409
964,596; 2754,682;   -1,000;    2,227
965,148; 2599,318;   -1,000;    1,773
965,700; 2516,864;    1,091;   -0,227
966,253; 2673,136;   -0,636;    0,318
966,805; 2551,955;   -2,273;    0,773
967,357; 2548,955;    1,091;   -1,500
967,909; 2565,136;    0,455;   -1,227
968,461; 2611,955;    0,545;    3,136
969,013; 2567,318;   -0,182;   -0,864
969,565; 2656,773;   -0,455;   -1,136
970,117; 2799,773;   -0,364;    1,045
970,669; 2575,318;    0,182;   -0,136
971,220; 2403,955;   -0,455;   -1,500
971,772; 2368,227;   -0,636;   -0,318
972,324; 2500,773;    0,091;   -0,500
972,876; 2417,136;    0,818;   -0,045
973,427; 2583,864;    1,909;   -1,045
973,979; 2562,591;   -0,727;   -2,500
974,530; 2531,409;    1,818;    1,318
975,082; 2547,500;   -0,545;    1,682
975,633; 2454,500;    1,091;    1,682
976,184; 2609,955;    0,909;    0,773
976,736; 2429,682;    0,091;    0,227
977,287; 2280,773;   -0,909;   -0,500
977,838; 2421,409;    0,909;   -0,318
978,389; 2479,227;   -1,000;   -0,500
978,940; 2330,955;    0,545;   -0,409
979,491; 2330,318;    0,091;   -0,500
980,042; 2347,773;    0,182;    3,045
980,593; 2384,409;   -2,545;    0,227
981,144; 2447,955;    2,545;   -0,500
981,695; 2444,773;    1,455;    1,500
982,246; 2403,773;   -0,273;    1,045
982,797; 2479,864;   -1,727;    0,682
983,347; 2597,409;    0,364;    0,591
983,898; 2804,773;    3,091;    0,409
984,449; 2651,409;    2,182;    0,773
984,999; 2498,864;    1,455;   -1,136
985,550; 2309,591;    0,182;   -0,318
986,100; 2293,773;   -0,455;   -0,318
986,651; 2328,409;   -0,818;    0,045
987,201; 2337,318;   -1,000;   -0,591
987,751; 2403,773;    0,818;    2,864
988,302; 2401,955;    2,636;    1,500
988,852; 2411,500;    0,455;   -1,136
989,402; 2480,591;    0,091;    0,682
989,952; 2416,591;   -2,182;    0,864
990,502; 2465,864;   -0,091;    0,682
991,052; 2399,500;   -0,727;    0,045
991,602; 2304,591;   -2,909;    1,318
992,152; 2319,045;    0,455;    0,682
992,702; 2322,409;    1,364;   -0,045
993,252; 2244,045;   -3,000;   -0,500
993,802; 2346,591;   -0,273;    1,318
994,352; 2523,409;   -1,545;    1,136
994,901; 2551,318;   -0,182;    3,227
995,451; 2478,682;   -0,182;    0,318
996,000; 2564,773;    1,636;    0,318
996,550; 2326,227;    2,273;    0,227
997,100; 2334,591;    1,273;   -0,045
997,649; 2610,682;    2,182;    0,955
998,198; 2285,591;    1,727;   -1,500
998,748; 2503,318;    1,091;   -2,318
999,297; 2359,136;   -0,818;   -0,409
999,846; 2439,682;    1,000;   -0,773
1000,395; 2459,227;   -0,818;    0,500
1000,945; 2477,045;    1,818;   -0,773
1001,494; 2536,773;    2,364;    0,682
1002,043; 2508,136;    4,636;    0,864
1002,592; 2327,045;   -1,091;    1,955
1003,141; 2469,773;   -0,455;   -0,682
1003,690; 2383,409;    1,727;    0,500
1004,238; 2403,409;    1,455;   -0,045
1004,787; 2069,318;    1,364;    1,227
1005,336; 2359,409;    0,364;    0,682
1005,885; 2453,955;    1,364;   -2,773
1006,433; 2523,318;    0,545;    0,955
1006,982; 2664,409;    0,455;    1,682
1007,531; 2543,773;   -1,818;   -0,227
1008,079; 2452,500;   -2,273;    0,500
1008,627; 2550,864;   -1,455;    0,409
1009,176; 2337,318;    0,000;   -1,955
1009,724; 2373,864;    1,091;    0,864
1010,273; 2495,682;    1,273;    0,500
1010,821; 2535,409;    0,091;    1,409
1011,369; 2298,318;   -1,364;    1,318
1011,917; 2287,409;   -1,364;   -0,591
1012,465; 2544,045;    1,273;   -1,591
1013,013; 2626,773;    2,091;   -1,682
1013,561; 2559,682;    0,455;   -0,773
1014,109; 2644,409;   -1,909;    1,682
1014,657; 2498,773;    0,364;    0,591
1015,205; 2571,682;    1,636;   -0,955
1015,753; 2558,318;   -0,545;   -1,409
1016,301; 2632,045;   -2,636;    3,045
1016,848; 2651,591;   -1,273;    0,409
1017,396; 2684,682;    2,545;    0,045
1017,944; 2778,682;    1,182;    1,864
1018,491; 2539,227;    0,273;    1,409
1019,039; 2783,500;    0,455;    0,591
1019,586; 2613,955;   -1,364;    1,682
1020,134; 2688,591;    0,455;    1,500
1020,681; 2725,500;    0,182;   -1,136
1021,228; 2697,682;    2,909;   -2,227
1021,776; 2541,682;    1,182;   -1,136
1022,323; 2819,591;    0,455;    0,773
1022,870; 2701,591;   -1,000;   -0,045
1023,417; 2664,227;    2,636;    1,864
1023,964; 2711,955;    2,636;    1,227
1024,511; 2619,682;    1,000;    0,773
1025,058; 2427,227;    3,182;   -0,045
1025,605; 2466,773;   -2,273;    3,136
1026,152; 2732,318;    1,727;   -0,591
1026,699; 2465,045;    1,818;    1,318
1027,245; 2575,682;   -0,091;    0,318
1027,792; 2719,682;   -1,000;    1,409
1028,339; 2702,955;    2,364;   -0,045
1028,885; 2543,409;    1,000;   -0,227
1029,432; 2475,682;   -0,091;    0,227
1029,978; 2562,227;   -1,000;   -1,591
1030,525; 2467,864;    1,000;    0,409
1031,071; 2646,227;   -1,364;    1,136
1031,618; 2824,955;    0,364;    1,682
1032,164; 2571,864;   -0,091;    3,045
1032,710; 2603,773;    1,636;   -1,500
1033,256; 2514,045;   -0,636;   -0,136
1033,803; 2473,955;   -0,545;    1,500
1034,349; 2219,955;   -1,364;    0,136
1034,895; 2351,136;    0,000;   -0,318
1035,441; 2362,318;   -0,818;    0,318
1035,987; 2381,773;   -2,364;   -0,682
1036,533; 2409,773;   -1,455;   -0,955
1037,078; 2627,500;    1,455;    1,682
1037,624; 2433,955;    2,455;   -0,955
1038,170; 2411,864;    0,455;   -0,318
1038,716; 2385,591;    1,636;   -0,409
1039,261; 2264,682;   -2,273;   -0,773
1039,807; 2212,227;   -0,091;    3,409
1040,352; 2288,136;   -1,909;   -0,318
1040,898; 2315,136;   -1,545;   -0,682
1041,443; 2215,864;   -1,455;   -2,591
1041,989; 2347,500;    1,091;    1,591
1042,534; 2175,318;   -0,364;    2,591
1043,079; 2204,591;    2,909;    0,955
1043,625; 2101,682;    1,818;    0,500
1044,170; 2149,500;   -1,364;    1,045
1044,715; 2423,591;    2,455;    0,955
1045,260; 2216,864;    2,182;   -0,955
1045,805; 2217,045;    1,182;   -0,591
1046,350; 2158,045;    1,364;   -0,409
1046,895; 2198,318;    2,909;    1,591
1047,440; 2191,409;    5,364;    0,409
1047,985; 2045,227;    2,818;   -0,955
1048,530; 1941,682;    1,545;    1,227
1049,074; 2019,136;    0,000;    0,318
1049,619; 1982,955;   -1,364;    1,955
1050,164; 1833,227;    0,455;    0,227
1050,708; 1887,591;   -0,455;    0,045
1051,253; 2268,136;    1,273;   -2,227
1051,797; 1972,227;    0,818;   -1,318
1052,342; 1924,955;   -1,182;    1,045
1052,886; 1957,045;    0,364;   -1,409
1053,430; 1803,045;   -1,364;    0,136
1053,975; 1838,045;   -0,818;   -0,318
1054,519; 1847,045;   -0,727;    3,227
1055,063; 1913,045;    0,909;    1,318
1055,607; 1802,318;   -0,182;    0,227
1056,151; 1821,500;    2,909;    1,682
1056,695; 1699,955;    2,273;   -1,136
1057,239; 1769,773;   -1,727;   -0,682
1057,783; 1800,682;    0,818;   -1,500
1058,327; 1792,955;    0,000;    1,409
1058,871; 2015,227;   -0,545;    1,318
1059,415; 1738,864;   -0,818;   -0,045
1059,958; 2033,318;    1,455;    2,591
1060,502; 1730,136;   -1,000;   -0,773
1061,046; 1594,591;    0,364;   -0,955
1061,589; 1573,136;   -3,000;   -1,136
1062,133; 1455,045;   -1,273;    1,864
1062,676; 1442,500;    1,182;    0,864
1063,220; 1467,773;    1,091;    0,500
1063,763; 1503,864;    0,909;    1,136
1064,306; 1585,591;   -0,909;    1,864
1064,849; 1473,682;   -0,909;    0,591
1065,393; 1470,136;    2,000;   -1,500
1065,936; 1552,955;    0,182;   -0,409
1066,479; 1424,955;   -1,455;    1,318
1067,022; 1460,591;   -0,273;   -0,227
1067,565; 1377,682;   -0,091;   -1,318
1068,108; 1381,955;    0,727;   -0,591
1068,651; 1346,773;   -0,636;    1,409
1069,194; 1295,045;   -0,455;   -1,682
1069,736; 1316,955;   -1,273;    0,955
1070,279; 1275,773;   -1,364;   -0,500
1070,822; 1369,500;   -2,000;   -0,318
1071,364; 1497,227;   -0,364;    1,318
1071,907; 1292,318;   -0,727;    3,227
1072,450; 1137,136;    0,000;   -0,045
1072,992; 1170,227;   -0,273;    3,136
1073,535; 1343,591;    2,091;    2,136
1074,077; 1119,682;   -0,727;    2,045
1074,619; 1102,136;   -1,364;    0,591
1075,161; 1146,045;   -1,091;    1,500
1075,704; 1340,864;    1,545;    1,227
1076,246; 1113,864;   -0,182;    0,682
1076,788; 1030,409;   -0,364;    1,773
1077,330; 1092,227;    1,273;    2,136
1077,872; 1086,227;    0,909;    0,955
1078,414; 1346,318;    2,727;    0,773
1078,956; 1084,955;    1,273;   -0,227
1079,498; 1355,955;    1,636;    0,318
1080,040; 1059,318;    1,909;   -1,318
1080,581;  985,682;    1,636;   -0,318
1081,123;  899,682;    0,091;   -0,773
1081,665;  939,955;   -1,182;   -0,955
1082,206; 1277,318;    1,364;   -0,500
1082,748; 1127,682;    0,727;    2,045
1083,289;  982,682;   -2,000;    1,318
1083,831;  909,045;   -0,545;    0,227
1084,372;  973,591;    0,000;    0,591
1084,913;  980,136;    1,091;    0,864
1085,455;  916,500;   -1,909;   -2,045
1085,996;  901,773;   -2,273;    0,136
1086,537;  941,318;   -0,091;    0,864
1087,078;  963,500;   -0,909;   -2,136
1087,619; 1016,773;   -1,273;    0,227
1088,160;  935,227;    0,000;    1,318
1088,701;  905,136;   -1,091;    0,682
1089,242;  857,955;    1,364;   -2,227
1089,783;  970,500;   -0,273;    1,409
1090,324;  934,955;    0,455;    0,682
1090,865;  811,045;    2,727;   -0,409
1091,405;  754,955;    0,727;    2,227
1091,946;  793,773;    0,182;   -0,955
1092,487;  706,045;    0,818;   -1,409
1093,027;  905,409;   -1,364;   -1,500
1093,568;  759,136;   -0,364;    1,227
1094,108;  868,955;    0,273;    1,773
1094,649;  802,227;   -1,182;    0,136
1095,189;  733,045;   -0,636;   -0,682
1095,729;  703,682;   -0,091;    0,955
1096,269;  685,318;    0,727;   -0,955
1096,810; 1007,773;   -1,364;    0,500
1097,350;  836,955;    1,364;   -0,773
1097,890;  747,318;    0,364;    1,227
1098,430; 1016,136;    2,364;    2,864
1098,970;  898,409;    2,182;    1,682
1099,510;  734,773;    0,545;   -2,318
1100,050;  659,682;    1,000;   -1,591
1100,589;  638,318;   -0,727;   -0,318
1101,129;  762,591;    0,818;   -0,955
1101,669;  935,318;    1,727;    2,136
1102,209;  748,773;   -0,091;    2,227
1102,748;  701,409;    0,000;    0,955
1103,288;  697,773;    1,273;   -1,227
1103,827;  721,773;    3,091;   -2,227
1104,367;  600,864;   -0,091;   -2,409
1104,906;  575,500;    1,364;   -1,136
1105,445;  649,682;    0,636;   -1,136
1105,985;  611,045;   -0,727;    1,500
1106,524;  654,227;   -1,727;   -0,682
1107,063;  624,500;   -2,727;    1,409
1107,602;  582,591;   -1,909;   -1,500
1108,141;  507,318;   -1,909;    1,500
1108,680;  626,045;   -3,455;   -0,591
1109,219;  566,955;   -0,909;   -0,500
1109,758;  563,318;    0,455;    0,682
1110,297;  535,045;    1,000;   -0,682
1110,836;  478,409;   -0,727;    0,955
1111,375;  643,682;   -2,545;    0,409
1111,913;  664,500;   -1,000;    0,773
1112,452;  600,591;   -0,273;    0,136
1112,991;  475,773;    1,091;    1,955
1113,529;  445,136;   -0,818;   -0,045
1114,068;  522,136;   -0,273;    2,955
1114,606;  420,227;   -0,364;   -0,955
1115,144;  596,409;   -1,273;    1,045
1115,683;  516,227;   -0,727;    0,318
1116,221;  567,045;   -0,455;   -0,864
1116,759;  487,773;    0,636;   -0,864
1117,297;  691,955;    0,000;    1,864
1117,836;  494,136;   -2,182;   -1,227
1118,374;  510,864;    0,182;   -0,682
1118,912;  448,227;    0,909;    2,682
1119,450;  439,409;    1,000;    0,864
1119,988;  488,318;    1,545;    2,136
1120,525;  934,955;    5,091;    3,318
1121,063;  638,682;    1,182;    1,864
1121,601;  450,409;   -0,909;   -1,227
1122,139;  410,682;   -0,727;   -2,045
1122,676;  611,318;   -0,727;    2,773
1123,214;  536,045;   -1,182;    4,409
1123,751;  350,227;    1,727;    2,227
1124,289;  473,045;   -0,091;   -0,409
1124,826;  361,136;    1,727;    0,227
1125,364;  283,682;    1,727;   -0,955
1125,901;  473,227;    1,182;    1,227
1126,438;  590,864;    0,818;    0,955
1126,975;  305,409;   -0,727;   -0,773
1127,513;  372,864;    0,273;    2,136
1128,050;  286,318;    1,636;   -0,682
1128,587;  387,318;    2,000;   -0,227
1129,124;  438,045;    0,091;    1,318
1129,661;  300,500;    0,273;    0,227
1130,198;  464,682;    1,636;    0,773
1130,734;  409,955;    0,182;    1,409
1131,271;  271,773;   -0,909;    0,864
1131,808;  448,045;    2,909;    3,045
1132,345;  321,682;    1,545;    0,318
1132,881;  193,682;   -1,545;   -1,864
1133,418;  340,955;    0,727;   -1,136
1133,954;  277,682;    2,455;   -2,682
1134,491;  351,955;    1,364;   -0,773
1135,027;  250,682;    2,364;    0,864
1135,564;  341,500;    0,273;    2,955
1136,100;  328,045;    0,364;    2,136
1136,636;  210,591;   -1,273;   -1,045
1137,172;  306,045;    0,000;   -1,045
1137,708;  237,045;   -1,364;   -1,045
1138,245;  239,955;    1,273;   -1,227
1138,781;  189,318;    1,091;   -3,318
1139,317;  259,591;    1,273;   -1,409
1139,852;  245,591;    3,091;    0,136
1140,388;  358,500;   -1,182;   -0,409
1140,924;  257,409;   -1,091;   -2,227
1141,460;  195,773;   -1,636;    0,136
1141,996;  124,864;   -1,364;    2,682
1142,531;  181,409;    1,364;    3,318
1143,067;  393,682;    1,182;    1,045
1143,602;  449,773;   -0,091;   -0,318
1144,138;  292,136;   -2,636;    1,045
1144,673;  158,500;   -1,455;    1,409
1145,209;  222,409;   -1,909;   -0,318
1145,744;  148,591;   -0,727;    0,864
1146,279;  289,773;    1,818;   -0,136
1146,815;  198,227;    1,545;   -2,682
1147,350;  238,955;   -1,364;    0,045
1147,885;  161,864;   -0,818;   -1,318
1148,420;  158,500;   -2,273;    0,773
1148,955;  138,500;   -1,727;    1,864
1149,490;  160,409;   -0,909;   -1,591
1150,025;  138,500;    0,455;   -1,773
1150,560;  264,864;    1,091;   -0,955
1151,094;  223,955;    1,455;   -0,591
1151,629;  232,318;    1,636;    0,864
1152,164;  164,136;    1,364;    1,318
1152,698;  123,773;   -0,182;   -0,136
1153,233;   85,773;    0,091;   -0,682
1153,767;  127,955;   -3,000;   -2,318
1154,302;  180,227;   -1,455;    1,773
1154,836;  182,318;   -0,455;   -2,136
1155,371;  224,045;   -1,364;    3,682
1155,905;  173,955;   -0,636;    1,682
1156,439;  147,955;   -0,636;   -0,500
1156,973;  182,773;    0,364;    0,318
1157,507;  122,409;   -0,364;    0,682
1158,042;  153,955;   -0,727;    1,045
1158,576;  197,955;    0,182;    1,773
1159,110;  182,227;   -0,818;    2,409
1159,643;  154,591;    0,636;   -0,045
1160,177;   94,136;   -1,545;    1,500

