
Integration time [ms]:   0,040
Averaging Nr. [scans]: 11
Smoothing Nr. [pixels]: 0
Data measured with spectrometer [name]: 7318044SP
Wave   ;Sample   ;Dark     ;Reference
[nm]   ;[counts] ;[counts] ;[counts] 

186,757;    5,993;   31,551;    1,318
187,357;   32,854;   22,551;    0,955
187,958;    6,941;   15,460;   -1,591
188,558;   40,482;    8,915;   -1,227
189,159;   19,801;    6,733;   -4,500
189,759;   -5,660;    7,278;   -3,591
190,360;   -8,476;    2,824;   -2,136
190,960;   21,040;    2,915;   -4,136
191,560;   23,055;    3,189;   -6,591
192,161;  210,383;    4,372;   -3,500
192,761;   95,295;    4,010;   -3,227
193,361;   35,562;    1,556;   -3,773
193,962;   64,748;    2,010;   -2,682
194,562;    8,739;    1,189;   -3,955
195,162;   19,422;   -2,448;   -2,227
195,762;  121,321;   -3,176;   -0,045
196,362;   78,565;    1,370;   -2,500
196,963;   -0,435;    2,006;   -0,864
197,563;   41,737;    1,551;   -0,955
198,163;    2,603;    0,096;   -0,682
198,763;    7,380;    1,733;   -0,500
199,363;   49,121;    3,096;   -0,500
199,963;   33,014;    0,369;    0,409
200,563;   13,811;    2,823;   -1,409
201,163;    3,282;    3,277;   -0,227
201,763;   35,915;    3,732;    0,318
202,363;   -0,812;    1,459;    1,500
202,963;   25,502;    1,459;    1,045
203,563;   80,628;    0,277;    0,500
204,162;   21,467;    2,096;   -1,864
204,762;   12,804;    0,550;    0,591
205,362;   -9,104;    3,004;    1,955
205,962;   13,391;    3,096;    1,955
206,562;   12,623;    1,823;    2,318
207,161;   -8,413;   -0,087;    0,318
207,761;   71,830;    1,277;    2,409
208,361;    3,523;   -0,268;    1,409
208,960;   21,033;    0,459;    1,500
209,560;   25,206;    1,277;    1,591
210,160;   36,542;    0,550;    1,864
210,759;   12,833;    4,186;    1,227
211,359;   -1,512;    1,459;    1,045
211,958;   93,217;    1,277;    2,045
212,558;   97,595;    1,732;    1,864
213,157;   34,185;    1,822;    1,500
213,757;  158,656;    3,822;   -0,227
214,356;   54,688;    1,277;   -0,409
214,956;  138,263;    3,095;    0,409
215,555;   38,023;    2,095;    2,136
216,154;   13,047;   -2,723;   -0,591
216,754;   13,719;    0,277;    0,773
217,353;   21,881;   -0,268;   -1,045
217,952;  -20,824;   -0,178;    0,318
218,552;   40,249;    1,368;   -0,773
219,151;   11,699;    0,277;    0,955
219,750;    1,870;    0,004;   -0,227
220,349;   -5,409;   -0,451;    1,045
220,948;   50,073;   -1,360;    1,136
221,548;    1,354;    0,913;    1,227
222,147;    6,466;   -0,087;   -0,409
222,746;   78,944;   -0,451;   -0,955
223,345;   21,947;    0,731;    0,500
223,944;   22,620;   -0,451;    0,773
224,543;   29,393;    1,004;   -1,409
225,142;   13,845;    0,094;    0,136
225,741;   17,109;   -0,814;    1,045
226,340;   17,318;   -0,451;   -0,955
226,939;   62,229;   -0,996;   -0,136
227,538;   17,822;   -0,360;   -0,773
228,137;   69,526;   -0,814;    0,864
228,735;   44,726;   -0,541;    1,227
229,334;   -1,876;   -0,905;   -0,227
229,933;   67,684;    0,459;    0,591
230,532;   55,349;    1,186;   -0,409
231,131;   98,059;    1,732;    0,318
231,729;   38,317;   -2,450;   -2,318
232,328;   14,890;   -0,723;   -1,500
232,927;   27,503;    1,004;   -0,500
233,525;   18,791;    3,640;    0,045
234,124;   28,506;    2,368;   -1,591
234,723;    7,184;    0,913;   -1,045
235,321;   -9,485;    2,277;    0,136
235,920;   -2,974;    1,186;   -1,227
236,518;   72,812;    3,459;    0,318
237,117;   13,676;    0,004;   -0,227
237,715;   21,719;    0,640;   -0,500
238,314;   29,205;   -0,087;   -2,318
238,912;   70,684;   -0,723;   -1,409
239,510;   34,027;    0,459;   -1,227
240,109;   85,486;    0,004;    3,773
240,707;   70,828;   -0,996;    1,227
241,305;    4,185;    0,550;    0,136
241,904;   32,912;   -0,178;   -2,045
242,502;   97,405;   -0,632;   -0,227
243,100;   46,208;   -0,087;   -0,955
243,698;    2,615;    0,732;    1,682
244,297;   17,107;   -0,632;    0,682
244,895;    9,914;   -0,269;   -2,318
245,493;   76,078;    2,186;   -0,591
246,091;   91,760;    1,368;   -1,318
246,689;   42,868;    1,004;    0,591
247,287;   31,134;    0,822;   -1,136
247,885;   21,874;   -1,451;    1,227
248,483;    1,764;    1,822;   -0,500
249,081;   38,971;    0,185;    1,591
249,679;   51,430;   -0,178;    1,682
250,277;    6,179;   -1,723;    0,864
250,875;   47,100;   -1,087;   -1,045
251,473;   15,683;   -1,178;    0,500
252,071;   49,036;    1,459;    1,045
252,669;   12,165;   -1,814;    0,318
253,267;    3,024;   -0,087;    0,773
253,864;   13,680;   -0,360;    0,682
254,462;   61,563;    1,640;    1,591
255,060;    9,378;   -0,269;    1,318
255,658;   -0,835;    0,822;   -0,136
256,255;   16,970;    0,186;   -2,045
256,853;   32,965;   -0,269;    1,409
257,451;    5,022;    0,822;    1,864
258,048;  160,110;    1,822;    1,864
258,646;   59,581;    1,731;   -1,045
259,243;   93,238;   -0,087;    2,227
259,841;   47,214;   -0,814;    0,318
260,438;    3,196;   -0,087;    0,864
261,036;   34,477;   -1,905;    1,409
261,633;    6,766;   -0,087;    2,227
262,231;   -7,394;    2,731;   -0,045
262,828;  -10,673;   -0,905;    1,136
263,425;    0,508;    0,913;   -0,591
264,023;    8,015;    0,186;    0,045
264,620;   47,161;   -0,360;   -0,318
265,217;   87,057;   -2,087;    3,136
265,815;   15,461;   -1,905;    2,136
266,412;   36,385;    0,731;    0,136
267,009;   34,585;   -1,451;    0,773
267,606;   66,126;    0,822;   -0,955
268,203;   15,614;   -0,269;   -0,591
268,801;   18,116;    1,731;    0,591
269,398;   -2,972;   -0,360;    2,500
269,995;   37,055;    0,277;    1,591
270,592;   22,512;   -0,632;   -0,500
271,189;   -2,038;    0,186;    0,409
271,786;  -12,485;   -0,632;    1,227
272,383;   51,533;   -1,087;    0,227
272,980;   18,798;    0,277;    0,318
273,577;   -2,732;    0,004;    1,227
274,174;    3,041;    0,822;    2,591
274,771;   35,074;   -0,814;   -0,773
275,367;  173,831;    2,277;    1,409
275,964;   80,124;    0,731;   -0,500
276,561;   14,749;    1,549;   -1,045
277,158;  -15,934;    0,095;   -1,773
277,755;   66,790;    2,185;    0,409
278,351;   29,507;   -0,451;   -1,500
278,948;   42,510;   -0,815;    0,045
279,545;   37,745;   -1,360;    2,318
280,141;   77,728;   -1,723;   -2,045
280,738;   81,564;   -0,451;   -0,136
281,334;   18,210;   -1,633;    0,591
281,931;    5,152;   -0,087;   -1,318
282,528;   54,446;    0,822;   -0,500
283,124;   77,472;   -1,087;   -0,500
283,721;   60,586;   -0,451;    1,409
284,317;   22,547;    0,185;    2,500
284,913;   75,163;   -1,360;    0,591
285,510;  123,799;    0,640;   -0,318
286,106;   75,821;   -2,269;   -0,955
286,703;   32,265;   -0,360;    1,955
287,299;   16,578;   -1,451;   -0,591
287,895;   16,095;    0,822;   -1,045
288,491;    3,392;    0,186;    2,136
289,088;   31,937;   -2,360;    2,409
289,684;   36,256;   -1,723;    1,500
290,280;   99,690;    0,368;    0,682
290,876;   76,791;    1,822;    5,500
291,472;   61,909;    1,276;    2,227
292,068;   63,786;    1,367;    0,227
292,665;   23,850;    2,095;    0,773
293,261;   -5,346;    0,276;    2,136
293,857;   53,271;    2,913;    2,136
294,453;   21,519;    3,550;    0,955
295,049;   99,623;   -0,268;    1,955
295,644;   48,381;    0,095;    0,136
296,240;   10,018;   -0,905;   -0,136
296,836;   41,495;   -0,995;    0,318
297,432;   63,107;    1,096;   -0,500
298,028;   61,429;    0,732;    0,773
298,624;   32,078;    1,459;    1,864
299,220;   34,303;    2,368;    0,591
299,815;   23,050;    1,005;   -0,409
300,411;   58,805;    0,914;    1,773
301,007;   72,663;    1,368;    0,227
301,602;   27,981;   -0,541;   -2,318
302,198;   71,748;    0,732;   -0,773
302,794;   38,149;    1,187;   -0,500
303,389;    7,096;   -1,177;    1,045
303,985;   12,837;    0,550;    1,409
304,580;   72,166;    1,459;    1,591
305,176;   30,508;   -3,086;    0,136
305,771;  -20,989;   -1,268;   -1,227
306,367;  147,137;    4,095;    0,136
306,962;   54,071;    0,641;    1,500
307,558;   69,659;   -0,450;    0,136
308,153;   58,763;    1,095;   -1,136
308,748;    4,571;   -0,814;    1,682
309,344;  136,434;   -0,632;   -1,318
309,939;  121,616;   -1,905;   -1,318
310,534;   33,843;   -0,086;   -1,682
311,130;   18,512;    0,459;   -2,500
311,725;    9,099;    1,004;   -0,500
312,320;   22,648;    2,459;    0,045
312,915;   54,462;    1,459;   -1,045
313,510;  137,106;    1,550;   -0,500
314,105;   28,866;    1,096;    1,409
314,700;   -1,911;   -3,086;   -1,045
315,295;   21,530;   -0,904;    0,045
315,890;    3,379;    1,277;    0,864
316,485;   34,882;   -0,359;   -0,318
317,080;    3,400;   -3,086;    1,591
317,675;  124,085;    2,005;   -0,682
318,270;  230,751;    5,550;    3,318
318,865;  141,041;    3,278;    3,045
319,460;   82,592;   -0,904;    0,591
320,055;   22,811;   -0,541;   -1,227
320,650;   21,965;   -1,995;   -0,591
321,244;   22,178;   -0,177;   -1,409
321,839;   16,946;   -1,541;   -0,227
322,434;   30,194;   -1,086;   -1,591
323,029;   10,233;    1,732;    1,591
323,623;    5,026;    1,550;    0,773
324,218;   90,356;    2,368;    1,409
324,812;   50,768;    1,096;    1,591
325,407;   45,592;   -0,814;    2,045
326,002;  110,897;    0,277;   -0,409
326,596;   77,960;    0,914;    1,318
327,191;   16,711;    0,823;   -1,045
327,785;   28,687;   -0,813;   -0,227
328,379;   15,918;    1,368;    0,136
328,974;   20,397;    0,914;   -3,955
329,568;   43,956;    0,186;   -2,409
330,163;   80,677;    2,096;    1,045
330,757;   17,987;    2,459;    1,591
331,351;   -2,887;    0,459;    0,682
331,945;   -1,561;    0,914;    1,409
332,540;   42,186;   -1,723;   -0,591
333,134;   36,745;   -1,086;    0,773
333,728;   48,071;    0,005;    0,318
334,322;    5,614;   -1,177;   -0,864
334,916;    7,528;    0,277;    0,955
335,510;   69,991;   -0,450;   -0,136
336,105;   55,893;   -1,086;    1,591
336,699;   14,861;   -1,086;    0,591
337,293;   43,266;   -1,723;    0,318
337,887;   23,400;   -2,723;    1,955
338,481;   74,410;    0,459;    0,591
339,074;  144,091;   -0,359;    2,682
339,668;  127,972;   -1,632;    1,227
340,262;  450,752;    1,732;    3,227
340,856;  221,419;    1,822;   -0,682
341,450;   72,237;    1,004;    1,864
342,044;  113,084;    1,459;    0,136
342,637;  194,031;    0,913;   -2,136
343,231;  159,344;   -2,360;    0,682
343,825;  132,424;   -1,086;   -0,591
344,419;  134,334;   -1,995;    0,500
345,012;  531,607;    2,459;    4,045
345,606;  398,961;    4,641;    1,591
346,199;  182,031;   -1,813;   -0,227
346,793;  295,276;    1,914;    2,045
347,386;  150,943;   -0,813;   -1,136
347,980;   93,511;   -0,268;   -0,045
348,573;  188,585;    2,278;    0,409
349,167;  460,058;    5,278;    4,773
349,760;  346,684;    2,914;    2,682
350,354;  327,351;   -0,813;    1,136
350,947;  390,007;    1,096;    1,682
351,540;  276,430;   -0,358;   -1,409
352,134;  163,799;    1,096;    1,136
352,727;  198,599;   -0,086;    1,136
353,320;  227,100;    0,005;    0,591
353,913;  175,201;   -1,995;    1,864
354,507;  372,204;    0,823;   -1,227
355,100;  251,673;    0,460;    0,864
355,693;  663,685;    2,005;    2,409
356,286;  436,817;    0,823;    2,773
356,879;  283,103;   -0,722;    1,227
357,472;  280,166;   -0,904;    1,500
358,065;  324,149;   -0,722;    2,500
358,658;  179,303;   -0,540;    2,318
359,251;  155,813;   -1,631;   -0,591
359,844;  343,020;   -1,904;   -1,136
360,437;  409,977;   -2,995;    0,045
361,030;  239,607;    1,369;   -0,682
361,623;  244,014;    2,824;    0,318
362,215;  469,863;   -0,086;    2,045
362,808;  305,212;   -2,358;   -1,682
363,401;  233,493;   -2,449;    0,136
363,994;  438,445;   -0,631;   -1,500
364,586;  239,341;    0,824;   -1,500
365,179;  195,954;   -0,449;   -1,136
365,772;   70,828;   -1,995;    2,045
366,364;  207,712;    1,915;   -3,227
366,957;  248,428;    2,279;   -0,045
367,549;  196,481;    2,188;   -0,864
368,142;  206,555;    1,825;   -1,500
368,734;  160,820;    0,734;   -2,136
369,327;  101,789;    1,643;   -0,500
369,919;  130,707;   -1,538;    0,409
370,512;  152,482;   -1,083;   -0,500
371,104;  408,420;   -0,901;    1,591
371,696;  423,051;    1,191;   -0,955
372,289;  280,949;    0,373;    1,136
372,881;  229,269;   -2,080;    1,318
373,473;  130,627;   -2,170;    1,136
374,066;  215,132;   -0,169;    0,500
374,658;  182,584;    0,378;    1,136
375,250;  109,933;    0,653;   -1,409
375,842;  159,973;    0,473;   -0,045
376,434;  113,077;   -0,435;   -0,409
377,026;   92,832;    0,204;   -2,500
377,618;  135,599;   -0,158;   -0,682
378,210;   64,768;   -0,338;   -1,955
378,802;   53,803;    0,754;   -0,591
379,394;  452,761;    1,846;    0,682
379,986;  200,636;    1,393;   -0,955
380,578;  110,648;   -0,153;    0,773
381,170;  373,699;   -0,972;    0,045
381,762;  268,256;    0,755;    1,409
382,354;  223,611;   -0,065;   -1,318
382,945;  136,846;   -2,976;    0,318
383,537;   85,525;   -2,705;   -1,955
384,129;   75,503;   -2,160;   -1,136
384,721;  200,934;   -0,252;    0,955
385,312;  133,275;   -0,161;   -0,955
385,904;  225,867;   -2,706;    1,591
386,496;  142,463;   -0,979;    1,045
387,087;  277,351;    1,022;    2,500
387,679;  212,405;   -1,160;    0,045
388,270;  190,262;    2,840;    2,045
388,862;  155,915;    1,295;   -0,318
389,453;  136,909;   -0,887;    1,045
390,045;  142,157;   -0,705;   -2,682
390,636;   25,515;    0,204;   -0,591
391,227;  105,737;   -0,523;   -0,045
391,819;   78,348;    0,204;    0,773
392,410;  335,085;    1,022;    0,045
393,001;  135,956;   -0,979;   -1,591
393,593;  210,899;    1,930;   -0,045
394,184;  264,557;    1,385;   -0,409
394,775;  136,746;    1,839;    2,136
395,366;   43,716;    1,385;    0,773
395,957;  242,347;    0,113;    0,136
396,548;  120,982;   -0,342;    2,682
397,139;  246,047;   -2,433;    0,591
397,730;  150,636;   -1,888;    0,955
398,321;  167,306;   -1,252;    0,955
398,912;  116,826;   -0,615;    0,136
399,503;  100,159;   -3,524;   -1,409
400,094;  151,994;    0,294;    1,682
400,685;  141,582;   -0,433;    0,045
401,276;   87,813;    0,930;   -0,955
401,867;   62,299;   -0,888;    0,773
402,458;   16,642;   -2,251;   -2,318
403,048;  171,176;    1,112;    0,591
403,639;  119,083;    0,840;    0,864
404,230;  223,620;    2,476;    0,318
404,821;  282,704;   -0,615;    0,045
405,411;  179,595;    1,203;   -2,591
406,002;   81,892;   -1,252;   -1,136
406,592;  319,000;    2,294;    0,045
407,183;  174,809;    0,566;   -1,500
407,774;  156,649;    3,475;   -0,136
408,364;   98,419;    0,930;    0,409
408,954;  215,201;    0,384;    1,227
409,545;  209,345;    1,021;    1,045
410,135;  173,399;    1,293;    0,500
410,726;  117,638;    1,838;    0,318
411,316;  295,790;    0,111;    0,773
411,906;  138,884;   -0,253;   -0,409
412,497;  144,739;   -1,070;   -0,045
413,087;   80,843;   -1,980;   -0,227
413,677;    9,845;   -0,707;    3,864
414,267;    6,708;    0,656;    1,409
414,857;  -24,397;   -2,980;    4,227
415,448;  -21,493;    0,839;    0,500
416,038;   12,172;    0,020;   -0,591
416,628;   49,988;   -0,889;    0,409
417,218;  105,355;    0,565;    3,318
417,808;  247,249;    0,202;   -0,409
418,398;  121,438;    0,020;    2,682
418,988;    4,326;    2,020;    0,591
419,578;   94,533;   -0,707;    1,409
420,168;   24,485;   -1,343;   -0,955
420,757;  162,441;   -1,343;   -1,500
421,347;   65,577;    0,111;   -0,227
421,937;   33,926;    2,292;    1,409
422,527;  161,789;    0,838;   -0,773
423,116;  279,480;   -0,253;   -0,045
423,706;   28,773;   -1,889;    0,318
424,296;  -11,283;    1,384;    0,682
424,885;   96,445;   -0,071;   -3,045
425,475;   79,273;    1,474;   -2,864
426,065;  -17,577;   -0,980;   -0,318
426,654;  -35,883;   -0,435;   -0,318
427,244;  215,681;    0,020;    1,409
427,833;  181,895;    1,383;   -0,500
428,423;   57,376;   -0,526;    1,136
429,012;   61,084;   -0,344;   -1,136
429,601;  170,227;   -1,344;    0,136
430,191;   69,798;    1,292;    4,318
430,780;  -22,865;   -0,344;   -0,409
431,369;  151,301;    0,746;   -0,045
431,959;   52,237;   -1,254;    0,500
432,548;   -6,973;   -1,163;   -0,045
433,137;  -58,365;   -1,254;   -1,318
433,726;    6,429;    0,292;    0,500
434,315;   33,429;   -0,526;    2,409
434,905;  126,934;   -1,254;    1,409
435,494;  119,854;    0,746;    0,955
436,083;    3,499;   -0,981;   -0,955
436,672;   92,107;    0,110;    0,500
437,261;   47,333;    0,292;   -1,955
437,850;  258,666;    1,383;    0,682
438,439;  304,993;    3,291;    1,955
439,027;  396,216;    3,655;    1,773
439,616;  327,344;    2,927;    1,227
440,205;  113,835;    0,200;   -2,136
440,794;   66,439;    2,109;   -0,045
441,383;   18,067;   -1,346;   -0,591
441,971;  -16,409;   -2,436;    0,591
442,560;   -0,078;    0,563;   -1,773
443,149;  -79,633;    0,379;   -1,318
443,737;  -43,386;   -0,074;   -2,318
444,326;  -15,403;    0,018;    0,318
444,915;   28,891;   -1,982;    0,864
445,503;   28,902;   -2,891;   -0,318
446,092;  279,489;    0,382;    2,136
446,680;  211,135;    0,382;    0,318
447,269;  116,589;   -0,346;   -0,318
447,857;  106,330;    0,018;   -1,773
448,445;   58,595;    0,563;    1,318
449,034;   -2,185;   -1,528;   -1,136
449,622;    8,071;   -1,073;    3,500
450,210;  276,499;    2,017;    2,227
450,799;  187,012;    0,290;   -0,591
451,387;  160,533;    1,381;   -0,591
451,975;  142,180;    2,654;    0,864
452,563;  213,562;    3,472;    2,318
453,151;   57,872;   -0,528;   -1,227
453,739;   96,947;   -1,347;    0,136
454,328;  195,514;    2,381;   -2,136
454,916;  130,803;    2,562;   -0,136
455,504;  150,818;    1,017;    1,227
456,092;   46,616;    0,017;   -1,591
456,679;    3,357;    1,472;    0,682
457,267;  388,916;    4,017;    1,045
457,855;   92,590;    1,017;    1,409
458,443;  -37,104;   -0,165;    1,682
459,031;  111,068;    0,108;    2,409
459,619;   74,090;   -1,801;    2,864
460,206;  -15,134;    0,835;    2,045
460,794;   -6,992;   -2,983;   -0,227
461,382;   37,325;   -0,529;   -0,864
461,970;   25,276;    1,198;    1,864
462,557;  -41,755;   -0,711;   -0,682
463,145;   66,413;   -3,165;   -1,682
463,732;  307,216;    2,016;   -1,045
464,320;   90,001;   -0,075;   -3,045
464,907;  223,862;    2,743;   -0,773
465,495;  132,541;    0,743;   -1,227
466,082;   60,260;   -1,984;   -0,045
466,670;   86,827;   -2,529;    1,227
467,257;  -13,803;   -1,711;    2,045
467,844;   86,336;   -0,075;    0,045
468,432;   58,018;    0,834;    3,500
469,019;   21,684;    0,925;   -1,773
469,606;  103,122;    0,470;    3,682
470,193;  134,376;   -1,439;    0,227
470,780;   84,041;   -2,075;    0,864
471,368;   26,205;   -1,257;   -0,773
471,955;  132,272;    1,379;   -0,682
472,542;   88,022;    0,652;   -1,136
473,129;  -24,040;   -0,166;    0,136
473,716;  -11,305;    1,470;    0,591
474,303;   21,842;    0,652;   -0,864
474,890;   31,224;   -1,439;   -0,500
475,477;  120,881;   -1,621;    0,409
476,064;   29,372;    1,106;   -1,591
476,650;  145,828;    0,288;    0,318
477,237;   59,646;   -0,258;    0,955
477,824;   36,929;   -1,076;    0,864
478,411;  -39,364;   -1,894;   -0,318
478,997;  -50,950;    0,560;   -0,773
479,584;  -92,500;    1,196;   -0,409
480,171;   71,074;   -0,440;   -0,773
480,757;  122,807;    2,651;    0,773
481,344;   25,196;    0,469;    0,409
481,931;  -51,248;    1,105;    1,045
482,517;   66,439;   -1,258;    0,318
483,104;  135,476;    1,106;    2,864
483,690;   13,605;   -1,804;    0,045
484,276;   -1,938;   -0,895;    0,227
484,863;  191,653;    2,469;    1,136
485,449;   45,474;   -0,077;    0,318
486,035;    3,973;   -1,986;   -0,136
486,622;   95,523;   -0,895;    0,045
487,208;   17,253;    1,378;    1,500
487,794;  -63,873;    0,741;    0,318
488,380;  -63,377;    0,105;   -1,409
488,967;  -58,425;   -1,168;   -0,409
489,553;  -41,302;   -1,895;   -1,409
490,139;   37,730;    1,559;    0,773
490,725;  -30,903;    0,741;   -0,227
491,311;   15,433;    3,287;    3,045
491,897;   -2,984;   -0,986;    1,500
492,483;    5,446;    0,105;    1,227
493,069;  409,195;    3,923;    0,864
493,655;  138,886;    1,650;    0,682
494,241;   18,858;    1,377;   -0,955
494,826;   27,443;    0,287;   -1,045
495,412;   89,195;    2,559;   -0,682
495,998;    4,665;   -0,805;   -0,318
496,584;   61,371;    0,377;    1,045
497,169;   76,881;    1,014;   -0,682
497,755;   15,044;    0,650;    1,227
498,341;  139,990;    0,559;    0,318
498,926;  259,776;    1,832;    1,955
499,512;   12,415;    1,286;    2,955
500,097;   15,830;    0,195;   -0,318
500,683;   34,494;   -0,350;    2,136
501,268;  -10,243;   -0,169;   -0,955
501,854;   15,704;   -0,169;    1,227
502,439;    5,304;   -0,624;   -1,773
503,024;   19,539;    0,195;    0,500
503,610;   43,707;   -0,078;   -0,682
504,195;   -8,280;    0,558;    1,955
504,780;   72,868;    2,922;    1,227
505,366;  158,337;    3,013;    2,864
505,951;   99,932;    0,740;    1,045
506,536;   27,698;   -3,260;   -3,682
507,121;   67,024;    0,285;   -0,318
507,706;   24,244;    2,376;    1,045
508,291;  -20,449;    2,649;    1,136
508,876;  -22,207;   -0,988;    2,591
509,461;   16,252;   -0,169;   -0,773
510,046;   59,710;    0,194;    0,318
510,631;   63,281;   -0,351;   -0,773
511,216;   -3,171;    2,467;   -0,500
511,801;   52,075;   -0,442;    2,591
512,386;   59,571;    0,740;    0,500
512,971;   72,171;   -2,988;    0,955
513,555;   99,206;   -0,897;   -1,500
514,140;   65,108;   -0,442;   -3,136
514,725;  178,795;   -0,715;   -1,136
515,309;   96,992;   -0,533;    0,318
515,894;   19,985;   -0,624;   -2,227
516,479;   64,264;   -0,624;   -0,955
517,063;   74,785;    0,376;    1,227
517,648;   33,079;    1,012;   -1,136
518,232;   28,972;   -0,261;   -1,409
518,817;  142,821;   -0,079;    1,682
519,401;  293,447;    2,194;    0,591
519,985;  304,042;    1,103;    1,136
520,570;  186,569;    0,830;   -1,955
521,154;  380,572;    2,102;    0,591
521,738;  678,445;   -2,352;    2,409
522,323;  537,223;   -0,170;    1,682
522,907;  606,018;    0,466;   -0,136
523,491;  581,602;    0,557;    0,955
524,075;  624,452;    2,284;    0,591
524,659; 1018,229;    1,466;    0,591
525,243; 1045,819;    1,739;    0,409
525,827; 1125,955;    0,648;   -0,045
526,411; 1400,501;   -1,989;   -0,136
526,995; 1832,029;   -0,352;    1,409
527,579; 2014,198;   -0,443;   -1,045
528,163; 2246,579;    0,375;   -1,500
528,747; 2694,757;    2,466;   -0,773
529,331; 3022,051;   -0,080;   -1,409
529,915; 3210,477;    1,738;    0,955
530,499; 3561,271;   -0,807;    1,227
531,082; 3814,688;   -0,534;    1,591
531,666; 3923,420;    1,374;    0,773
532,250; 4488,971;    1,284;    2,682
532,833; 4995,120;    0,920;    2,773
533,417; 5167,745;   -1,807;    0,864
534,001; 5415,255;    1,647;   -0,318
534,584; 6176,275;    0,374;    0,500
535,168; 6295,946;    0,465;    1,409
535,751; 6706,063;    0,647;    0,045
536,334; 6490,633;   -0,898;   -0,409
536,918; 7195,165;    0,011;    1,591
537,501; 7447,737;   -0,899;    1,318
538,085; 7713,160;   -0,444;    1,045
538,668; 7975,555;    0,829;    2,409
539,251; 8485,495;    1,829;    3,773
539,834; 8717,929;    0,101;    0,773
540,418; 8893,190;   -1,990;    4,318
541,001; 9121,851;   -0,990;    1,773
541,584; 9234,457;    2,101;    2,227
542,167; 9115,599;    1,374;    2,955
542,750; 9335,557;    1,919;   -0,773
543,333; 9091,135;    0,555;    2,136
543,916; 9871,636;    0,192;    2,500
544,499;10407,709;   -1,354;    0,227
545,082;10534,541;    1,374;    3,591
545,665;10745,524;    1,919;    1,500
546,248;11084,226;    1,010;   -0,318
546,830;10889,744;   -0,445;    1,955
547,413;11316,407;    1,010;   -0,773
547,996;11865,609;    0,555;    0,500
548,579;11697,923;    0,919;    0,955
549,161;11582,028;    1,828;    2,682
549,744;11455,251;   -0,809;    0,409
550,326;11932,307;   -0,809;   -1,136
550,909;11856,128;    2,737;    0,591
551,492;12240,048;   -0,263;    0,227
552,074;12137,830;   -0,173;   -1,318
552,657;12707,334;    2,373;    0,045
553,239;12497,519;   -0,173;   -0,773
553,821;12424,869;   -1,082;    1,045
554,404;12026,781;    1,282;    1,136
554,986;12436,935;    0,464;    1,045
555,568;12976,665;    1,191;   -0,955
556,151;12346,697;    1,191;   -0,227
556,733;12497,295;   -0,264;   -0,864
557,315;12949,643;    0,100;    0,500
557,897;12740,871;    0,554;   -0,500
558,479;12867,315;   -1,991;    1,318
559,061;13085,970;   -0,719;   -0,864
559,643;13405,646;   -0,264;    0,045
560,225;13657,134;    1,645;    2,864
560,807;13706,282;    0,918;    0,318
561,389;13302,153;    0,554;    2,318
561,971;13913,214;    0,463;    2,136
562,553;13787,796;   -1,628;    1,591
563,135;13913,782;   -0,537;    1,136
563,717;13618,502;    3,372;    1,136
564,298;14229,715;    3,645;   -0,045
564,880;13961,573;    0,645;   -1,409
565,462;14060,300;    0,645;    1,318
566,043;15113,994;   -0,446;    2,318
566,625;14732,830;    1,918;    1,227
567,207;14572,605;    1,099;    1,682
567,788;15477,245;   -1,264;    1,500
568,370;16173,873;    1,917;   -0,500
568,951;15991,734;    0,190;    0,227
569,533;16764,082;   -0,628;   -0,500
570,114;17140,043;   -0,446;    0,682
570,695;17536,177;   -0,174;   -1,318
571,277;17873,148;   -0,265;   -1,682
571,858;18543,985;    2,008;   -1,136
572,439;19221,370;    1,554;   -1,045
573,021;19333,283;    2,099;   -2,773
573,602;19770,511;   -1,265;    0,318
574,183;20542,532;   -2,083;    2,227
574,764;20535,651;   -1,629;    0,409
575,345;20998,640;    0,917;   -0,136
575,926;21499,623;   -0,356;    0,136
576,507;21437,347;    1,099;   -0,227
577,088;22468,050;    3,099;    1,682
577,669;22473,510;    0,735;    1,955
578,250;23242,441;    0,644;   -1,045
578,831;23686,093;   -1,356;   -2,227
579,412;23798,178;   -0,810;    0,955
579,993;24583,192;    1,008;    0,227
580,573;24856,653;   -0,629;   -0,955
581,154;23986,063;    0,735;   -0,591
581,735;24749,322;    0,644;    0,773
582,315;24322,958;   -0,629;    2,136
582,896;24531,287;   -0,174;    1,227
583,477;23968,594;    0,189;    1,227
584,057;24241,804;    0,553;    0,955
584,638;24551,101;    2,553;    2,318
585,218;24522,566;   -0,538;    2,682
585,799;24679,367;    0,281;   -0,227
586,379;24698,959;    0,372;    1,591
586,959;23595,853;    0,735;    0,318
587,540;23054,254;   -0,629;    2,227
588,120;22734,606;    1,007;   -0,045
588,700;21945,852;    2,553;    2,136
589,281;22327,877;    0,462;   -0,955
589,861;22262,797;    0,099;   -1,682
590,441;22054,206;    2,371;   -2,682
591,021;21178,846;   -0,265;   -2,591
591,601;21469,197;   -0,537;    0,500
592,181;21549,837;   -0,719;   -0,773
592,761;20873,092;    0,007;    1,409
593,341;20874,301;   -0,901;    0,045
593,921;20878,480;   -0,265;    1,591
594,501;20834,878;   -0,538;    1,318
595,081;20677,994;    0,917;   -0,318
595,661;21084,049;   -1,447;    0,955
596,240;21532,403;   -0,537;    0,136
596,820;21206,943;    0,372;    1,955
597,400;21290,490;    2,008;    0,773
597,980;21471,659;    2,008;    1,045
598,559;21479,724;    2,735;   -0,227
599,139;21269,619;   -0,174;   -1,227
599,718;21128,619;   -0,174;   -0,409
600,298;21430,385;    0,735;    0,682
600,877;21749,515;    2,917;    1,409
601,457;21918,782;    2,281;    1,136
602,036;21813,214;    0,190;    2,045
602,616;21997,858;    0,644;    1,682
603,195;22326,709;   -0,355;    3,500
603,774;21894,488;   -0,901;    2,045
604,354;21727,338;    0,826;   -0,500
604,933;21386,340;    0,463;    1,864
605,512;21491,261;    3,554;    0,591
606,091;21490,807;   -0,537;    3,773
606,671;22279,376;    0,281;    0,773
607,250;21538,614;    1,644;    3,136
607,829;21766,835;    2,372;    3,227
608,408;21588,181;    1,190;    2,591
608,987;20723,270;    1,281;    3,409
609,566;21000,214;   -1,265;   -2,500
610,145;21190,357;   -1,082;    0,682
610,723;21527,766;    4,372;    6,864
611,302;20847,973;   -0,446;    1,682
611,881;20452,651;    5,008;   11,227
612,460;21194,938;    1,645;    3,955
613,039;21570,222;   -0,082;    2,045
613,617;20407,244;    1,736;    4,773
614,196;20540,689;    1,099;    1,227
614,775;20928,687;    1,009;    2,409
615,353;20923,128;    0,736;    0,864
615,932;20718,688;    0,100;    2,409
616,510;21211,705;    0,554;    0,591
617,089;20823,883;    7,100;   17,591
617,667;20625,761;    2,372;    6,136
618,246;20479,178;   -1,537;    1,318
618,824;20628,810;   -3,355;   -0,955
619,402;20224,065;   -2,900;   -1,773
619,981;20696,112;   -0,173;   -1,045
620,559;20547,154;    0,009;    1,682
621,137;20118,842;   -0,718;    1,864
621,715;20114,888;   -1,173;   -0,682
622,293;20110,017;   -0,537;   -0,773
622,871;20526,916;   -0,718;    0,500
623,450;20189,955;    0,373;   -0,864
624,028;20111,650;    0,191;   -0,955
624,606;19759,959;   -1,718;    1,682
625,183;20087,361;   -1,536;   -1,136
625,761;19781,015;    1,009;    1,136
626,339;20129,937;    1,373;    2,591
626,917;20414,202;   -0,172;   -0,045
627,495;20471,628;   -0,354;    1,318
628,073;19932,370;   -0,263;    2,864
628,650;19637,561;    0,100;    2,136
629,228;20072,414;    0,373;    4,409
629,806;19543,799;    2,282;    1,136
630,383;19739,891;    1,464;   -0,318
630,961;19675,914;    2,555;   -0,955
631,539;19385,810;    2,464;    0,227
632,116;18900,551;   11,373;   15,409
632,694;19393,947;    2,555;    6,500
633,271;19618,987;    0,828;    2,682
633,848;19594,196;    1,828;    2,045
634,426;19584,319;   -1,081;    1,773
635,003;18786,471;    1,101;   -0,409
635,580;19112,996;    1,192;    3,682
636,158;19608,753;    3,737;    1,227
636,735;19589,102;    0,555;   -0,500
637,312;19703,811;   -0,809;   -0,682
637,889;19792,655;   -4,354;   -0,682
638,466;19322,556;   -3,990;   -0,409
639,043;19295,543;    2,101;   -1,136
639,620;19620,991;   -2,262;   -0,955
640,197;19905,378;    1,100;    1,682
640,774;20012,925;   -0,172;    1,136
641,351;20354,017;    0,737;    1,136
641,928;19916,382;   -0,627;    1,409
642,505;19591,929;    0,828;   -0,500
643,082;19701,840;   -1,718;    1,227
643,658;18848,659;   -0,718;    1,500
644,235;19474,843;    1,191;    2,500
644,812;19759,571;    1,918;    0,773
645,388;19502,209;   -0,991;    1,409
645,965;19546,847;   -0,809;    1,682
646,542;19688,758;   -1,445;   -0,227
647,118;19712,941;    1,009;   -0,955
647,695;19912,033;   -0,263;    1,136
648,271;19858,035;   -0,536;    0,500
648,848;20105,854;    0,736;    2,227
649,424;19976,856;    0,827;    1,318
650,000;19729,857;   -0,354;   -1,045
650,577;19553,859;   -0,627;   -0,955
651,153;19951,315;   -1,809;    0,955
651,729;20846,589;    1,191;    0,864
652,305;21367,045;    0,645;    2,773
652,881;25606,137;   -0,082;    1,136
653,458;30942,775;    1,100;    0,227
654,034;33389,231;    0,282;    1,591
654,610;34256,869;    0,554;    0,773
655,186;35377,052;    0,645;    3,045
655,762;35038,781;   -0,991;    0,409
656,338;35106,146;    0,100;    0,136
656,913;36006,420;   -0,082;    0,409
657,489;35267,330;    0,827;   -0,318
658,065;35349,059;   -0,173;   -1,591
658,641;36030,061;   -0,900;   -0,864
659,217;35386,153;   -0,991;    0,409
659,792;34853,154;    0,645;   -0,409
660,368;35134,883;   -2,173;   -0,682
660,944;34644,885;   -2,082;    1,227
661,519;30123,886;   -0,628;    0,409
662,095;25391,433;   -1,719;    0,591
662,670;22131,980;    1,281;   -0,136
663,246;21536,890;    1,009;   -0,409
663,821;21120,164;    0,281;    1,682
664,396;20623,984;    0,009;    1,864
664,972;20827,531;    0,009;   -0,500
665,547;21151,896;    1,372;    0,136
666,122;21209,443;   -1,082;    0,318
666,698;21481,263;   -0,173;    0,318
667,273;20834,537;   -0,173;    0,136
667,848;21607,902;    2,372;    1,500
668,423;21417,540;    2,190;    2,318
668,998;21818,541;    2,827;   -0,682
669,573;22301,088;   -3,264;   -1,500
670,148;22157,999;   -1,446;   -0,682
670,723;21904,182;   -1,810;    0,318
671,298;22329,638;    2,372;    1,045
671,873;22378,730;   -0,082;   -0,136
672,448;22328,095;    0,645;    0,136
673,023;22651,642;   -1,992;   -0,227
673,597;22965,371;    0,827;    2,318
674,172;22794,736;   -0,355;    0,318
674,747;22283,374;    0,372;   -1,045
675,321;22031,102;   -0,628;    3,318
675,896;21700,104;    0,645;    1,045
676,471;22590,651;    2,645;    1,591
677,045;22373,107;   -1,264;    0,682
677,620;22403,108;    0,190;    1,136
678,194;22679,655;   -2,628;    1,136
678,769;22357,020;   -1,083;   -0,318
679,343;22632,022;   -0,628;    1,773
679,917;22459,114;   -1,446;    1,955
680,492;22481,934;    0,826;    3,227
681,066;22602,208;    3,372;    0,409
681,640;22691,936;    1,463;   -0,318
682,214;23414,938;    0,735;    0,500
682,788;22993,757;   -1,356;   -0,773
683,363;22876,304;   -1,810;    1,682
683,937;22637,488;   -1,719;   -0,318
684,511;23257,489;    0,463;   -0,591
685,085;23033,127;   -1,356;    0,318
685,659;22771,128;   -2,538;    0,864
686,232;23055,221;   -0,356;   -0,318
686,806;22768,222;   -0,901;    0,409
687,380;23341,587;   -0,174;    0,591
687,954;23559,589;   -1,174;    1,136
688,528;23252,772;   -0,719;    1,955
689,101;23982,410;   -3,992;    1,045
689,675;23567,593;   -0,356;   -0,136
690,249;23004,503;   -0,719;    0,409
690,822;23305,232;    0,280;    0,318
691,396;23454,325;   -0,265;    1,227
691,969;22948,962;    1,280;    0,136
692,543;23402,055;   -0,447;   -1,955
693,116;23011,420;   -0,265;   -1,409
693,690;22924,058;    0,099;    0,500
694,263;23412,059;   -1,083;    2,955
694,836;23447,515;    1,371;    3,591
695,410;22243,426;   -0,265;    1,773
695,983;22624,791;    0,189;    0,591
696,556;22646,247;   -0,447;   -1,045
697,129;22967,248;   -0,356;    1,409
697,703;22715,340;   -1,629;    1,955
698,276;22664,069;    1,462;   -0,773
698,849;22531,343;    1,280;    1,409
699,422;22853,981;   -1,083;    0,591
699,995;22591,892;    0,007;    0,136
700,568;23059,620;   -0,629;    3,045
701,140;23001,713;   -2,811;    1,682
701,713;22833,078;   -0,174;    2,409
702,286;22623,534;   -0,538;    0,864
702,859;22503,172;   -0,902;   -0,591
703,432;21777,628;    0,825;    0,682
704,004;22160,629;    0,462;    0,318
704,577;22000,903;   -0,629;    0,136
705,150;22538,814;    0,189;    2,500
705,722;22420,361;   -0,356;   -3,227
706,295;22229,271;   -0,175;   -0,591
706,867;22087,454;   -0,175;    1,955
707,440;22296,729;   -1,720;   -0,409
708,012;22564,912;    0,462;    0,591
708,584;22468,731;    2,462;    0,227
709,157;22676,642;    1,825;   -0,591
709,729;22403,280;    2,280;    2,045
710,301;23181,281;    0,734;    0,045
710,874;23198,101;   -1,447;   -0,227
711,446;22078,102;    0,371;    0,864
712,018;22029,195;    0,098;    0,500
712,590;21765,287;   -1,993;    1,682
713,162;22299,016;    0,825;    1,318
713,734;22490,926;    1,825;   -2,045
714,306;22392,109;   -1,902;   -0,409
714,878;21177,384;    0,825;    0,864
715,450;21992,112;    0,643;    0,864
716,022;22257,477;    1,552;    1,318
716,593;22393,933;    0,189;    0,591
717,165;22327,389;   -3,175;   -1,227
717,737;22093,936;    0,280;    0,409
718,309;21797,210;    0,280;   -0,045
718,880;21731,121;   -0,539;   -1,409
719,452;21955,032;   -0,175;   -1,591
720,024;21574,942;    0,734;   -0,591
720,595;22089,762;   -2,902;    0,955
721,167;21771,763;    0,370;   -2,045
721,738;21335,401;   -0,812;   -1,045
722,309;21389,948;   -0,993;   -1,227
722,881;21130,222;   -1,357;    0,773
723,452;21634,678;   -2,630;    2,864
724,023;21847,407;   -0,721;    2,682
724,595;21628,681;    0,007;    0,682
725,166;21360,319;    0,007;   -0,409
725,737;21109,411;    1,734;    0,227
726,308;21143,867;   -0,266;    0,318
726,879;21532,141;   -1,630;    1,227
727,450;21411,143;    0,552;   -0,045
728,021;21406,508;    3,097;    0,682
728,592;21186,964;    0,734;    0,500
729,163;21558,329;    0,643;   -0,136
729,734;21588,330;    0,188;   -0,227
730,305;21891,877;    1,734;    0,136
730,876;22189,879;    0,188;    2,955
731,447;21987,789;    2,188;    2,682
732,017;22089,063;    1,097;    1,864
732,588;21620,792;    0,734;    1,227
733,159;21794,248;    0,643;   -1,045
733,729;21527,431;    0,006;    0,409
734,300;20896,796;    0,915;    0,864
734,870;21305,707;    3,461;    0,591
735,441;21811,436;    0,370;   -0,591
736,011;21641,710;    0,643;   -1,591
736,582;21594,257;   -0,812;    0,045
737,152;21046,167;   -1,721;   -2,045
737,722;21483,260;   -0,267;   -0,682
738,293;21202,806;   -1,358;    1,318
738,863;21153,081;    2,461;    2,318
739,433;21077,537;    5,279;    0,318
740,003;21571,993;   -0,994;   -0,682
740,573;21030,358;    2,097;   -1,591
741,143;20991,450;   -1,085;    0,318
741,713;21667,815;    1,188;   -0,500
742,283;21417,180;    0,915;    1,591
742,853;21221,363;    1,915;    1,591
743,423;20718,001;    1,733;    0,045
743,993;20837,184;   -0,358;    1,500
744,563;20300,277;    0,097;   -0,864
745,133;20247,006;   -0,812;   -0,864
745,702;20860,552;   -0,267;    1,773
746,272;20169,281;   -0,176;    0,591
746,842;19999,828;   -1,358;   -0,591
747,411;20404,102;   -0,267;   -0,318
747,981;20512,558;    0,097;    0,500
748,551;20509,651;    2,278;   -1,045
749,120;20415,834;    0,642;   -0,227
749,690;20796,926;   -0,631;    2,409
750,259;21052,928;    1,369;    2,955
750,828;20991,838;    1,551;   -1,955
751,398;21234,294;    1,278;   -0,045
751,967;20863,296;    2,187;    0,409
752,536;20994,115;   -0,813;   -0,227
753,105;21384,844;    0,096;    0,227
753,675;21128,573;    0,096;    1,773
754,244;21017,029;   -0,904;    3,591
754,813;21124,121;    0,551;    1,227
755,382;20685,213;    0,460;    0,955
755,951;21228,215;    1,551;    3,682
756,520;20839,307;   -0,085;    1,864
757,089;21345,945;    0,278;    0,500
757,658;21454,855;    1,733;    1,227
758,227;21446,402;    1,096;    0,318
758,795;21684,495;    1,187;    1,136
759,364;21940,951;   -0,086;   -0,591
759,933;21040,316;   -1,176;   -0,045
760,501;20566,499;    0,733;   -1,318
761,070;21005,682;   -2,813;   -1,409
761,639;21671,411;   -1,904;    1,318
762,207;21109,231;    1,551;   -0,955
762,776;21047,596;    0,369;    0,864
763,344;20989,143;   -0,995;    0,591
763,913;20019,417;   -0,722;    1,409
764,481;20802,873;    1,005;   -0,136
765,049;20635,329;   -1,358;    1,409
765,618;20554,966;   -0,086;    0,318
766,186;20622,241;    0,278;    0,136
766,754;20787,878;    0,005;    1,864
767,322;19921,698;   -1,995;    0,409
767,890;19950,518;   -0,722;   -1,773
768,459;20370,156;   -2,177;   -0,318
769,027;20507,339;    1,641;    3,409
769,595;19531,977;    3,278;    2,591
770,163;19930,523;    3,823;    2,955
770,730;19745,252;    0,732;   -0,136
771,298;19577,072;    0,187;   -1,409
771,866;19660,528;   -1,541;    4,955
772,434;19988,257;   -0,631;   -1,864
773,002;20189,349;    0,005;    0,682
773,569;19865,987;    0,914;    1,682
774,137;19655,715;   -0,268;   -0,045
774,705;20383,808;    0,278;   -0,136
775,272;19989,536;    0,641;    0,682
775,840;19792,356;   -0,177;    2,682
776,407;19337,812;    0,277;    1,955
776,975;18988,541;   -0,632;    0,318
777,542;19882,360;   -1,086;   -0,045
778,110;19717,907;   -1,268;   -0,045
778,677;19394,181;   -2,359;   -0,864
779,244;19231,092;    2,186;    1,045
779,812;19365,003;    1,823;    0,864
780,379;19250,640;    0,005;    1,136
780,946;19463,551;    1,005;   -0,773
781,513;19705,916;   -1,450;    0,318
782,080;19169,008;   -0,086;    2,864
782,647;19811,010;   -0,268;    3,045
783,214;19437,557;   -0,177;    3,864
783,781;19119,831;   -0,723;   -0,682
784,348;19044,560;   -0,632;    1,500
784,915;19465,925;   -3,177;    0,318
785,482;19202,017;    1,368;    2,591
786,049;19607,291;    0,186;   -0,591
786,615;19709,929;    0,277;   -0,955
787,182;19450,112;    0,186;   -0,682
787,749;19167,477;   -2,814;    1,409
788,315;18616,206;   -1,632;   -0,409
788,882;18875,935;    1,550;   -1,227
789,448;19533,482;    1,732;   -0,955
790,015;19518,938;    1,095;    3,227
790,581;19132,848;    1,459;    0,227
791,148;19039,304;    0,641;    1,045
791,714;19213,851;   -0,541;    3,136
792,280;18922,852;    0,186;    1,591
792,847;18576,218;    0,550;    2,500
793,413;19029,219;   -0,269;   -0,318
793,979;18708,220;    3,459;   -1,318
794,545;18794,767;    4,459;    2,682
795,111;18310,860;    2,186;    1,318
795,678;18430,588;    0,731;   -1,682
796,244;18107,226;    3,368;    0,136
796,810;18570,773;    1,731;    0,773
797,375;18328,956;    0,549;   -2,136
797,941;18354,685;   -0,541;    0,591
798,507;18499,868;   -0,451;   -0,955
799,073;18056,415;   -0,360;    0,591
799,639;18115,053;   -2,632;    3,136
800,205;18144,054;    0,095;    2,682
800,770;17747,874;    0,640;    1,773
801,336;17829,875;    1,368;   -0,955
801,901;17651,604;    4,549;    3,136
802,467;18155,697;   -0,542;    2,045
803,033;17489,698;   -0,087;    0,864
803,598;17675,154;    1,913;   -1,045
804,163;17724,974;    1,095;   -0,318
804,729;17739,430;   -0,178;    1,136
805,294;18056,522;    0,822;    2,227
805,859;17867,614;    0,731;   -0,409
806,425;17449,343;    1,186;    2,682
806,990;17080,708;    2,186;    4,318
807,555;17484,073;   -1,451;    2,591
808,120;17409,984;    0,822;   -0,409
808,685;17457,167;    0,185;   -2,500
809,250;17017,896;    0,004;   -0,500
809,815;17288,897;    1,913;    0,682
810,380;17775,535;   -0,269;    1,591
810,945;18285,718;   -1,087;    2,045
811,510;17539,629;    2,094;    1,591
812,075;17285,267;   -0,633;   -1,409
812,640;17342,359;    2,003;    1,409
813,204;17388,269;    0,822;   -0,227
813,769;17803,089;    2,094;   -0,045
814,334;17325,454;    0,458;    0,864
814,898;17412,001;    0,367;    0,591
815,463;17201,002;    1,276;   -0,773
816,027;17201,095;   -0,724;   -2,318
816,592;17323,733;    0,640;   -2,045
817,156;16900,370;    2,094;    1,136
817,721;16843,463;    4,276;    2,318
818,285;16795,464;    2,912;    1,500
818,849;17349,738;   -1,451;    1,682
819,414;17197,740;   -0,269;    2,955
819,978;16817,559;   -1,269;    1,773
820,542;17373,379;    2,003;    0,500
821,106;17150,017;   -0,815;    0,682
821,670;17208,291;   -0,815;    2,591
822,234;16953,202;   -0,270;    1,409
822,798;16440,930;    0,003;    0,500
823,362;16429,568;   -0,633;    4,227
823,926;15854,115;    0,094;    1,136
824,490;16048,662;   -0,997;   -0,682
825,054;16477,118;   -0,088;   -1,136
825,618;16212,392;   -1,542;   -1,500
826,181;16171,575;    0,458;   -1,318
826,745;16033,668;    1,367;   -1,045
827,309;16361,215;    1,185;    1,318
827,872;15807,489;    1,367;    0,955
828,436;16696,854;    1,185;   -0,773
828,999;16785,401;   -0,997;    1,227
829,563;15759,584;   -0,179;    1,136
830,126;15592,676;   -0,179;   -0,591
830,690;15647,769;   -1,997;    2,864
831,253;15178,406;   -0,543;    2,227
831,816;15324,317;   -1,906;    0,500
832,380;15268,409;    0,185;    0,864
832,943;15538,593;   -1,361;   -0,500
833,506;15024,230;    2,639;   -1,227
834,069;15771,232;    3,912;   -0,955
834,632;15807,506;    1,730;    1,318
835,195;15714,053;    1,003;    0,955
835,758;15016,782;   -0,997;    1,955
836,321;14885,874;    0,730;   -1,045
836,884;14982,330;   -0,725;   -0,955
837,447;14987,604;   -2,816;    1,773
838,010;15249,151;    0,366;    3,227
838,573;15531,425;   -1,179;    0,773
839,135;15521,245;   -1,361;   -0,955
839,698;15054,883;    1,275;    0,409
840,261;14581,066;    1,003;   -0,227
840,823;14446,976;   -0,543;    0,864
841,386;14715,887;   -0,452;   -2,409
841,948;14662,888;   -1,361;    1,773
842,511;14391,617;    0,912;    1,682
843,073;14495,255;    1,912;    0,227
843,636;14255,893;   -0,361;   -0,227
844,198;14257,258;    0,911;    0,591
844,760;14395,623;    1,093;    1,955
845,322;14065,806;    0,548;    1,136
845,885;14460,626;    0,730;    0,591
846,447;14839,264;   -1,998;    0,227
847,009;14533,447;    1,911;   -0,682
847,571;14758,721;    0,820;   -2,045
848,133;14873,995;   -1,089;   -1,864
848,695;14694,633;   -0,543;    1,409
849,257;14323,543;   -1,089;   -1,682
849,819;14494,181;   -0,998;   -0,409
850,381;14513,455;   -0,725;   -0,864
850,942;14813,184;    1,093;   -0,591
851,504;14762,367;    1,184;    0,227
852,066;14788,732;    1,275;   -1,591
852,628;14437,007;   -0,180;    1,955
853,189;13960,372;    1,638;    2,682
853,751;14085,555;   -0,907;    1,409
854,312;13902,284;   -0,453;   -1,682
854,874;14418,285;   -2,089;   -0,773
855,435;14869,105;   -0,907;   -1,682
855,997;15040,561;   -1,816;   -0,136
856,558;14383,289;    0,366;    1,773
857,119;14456,109;    0,820;    2,864
857,681;14167,201;    0,002;    0,318
858,242;14232,839;    1,911;   -2,136
858,803;14624,204;    0,456;   -0,773
859,364;15146,115;    0,184;   -4,773
859,925;14580,753;   -2,453;   -0,955
860,486;14442,663;   -0,453;   -0,955
861,047;14165,937;   -0,544;   -1,227
861,608;13993,212;   -1,089;   -0,773
862,169;14152,395;    0,638;   -0,045
862,730;13917,033;    0,456;    1,409
863,291;14189,670;   -0,635;   -0,500
863,852;14510,854;   -0,635;    1,955
864,412;14002,673;   -0,271;   -0,864
864,973;12763,129;   -0,089;    0,500
865,534;12687,131;   -1,726;    0,227
866,094;13985,223;    1,820;    0,227
866,655;13682,952;    1,274;    3,318
867,215;13922,953;    0,274;    0,136
867,776;13771,955;    0,547;   -0,136
868,336;13884,774;   -1,453;    0,136
868,897;13516,412;    2,638;    1,682
869,457;13245,414;    1,365;    0,318
870,017;13464,870;    0,547;   -1,227
870,578;13923,780;   -0,817;    0,773
871,138;13572,327;   -2,089;   -0,955
871,698;13180,692;   -0,817;   -1,318
872,258;13087,784;   -0,453;   -2,864
872,818;13463,240;    2,729;    0,045
873,378;13430,151;    0,638;    1,045
873,938;12987,152;    0,547;    0,500
874,498;13318,608;    0,274;   -1,955
875,058;13228,428;    2,183;    1,773
875,618;13103,157;    1,910;   -2,682
876,177;13028,249;    1,274;    0,136
876,737;12687,523;   -0,090;    1,955
877,297;12800,343;    0,183;    1,955
877,856;12789,617;   -0,362;    0,318
878,416;12683,618;    1,183;   -0,136
878,976;12868,802;   -1,817;    0,409
879,535;13069,258;    0,092;    3,136
880,095;12878,350;   -0,544;    0,045
880,654;12957,442;   -1,090;    1,318
881,213;13101,262;    2,456;    1,500
881,773;12790,900;    2,637;    2,682
882,332;13155,719;    3,365;    5,136
882,891;12987,812;    3,092;    2,136
883,451;13381,540;   -1,272;    1,682
884,010;12832,451;   -2,908;   -0,409
884,569;12944,725;   -0,999;   -0,045
885,128;13075,818;    2,819;   -1,864
885,687;13150,546;    4,455;    0,682
886,246;12936,184;    1,455;    2,136
886,805;12623,458;    2,455;    2,045
887,364;12862,732;   -0,999;   -0,500
887,922;13186,279;   -1,181;    0,045
888,481;12726,190;   -1,545;    0,591
889,040;13054,737;    1,183;    2,136
889,599;13615,738;    2,455;    1,409
890,157;13657,285;    1,455;    2,409
890,716;13256,650;   -0,090;    0,227
891,274;13092,015;    0,092;   -1,136
891,833;13533,017;    1,546;    0,864
892,391;13396,382;   -0,454;    0,500
892,950;13480,565;    1,819;   -0,773
893,508;13796,476;    0,455;   -0,409
894,067;13154,568;    0,637;    0,136
894,625;13089,569;   -0,636;   -1,500
895,183;13289,753;   -0,363;   -0,682
895,741;13252,390;    1,728;   -1,773
896,299;13097,937;   -0,545;   -2,409
896,858;13200,848;    0,819;   -1,591
897,416;13360,577;    2,728;   -1,318
897,974;13128,851;    1,819;    0,318
898,532;13346,761;    6,091;    2,682
899,089;13221,308;    2,091;   -0,682
899,647;13240,219;   -1,454;    1,318
900,205;13059,584;    1,182;    1,045
900,763;13185,040;   -0,454;    0,227
901,321;13211,587;    2,364;   -1,409
901,878;12653,497;   -1,000;   -0,773
902,436;12605,317;   -1,363;    1,318
902,994;13054,773;    4,728;    3,682
903,551;12543,411;    0,728;    0,409
904,109;12870,594;    0,182;   -1,409
904,666;12502,413;    2,455;    1,045
905,224;12384,324;    0,182;   -0,409
905,781;12199,689;    0,727;   -0,318
906,338;12255,781;   -1,363;    1,045
906,895;12145,874;    0,637;    2,045
907,453;12106,784;    1,727;    1,136
908,010;12137,604;   -0,909;    0,409
908,567;11853,151;    1,273;    0,591
909,124;11363,516;    0,364;   -1,500
909,681;11432,972;   -2,909;    0,682
910,238;11633,701;    0,636;   -1,318
910,795;11949,520;   -0,273;   -1,136
911,352;11612,975;   -2,909;   -2,682
911,909;11113,520;   -1,364;   -0,864
912,466;11549,066;   -3,182;    1,500
913,022;11117,338;   -1,636;    0,500
913,579;11475,429;   -0,909;    2,045
914,136;11217,429;    1,636;    0,955
914,692;11539,611;    0,091;   -1,227
915,249;11165,975;    1,455;    0,409
915,806;11384,157;    0,182;    1,955
916,362;11239,066;    1,909;    1,864
916,918;10778,611;    2,000;    1,045
917,475;10789,884;   -1,182;    0,955
918,031;10829,338;    3,364;   -0,045
918,587;10384,157;   -0,909;   -0,318
919,144;10628,338;   -2,273;    0,227
919,700;10876,611;    1,727;    0,773
920,256;10471,702;    0,727;    0,045
920,812;10179,520;   -0,727;   -1,045
921,368;10224,429;   -1,727;   -1,045
921,924; 9931,157;    0,182;   -0,136
922,480; 9568,702;   -0,545;    1,227
923,036;10129,338;    1,273;    1,955
923,592;10063,611;    0,455;    0,318
924,148;10018,702;    0,455;   -0,955
924,704; 9450,157;   -1,364;   -0,409
925,259; 9682,520;   -0,273;    0,591
925,815; 9467,884;    1,455;    0,500
926,371; 9040,884;    2,909;    1,409
926,926; 8974,611;    2,091;    0,591
927,482; 8691,247;   -1,364;    0,773
928,037; 8589,157;    0,909;    2,045
928,593; 8925,793;    1,636;    1,045
929,148; 8764,066;   -1,818;   -1,500
929,704; 8325,884;   -1,455;   -0,500
930,259; 8525,157;    0,091;   -0,136
930,814; 7746,702;   -0,818;    1,955
931,369; 7465,975;    1,091;   -0,773
931,925; 7389,793;   -0,091;    0,136
932,480; 7323,884;   -2,818;   -2,591
933,035; 7301,884;    0,545;   -0,318
933,590; 7130,066;    0,364;   -1,773
934,145; 6772,066;   -1,364;   -0,318
934,700; 7049,975;    0,455;   -0,591
935,255; 6927,702;   -0,091;    0,045
935,809; 6412,429;    3,182;    0,864
936,364; 5646,066;   -0,455;   -0,136
936,919; 5696,247;    0,455;   -1,773
937,474; 5596,247;    1,455;    0,136
938,028; 5416,702;   -1,636;    1,136
938,583; 5055,247;    1,818;    4,682
939,138; 5257,611;    2,091;    2,136
939,692; 4777,520;    1,636;   -1,136
940,247; 4602,884;   -0,727;   -1,045
940,801; 4256,884;   -0,636;    0,227
941,355; 4173,884;   -0,364;    2,591
941,910; 3858,338;   -0,273;   -2,136
942,464; 3977,429;   -0,818;   -0,318
943,018; 3898,884;    1,000;   -0,227
943,572; 3821,884;    2,545;   -0,682
944,126; 3367,884;    0,091;   -0,409
944,681; 3261,611;    3,091;    0,227
945,235; 3236,429;    1,000;   -0,591
945,789; 3175,975;    0,364;   -1,864
946,342; 3379,157;    0,455;   -0,591
946,896; 3140,702;   -2,273;    0,955
947,450; 2897,975;    1,545;   -0,227
948,004; 3153,884;    1,727;   -0,045
948,558; 3114,429;    0,273;   -0,864
949,111; 3043,157;   -0,273;   -0,318
949,665; 3172,520;    1,636;   -0,682
950,219; 3053,157;   -0,091;   -1,045
950,772; 3083,066;   -1,909;    1,864
951,326; 3001,066;    0,545;   -0,955
951,879; 3046,157;    0,727;   -2,318
952,433; 3103,338;    0,000;    2,227
952,986; 2927,975;    2,909;    0,682
953,539; 2877,884;   -0,273;    0,591
954,093; 2820,066;    0,545;   -1,318
954,646; 2973,066;    0,909;    1,318
955,199; 2795,520;    0,000;   -0,500
955,752; 2771,247;   -0,455;    1,773
956,305; 2696,157;   -0,091;    2,955
956,858; 2817,247;    0,818;   -0,318
957,411; 2982,157;   -0,545;    2,136
957,964; 2818,520;    1,364;    2,136
958,517; 2803,702;   -1,545;    3,136
959,070; 2661,247;   -0,455;    1,955
959,623; 2818,975;    1,091;    1,500
960,176; 2622,975;    1,727;    2,045
960,728; 2609,793;   -2,727;    0,773
961,281; 2635,702;    0,545;    0,500
961,834; 2647,247;   -0,909;    0,864
962,386; 2562,338;    1,727;    1,045
962,939; 2507,793;    0,364;   -0,318
963,491; 2625,611;    0,455;    1,136
964,043; 2505,884;    1,182;    2,409
964,596; 2659,884;   -1,000;    2,227
965,148; 2505,975;   -1,000;    1,773
965,700; 2426,611;    1,091;   -0,227
966,253; 2575,066;   -0,636;    0,318
966,805; 2459,247;   -2,273;    0,773
967,357; 2469,429;    1,091;   -1,500
967,909; 2463,066;    0,455;   -1,227
968,461; 2508,611;    0,545;    3,136
969,013; 2440,884;   -0,182;   -0,864
969,565; 2545,157;   -0,455;   -1,136
970,117; 2710,247;   -0,364;    1,045
970,669; 2482,975;    0,182;   -0,136
971,220; 2306,884;   -0,455;   -1,500
971,772; 2265,611;   -0,636;   -0,318
972,324; 2403,702;    0,091;   -0,500
972,876; 2320,793;    0,818;   -0,045
973,427; 2499,066;    1,909;   -1,045
973,979; 2477,793;   -0,727;   -2,500
974,530; 2432,702;    1,818;    1,318
975,082; 2433,702;   -0,545;    1,682
975,633; 2353,157;    1,091;    1,682
976,184; 2507,247;    0,909;    0,773
976,736; 2347,702;    0,091;    0,227
977,287; 2189,157;   -0,909;   -0,500
977,838; 2314,975;    0,909;   -0,318
978,389; 2363,520;   -1,000;   -0,500
978,940; 2221,338;    0,545;   -0,409
979,491; 2251,611;    0,091;   -0,500
980,042; 2248,338;    0,182;    3,045
980,593; 2269,247;   -2,545;    0,227
981,144; 2360,429;    2,545;   -0,500
981,695; 2369,520;    1,455;    1,500
982,246; 2308,611;   -0,273;    1,045
982,797; 2386,520;   -1,727;    0,682
983,347; 2499,702;    0,364;    0,591
983,898; 2712,429;    3,091;    0,409
984,449; 2559,611;    2,182;    0,773
984,999; 2391,066;    1,455;   -1,136
985,550; 2236,429;    0,182;   -0,318
986,100; 2216,611;   -0,455;   -0,318
986,651; 2239,338;   -0,818;    0,045
987,201; 2228,611;   -1,000;   -0,591
987,751; 2294,611;    0,818;    2,864
988,302; 2308,884;    2,636;    1,500
988,852; 2326,702;    0,455;   -1,136
989,402; 2400,066;    0,091;    0,682
989,952; 2348,975;   -2,182;    0,864
990,502; 2388,793;   -0,091;    0,682
991,052; 2307,247;   -0,727;    0,045
991,602; 2203,884;   -2,909;    1,318
992,152; 2232,884;    0,455;    0,682
992,702; 2210,520;    1,364;   -0,045
993,252; 2145,429;   -3,000;   -0,500
993,802; 2264,611;   -0,273;    1,318
994,352; 2431,520;   -1,545;    1,136
994,901; 2450,520;   -0,182;    3,227
995,451; 2384,520;   -0,182;    0,318
996,000; 2467,611;    1,636;    0,318
996,550; 2228,429;    2,273;    0,227
997,100; 2245,247;    1,273;   -0,045
997,649; 2511,793;    2,182;    0,955
998,198; 2175,611;    1,727;   -1,500
998,748; 2390,884;    1,091;   -2,318
999,297; 2272,975;   -0,818;   -0,409
999,846; 2367,429;    1,000;   -0,773
1000,395; 2364,157;   -0,818;    0,500
1000,945; 2379,611;    1,818;   -0,773
1001,494; 2465,157;    2,364;    0,682
1002,043; 2436,884;    4,636;    0,864
1002,592; 2232,157;   -1,091;    1,955
1003,141; 2371,884;   -0,455;   -0,682
1003,690; 2286,066;    1,727;    0,500
1004,238; 2306,702;    1,455;   -0,045
1004,787; 1994,611;    1,364;    1,227
1005,336; 2275,884;    0,364;    0,682
1005,885; 2367,247;    1,364;   -2,773
1006,433; 2438,793;    0,545;    0,955
1006,982; 2599,157;    0,455;    1,682
1007,531; 2446,247;   -1,818;   -0,227
1008,079; 2357,793;   -2,273;    0,500
1008,627; 2463,702;   -1,455;    0,409
1009,176; 2263,247;    0,000;   -1,955
1009,724; 2277,429;    1,091;    0,864
1010,273; 2388,338;    1,273;    0,500
1010,821; 2429,338;    0,091;    1,409
1011,369; 2201,066;   -1,364;    1,318
1011,917; 2204,157;   -1,364;   -0,591
1012,465; 2464,793;    1,273;   -1,591
1013,013; 2532,611;    2,091;   -1,682
1013,561; 2477,884;    0,455;   -0,773
1014,109; 2562,247;   -1,909;    1,682
1014,657; 2413,884;    0,364;    0,591
1015,205; 2456,702;    1,636;   -0,955
1015,753; 2456,884;   -0,545;   -1,409
1016,301; 2515,611;   -2,636;    3,045
1016,848; 2532,884;   -1,273;    0,409
1017,396; 2569,975;    2,545;    0,045
1017,944; 2672,611;    1,182;    1,864
1018,491; 2436,975;    0,273;    1,409
1019,039; 2697,066;    0,455;    0,591
1019,586; 2516,429;   -1,364;    1,682
1020,134; 2571,247;    0,455;    1,500
1020,681; 2624,975;    0,182;   -1,136
1021,228; 2566,611;    2,909;   -2,227
1021,776; 2444,247;    1,182;   -1,136
1022,323; 2689,702;    0,455;    0,773
1022,870; 2619,702;   -1,000;   -0,045
1023,417; 2555,338;    2,636;    1,864
1023,964; 2589,066;    2,636;    1,227
1024,511; 2492,611;    1,000;    0,773
1025,058; 2326,066;    3,182;   -0,045
1025,605; 2367,157;   -2,273;    3,136
1026,152; 2626,066;    1,727;   -0,591
1026,699; 2345,247;    1,818;    1,318
1027,245; 2467,429;   -0,091;    0,318
1027,792; 2595,793;   -1,000;    1,409
1028,339; 2583,975;    2,364;   -0,045
1028,885; 2431,429;    1,000;   -0,227
1029,432; 2362,884;   -0,091;    0,227
1029,978; 2467,247;   -1,000;   -1,591
1030,525; 2350,975;    1,000;    0,409
1031,071; 2504,702;   -1,364;    1,136
1031,618; 2725,611;    0,364;    1,682
1032,164; 2475,884;   -0,091;    3,045
1032,710; 2536,247;    1,636;   -1,500
1033,256; 2427,884;   -0,636;   -0,136
1033,803; 2373,975;   -0,545;    1,500
1034,349; 2139,157;   -1,364;    0,136
1034,895; 2256,520;    0,000;   -0,318
1035,441; 2263,157;   -0,818;    0,318
1035,987; 2291,066;   -2,364;   -0,682
1036,533; 2312,338;   -1,455;   -0,955
1037,078; 2540,157;    1,455;    1,682
1037,624; 2341,702;    2,455;   -0,955
1038,170; 2307,066;    0,455;   -0,318
1038,716; 2293,611;    1,636;   -0,409
1039,261; 2172,338;   -2,273;   -0,773
1039,807; 2104,429;   -0,091;    3,409
1040,352; 2211,884;   -1,909;   -0,318
1040,898; 2231,520;   -1,545;   -0,682
1041,443; 2125,066;   -1,455;   -2,591
1041,989; 2280,975;    1,091;    1,591
1042,534; 2094,429;   -0,364;    2,591
1043,079; 2140,520;    2,909;    0,955
1043,625; 2017,338;    1,818;    0,500
1044,170; 2076,520;   -1,364;    1,045
1044,715; 2337,975;    2,455;    0,955
1045,260; 2141,429;    2,182;   -0,955
1045,805; 2130,429;    1,182;   -0,591
1046,350; 2058,429;    1,364;   -0,409
1046,895; 2120,611;    2,909;    1,591
1047,440; 2107,247;    5,364;    0,409
1047,985; 1949,702;    2,818;   -0,955
1048,530; 1858,247;    1,545;    1,227
1049,074; 1969,429;    0,000;    0,318
1049,619; 1916,429;   -1,364;    1,955
1050,164; 1745,611;    0,455;    0,227
1050,708; 1816,611;   -0,455;    0,045
1051,253; 2225,247;    1,273;   -2,227
1051,797; 1911,702;    0,818;   -1,318
1052,342; 1835,884;   -1,182;    1,045
1052,886; 1880,702;    0,364;   -1,409
1053,430; 1736,157;   -1,364;    0,136
1053,975; 1785,338;   -0,818;   -0,318
1054,519; 1780,793;   -0,727;    3,227
1055,063; 1845,066;    0,909;    1,318
1055,607; 1737,975;   -0,182;    0,227
1056,151; 1753,975;    2,909;    1,682
1056,695; 1632,429;    2,273;   -1,136
1057,239; 1702,520;   -1,727;   -0,682
1057,783; 1735,793;    0,818;   -1,500
1058,327; 1736,702;    0,000;    1,409
1058,871; 1967,793;   -0,545;    1,318
1059,415; 1684,520;   -0,818;   -0,045
1059,958; 1977,157;    1,455;    2,591
1060,502; 1675,702;   -1,000;   -0,773
1061,046; 1540,520;    0,364;   -0,955
1061,589; 1497,793;   -3,000;   -1,136
1062,133; 1410,247;   -1,273;    1,864
1062,676; 1387,157;    1,182;    0,864
1063,220; 1412,429;    1,091;    0,500
1063,763; 1447,702;    0,909;    1,136
1064,306; 1532,247;   -0,909;    1,864
1064,849; 1433,975;   -0,909;    0,591
1065,393; 1433,884;    2,000;   -1,500
1065,936; 1506,884;    0,182;   -0,409
1066,479; 1370,793;   -1,455;    1,318
1067,022; 1408,520;   -0,273;   -0,227
1067,565; 1319,884;   -0,091;   -1,318
1068,108; 1335,247;    0,727;   -0,591
1068,651; 1301,702;   -0,636;    1,409
1069,194; 1256,611;   -0,455;   -1,682
1069,736; 1283,157;   -1,273;    0,955
1070,279; 1227,793;   -1,364;   -0,500
1070,822; 1324,793;   -2,000;   -0,318
1071,364; 1451,884;   -0,364;    1,318
1071,907; 1243,611;   -0,727;    3,227
1072,450; 1093,975;    0,000;   -0,045
1072,992; 1134,975;   -0,273;    3,136
1073,535; 1294,338;    2,091;    2,136
1074,077; 1090,793;   -0,727;    2,045
1074,619; 1074,338;   -1,364;    0,591
1075,161; 1114,884;   -1,091;    1,500
1075,704; 1318,793;    1,545;    1,227
1076,246; 1082,611;   -0,182;    0,682
1076,788;  977,702;   -0,364;    1,773
1077,330; 1041,429;    1,273;    2,136
1077,872; 1059,975;    0,909;    0,955
1078,414; 1301,884;    2,727;    0,773
1078,956; 1038,611;    1,273;   -0,227
1079,498; 1312,975;    1,636;    0,318
1080,040; 1035,793;    1,909;   -1,318
1080,581;  960,247;    1,636;   -0,318
1081,123;  865,793;    0,091;   -0,773
1081,665;  917,520;   -1,182;   -0,955
1082,206; 1242,975;    1,364;   -0,500
1082,748; 1096,884;    0,727;    2,045
1083,289;  946,429;   -2,000;    1,318
1083,831;  875,520;   -0,545;    0,227
1084,372;  931,157;    0,000;    0,591
1084,913;  942,157;    1,091;    0,864
1085,455;  879,247;   -1,909;   -2,045
1085,996;  876,884;   -2,273;    0,136
1086,537;  914,793;   -0,091;    0,864
1087,078;  920,157;   -0,909;   -2,136
1087,619;  981,338;   -1,273;    0,227
1088,160;  903,338;    0,000;    1,318
1088,701;  882,247;   -1,091;    0,682
1089,242;  828,611;    1,364;   -2,227
1089,783;  928,520;   -0,273;    1,409
1090,324;  893,066;    0,455;    0,682
1090,865;  775,520;    2,727;   -0,409
1091,405;  719,884;    0,727;    2,227
1091,946;  777,247;    0,182;   -0,955
1092,487;  689,702;    0,818;   -1,409
1093,027;  884,975;   -1,364;   -1,500
1093,568;  744,429;   -0,364;    1,227
1094,108;  839,066;    0,273;    1,773
1094,649;  784,066;   -1,182;    0,136
1095,189;  703,884;   -0,636;   -0,682
1095,729;  681,157;   -0,091;    0,955
1096,269;  658,884;    0,727;   -0,955
1096,810;  986,702;   -1,364;    0,500
1097,350;  839,793;    1,364;   -0,773
1097,890;  724,793;    0,364;    1,227
1098,430; 1002,338;    2,364;    2,864
1098,970;  868,247;    2,182;    1,682
1099,510;  710,702;    0,545;   -2,318
1100,050;  650,793;    1,000;   -1,591
1100,589;  620,066;   -0,727;   -0,318
1101,129;  753,066;    0,818;   -0,955
1101,669;  907,247;    1,727;    2,136
1102,209;  736,338;   -0,091;    2,227
1102,748;  687,247;    0,000;    0,955
1103,288;  683,975;    1,273;   -1,227
1103,827;  702,247;    3,091;   -2,227
1104,367;  583,975;   -0,091;   -2,409
1104,906;  560,066;    1,364;   -1,136
1105,445;  632,702;    0,636;   -1,136
1105,985;  586,338;   -0,727;    1,500
1106,524;  640,520;   -1,727;   -0,682
1107,063;  612,157;   -2,727;    1,409
1107,602;  563,157;   -1,909;   -1,500
1108,141;  501,793;   -1,909;    1,500
1108,680;  621,520;   -3,455;   -0,591
1109,219;  555,247;   -0,909;   -0,500
1109,758;  549,338;    0,455;    0,682
1110,297;  518,338;    1,000;   -0,682
1110,836;  463,975;   -0,727;    0,955
1111,375;  624,793;   -2,545;    0,409
1111,913;  645,338;   -1,000;    0,773
1112,452;  585,157;   -0,273;    0,136
1112,991;  458,157;    1,091;    1,955
1113,529;  434,520;   -0,818;   -0,045
1114,068;  506,611;   -0,273;    2,955
1114,606;  411,066;   -0,364;   -0,955
1115,144;  578,793;   -1,273;    1,045
1115,683;  510,793;   -0,727;    0,318
1116,221;  555,793;   -0,455;   -0,864
1116,759;  463,157;    0,636;   -0,864
1117,297;  659,975;    0,000;    1,864
1117,836;  468,884;   -2,182;   -1,227
1118,374;  483,247;    0,182;   -0,682
1118,912;  428,793;    0,909;    2,682
1119,450;  425,338;    1,000;    0,864
1119,988;  473,793;    1,545;    2,136
1120,525;  920,157;    5,091;    3,318
1121,063;  624,247;    1,182;    1,864
1121,601;  443,338;   -0,909;   -1,227
1122,139;  399,702;   -0,727;   -2,045
1122,676;  595,884;   -0,727;    2,773
1123,214;  530,975;   -1,182;    4,409
1123,751;  346,702;    1,727;    2,227
1124,289;  472,066;   -0,091;   -0,409
1124,826;  352,611;    1,727;    0,227
1125,364;  272,793;    1,727;   -0,955
1125,901;  466,884;    1,182;    1,227
1126,438;  570,429;    0,818;    0,955
1126,975;  306,611;   -0,727;   -0,773
1127,513;  369,975;    0,273;    2,136
1128,050;  277,793;    1,636;   -0,682
1128,587;  384,066;    2,000;   -0,227
1129,124;  424,793;    0,091;    1,318
1129,661;  293,975;    0,273;    0,227
1130,198;  461,884;    1,636;    0,773
1130,734;  403,884;    0,182;    1,409
1131,271;  270,429;   -0,909;    0,864
1131,808;  438,157;    2,909;    3,045
1132,345;  312,066;    1,545;    0,318
1132,881;  188,338;   -1,545;   -1,864
1133,418;  330,611;    0,727;   -1,136
1133,954;  268,611;    2,455;   -2,682
1134,491;  352,702;    1,364;   -0,773
1135,027;  243,520;    2,364;    0,864
1135,564;  325,520;    0,273;    2,955
1136,100;  316,429;    0,364;    2,136
1136,636;  201,702;   -1,273;   -1,045
1137,172;  299,884;    0,000;   -1,045
1137,708;  233,884;   -1,364;   -1,045
1138,245;  225,247;    1,273;   -1,227
1138,781;  182,793;    1,091;   -3,318
1139,317;  253,338;    1,273;   -1,409
1139,852;  241,793;    3,091;    0,136
1140,388;  354,066;   -1,182;   -0,409
1140,924;  244,884;   -1,091;   -2,227
1141,460;  180,157;   -1,636;    0,136
1141,996;  127,520;   -1,364;    2,682
1142,531;  175,429;    1,364;    3,318
1143,067;  385,247;    1,182;    1,045
1143,602;  439,520;   -0,091;   -0,318
1144,138;  282,157;   -2,636;    1,045
1144,673;  156,429;   -1,455;    1,409
1145,209;  219,611;   -1,909;   -0,318
1145,744;  147,611;   -0,727;    0,864
1146,279;  282,066;    1,818;   -0,136
1146,815;  192,884;    1,545;   -2,682
1147,350;  230,793;   -1,364;    0,045
1147,885;  155,066;   -0,818;   -1,318
1148,420;  151,975;   -2,273;    0,773
1148,955;  137,884;   -1,727;    1,864
1149,490;  166,157;   -0,909;   -1,591
1150,025;  141,157;    0,455;   -1,773
1150,560;  247,429;    1,091;   -0,955
1151,094;  223,066;    1,455;   -0,591
1151,629;  231,066;    1,636;    0,864
1152,164;  155,702;    1,364;    1,318
1152,698;  126,157;   -0,182;   -0,136
1153,233;   76,611;    0,091;   -0,682
1153,767;  119,975;   -3,000;   -2,318
1154,302;  167,884;   -1,455;    1,773
1154,836;  160,702;   -0,455;   -2,136
1155,371;  213,429;   -1,364;    3,682
1155,905;  174,793;   -0,636;    1,682
1156,439;  149,702;   -0,636;   -0,500
1156,973;  177,429;    0,364;    0,318
1157,507;  118,520;   -0,364;    0,682
1158,042;  147,247;   -0,727;    1,045
1158,576;  186,247;    0,182;    1,773
1159,110;  176,793;   -0,818;    2,409
1159,643;  147,793;    0,636;   -0,045
1160,177;   90,066;   -1,545;    1,500

