
Integration time [ms]:   0,040
Averaging Nr. [scans]: 11
Smoothing Nr. [pixels]: 0
Data measured with spectrometer [name]: 7318044SP
Wave   ;Sample   ;Dark     ;Reference
[nm]   ;[counts] ;[counts] ;[counts] 

186,757;   18,125;   31,551;    1,318
187,357;   60,691;   22,551;    0,955
187,958;   29,973;   15,460;   -1,591
188,558;   69,194;    8,915;   -1,227
189,159;   36,905;    6,733;   -4,500
189,759;    5,770;    7,278;   -3,591
190,360;    5,918;    2,824;   -2,136
190,960;   50,988;    2,915;   -4,136
191,560;   62,350;    3,189;   -6,591
192,161;  322,501;    4,372;   -3,500
192,761;  141,290;    4,010;   -3,227
193,361;   87,487;    1,556;   -3,773
193,962;  135,683;    2,010;   -2,682
194,562;   52,785;    1,189;   -3,955
195,162;   85,218;   -2,448;   -2,227
195,762;  244,421;   -3,176;   -0,045
196,362;  189,366;    1,370;   -2,500
196,963;   58,307;    2,006;   -0,864
197,563;  118,751;    1,551;   -0,955
198,163;   56,427;    0,096;   -0,682
198,763;   71,372;    1,733;   -0,500
199,363;  177,461;    3,096;   -0,500
199,963;  130,890;    0,369;    0,409
200,563;  108,788;    2,823;   -1,409
201,163;   78,264;    3,277;   -0,227
201,763;  167,211;    3,732;    0,318
202,363;  107,454;    1,459;    1,500
202,963;  199,509;    1,459;    1,045
203,563;  303,518;    0,277;    0,500
204,162;  158,923;    2,096;   -1,864
204,762;  148,923;    0,550;    0,591
205,362;  111,710;    3,004;    1,955
205,962;  192,162;    3,096;    1,955
206,562;  195,921;    1,823;    2,318
207,161;  170,006;   -0,087;    0,318
207,761;  316,591;    1,277;    2,409
208,361;  194,763;   -0,268;    1,409
208,960;  290,754;    0,459;    1,500
209,560;  343,319;    1,277;    1,591
210,160;  334,534;    0,550;    1,864
210,759;  279,917;    4,186;    1,227
211,359;  287,114;    1,459;    1,045
211,958;  548,657;    1,277;    2,045
212,558;  622,503;    1,732;    1,864
213,157;  465,822;    1,822;    1,500
213,757;  864,359;    3,822;   -0,227
214,356;  574,587;    1,277;   -0,409
214,956;  883,429;    3,095;    0,409
215,555;  521,502;    2,095;    2,136
216,154;  468,627;   -2,723;   -0,591
216,754;  458,515;    0,277;    0,773
217,353;  572,805;   -0,268;   -1,045
217,952;  431,600;   -0,178;    0,318
218,552;  669,337;    1,368;   -0,773
219,151;  535,589;    0,277;    0,955
219,750;  532,403;    0,004;   -0,227
220,349;  578,538;   -0,451;    1,045
220,948;  697,050;   -1,360;    1,136
221,548;  634,729;    0,913;    1,227
222,147;  740,891;   -0,087;   -0,409
222,746; 1020,018;   -0,451;   -0,955
223,345;  852,707;    0,731;    0,500
223,944;  838,473;   -0,451;    0,773
224,543;  943,608;    1,004;   -1,409
225,142; 1053,158;    0,094;    0,136
225,741;  939,331;   -0,814;    1,045
226,340;  935,327;   -0,451;   -0,955
226,939; 1301,416;   -0,996;   -0,136
227,538; 1090,515;   -0,360;   -0,773
228,137; 1290,206;   -0,814;    0,864
228,735; 1264,741;   -0,541;    1,227
229,334; 1058,902;   -0,905;   -0,227
229,933; 1423,445;    0,459;    0,591
230,532; 1506,319;    1,186;   -0,409
231,131; 1572,177;    1,732;    0,318
231,729; 1503,211;   -2,450;   -2,318
232,328; 1442,327;   -0,723;   -1,500
232,927; 1430,898;    1,004;   -0,500
233,525; 1453,921;    3,640;    0,045
234,124; 1616,194;    2,368;   -1,591
234,723; 1543,460;    0,913;   -1,045
235,321; 1604,868;    2,277;    0,136
235,920; 1724,949;    1,186;   -1,227
236,518; 1979,266;    3,459;    0,318
237,117; 1930,524;    0,004;   -0,227
237,715; 2028,788;    0,640;   -0,500
238,314; 2101,714;   -0,087;   -2,318
238,912; 2293,839;   -0,723;   -1,409
239,510; 2218,615;    0,459;   -1,227
240,109; 2390,756;    0,004;    3,773
240,707; 2396,139;   -0,996;    1,227
241,305; 2520,792;    0,550;    0,136
241,904; 2733,338;   -0,178;   -2,045
242,502; 2822,733;   -0,632;   -0,227
243,100; 2743,221;   -0,087;   -0,955
243,698; 2945,395;    0,732;    1,682
244,297; 3120,731;   -0,632;    0,682
244,895; 3075,665;   -0,269;   -2,318
245,493; 3402,828;    2,186;   -0,591
246,091; 3422,752;    1,368;   -1,318
246,689; 3417,469;    1,004;    0,591
247,287; 3565,606;    0,822;   -1,136
247,885; 3836,908;   -1,451;    1,227
248,483; 3935,380;    1,822;   -0,500
249,081; 4096,257;    0,185;    1,591
249,679; 4268,158;   -0,178;    1,682
250,277; 4497,016;   -1,723;    0,864
250,875; 4514,868;   -1,087;   -1,045
251,473; 4566,750;   -1,178;    0,500
252,071; 4788,834;    1,459;    1,045
252,669; 4933,655;   -1,814;    0,318
253,267; 5129,105;   -0,087;    0,773
253,864; 5095,970;   -0,360;    0,682
254,462; 5121,967;    1,640;    1,591
255,060; 5071,006;   -0,269;    1,318
255,658; 5318,109;    0,822;   -0,136
256,255; 5741,414;    0,186;   -2,045
256,853; 5643,090;   -0,269;    1,409
257,451; 5654,898;    0,822;    1,864
258,048; 6029,390;    1,822;    1,864
258,646; 5728,775;    1,731;   -1,045
259,243; 5906,272;   -0,087;    2,227
259,841; 5965,177;   -0,814;    0,318
260,438; 5912,794;   -0,087;    0,864
261,036; 6505,502;   -1,905;    1,409
261,633; 6456,039;   -0,087;    2,227
262,231; 6232,384;    2,731;   -0,045
262,828; 6326,065;   -0,905;    1,136
263,425; 6419,642;    0,913;   -0,591
264,023; 6686,733;    0,186;    0,045
264,620; 6286,572;   -0,360;   -0,318
265,217; 6645,120;   -2,087;    3,136
265,815; 6727,145;   -1,905;    2,136
266,412; 6615,595;    0,731;    0,136
267,009; 6672,069;   -1,451;    0,773
267,606; 6626,684;    0,822;   -0,955
268,203; 6543,579;   -0,269;   -0,591
268,801; 6798,860;    1,731;    0,591
269,398; 7060,701;   -0,360;    2,500
269,995; 7054,065;    0,277;    1,591
270,592; 6875,300;   -0,632;   -0,500
271,189; 7024,735;    0,186;    0,409
271,786; 7136,323;   -0,632;    1,227
272,383; 7048,705;   -1,087;    0,227
272,980; 7207,147;    0,277;    0,318
273,577; 7618,445;    0,004;    1,227
274,174; 7188,885;    0,822;    2,591
274,771; 7214,746;   -0,814;   -0,773
275,367; 7410,162;    2,277;    1,409
275,964; 7377,357;    0,731;   -0,500
276,561; 7449,595;    1,549;   -1,045
277,158; 7649,703;    0,095;   -1,773
277,755; 7821,257;    2,185;    0,409
278,351; 7264,492;   -0,451;   -1,500
278,948; 7568,122;   -0,815;    0,045
279,545; 7564,483;   -1,360;    2,318
280,141; 8259,037;   -1,723;   -2,045
280,738; 8161,179;   -0,451;   -0,136
281,334; 8350,428;   -1,633;    0,591
281,931; 7822,743;   -0,087;   -1,318
282,528; 7962,179;    0,822;   -0,500
283,124; 8651,422;   -1,087;   -0,500
283,721; 8576,246;   -0,451;    1,409
284,317; 8410,367;    0,185;    2,500
284,913; 9012,325;   -1,360;    0,591
285,510; 9232,961;    0,640;   -0,318
286,106; 9327,063;   -2,269;   -0,955
286,703; 8930,693;   -0,360;    1,955
287,299; 9186,540;   -1,451;   -0,591
287,895; 9397,424;    0,822;   -1,045
288,491; 9950,065;    0,186;    2,136
289,088; 9788,671;   -2,360;    2,409
289,684; 9918,836;   -1,723;    1,500
290,280; 9950,642;    0,368;    0,682
290,876;10081,528;    1,822;    5,500
291,472;10004,464;    1,276;    2,227
292,068;10181,538;    1,367;    0,227
292,665; 9940,540;    2,095;    0,773
293,261; 9626,392;    0,276;    2,136
293,857;10109,894;    2,913;    2,136
294,453;10079,889;    3,550;    0,955
295,049;10003,830;   -0,268;    1,955
295,644;10076,183;    0,095;    0,136
296,240;10043,970;   -0,905;   -0,136
296,836;10147,374;   -0,995;    0,318
297,432;10434,490;    1,096;   -0,500
298,028;10516,376;    0,732;    0,773
298,624;10912,951;    1,459;    1,864
299,220;11193,367;    2,368;    0,591
299,815;10900,107;    1,005;   -0,409
300,411;10745,012;    0,914;    1,773
301,007;10795,344;    1,368;    0,227
301,602;10839,725;   -0,541;   -2,318
302,198;11044,148;    0,732;   -0,773
302,794;11390,666;    1,187;   -0,500
303,389;11527,879;   -1,177;    1,045
303,985;11636,877;    0,550;    1,409
304,580;11622,382;    1,459;    1,591
305,176;11582,069;   -3,086;    0,136
305,771;11519,562;   -1,268;   -1,227
306,367;11415,329;    4,095;    0,136
306,962;11717,088;    0,641;    1,500
307,558;11459,112;   -0,450;    0,136
308,153;11418,353;    1,095;   -1,136
308,748;11606,801;   -0,814;    1,682
309,344;11567,909;   -0,632;   -1,318
309,939;11711,847;   -1,905;   -1,318
310,534;11952,651;   -0,086;   -1,682
311,130;11885,061;    0,459;   -2,500
311,725;11566,600;    1,004;   -0,500
312,320;11922,348;    2,459;    0,045
312,915;11785,298;    1,459;   -1,045
313,510;11809,008;    1,550;   -0,500
314,105;12290,387;    1,096;    1,409
314,700;11642,653;   -3,086;   -1,045
315,295;11263,837;   -0,904;    0,045
315,890;10845,249;    1,277;    0,864
316,485;11182,712;   -0,359;   -0,318
317,080;11252,382;   -3,086;    1,591
317,675;11768,268;    2,005;   -0,682
318,270;11218,019;    5,550;    3,318
318,865;11180,554;    3,278;    3,045
319,460;11002,782;   -0,904;    0,591
320,055;11216,243;   -0,541;   -1,227
320,650;10896,065;   -1,995;   -0,591
321,244;10938,477;   -0,177;   -1,409
321,839;11844,139;   -1,541;   -0,227
322,434;11732,985;   -1,086;   -1,591
323,029;11412,924;    1,732;    1,591
323,623;11243,801;    1,550;    0,773
324,218;11073,395;    2,368;    1,409
324,812;10972,494;    1,096;    1,591
325,407;10774,418;   -0,814;    2,045
326,002;10769,224;    0,277;   -0,409
326,596;11069,439;    0,914;    1,318
327,191;11277,898;    0,823;   -1,045
327,785;10870,712;   -0,813;   -0,227
328,379;11087,932;    1,368;    0,136
328,974;10942,057;    0,914;   -3,955
329,568;11198,721;    0,186;   -2,409
330,163;11020,797;    2,096;    1,045
330,757;11402,255;    2,459;    1,591
331,351;10786,173;    0,459;    0,682
331,945;11161,110;    0,914;    1,409
332,540;10778,002;   -1,723;   -0,591
333,134;10952,334;   -1,086;    0,773
333,728;11240,150;    0,005;    0,318
334,322;11563,854;   -1,177;   -0,864
334,916;10892,052;    0,277;    0,955
335,510;11278,640;   -0,450;   -0,136
336,105;11581,262;   -1,086;    1,591
336,699;11310,033;   -1,086;    0,591
337,293;11254,179;   -1,723;    0,318
337,887;11432,473;   -2,723;    1,955
338,481;11559,843;    0,459;    0,591
339,074;11747,860;   -0,359;    2,682
339,668;11602,682;   -1,632;    1,227
340,262;11934,651;    1,732;    3,227
340,856;11455,306;    1,822;   -0,682
341,450;10838,095;    1,004;    1,864
342,044;11748,543;    1,459;    0,136
342,637;11570,847;    0,913;   -2,136
343,231;11476,329;   -2,360;    0,682
343,825;11453,296;   -1,086;   -0,591
344,419;11430,991;   -1,995;    0,500
345,012;11229,384;    2,459;    4,045
345,606;11240,742;    4,641;    1,591
346,199;11092,456;   -1,813;   -0,227
346,793;10622,370;    1,914;    2,045
347,386;10830,632;   -0,813;   -1,136
347,980;10837,277;   -0,268;   -0,045
348,573;10626,074;    2,278;    0,409
349,167;10291,668;    5,278;    4,773
349,760;10669,268;    2,914;    2,682
350,354;10669,715;   -0,813;    1,136
350,947;10418,061;    1,096;    1,682
351,540;10068,892;   -0,358;   -1,409
352,134;10007,575;    1,096;    1,136
352,727;10090,497;   -0,086;    1,136
353,320; 9871,298;    0,005;    0,591
353,913; 9710,304;   -1,995;    1,864
354,507; 9942,721;    0,823;   -1,227
355,100; 9913,839;    0,460;    0,864
355,693; 9139,085;    2,005;    2,409
356,286; 9190,383;    0,823;    2,773
356,879; 9538,017;   -0,722;    1,227
357,472; 9106,264;   -0,904;    1,500
358,065; 9338,152;   -0,722;    2,500
358,658; 9227,461;   -0,540;    2,318
359,251; 8852,755;   -1,631;   -0,591
359,844; 8339,211;   -1,904;   -1,136
360,437; 8514,281;   -2,995;    0,045
361,030; 8774,903;    1,369;   -0,682
361,623; 8346,015;    2,824;    0,318
362,215; 8391,063;   -0,086;    2,045
362,808; 8212,672;   -2,358;   -1,682
363,401; 8416,078;   -2,449;    0,136
363,994; 8165,495;   -0,631;   -1,500
364,586; 8072,404;    0,824;   -1,500
365,179; 8262,248;   -0,449;   -1,136
365,772; 7727,569;   -1,995;    2,045
366,364; 8059,478;    1,915;   -3,227
366,957; 8229,174;    2,279;   -0,045
367,549; 8247,172;    2,188;   -0,864
368,142; 7900,726;    1,825;   -1,500
368,734; 8097,686;    0,734;   -2,136
369,327; 8021,576;    1,643;   -0,500
369,919; 7928,739;   -1,538;    0,409
370,512; 7740,811;   -1,083;   -0,500
371,104; 7505,050;   -0,901;    1,591
371,696; 7665,642;    1,191;   -0,955
372,289; 7763,488;    0,373;    1,136
372,881; 7925,715;   -2,080;    1,318
373,473; 7829,732;   -2,170;    1,136
374,066; 7624,621;   -0,169;    0,500
374,658; 7468,575;    0,378;    1,136
375,250; 7810,828;    0,653;   -1,409
375,842; 7648,319;    0,473;   -0,045
376,434; 7528,781;   -0,435;   -0,409
377,026; 8088,516;    0,204;   -2,500
377,618; 7980,673;   -0,158;   -0,682
378,210; 7813,319;   -0,338;   -1,955
378,802; 7661,787;    0,754;   -0,591
379,394; 7672,436;    1,846;    0,682
379,986; 8238,549;    1,393;   -0,955
380,578; 8318,673;   -0,153;    0,773
381,170; 7687,005;   -0,972;    0,045
381,762; 7624,550;    0,755;    1,409
382,354; 7824,019;   -0,065;   -1,318
382,945; 7912,825;   -2,976;    0,318
383,537; 8054,446;   -2,705;   -1,955
384,129; 8073,067;   -2,160;   -1,136
384,721; 8257,726;   -0,252;    0,955
385,312; 8187,263;   -0,161;   -0,955
385,904; 8283,549;   -2,706;    1,591
386,496; 7646,099;   -0,979;    1,045
387,087; 7790,181;    1,022;    2,500
387,679; 7832,511;   -1,160;    0,045
388,270; 7986,177;    2,840;    2,045
388,862; 8080,562;    1,295;   -0,318
389,453; 7969,456;   -0,887;    1,045
390,045; 8255,059;   -0,705;   -2,682
390,636; 8166,831;    0,204;   -0,591
391,227; 8018,735;   -0,523;   -0,045
391,819; 8142,461;    0,204;    0,773
392,410; 8238,862;    1,022;    0,045
393,001; 8188,283;   -0,979;   -1,591
393,593; 8443,293;    1,930;   -0,045
394,184; 8289,395;    1,385;   -0,409
394,775; 8218,257;    1,839;    2,136
395,366; 8410,297;    1,385;    0,773
395,957; 8426,372;    0,113;    0,136
396,548; 8732,374;   -0,342;    2,682
397,139; 9037,769;   -2,433;    0,591
397,730; 8773,697;   -1,888;    0,955
398,321; 8800,678;   -1,252;    0,955
398,912; 8861,342;   -0,615;    0,136
399,503; 8925,900;   -3,524;   -1,409
400,094; 8351,194;    0,294;    1,682
400,685; 8211,488;   -0,433;    0,045
401,276; 8295,767;    0,930;   -0,955
401,867; 8595,331;   -0,888;    0,773
402,458; 8680,166;   -2,251;   -2,318
403,048; 8647,132;    1,112;    0,591
403,639; 8260,078;    0,840;    0,864
404,230; 8495,369;    2,476;    0,318
404,821; 8405,173;   -0,615;    0,045
405,411; 8562,397;    1,203;   -2,591
406,002; 8144,187;   -1,252;   -1,136
406,592; 7974,815;    2,294;    0,045
407,183; 8253,834;    0,566;   -1,500
407,774; 8158,027;    3,475;   -0,136
408,364; 8502,170;    0,930;    0,409
408,954; 8089,798;    0,384;    1,227
409,545; 8139,130;    1,021;    1,045
410,135; 7625,426;    1,293;    0,500
410,726; 7726,261;    1,838;    0,318
411,316; 8108,210;    0,111;    0,773
411,906; 7757,840;   -0,253;   -0,409
412,497; 7259,847;   -1,070;   -0,045
413,087; 7836,117;   -1,980;   -0,227
413,677; 8192,386;   -0,707;    3,864
414,267; 7980,946;    0,656;    1,409
414,857; 7911,555;   -2,980;    4,227
415,448; 8174,840;    0,839;    0,500
416,038; 7856,927;    0,020;   -0,591
416,628; 7782,718;   -0,889;    0,409
417,218; 7267,741;    0,565;    3,318
417,808; 7507,259;    0,202;   -0,409
418,398; 7901,030;    0,020;    2,682
418,988; 7880,140;    2,020;    0,591
419,578; 8101,688;   -0,707;    1,409
420,168; 8356,225;   -1,343;   -0,955
420,757; 7946,692;   -1,343;   -1,500
421,347; 7580,918;    0,111;   -0,227
421,937; 7688,648;    2,292;    1,409
422,527; 7651,421;    0,838;   -0,773
423,116; 7436,417;   -0,253;   -0,045
423,706; 7676,794;   -1,889;    0,318
424,296; 7600,591;    1,384;    0,682
424,885; 8008,500;   -0,071;   -3,045
425,475; 8256,295;    1,474;   -2,864
426,065; 8064,671;   -0,980;   -0,318
426,654; 7687,081;   -0,435;   -0,318
427,244; 7796,916;    0,020;    1,409
427,833; 7250,751;    1,383;   -0,500
428,423; 7636,749;   -0,526;    1,136
429,012; 8301,398;   -0,344;   -1,136
429,601; 7799,852;   -1,344;    0,136
430,191; 7967,793;    1,292;    4,318
430,780; 7585,736;   -0,344;   -0,409
431,369; 7487,772;    0,746;   -0,045
431,959; 7971,586;   -1,254;    0,500
432,548; 7744,197;   -1,163;   -0,045
433,137; 7803,142;   -1,254;   -1,318
433,726; 8264,320;    0,292;    0,500
434,315; 7653,108;   -0,526;    2,409
434,905; 7680,019;   -1,254;    1,409
435,494; 7541,024;    0,746;    0,955
436,083; 7855,702;   -0,981;   -0,955
436,672; 7679,829;    0,110;    0,500
437,261; 7293,210;    0,292;   -1,955
437,850; 7389,525;    1,383;    0,682
438,439; 7315,064;    3,291;    1,955
439,027; 7102,057;    3,655;    1,773
439,616; 7317,666;    2,927;    1,227
440,205; 7082,613;    0,200;   -2,136
440,794; 7078,446;    2,109;   -0,045
441,383; 7184,767;   -1,346;   -0,591
441,971; 6998,089;   -2,436;    0,591
442,560; 6788,376;    0,563;   -1,773
443,149; 6526,117;    0,379;   -1,318
443,737; 6574,486;   -0,074;   -2,318
444,326; 6745,953;    0,018;    0,318
444,915; 6688,207;   -1,982;    0,864
445,503; 6944,636;   -2,891;   -0,318
446,092; 6305,630;    0,382;    2,136
446,680; 6689,061;    0,382;    0,318
447,269; 6740,486;   -0,346;   -0,318
447,857; 6483,879;    0,018;   -1,773
448,445; 6499,714;    0,563;    1,318
449,034; 6613,230;   -1,528;   -1,136
449,622; 6620,604;   -1,073;    3,500
450,210; 6071,968;    2,017;    2,227
450,799; 6432,860;    0,290;   -0,591
451,387; 6292,251;    1,381;   -0,591
451,975; 5976,589;    2,654;    0,864
452,563; 6047,638;    3,472;    2,318
453,151; 5935,581;   -0,528;   -1,227
453,739; 5823,798;   -1,347;    0,136
454,328; 5716,627;    2,381;   -2,136
454,916; 5495,921;    2,562;   -0,136
455,504; 5569,705;    1,017;    1,227
456,092; 5612,420;    0,017;   -1,591
456,679; 5521,509;    1,472;    0,682
457,267; 5651,357;    4,017;    1,045
457,855; 5566,177;    1,017;    1,409
458,443; 5219,067;   -0,165;    1,682
459,031; 5445,181;    0,108;    2,409
459,619; 5685,283;   -1,801;    2,864
460,206; 5650,502;    0,835;    2,045
460,794; 5709,775;   -2,983;   -0,227
461,382; 5814,853;   -0,529;   -0,864
461,970; 5459,695;    1,198;    1,864
462,557; 5482,162;   -0,711;   -0,682
463,145; 5607,103;   -3,165;   -1,682
463,732; 5691,441;    2,016;   -1,045
464,320; 5511,456;   -0,075;   -3,045
464,907; 5320,508;    2,743;   -0,773
465,495; 5173,164;    0,743;   -1,227
466,082; 5230,730;   -1,984;   -0,045
466,670; 5051,409;   -2,529;    1,227
467,257; 5309,969;   -1,711;    2,045
467,844; 5457,280;   -0,075;    0,045
468,432; 5454,629;    0,834;    3,500
469,019; 5054,709;    0,925;   -1,773
469,606; 5327,506;    0,470;    3,682
470,193; 5187,762;   -1,439;    0,227
470,780; 4904,512;   -2,075;    0,864
471,368; 5022,373;   -1,257;   -0,773
471,955; 4853,005;    1,379;   -0,682
472,542; 4553,859;    0,652;   -1,136
473,129; 4612,216;   -0,166;    0,136
473,716; 4371,200;    1,470;    0,591
474,303; 4396,039;    0,652;   -0,864
474,890; 4535,387;   -1,439;   -0,500
475,477; 4577,036;   -1,621;    0,409
476,064; 4423,797;    1,106;   -1,591
476,650; 4269,068;    0,288;    0,318
477,237; 4087,705;   -0,258;    0,955
477,824; 4145,802;   -1,076;    0,864
478,411; 3987,578;   -1,894;   -0,318
478,997; 4061,548;    0,560;   -0,773
479,584; 4002,377;    1,196;   -0,409
480,171; 4428,977;   -0,440;   -0,773
480,757; 4238,478;    2,651;    0,773
481,344; 4206,510;    0,469;    0,409
481,931; 3791,786;    1,105;    1,045
482,517; 4327,336;   -1,258;    0,318
483,104; 4529,706;    1,106;    2,864
483,690; 4485,465;   -1,804;    0,045
484,276; 4489,550;   -0,895;    0,227
484,863; 4431,140;    2,469;    1,136
485,449; 4566,104;   -0,077;    0,318
486,035; 4450,089;   -1,986;   -0,136
486,622; 4715,958;   -0,895;    0,045
487,208; 4570,981;    1,378;    1,500
487,794; 4483,852;    0,741;    0,318
488,380; 4545,300;    0,105;   -1,409
488,967; 4538,531;   -1,168;   -0,409
489,553; 4596,941;   -1,895;   -1,409
490,139; 4772,383;    1,559;    0,773
490,725; 4463,526;    0,741;   -0,227
491,311; 4293,712;    3,287;    3,045
491,897; 3950,290;   -0,986;    1,500
492,483; 4036,590;    0,105;    1,227
493,069; 4508,298;    3,923;    0,864
493,655; 4257,169;    1,650;    0,682
494,241; 4255,173;    1,377;   -0,955
494,826; 4539,839;    0,287;   -1,045
495,412; 4307,782;    2,559;   -0,682
495,998; 4514,594;   -0,805;   -0,318
496,584; 4629,763;    0,377;    1,045
497,169; 4697,664;    1,014;   -0,682
497,755; 4848,737;    0,650;    1,227
498,341; 5488,653;    0,559;    0,318
498,926; 5389,879;    1,832;    1,955
499,512; 5611,930;    1,286;    2,955
500,097; 5765,389;    0,195;   -0,318
500,683; 5934,534;   -0,350;    2,136
501,268; 6418,135;   -0,169;   -0,955
501,854; 6473,955;   -0,169;    1,227
502,439; 6661,796;   -0,624;   -1,773
503,024; 7006,369;    0,195;    0,500
503,610; 7310,826;   -0,078;   -0,682
504,195; 7533,703;    0,558;    1,955
504,780; 7915,995;    2,922;    1,227
505,366; 8100,114;    3,013;    2,864
505,951; 8142,118;    0,740;    1,045
506,536; 8424,815;   -3,260;   -3,682
507,121; 8652,268;    0,285;   -0,318
507,706; 9313,572;    2,376;    1,045
508,291; 9933,583;    2,649;    1,136
508,876; 9712,471;   -0,988;    2,591
509,461; 9512,158;   -0,169;   -0,773
510,046;10116,604;    0,194;    0,318
510,631;10571,515;   -0,351;   -0,773
511,216;10484,993;    2,467;   -0,500
511,801;11053,086;   -0,442;    2,591
512,386;11557,020;    0,740;    0,500
512,971;11690,771;   -2,988;    0,955
513,555;11492,082;   -0,897;   -1,500
514,140;12428,462;   -0,442;   -3,136
514,725;12592,221;   -0,715;   -1,136
515,309;12892,794;   -0,533;    0,318
515,894;12518,931;   -0,624;   -2,227
516,479;13082,673;   -0,624;   -0,955
517,063;13086,487;    0,376;    1,227
517,648;13304,348;    1,012;   -1,136
518,232;13075,445;   -0,261;   -1,409
518,817;13565,160;   -0,079;    1,682
519,401;13888,699;    2,194;    0,591
519,985;13431,160;    1,103;    1,136
520,570;13433,929;    0,830;   -1,955
521,154;13816,225;    2,102;    0,591
521,738;14035,339;   -2,352;    2,409
522,323;14659,980;   -0,170;    1,682
522,907;14458,819;    0,466;   -0,136
523,491;14224,032;    0,557;    0,955
524,075;14281,293;    2,284;    0,591
524,659;14449,783;    1,466;    0,591
525,243;13929,768;    1,739;    0,409
525,827;14213,360;    0,648;   -0,045
526,411;15099,601;   -1,989;   -0,136
526,995;15382,673;   -0,352;    1,409
527,579;15033,610;   -0,443;   -1,045
528,163;15369,812;    0,375;   -1,500
528,747;15308,487;    2,466;   -0,773
529,331;15608,922;   -0,080;   -1,409
529,915;15854,413;    1,738;    0,955
530,499;15837,379;   -0,807;    1,227
531,082;15567,770;   -0,534;    1,591
531,666;14990,576;    1,374;    0,773
532,250;15722,292;    1,284;    2,682
532,833;16115,943;    0,920;    2,773
533,417;15961,907;   -1,807;    0,864
534,001;15969,415;    1,647;   -0,318
534,584;16693,852;    0,374;    0,500
535,168;16547,831;    0,465;    1,409
535,751;16633,529;    0,647;    0,045
536,334;16095,897;   -0,898;   -0,409
536,918;16679,717;    0,011;    1,591
537,501;16779,774;   -0,899;    1,318
538,085;16809,485;   -0,444;    1,045
538,668;17019,563;    0,829;    2,409
539,251;17390,095;    1,829;    3,773
539,834;17339,053;    0,101;    0,773
540,418;17273,837;   -1,990;    4,318
541,001;17469,355;   -0,990;    1,773
541,584;17425,273;    2,101;    2,227
542,167;17139,459;    1,374;    2,955
542,750;17291,952;    1,919;   -0,773
543,333;16855,994;    0,555;    2,136
543,916;17695,431;    0,192;    2,500
544,499;18392,594;   -1,354;    0,227
545,082;18359,228;    1,374;    3,591
545,665;18481,905;    1,919;    1,500
546,248;18843,994;    1,010;   -0,318
546,830;18517,998;   -0,445;    1,955
547,413;18905,025;    1,010;   -0,773
547,996;19440,129;    0,555;    0,500
548,579;19214,457;    0,919;    0,955
549,161;19054,909;    1,828;    2,682
549,744;18836,964;   -0,809;    0,409
550,326;19313,621;   -0,809;   -1,136
550,909;19121,554;    2,737;    0,591
551,492;19572,831;   -0,263;    0,227
552,074;19336,945;   -0,173;   -1,318
552,657;19921,921;    2,373;    0,045
553,239;19599,974;   -0,173;   -0,773
553,821;19521,127;   -1,082;    1,045
554,404;19047,332;    1,282;    1,136
554,986;19455,186;    0,464;    1,045
555,568;20080,966;    1,191;   -0,955
556,151;19257,862;    1,191;   -0,227
556,733;19487,042;   -0,264;   -0,864
557,315;20006,016;    0,100;    0,500
557,897;19817,213;    0,554;   -0,500
558,479;19910,177;   -1,991;    1,318
559,061;20090,767;   -0,719;   -0,864
559,643;20463,858;   -0,264;    0,045
560,225;20838,782;    1,645;    2,864
560,807;20859,767;    0,918;    0,318
561,389;20264,251;    0,554;    2,318
561,971;21151,925;    0,463;    2,136
562,553;20895,629;   -1,628;    1,591
563,135;21034,450;   -0,537;    1,136
563,717;20665,496;    3,372;    1,136
564,298;21395,818;    3,645;   -0,045
564,880;21123,602;    0,645;   -1,409
565,462;21354,147;    0,645;    1,318
566,043;22608,560;   -0,446;    2,318
566,625;22180,822;    1,918;    1,227
567,207;22040,103;    1,099;    1,682
567,788;23239,247;   -1,264;    1,500
568,370;24119,841;    1,917;   -0,500
568,951;24032,741;    0,190;    0,227
569,533;24992,716;   -0,628;   -0,500
570,114;25463,325;   -0,446;    0,682
570,695;26060,101;   -0,174;   -1,318
571,277;26694,591;   -0,265;   -1,682
571,858;27500,610;    2,008;   -1,136
572,439;28442,257;    1,554;   -1,045
573,021;28684,851;    2,099;   -2,773
573,602;29221,623;   -1,265;    0,318
574,183;30268,999;   -2,083;    2,227
574,764;30462,661;   -1,629;    0,409
575,345;31068,322;    0,917;   -0,136
575,926;31680,513;   -0,356;    0,136
576,507;31695,430;    1,099;   -0,227
577,088;32861,760;    3,099;    1,682
577,669;32920,109;    0,735;    1,955
578,250;33856,181;    0,644;   -1,045
578,831;34609,597;   -1,356;   -2,227
579,412;34879,005;   -0,810;    0,955
579,993;35701,094;    1,008;    0,227
580,573;36054,411;   -0,629;   -0,955
581,154;34992,244;    0,735;   -0,591
581,735;35956,428;    0,644;    0,773
582,315;35500,246;   -0,629;    2,136
582,896;35709,661;   -0,174;    1,227
583,477;35022,187;    0,189;    1,227
584,057;35299,697;    0,553;    0,955
584,638;35616,731;    2,553;    2,318
585,218;35580,130;   -0,538;    2,682
585,799;35751,352;    0,281;   -0,227
586,379;35634,397;    0,372;    1,591
586,959;34214,249;    0,735;    0,318
587,540;33395,919;   -0,629;    2,227
588,120;32957,885;    1,007;   -0,045
588,700;31882,585;    2,553;    2,136
589,281;32269,707;    0,462;   -0,955
589,861;32211,986;    0,099;   -1,682
590,441;31959,092;    2,371;   -2,682
591,021;30870,720;   -0,265;   -2,591
591,601;31079,266;   -0,537;    0,500
592,181;31044,348;   -0,719;   -0,773
592,761;30257,386;    0,007;    1,409
593,341;30168,750;   -0,901;    0,045
593,921;30220,726;   -0,265;    1,591
594,501;30073,010;   -0,538;    1,318
595,081;29949,375;    0,917;   -0,318
595,661;30323,821;   -1,447;    0,955
596,240;30865,572;   -0,537;    0,136
596,820;30581,041;    0,372;    1,955
597,400;30754,914;    2,008;    0,773
597,980;30873,249;    2,008;    1,045
598,559;30846,065;    2,735;   -0,227
599,139;30452,310;   -0,174;   -1,227
599,718;30448,946;   -0,174;   -0,409
600,298;30741,735;    0,735;    0,682
600,877;30975,462;    2,917;    1,409
601,457;31231,295;    2,281;    1,136
602,036;31161,528;    0,190;    2,045
602,616;31468,238;    0,644;    1,682
603,195;31796,739;   -0,355;    3,500
603,774;31344,223;   -0,901;    2,045
604,354;31233,756;    0,826;   -0,500
604,933;30651,870;    0,463;    1,864
605,512;30714,845;    3,554;    0,591
606,091;30721,631;   -0,537;    3,773
606,671;31585,363;    0,281;    0,773
607,250;30699,475;    1,644;    3,136
607,829;30889,323;    2,372;    3,227
608,408;30716,395;    1,190;    2,591
608,987;29752,794;    1,281;    3,409
609,566;30037,105;   -1,265;   -2,500
610,145;30112,075;   -1,082;    0,682
610,723;30527,970;    4,372;    6,864
611,302;29746,154;   -0,446;    1,682
611,881;29246,966;    5,008;   11,227
612,460;30114,054;    1,645;    3,955
613,039;30519,877;   -0,082;    2,045
613,617;29200,126;    1,736;    4,773
614,196;29359,179;    1,099;    1,227
614,775;29716,822;    1,009;    2,409
615,353;29648,035;    0,736;    0,864
615,932;29398,579;    0,100;    2,409
616,510;29952,357;    0,554;    0,591
617,089;29522,668;    7,100;   17,591
617,667;29148,771;    2,372;    6,136
618,246;29020,587;   -1,537;    1,318
618,824;29184,232;   -3,355;   -0,955
619,402;28701,697;   -2,900;   -1,773
619,981;29248,378;   -0,173;   -1,045
620,559;29041,431;    0,009;    1,682
621,137;28488,642;   -0,718;    1,864
621,715;28563,173;   -1,173;   -0,682
622,293;28463,325;   -0,537;   -0,773
622,871;28908,744;   -0,718;    0,500
623,450;28514,046;    0,373;   -0,864
624,028;28370,818;    0,191;   -0,955
624,606;28002,735;   -1,718;    1,682
625,183;28450,826;   -1,536;   -1,136
625,761;27994,088;    1,009;    1,136
626,339;28269,300;    1,373;    2,591
626,917;28646,957;   -0,172;   -0,045
627,495;28688,023;   -0,354;    1,318
628,073;28134,171;   -0,263;    2,864
628,650;27752,936;    0,100;    2,136
629,228;28207,765;    0,373;    4,409
629,806;27575,412;    2,282;    1,136
630,383;27844,380;    1,464;   -0,318
630,961;27618,809;    2,555;   -0,955
631,539;27364,871;    2,464;    0,227
632,116;26743,264;   11,373;   15,409
632,694;27296,583;    2,555;    6,500
633,271;27640,370;    0,828;    2,682
633,848;27601,972;    1,828;    2,045
634,426;27594,139;   -1,081;    1,773
635,003;26634,998;    1,101;   -0,409
635,580;26996,228;    1,192;    3,682
636,158;27587,581;    3,737;    1,227
636,735;27503,404;    0,555;   -0,500
637,312;27638,900;   -0,809;   -0,682
637,889;27768,962;   -4,354;   -0,682
638,466;27205,529;   -3,990;   -0,409
639,043;27212,802;    2,101;   -1,136
639,620;27529,121;   -2,262;   -0,955
640,197;27914,289;    1,100;    1,682
640,774;28015,360;   -0,172;    1,136
641,351;28403,523;    0,737;    1,136
641,928;27787,776;   -0,627;    1,409
642,505;27422,666;    0,828;   -0,500
643,082;27568,010;   -1,718;    1,227
643,658;26572,082;   -0,718;    1,500
644,235;27292,426;    1,191;    2,500
644,812;27724,589;    1,918;    0,773
645,388;27417,842;   -0,991;    1,409
645,965;27493,823;   -0,809;    1,682
646,542;27572,440;   -1,445;   -0,227
647,118;27531,512;    1,009;   -0,955
647,695;27787,401;   -0,263;    1,136
648,271;27753,655;   -0,536;    0,500
648,848;28128,272;    0,736;    2,227
649,424;27957,980;    0,827;    1,318
650,000;27727,324;   -0,354;   -1,045
650,577;27483,669;   -0,627;   -0,955
651,153;28008,740;   -1,809;    0,955
651,729;29034,630;    1,191;    0,864
652,305;29893,065;    0,645;    2,773
652,881;35929,046;   -0,082;    1,136
653,458;43328,299;    1,100;    0,227
654,034;46920,644;    0,282;    1,591
654,610;48260,806;    0,554;    0,773
655,186;49528,151;    0,645;    3,045
655,762;49158,586;   -0,991;    0,409
656,338;49161,476;    0,100;    0,136
656,913;50229,729;   -0,082;    0,409
657,489;49422,619;    0,827;   -0,318
658,065;49430,236;   -0,173;   -1,591
658,641;50073,671;   -0,900;   -0,864
659,217;49266,197;   -0,991;    0,409
659,792;48708,724;    0,645;   -0,409
660,368;48915,522;   -2,173;   -0,682
660,944;47952,503;   -2,082;    1,227
661,519;41842,666;   -0,628;    0,409
662,095;35202,010;   -1,719;    0,591
662,670;30826,445;    1,281;   -0,136
663,246;29856,880;    1,009;   -0,409
663,821;29263,043;    0,281;    1,682
664,396;28779,024;    0,009;    1,864
664,972;29113,368;    0,009;   -0,500
665,547;29409,712;    1,372;    0,136
666,122;29418,511;   -1,082;    0,318
666,698;29739,583;   -0,173;    0,318
667,273;29148,109;   -0,173;    0,136
667,848;29894,999;    2,372;    1,500
668,423;29687,161;    2,190;    2,318
668,998;30351,233;    2,827;   -0,682
669,573;30896,032;   -3,264;   -1,500
670,148;30704,922;   -1,446;   -0,682
670,723;30464,266;   -1,810;    0,318
671,298;30912,701;    2,372;    1,045
671,873;31089,591;   -0,082;   -0,136
672,448;31031,117;    0,645;    0,136
673,023;31349,462;   -1,992;   -0,227
673,597;31684,988;    0,827;    2,318
674,172;31440,878;   -0,355;    0,318
674,747;30893,495;    0,372;   -1,045
675,321;30674,021;   -0,628;    3,318
675,896;30275,911;    0,645;    1,045
676,471;31333,437;    2,645;    1,591
677,045;31088,872;   -1,264;    0,682
677,620;31181,398;    0,190;    1,136
678,194;31460,833;   -2,628;    1,136
678,769;30994,450;   -1,083;   -0,318
679,343;31297,977;   -0,628;    1,773
679,917;31193,685;   -1,446;    1,955
680,492;31263,665;    0,826;    3,227
681,066;31468,101;    3,372;    0,409
681,640;31499,263;    1,463;   -0,318
682,214;32300,971;    0,735;    0,500
682,788;31839,679;   -1,356;   -0,773
683,363;31800,660;   -1,810;    1,682
683,937;31506,550;   -1,719;   -0,318
684,511;32255,621;    0,463;   -0,591
685,085;31933,511;   -1,356;    0,318
685,659;31655,764;   -2,538;    0,864
686,232;31982,654;   -0,356;   -0,318
686,806;31679,817;   -0,901;    0,409
687,380;32303,616;   -0,174;    0,591
687,954;32497,233;   -1,174;    1,136
688,528;32251,759;   -0,719;    1,955
689,101;33026,558;   -3,992;    1,045
689,675;32604,175;   -0,356;   -0,136
690,249;32018,065;   -0,719;    0,409
690,822;32257,500;    0,280;    0,318
691,396;32395,117;   -0,265;    1,227
691,969;31788,461;    1,280;    0,136
692,543;32257,715;   -0,447;   -1,955
693,116;31911,695;   -0,265;   -1,409
693,690;31761,040;    0,099;    0,500
694,263;32339,930;   -1,083;    2,955
694,836;32419,910;    1,371;    3,591
695,410;31027,891;   -0,265;    1,773
695,983;31497,144;    0,189;    0,591
696,556;31437,034;   -0,447;   -1,045
697,129;31793,288;   -0,356;    1,409
697,703;31450,450;   -1,629;    1,955
698,276;31419,704;    1,462;   -0,773
698,849;31224,412;    1,280;    1,409
699,422;31580,301;   -1,083;    0,591
699,995;31285,009;    0,007;    0,136
700,568;31804,263;   -0,629;    3,045
701,140;31821,334;   -2,811;    1,682
701,713;31496,497;   -0,174;    2,409
702,286;31292,387;   -0,538;    0,864
702,859;31197,004;   -0,902;   -0,591
703,432;30330,075;    0,825;    0,682
704,004;30780,147;    0,462;    0,318
704,577;30669,037;   -0,629;    0,136
705,150;31289,654;    0,189;    2,500
705,722;31045,544;   -0,356;   -3,227
706,295;30835,888;   -0,175;   -0,591
706,867;30707,323;   -0,175;    1,955
707,440;30926,849;   -1,720;   -0,409
708,012;31209,921;    0,462;    0,591
708,584;31156,084;    2,462;    0,227
709,157;31376,973;    1,825;   -0,591
709,729;31003,045;    2,280;    2,045
710,301;31855,026;    0,734;    0,045
710,874;31844,279;   -1,447;   -0,227
711,446;30703,987;    0,371;    0,864
712,018;30619,059;    0,098;    0,500
712,590;30375,312;   -1,993;    1,682
713,162;30935,747;    0,825;    1,318
713,734;31121,910;    1,825;   -2,045
714,306;31033,709;   -1,902;   -0,409
714,878;29697,962;    0,825;    0,864
715,450;30502,670;    0,643;    0,864
716,022;30726,560;    1,552;    1,318
716,593;30868,723;    0,189;    0,591
717,165;30829,158;   -3,175;   -1,227
717,737;30559,775;    0,280;    0,409
718,309;30123,574;    0,280;   -0,045
718,880;30137,736;   -0,539;   -1,409
719,452;30392,626;   -0,175;   -1,591
720,024;29902,152;    0,734;   -0,591
720,595;30487,678;   -2,902;    0,955
721,167;30062,023;    0,370;   -2,045
721,738;29536,549;   -0,812;   -1,045
722,309;29567,893;   -0,993;   -1,227
722,881;29322,056;   -1,357;    0,773
723,452;29948,855;   -2,630;    2,864
724,023;30090,381;   -0,721;    2,682
724,595;29858,634;    0,007;    0,682
725,166;29612,979;    0,007;   -0,409
725,737;29274,868;    1,734;    0,227
726,308;29309,031;   -0,266;    0,318
726,879;29810,466;   -1,630;    1,227
727,450;29685,629;    0,552;   -0,045
728,021;29675,973;    3,097;    0,682
728,592;29432,863;    0,734;    0,500
729,163;29703,662;    0,643;   -0,136
729,734;29848,461;    0,188;   -0,227
730,305;30247,441;    1,734;    0,136
730,876;30554,695;    0,188;    2,955
731,447;30251,403;    2,188;    2,682
732,017;30414,111;    1,097;    1,864
732,588;29845,092;    0,734;    1,227
733,159;30079,890;    0,643;   -1,045
733,729;29827,689;    0,006;    0,409
734,300;29126,488;    0,915;    0,864
734,870;29526,651;    3,461;    0,591
735,441;30103,268;    0,370;   -0,591
736,011;29803,703;    0,643;   -1,591
736,582;29769,138;   -0,812;    0,045
737,152;29222,028;   -1,721;   -2,045
737,722;29707,100;   -0,267;   -0,682
738,293;29361,717;   -1,358;    1,318
738,863;29259,061;    2,461;    2,318
739,433;29013,496;    5,279;    0,318
740,003;29708,477;   -0,994;   -0,682
740,573;29078,094;    2,097;   -1,591
741,143;28994,257;   -1,085;    0,318
741,713;29774,965;    1,188;   -0,500
742,283;29525,309;    0,915;    1,591
742,853;29263,108;    1,915;    1,591
743,423;28678,361;    1,733;    0,045
743,993;28796,887;   -0,358;    1,500
744,563;28180,868;    0,097;   -0,864
745,133;28158,667;   -0,812;   -0,864
745,702;28836,920;   -0,267;    1,773
746,272;28043,356;   -0,176;    0,591
746,842;27792,518;   -1,358;   -0,591
747,411;28213,590;   -0,267;   -0,318
747,981;28407,298;    0,097;    0,500
748,551;28430,642;    2,278;   -1,045
749,120;28284,896;    0,642;   -0,227
749,690;28693,876;   -0,631;    2,409
750,259;29058,221;    1,369;    2,955
750,828;28994,383;    1,551;   -1,955
751,398;29225,728;    1,278;   -0,045
751,967;28788,436;    2,187;    0,409
752,536;28973,507;   -0,813;   -0,227
753,105;29394,488;    0,096;    0,227
753,675;29246,559;    0,096;    1,773
754,244;29136,449;   -0,904;    3,591
754,813;29177,885;    0,551;    1,227
755,382;28748,229;    0,460;    0,955
755,951;29350,482;    1,551;    3,682
756,520;28834,463;   -0,085;    1,864
757,089;29467,898;    0,278;    0,500
757,658;29577,152;    1,733;    1,227
758,227;29571,587;    1,096;    0,318
758,795;29961,931;    1,187;    1,136
759,364;30129,912;   -0,086;   -0,591
759,933;29132,165;   -1,176;   -0,045
760,501;28639,510;    0,733;   -1,318
761,070;29098,854;   -2,813;   -1,409
761,639;29831,289;   -1,904;    1,318
762,207;29213,816;    1,551;   -0,955
762,776;29090,160;    0,369;    0,864
763,344;29064,959;   -0,995;    0,591
763,913;28110,303;   -0,722;    1,409
764,481;28844,920;    1,005;   -0,136
765,049;28584,083;   -1,358;    1,409
765,618;28489,882;   -0,086;    0,318
766,186;28544,135;    0,278;    0,136
766,754;28699,479;    0,005;    1,864
767,322;27691,733;   -1,995;    0,409
767,890;27754,623;   -0,722;   -1,773
768,459;28165,331;   -2,177;   -0,318
769,027;28321,220;    1,641;    3,409
769,595;27233,019;    3,278;    2,591
770,163;27673,727;    3,823;    2,955
770,730;27429,526;    0,732;   -0,136
771,298;27212,143;    0,187;   -1,409
771,866;27320,397;   -1,541;    4,955
772,434;27725,286;   -0,631;   -1,864
773,002;27858,358;    0,005;    0,682
773,569;27444,702;    0,914;    1,682
774,137;27332,047;   -0,268;   -0,045
774,705;28094,209;    0,278;   -0,136
775,272;27571,281;    0,641;    0,682
775,840;27280,989;   -0,177;    2,682
776,407;26872,697;    0,277;    1,955
776,975;26388,314;   -0,632;    0,318
777,542;27442,386;   -1,086;   -0,045
778,110;27224,548;   -1,268;   -0,045
778,677;26892,165;   -2,359;   -0,864
779,244;26671,509;    2,186;    1,045
779,812;26753,308;    1,823;    0,864
780,379;26655,016;    0,005;    1,136
780,946;26862,088;    1,005;   -0,773
781,513;27184,796;   -1,450;    0,318
782,080;26588,231;   -0,086;    2,864
782,647;27364,394;   -0,268;    3,045
783,214;26875,011;   -0,177;    3,864
783,781;26536,355;   -0,723;   -0,682
784,348;26417,609;   -0,632;    1,500
784,915;26865,589;   -3,177;    0,318
785,482;26647,025;    1,368;    2,591
786,049;27078,460;    0,186;   -0,591
786,615;27169,713;    0,277;   -0,955
787,182;26908,148;    0,186;   -0,682
787,749;26586,220;   -2,814;    1,409
788,315;25880,110;   -1,632;   -0,409
788,882;26137,000;    1,550;   -1,227
789,448;26916,708;    1,732;   -0,955
790,015;26946,961;    1,095;    3,227
790,581;26494,760;    1,459;    0,227
791,148;26386,923;    0,641;    1,045
791,714;26579,630;   -0,541;    3,136
792,280;26249,429;    0,186;    1,591
792,847;25774,774;    0,550;    2,500
793,413;26349,118;   -0,269;   -0,318
793,979;25909,372;    3,459;   -1,318
794,545;25952,625;    4,459;    2,682
795,111;25344,969;    2,186;    1,318
795,678;25539,041;    0,731;   -1,682
796,244;25175,658;    3,368;    0,136
796,810;25713,820;    1,731;    0,773
797,375;25413,619;    0,549;   -2,136
797,941;25423,418;   -0,541;    0,591
798,507;25590,944;   -0,451;   -0,955
799,073;25078,107;   -0,360;    0,591
799,639;25152,179;   -2,632;    3,136
800,205;25145,887;    0,095;    2,682
800,770;24720,049;    0,640;    1,773
801,336;24796,303;    1,368;   -0,955
801,901;24508,738;    4,549;    3,136
802,467;25063,809;   -0,542;    2,045
803,033;24365,245;   -0,087;    0,864
803,598;24601,498;    1,913;   -1,045
804,163;24549,297;    1,095;   -0,318
804,729;24588,096;   -0,178;    1,136
805,294;25030,440;    0,822;    2,227
805,859;24778,875;    0,731;   -0,409
806,425;24241,220;    1,186;    2,682
806,990;23881,200;    2,186;    4,318
807,555;24419,545;   -1,451;    2,591
808,120;24278,707;    0,822;   -0,409
808,685;24303,324;    0,185;   -2,500
809,250;23788,396;    0,004;   -0,500
809,815;24106,377;    1,913;    0,682
810,380;24703,357;   -0,269;    1,591
810,945;25251,702;   -1,087;    2,045
811,510;24356,137;    2,094;    1,591
812,075;24030,209;   -0,633;   -1,409
812,640;24104,008;    2,003;    1,409
813,204;24122,261;    0,822;   -0,227
813,769;24614,151;    2,094;   -0,045
814,334;24009,132;    0,458;    0,864
814,898;24103,021;    0,367;    0,591
815,463;23922,093;    1,276;   -0,773
816,027;23894,528;   -0,724;   -2,318
816,592;23969,782;    0,640;   -2,045
817,156;23476,308;    2,094;    1,136
817,721;23348,470;    4,276;    2,318
818,285;23281,996;    2,912;    1,500
818,849;23957,432;   -1,451;    1,682
819,414;23836,140;   -0,269;    2,955
819,978;23400,666;   -1,269;    1,773
820,542;23991,283;    2,003;    0,500
821,106;23644,718;   -0,815;    0,682
821,670;23787,063;   -0,815;    2,591
822,234;23538,952;   -0,270;    1,409
822,798;22889,842;    0,003;    0,500
823,362;22827,005;   -0,633;    4,227
823,926;22127,440;    0,094;    1,136
824,490;22394,784;   -0,997;   -0,682
825,054;22833,492;   -0,088;   -1,136
825,618;22421,564;   -1,542;   -1,500
826,181;22367,454;    0,458;   -1,318
826,745;22291,980;    1,367;   -1,045
827,309;22672,051;    1,185;    1,318
827,872;22021,578;    1,367;    0,955
828,436;23057,831;    1,185;   -0,773
828,999;23058,357;   -0,997;    1,227
829,563;21812,611;   -0,179;    1,136
830,126;21643,955;   -0,179;   -0,591
830,690;21667,936;   -1,997;    2,864
831,253;21143,280;   -0,543;    2,227
831,816;21303,352;   -1,906;    0,500
832,380;21224,878;    0,185;    0,864
832,943;21471,495;   -1,361;   -0,500
833,506;20906,294;    2,639;   -1,227
834,069;21749,911;    3,912;   -0,955
834,632;21783,892;    1,730;    1,318
835,195;21670,054;    1,003;    0,955
835,758;20830,126;   -0,997;    1,955
836,321;20691,106;    0,730;   -1,045
836,884;20793,542;   -0,725;   -0,955
837,447;20788,431;   -2,816;    1,773
838,010;21125,048;    0,366;    3,227
838,573;21398,120;   -1,179;    0,773
839,135;21319,464;   -1,361;   -0,955
839,698;20771,718;    1,275;    0,409
840,261;20269,335;    1,003;   -0,227
840,823;20069,861;   -0,543;    0,864
841,386;20339,478;   -0,452;   -2,409
841,948;20244,095;   -1,361;    1,773
842,511;19964,440;    0,912;    1,682
843,073;20148,875;    1,912;    0,227
843,636;19915,946;   -0,361;   -0,227
844,198;19899,836;    0,911;    0,591
844,760;20011,817;    1,093;    1,955
845,322;19642,070;    0,548;    1,136
845,885;20064,687;    0,730;    0,591
846,447;20519,577;   -1,998;    0,227
847,009;20127,467;    1,911;   -0,682
847,571;20412,448;    0,820;   -2,045
848,133;20534,428;   -1,089;   -1,864
848,695;20338,591;   -0,543;    1,409
849,257;19890,663;   -1,089;   -1,682
849,819;20087,189;   -0,998;   -0,409
850,381;20118,806;   -0,725;   -0,864
850,942;20480,332;    1,093;   -0,591
851,504;20512,858;    1,184;    0,227
852,066;20496,293;    1,275;   -1,591
852,628;19930,729;   -0,180;    1,955
853,189;19509,800;    1,638;    2,682
853,751;19634,599;   -0,907;    1,409
854,312;19422,489;   -0,453;   -1,682
854,874;19967,924;   -2,089;   -0,773
855,435;20515,723;   -0,907;   -1,682
855,997;20700,522;   -1,816;   -0,136
856,558;19939,321;    0,366;    1,773
857,119;20063,393;    0,820;    2,864
857,681;19725,282;    0,002;    0,318
858,242;19801,899;    1,911;   -2,136
858,803;20246,062;    0,456;   -0,773
859,364;20803,770;    0,184;   -4,773
859,925;20097,569;   -2,453;   -0,955
860,486;19944,368;   -0,453;   -0,955
861,047;19658,803;   -0,544;   -1,227
861,608;19485,147;   -1,089;   -0,773
862,169;19610,946;    0,638;   -0,045
862,730;19371,109;    0,456;    1,409
863,291;19661,998;   -0,635;   -0,500
863,852;20070,161;   -0,635;    1,955
864,412;19442,596;   -0,271;   -0,864
864,973;17956,032;   -0,089;    0,500
865,534;17855,012;   -1,726;    0,227
866,094;19411,175;    1,820;    0,227
866,655;19064,428;    1,274;    3,318
867,215;19302,136;    0,274;    0,136
867,776;19137,390;    0,547;   -0,136
868,336;19229,825;   -1,453;    0,136
868,897;18730,260;    2,638;    1,682
869,457;18444,604;    1,365;    0,318
870,017;18649,494;    0,547;   -1,227
870,578;19214,657;   -0,817;    0,773
871,138;18925,728;   -2,089;   -0,955
871,698;18456,255;   -0,817;   -1,318
872,258;18346,144;   -0,453;   -2,864
872,818;18698,489;    2,729;    0,045
873,378;18628,924;    0,638;    1,045
873,938;18124,723;    0,547;    0,500
874,498;18468,340;    0,274;   -1,955
875,058;18431,775;    2,183;    1,773
875,618;18258,938;    1,910;   -2,682
876,177;18208,282;    1,274;    0,136
876,737;17786,172;   -0,090;    1,955
877,297;17809,880;    0,183;    1,955
877,856;17804,770;   -0,362;    0,318
878,416;17768,932;    1,183;   -0,136
878,976;18005,367;   -1,817;    0,409
879,535;18126,984;    0,092;    3,136
880,095;17849,692;   -0,544;    0,045
880,654;17955,582;   -1,090;    1,318
881,213;18110,563;    2,456;    1,500
881,773;17715,271;    2,637;    2,682
882,332;18137,070;    3,365;    5,136
882,891;17946,869;    3,092;    2,136
883,451;18418,304;   -1,272;    1,682
884,010;17811,012;   -2,908;   -0,409
884,569;17903,902;   -0,999;   -0,045
885,128;18101,428;    2,819;   -1,864
885,687;18240,863;    4,455;    0,682
886,246;17929,207;    1,455;    2,136
886,805;17648,552;    2,455;    2,045
887,364;17945,714;   -0,999;   -0,500
887,922;18297,968;   -1,181;    0,045
888,481;17797,403;   -1,545;    0,591
889,040;18098,202;    1,183;    2,136
889,599;18780,001;    2,455;    1,409
890,157;18862,345;    1,455;    2,409
890,716;18557,962;   -0,090;    0,227
891,274;18360,397;    0,092;   -1,136
891,833;18805,378;    1,546;    0,864
892,391;18671,359;   -0,454;    0,500
892,950;18748,521;    1,819;   -0,773
893,508;19121,775;    0,455;   -0,409
894,067;18402,665;    0,637;    0,136
894,625;18313,191;   -0,636;   -1,500
895,183;18548,626;   -0,363;   -0,682
895,741;18457,970;    1,728;   -1,773
896,299;18248,587;   -0,545;   -2,409
896,858;18438,386;    0,819;   -1,591
897,416;18607,731;    2,728;   -1,318
897,974;18309,711;    1,819;    0,318
898,532;18507,147;    6,091;    2,682
899,089;18360,400;    2,091;   -0,682
899,647;18376,472;   -1,454;    1,318
900,205;18099,452;    1,182;    1,045
900,763;18234,797;   -0,454;    0,227
901,321;18302,596;    2,364;   -1,409
901,878;17692,122;   -1,000;   -0,773
902,436;17539,648;   -1,363;    1,318
902,994;17970,356;    4,728;    3,682
903,551;17384,428;    0,728;    0,409
904,109;17751,681;    0,182;   -1,409
904,666;17301,025;    2,455;    1,045
905,224;17193,642;    0,182;   -0,409
905,781;16953,441;    0,727;   -0,318
906,338;16998,058;   -1,363;    1,045
906,895;16896,948;    0,637;    2,045
907,453;16825,474;    1,727;    1,136
908,010;16857,819;   -0,909;    0,409
908,567;16521,072;    1,273;    0,591
909,124;15976,598;    0,364;   -1,500
909,681;16062,852;   -2,909;    0,682
910,238;16175,651;    0,636;   -1,318
910,795;16492,359;   -0,273;   -1,136
911,352;16094,086;   -2,909;   -2,682
911,909;15478,904;   -1,364;   -0,864
912,466;16039,359;   -3,182;    1,500
913,022;15563,268;   -1,636;    0,500
913,579;15896,540;   -0,909;    2,045
914,136;15563,359;    1,636;    0,955
914,692;15949,813;    0,091;   -1,227
915,249;15525,813;    1,455;    0,409
915,806;15758,904;    0,182;    1,955
916,362;15494,449;    1,909;    1,864
916,918;15064,449;    2,000;    1,045
917,475;15008,813;   -1,182;    0,955
918,031;15065,449;    3,364;   -0,045
918,587;14554,086;   -0,909;   -0,318
919,144;14694,813;   -2,273;    0,227
919,700;15026,177;    1,727;    0,773
920,256;14622,268;    0,727;    0,045
920,812;14208,540;   -0,727;   -1,045
921,368;14228,540;   -1,727;   -1,045
921,924;13854,449;    0,182;   -0,136
922,480;13458,631;   -0,545;    1,227
923,036;14057,086;    1,273;    1,955
923,592;13986,359;    0,455;    0,318
924,148;13933,813;    0,455;   -0,955
924,704;13173,177;   -1,364;   -0,409
925,259;13397,813;   -0,273;    0,591
925,815;13188,268;    1,455;    0,500
926,371;12683,359;    2,909;    1,409
926,926;12543,268;    2,091;    0,591
927,482;12175,813;   -1,364;    0,773
928,037;12069,631;    0,909;    2,045
928,593;12381,449;    1,636;    1,045
929,148;12142,813;   -1,818;   -1,500
929,704;11636,813;   -1,455;   -0,500
930,259;11836,904;    0,091;   -0,136
930,814;10873,177;   -0,818;    1,955
931,369;10544,722;    1,091;   -0,773
931,925;10389,631;   -0,091;    0,136
932,480;10316,722;   -2,818;   -2,591
933,035;10202,904;    0,545;   -0,318
933,590; 9959,086;    0,364;   -1,773
934,145; 9570,177;   -1,364;   -0,318
934,700; 9880,268;    0,455;   -0,591
935,255; 9679,359;   -0,091;    0,045
935,809; 8913,995;    3,182;    0,864
936,364; 8025,268;   -0,455;   -0,136
936,919; 7982,813;    0,455;   -1,773
937,474; 7829,813;    1,455;    0,136
938,028; 7561,540;   -1,636;    1,136
938,583; 7027,904;    1,818;    4,682
939,138; 7297,449;    2,091;    2,136
939,692; 6699,268;    1,636;   -1,136
940,247; 6381,268;   -0,727;   -1,045
940,801; 5911,449;   -0,636;    0,227
941,355; 5781,904;   -0,364;    2,591
941,910; 5416,904;   -0,273;   -2,136
942,464; 5523,995;   -0,818;   -0,318
943,018; 5327,086;    1,000;   -0,227
943,572; 5258,449;    2,545;   -0,682
944,126; 4634,631;    0,091;   -0,409
944,681; 4544,359;    3,091;    0,227
945,235; 4539,268;    1,000;   -0,591
945,789; 4466,722;    0,364;   -1,864
946,342; 4546,722;    0,455;   -0,591
946,896; 4356,449;   -2,273;    0,955
947,450; 4106,540;    1,545;   -0,227
948,004; 4301,722;    1,727;   -0,045
948,558; 4300,995;    0,273;   -0,864
949,111; 4239,540;   -0,273;   -0,318
949,665; 4260,086;    1,636;   -0,682
950,219; 4136,268;   -0,091;   -1,045
950,772; 4197,359;   -1,909;    1,864
951,326; 4096,722;    0,545;   -0,955
951,879; 4217,359;    0,727;   -2,318
952,433; 4229,359;    0,000;    2,227
952,986; 4052,995;    2,909;    0,682
953,539; 4030,722;   -0,273;    0,591
954,093; 3941,086;    0,545;   -1,318
954,646; 4064,995;    0,909;    1,318
955,199; 3873,813;    0,000;   -0,500
955,752; 3751,813;   -0,455;    1,773
956,305; 3714,449;   -0,091;    2,955
956,858; 3914,359;    0,818;   -0,318
957,411; 4061,722;   -0,545;    2,136
957,964; 3903,631;    1,364;    2,136
958,517; 3896,631;   -1,545;    3,136
959,070; 3716,904;   -0,455;    1,955
959,623; 3785,449;    1,091;    1,500
960,176; 3544,540;    1,727;    2,045
960,728; 3523,086;   -2,727;    0,773
961,281; 3563,540;    0,545;    0,500
961,834; 3629,995;   -0,909;    0,864
962,386; 3524,722;    1,727;    1,045
962,939; 3458,631;    0,364;   -0,318
963,491; 3621,813;    0,455;    1,136
964,043; 3478,904;    1,182;    2,409
964,596; 3611,995;   -1,000;    2,227
965,148; 3441,904;   -1,000;    1,773
965,700; 3348,722;    1,091;   -0,227
966,253; 3514,813;   -0,636;    0,318
966,805; 3333,995;   -2,273;    0,773
967,357; 3387,722;    1,091;   -1,500
967,909; 3342,722;    0,455;   -1,227
968,461; 3473,540;    0,545;    3,136
969,013; 3405,086;   -0,182;   -0,864
969,565; 3487,722;   -0,455;   -1,136
970,117; 3521,268;   -0,364;    1,045
970,669; 3364,177;    0,182;   -0,136
971,220; 3215,359;   -0,455;   -1,500
971,772; 3138,722;   -0,636;   -0,318
972,324; 3258,722;    0,091;   -0,500
972,876; 3204,995;    0,818;   -0,045
973,427; 3354,177;    1,909;   -1,045
973,979; 3312,722;   -0,727;   -2,500
974,530; 3368,268;    1,818;    1,318
975,082; 3375,904;   -0,545;    1,682
975,633; 3265,268;    1,091;    1,682
976,184; 3411,904;    0,909;    0,773
976,736; 3168,540;    0,091;    0,227
977,287; 2970,086;   -0,909;   -0,500
977,838; 3162,904;    0,909;   -0,318
978,389; 3226,631;   -1,000;   -0,500
978,940; 3101,904;    0,545;   -0,409
979,491; 3117,904;    0,091;   -0,500
980,042; 3078,995;    0,182;    3,045
980,593; 3118,086;   -2,545;    0,227
981,144; 3175,268;    2,545;   -0,500
981,695; 3131,268;    1,455;    1,500
982,246; 3104,722;   -0,273;    1,045
982,797; 3262,449;   -1,727;    0,682
983,347; 3384,631;    0,364;    0,591
983,898; 3546,359;    3,091;    0,409
984,449; 3373,268;    2,182;    0,773
984,999; 3290,177;    1,455;   -1,136
985,550; 3039,722;    0,182;   -0,318
986,100; 3065,359;   -0,455;   -0,318
986,651; 3104,359;   -0,818;    0,045
987,201; 3069,813;   -1,000;   -0,591
987,751; 3154,359;    0,818;    2,864
988,302; 3159,995;    2,636;    1,500
988,852; 3189,904;    0,455;   -1,136
989,402; 3215,086;    0,091;    0,682
989,952; 3113,540;   -2,182;    0,864
990,502; 3231,813;   -0,091;    0,682
991,052; 3212,904;   -0,727;    0,045
991,602; 3066,359;   -2,909;    1,318
992,152; 3060,086;    0,455;    0,682
992,702; 3027,268;    1,364;   -0,045
993,252; 2967,086;   -3,000;   -0,500
993,802; 3039,086;   -0,273;    1,318
994,352; 3295,540;   -1,545;    1,136
994,901; 3377,813;   -0,182;    3,227
995,451; 3303,359;   -0,182;    0,318
996,000; 3388,631;    1,636;    0,318
996,550; 3084,359;    2,273;    0,227
997,100; 3073,359;    1,273;   -0,045
997,649; 3380,086;    2,182;    0,955
998,198; 2976,449;    1,727;   -1,500
998,748; 3189,904;    1,091;   -2,318
999,297; 3095,904;   -0,818;   -0,409
999,846; 3142,268;    1,000;   -0,773
1000,395; 3195,995;   -0,818;    0,500
1000,945; 3157,086;    1,818;   -0,773
1001,494; 3262,722;    2,364;    0,682
1002,043; 3240,540;    4,636;    0,864
1002,592; 3087,813;   -1,091;    1,955
1003,141; 3248,359;   -0,455;   -0,682
1003,690; 3075,722;    1,727;    0,500
1004,238; 3170,722;    1,455;   -0,045
1004,787; 2789,268;    1,364;    1,227
1005,336; 3013,904;    0,364;    0,682
1005,885; 3180,995;    1,364;   -2,773
1006,433; 3321,631;    0,545;    0,955
1006,982; 3364,449;    0,455;    1,682
1007,531; 3292,086;   -1,818;   -0,227
1008,079; 3254,086;   -2,273;    0,500
1008,627; 3385,722;   -1,455;    0,409
1009,176; 3098,813;    0,000;   -1,955
1009,724; 3171,177;    1,091;    0,864
1010,273; 3214,995;    1,273;    0,500
1010,821; 3323,904;    0,091;    1,409
1011,369; 3039,904;   -1,364;    1,318
1011,917; 3030,359;   -1,364;   -0,591
1012,465; 3315,449;    1,273;   -1,591
1013,013; 3435,268;    2,091;   -1,682
1013,561; 3303,722;    0,455;   -0,773
1014,109; 3360,086;   -1,909;    1,682
1014,657; 3230,540;    0,364;    0,591
1015,205; 3354,268;    1,636;   -0,955
1015,753; 3409,813;   -0,545;   -1,409
1016,301; 3446,086;   -2,636;    3,045
1016,848; 3433,086;   -1,273;    0,409
1017,396; 3477,086;    2,545;    0,045
1017,944; 3602,722;    1,182;    1,864
1018,491; 3354,359;    0,273;    1,409
1019,039; 3510,995;    0,455;    0,591
1019,586; 3430,540;   -1,364;    1,682
1020,134; 3529,086;    0,455;    1,500
1020,681; 3543,995;    0,182;   -1,136
1021,228; 3545,722;    2,909;   -2,227
1021,776; 3358,904;    1,182;   -1,136
1022,323; 3602,540;    0,455;    0,773
1022,870; 3526,995;   -1,000;   -0,045
1023,417; 3407,540;    2,636;    1,864
1023,964; 3572,995;    2,636;    1,227
1024,511; 3393,995;    1,000;    0,773
1025,058; 3181,722;    3,182;   -0,045
1025,605; 3226,449;   -2,273;    3,136
1026,152; 3470,268;    1,727;   -0,591
1026,699; 3176,268;    1,818;    1,318
1027,245; 3347,904;   -0,091;    0,318
1027,792; 3563,449;   -1,000;    1,409
1028,339; 3447,904;    2,364;   -0,045
1028,885; 3281,631;    1,000;   -0,227
1029,432; 3224,449;   -0,091;    0,227
1029,978; 3296,995;   -1,000;   -1,591
1030,525; 3192,177;    1,000;    0,409
1031,071; 3431,268;   -1,364;    1,136
1031,618; 3530,995;    0,364;    1,682
1032,164; 3319,177;   -0,091;    3,045
1032,710; 3385,086;    1,636;   -1,500
1033,256; 3280,268;   -0,636;   -0,136
1033,803; 3268,359;   -0,545;    1,500
1034,349; 2976,177;   -1,364;    0,136
1034,895; 3143,995;    0,000;   -0,318
1035,441; 3113,904;   -0,818;    0,318
1035,987; 3103,268;   -2,364;   -0,682
1036,533; 3102,631;   -1,455;   -0,955
1037,078; 3300,722;    1,455;    1,682
1037,624; 3118,359;    2,455;   -0,955
1038,170; 3155,904;    0,455;   -0,318
1038,716; 3054,904;    1,636;   -0,409
1039,261; 2974,631;   -2,273;   -0,773
1039,807; 2912,268;   -0,091;    3,409
1040,352; 2982,268;   -1,909;   -0,318
1040,898; 3010,268;   -1,545;   -0,682
1041,443; 2913,086;   -1,455;   -2,591
1041,989; 2948,631;    1,091;    1,591
1042,534; 2821,359;   -0,364;    2,591
1043,079; 2942,540;    2,909;    0,955
1043,625; 2728,995;    1,818;    0,500
1044,170; 2775,631;   -1,364;    1,045
1044,715; 3027,995;    2,455;    0,955
1045,260; 2836,177;    2,182;   -0,955
1045,805; 2887,359;    1,182;   -0,591
1046,350; 2833,995;    1,364;   -0,409
1046,895; 2772,904;    2,909;    1,591
1047,440; 2708,722;    5,364;    0,409
1047,985; 2608,813;    2,818;   -0,955
1048,530; 2533,177;    1,545;    1,227
1049,074; 2606,359;    0,000;    0,318
1049,619; 2571,995;   -1,364;    1,955
1050,164; 2368,631;    0,455;    0,227
1050,708; 2417,540;   -0,455;    0,045
1051,253; 2782,268;    1,273;   -2,227
1051,797; 2493,359;    0,818;   -1,318
1052,342; 2505,631;   -1,182;    1,045
1052,886; 2503,359;    0,364;   -1,409
1053,430; 2374,904;   -1,364;    0,136
1053,975; 2388,631;   -0,818;   -0,318
1054,519; 2377,449;   -0,727;    3,227
1055,063; 2402,268;    0,909;    1,318
1055,607; 2272,813;   -0,182;    0,227
1056,151; 2293,086;    2,909;    1,682
1056,695; 2200,813;    2,273;   -1,136
1057,239; 2278,268;   -1,727;   -0,682
1057,783; 2289,813;    0,818;   -1,500
1058,327; 2227,449;    0,000;    1,409
1058,871; 2464,813;   -0,545;    1,318
1059,415; 2158,177;   -0,818;   -0,045
1059,958; 2433,177;    1,455;    2,591
1060,502; 2133,995;   -1,000;   -0,773
1061,046; 2033,359;    0,364;   -0,955
1061,589; 2019,449;   -3,000;   -1,136
1062,133; 1907,540;   -1,273;    1,864
1062,676; 1837,631;    1,182;    0,864
1063,220; 1841,359;    1,091;    0,500
1063,763; 1859,904;    0,909;    1,136
1064,306; 1947,904;   -0,909;    1,864
1064,849; 1831,995;   -0,909;    0,591
1065,393; 1825,995;    2,000;   -1,500
1065,936; 1951,904;    0,182;   -0,409
1066,479; 1825,995;   -1,455;    1,318
1067,022; 1842,268;   -0,273;   -0,227
1067,565; 1746,268;   -0,091;   -1,318
1068,108; 1787,359;    0,727;   -0,591
1068,651; 1762,177;   -0,636;    1,409
1069,194; 1677,904;   -0,455;   -1,682
1069,736; 1686,904;   -1,273;    0,955
1070,279; 1653,359;   -1,364;   -0,500
1070,822; 1708,904;   -2,000;   -0,318
1071,364; 1812,086;   -0,364;    1,318
1071,907; 1620,904;   -0,727;    3,227
1072,450; 1512,449;    0,000;   -0,045
1072,992; 1500,268;   -0,273;    3,136
1073,535; 1660,177;    2,091;    2,136
1074,077; 1440,631;   -0,727;    2,045
1074,619; 1389,268;   -1,364;    0,591
1075,161; 1438,813;   -1,091;    1,500
1075,704; 1626,268;    1,545;    1,227
1076,246; 1430,631;   -0,182;    0,682
1076,788; 1342,449;   -0,364;    1,773
1077,330; 1411,177;    1,273;    2,136
1077,872; 1380,268;    0,909;    0,955
1078,414; 1617,359;    2,727;    0,773
1078,956; 1346,631;    1,273;   -0,227
1079,498; 1611,904;    1,636;    0,318
1080,040; 1305,722;    1,909;   -1,318
1080,581; 1240,722;    1,636;   -0,318
1081,123; 1175,086;    0,091;   -0,773
1081,665; 1221,449;   -1,182;   -0,955
1082,206; 1529,813;    1,364;   -0,500
1082,748; 1390,722;    0,727;    2,045
1083,289; 1262,268;   -2,000;    1,318
1083,831; 1154,540;   -0,545;    0,227
1084,372; 1193,995;    0,000;    0,591
1084,913; 1201,177;    1,091;    0,864
1085,455; 1165,722;   -1,909;   -2,045
1085,996; 1140,631;   -2,273;    0,136
1086,537; 1169,995;   -0,091;    0,864
1087,078; 1197,995;   -0,909;   -2,136
1087,619; 1232,359;   -1,273;    0,227
1088,160; 1150,359;    0,000;    1,318
1088,701; 1126,995;   -1,091;    0,682
1089,242; 1067,722;    1,364;   -2,227
1089,783; 1177,995;   -0,273;    1,409
1090,324; 1134,359;    0,455;    0,682
1090,865; 1006,813;    2,727;   -0,409
1091,405;  957,449;    0,727;    2,227
1091,946;  997,722;    0,182;   -0,955
1092,487;  926,722;    0,818;   -1,409
1093,027; 1103,268;   -1,364;   -1,500
1093,568;  947,268;   -0,364;    1,227
1094,108; 1063,995;    0,273;    1,773
1094,649;  999,540;   -1,182;    0,136
1095,189;  926,449;   -0,636;   -0,682
1095,729;  877,086;   -0,091;    0,955
1096,269;  874,177;    0,727;   -0,955
1096,810; 1210,631;   -1,364;    0,500
1097,350; 1024,904;    1,364;   -0,773
1097,890;  925,268;    0,364;    1,227
1098,430; 1193,359;    2,364;    2,864
1098,970; 1059,359;    2,182;    1,682
1099,510;  899,813;    0,545;   -2,318
1100,050;  834,268;    1,000;   -1,591
1100,589;  796,177;   -0,727;   -0,318
1101,129;  938,359;    0,818;   -0,955
1101,669; 1090,086;    1,727;    2,136
1102,209;  905,268;   -0,091;    2,227
1102,748;  862,540;    0,000;    0,955
1103,288;  852,359;    1,273;   -1,227
1103,827;  879,086;    3,091;   -2,227
1104,367;  752,631;   -0,091;   -2,409
1104,906;  707,449;    1,364;   -1,136
1105,445;  780,631;    0,636;   -1,136
1105,985;  734,722;   -0,727;    1,500
1106,524;  776,086;   -1,727;   -0,682
1107,063;  757,722;   -2,727;    1,409
1107,602;  721,995;   -1,909;   -1,500
1108,141;  644,995;   -1,909;    1,500
1108,680;  766,086;   -3,455;   -0,591
1109,219;  691,904;   -0,909;   -0,500
1109,758;  689,631;    0,455;    0,682
1110,297;  669,086;    1,000;   -0,682
1110,836;  604,449;   -0,727;    0,955
1111,375;  789,449;   -2,545;    0,409
1111,913;  793,540;   -1,000;    0,773
1112,452;  717,086;   -0,273;    0,136
1112,991;  596,631;    1,091;    1,955
1113,529;  558,631;   -0,818;   -0,045
1114,068;  630,268;   -0,273;    2,955
1114,606;  523,086;   -0,364;   -0,955
1115,144;  708,722;   -1,273;    1,045
1115,683;  634,540;   -0,727;    0,318
1116,221;  684,813;   -0,455;   -0,864
1116,759;  585,631;    0,636;   -0,864
1117,297;  796,813;    0,000;    1,864
1117,836;  593,631;   -2,182;   -1,227
1118,374;  608,995;    0,182;   -0,682
1118,912;  533,995;    0,909;    2,682
1119,450;  526,813;    1,000;    0,864
1119,988;  586,359;    1,545;    2,136
1120,525; 1058,722;    5,091;    3,318
1121,063;  740,722;    1,182;    1,864
1121,601;  541,904;   -0,909;   -1,227
1122,139;  494,359;   -0,727;   -2,045
1122,676;  705,995;   -0,727;    2,773
1123,214;  632,449;   -1,182;    4,409
1123,751;  435,086;    1,727;    2,227
1124,289;  575,359;   -0,091;   -0,409
1124,826;  441,722;    1,727;    0,227
1125,364;  358,177;    1,727;   -0,955
1125,901;  559,449;    1,182;    1,227
1126,438;  683,904;    0,818;    0,955
1126,975;  389,177;   -0,727;   -0,773
1127,513;  458,904;    0,273;    2,136
1128,050;  355,631;    1,636;   -0,682
1128,587;  463,449;    2,000;   -0,227
1129,124;  511,904;    0,091;    1,318
1129,661;  371,268;    0,273;    0,227
1130,198;  547,359;    1,636;    0,773
1130,734;  484,359;    0,182;    1,409
1131,271;  340,813;   -0,909;    0,864
1131,808;  518,268;    2,909;    3,045
1132,345;  387,631;    1,545;    0,318
1132,881;  251,813;   -1,545;   -1,864
1133,418;  395,177;    0,727;   -1,136
1133,954;  337,995;    2,455;   -2,682
1134,491;  421,995;    1,364;   -0,773
1135,027;  306,995;    2,364;    0,864
1135,564;  409,722;    0,273;    2,955
1136,100;  395,813;    0,364;    2,136
1136,636;  256,540;   -1,273;   -1,045
1137,172;  372,268;    0,000;   -1,045
1137,708;  291,449;   -1,364;   -1,045
1138,245;  290,631;    1,273;   -1,227
1138,781;  236,359;    1,091;   -3,318
1139,317;  311,904;    1,273;   -1,409
1139,852;  297,086;    3,091;    0,136
1140,388;  428,813;   -1,182;   -0,409
1140,924;  312,813;   -1,091;   -2,227
1141,460;  233,631;   -1,636;    0,136
1141,996;  163,813;   -1,364;    2,682
1142,531;  224,904;    1,364;    3,318
1143,067;  449,904;    1,182;    1,045
1143,602;  514,268;   -0,091;   -0,318
1144,138;  348,540;   -2,636;    1,045
1144,673;  192,449;   -1,455;    1,409
1145,209;  276,177;   -1,909;   -0,318
1145,744;  197,177;   -0,727;    0,864
1146,279;  337,813;    1,818;   -0,136
1146,815;  246,813;    1,545;   -2,682
1147,350;  292,086;   -1,364;    0,045
1147,885;  198,177;   -0,818;   -1,318
1148,420;  192,904;   -2,273;    0,773
1148,955;  176,995;   -1,727;    1,864
1149,490;  206,177;   -0,909;   -1,591
1150,025;  183,813;    0,455;   -1,773
1150,560;  310,449;    1,091;   -0,955
1151,094;  272,449;    1,455;   -0,591
1151,629;  283,359;    1,636;    0,864
1152,164;  196,359;    1,364;    1,318
1152,698;  153,086;   -0,182;   -0,136
1153,233;  111,449;    0,091;   -0,682
1153,767;  165,631;   -3,000;   -2,318
1154,302;  216,086;   -1,455;    1,773
1154,836;  220,449;   -0,455;   -2,136
1155,371;  281,177;   -1,364;    3,682
1155,905;  220,268;   -0,636;    1,682
1156,439;  190,722;   -0,636;   -0,500
1156,973;  223,631;    0,364;    0,318
1157,507;  146,086;   -0,364;    0,682
1158,042;  176,631;   -0,727;    1,045
1158,576;  238,086;    0,182;    1,773
1159,110;  226,995;   -0,818;    2,409
1159,643;  192,177;    0,636;   -0,045
1160,177;  120,995;   -1,545;    1,500

