
Integration time [ms]:   0,040
Averaging Nr. [scans]: 11
Smoothing Nr. [pixels]: 0
Data measured with spectrometer [name]: 7318044SP
Wave   ;Sample   ;Dark     ;Reference
[nm]   ;[counts] ;[counts] ;[counts] 

186,757;    9,972;   31,551;    1,318
187,357;   54,577;   22,551;    0,955
187,958;   39,386;   15,460;   -1,591
188,558;   89,324;    8,915;   -1,227
189,159;   54,230;    6,733;   -4,500
189,759;   12,374;    7,278;   -3,591
190,360;   14,368;    2,824;   -2,136
190,960;   66,019;    2,915;   -4,136
191,560;   87,216;    3,189;   -6,591
192,161;  346,714;    4,372;   -3,500
192,761;  168,884;    4,010;   -3,227
193,361;  109,717;    1,556;   -3,773
193,962;  161,471;    2,010;   -2,682
194,562;   83,063;    1,189;   -3,955
195,162;  137,338;   -2,448;   -2,227
195,762;  321,981;   -3,176;   -0,045
196,362;  264,232;    1,370;   -2,500
196,963;  107,907;    2,006;   -0,864
197,563;  186,512;    1,551;   -0,955
198,163;  122,836;    0,096;   -0,682
198,763;  145,952;    1,733;   -0,500
199,363;  269,119;    3,096;   -0,500
199,963;  220,030;    0,369;    0,409
200,563;  200,319;    2,823;   -1,409
201,163;  174,625;    3,277;   -0,227
201,763;  280,959;    3,732;    0,318
202,363;  211,706;    1,459;    1,500
202,963;  338,135;    1,459;    1,045
203,563;  446,741;    0,277;    0,500
204,162;  280,127;    2,096;   -1,864
204,762;  269,647;    0,550;    0,591
205,362;  241,426;    3,004;    1,955
205,962;  355,073;    3,096;    1,955
206,562;  353,952;    1,823;    2,318
207,161;  312,496;   -0,087;    0,318
207,761;  480,802;    1,277;    2,409
208,361;  347,139;   -0,268;    1,409
208,960;  471,442;    0,459;    1,500
209,560;  554,755;    1,277;    1,591
210,160;  518,947;    0,550;    1,864
210,759;  483,377;    4,186;    1,227
211,359;  492,205;    1,459;    1,045
211,958;  773,692;    1,277;    2,045
212,558;  878,112;    1,732;    1,864
213,157;  699,823;    1,822;    1,500
213,757; 1190,784;    3,822;   -0,227
214,356;  856,088;    1,277;   -0,409
214,956; 1213,344;    3,095;    0,409
215,555;  810,722;    2,095;    2,136
216,154;  740,754;   -2,723;   -0,591
216,754;  756,925;    0,277;    0,773
217,353;  917,227;   -0,268;   -1,045
217,952;  757,629;   -0,178;    0,318
218,552; 1008,271;    1,368;   -0,773
219,151;  900,281;    0,277;    0,955
219,750;  903,545;    0,004;   -0,227
220,349; 1062,904;   -0,451;    1,045
220,948; 1108,984;   -1,360;    1,136
221,548; 1152,964;    0,913;    1,227
222,147; 1269,149;   -0,087;   -0,409
222,746; 1565,149;   -0,451;   -0,955
223,345; 1448,177;    0,731;    0,500
223,944; 1458,309;   -0,451;    0,773
224,543; 1665,871;    1,004;   -1,409
225,142; 1769,623;    0,094;    0,136
225,741; 1670,589;   -0,814;    1,045
226,340; 1708,832;   -0,451;   -0,955
226,939; 2192,228;   -0,996;   -0,136
227,538; 2177,604;   -0,360;   -0,773
228,137; 2336,878;   -0,814;    0,864
228,735; 2522,690;   -0,541;    1,227
229,334; 2241,406;   -0,905;   -0,227
229,933; 2624,754;    0,459;    0,591
230,532; 2739,140;    1,186;   -0,409
231,131; 2782,217;    1,732;    0,318
231,729; 2974,726;   -2,450;   -2,318
232,328; 3126,313;   -0,723;   -1,500
232,927; 3213,060;    1,004;   -0,500
233,525; 3364,606;    3,640;    0,045
234,124; 3605,017;    2,368;   -1,591
234,723; 3589,245;    0,913;   -1,045
235,321; 3758,122;    2,277;    0,136
235,920; 4040,095;    1,186;   -1,227
236,518; 4286,700;    3,459;    0,318
237,117; 4502,028;    0,004;   -0,227
237,715; 4653,834;    0,640;   -0,500
238,314; 4683,521;   -0,087;   -2,318
238,912; 4802,462;   -0,723;   -1,409
239,510; 4852,530;    0,459;   -1,227
240,109; 5031,410;    0,004;    3,773
240,707; 5072,861;   -0,996;    1,227
241,305; 5487,660;    0,550;    0,136
241,904; 5716,842;   -0,178;   -2,045
242,502; 5667,678;   -0,632;   -0,227
243,100; 5576,641;   -0,087;   -0,955
243,698; 5821,446;    0,732;    1,682
244,297; 6018,502;   -0,632;    0,682
244,895; 5836,020;   -0,269;   -2,318
245,493; 6235,500;    2,186;   -0,591
246,091; 6229,990;    1,368;   -1,318
246,689; 6213,803;    1,004;    0,591
247,287; 6409,128;    0,822;   -1,136
247,885; 6675,152;   -1,451;    1,227
248,483; 6764,181;    1,822;   -0,500
249,081; 6912,774;    0,185;    1,591
249,679; 7081,511;   -0,178;    1,682
250,277; 7340,476;   -1,723;    0,864
250,875; 7326,464;   -1,087;   -1,045
251,473; 7363,339;   -1,178;    0,500
252,071; 7554,727;    1,459;    1,045
252,669; 7704,036;   -1,814;    0,318
253,267; 7943,504;   -0,087;    0,773
253,864; 7919,946;   -0,360;    0,682
254,462; 7791,589;    1,640;    1,591
255,060; 7763,197;   -0,269;    1,318
255,658; 8092,945;    0,822;   -0,136
256,255; 8555,941;    0,186;   -2,045
256,853; 8392,243;   -0,269;    1,409
257,451; 8419,579;    0,822;    1,864
258,048; 8680,914;    1,822;    1,864
258,646; 8403,311;    1,731;   -1,045
259,243; 8606,425;   -0,087;    2,227
259,841; 8672,191;   -0,814;    0,318
260,438; 8524,762;   -0,087;    0,864
261,036; 9273,177;   -1,905;    1,409
261,633; 9153,138;   -0,087;    2,227
262,231; 8907,960;    2,731;   -0,045
262,828; 8978,046;   -0,905;    1,136
263,425; 9080,994;    0,913;   -0,591
264,023; 9367,379;    0,186;    0,045
264,620; 8886,572;   -0,360;   -0,318
265,217; 9254,224;   -2,087;    3,136
265,815; 9353,399;   -1,905;    2,136
266,412; 9110,326;    0,731;    0,136
267,009; 9174,483;   -1,451;    0,773
267,606; 9052,856;    0,822;   -0,955
268,203; 9020,868;   -0,269;   -0,591
268,801; 9313,881;    1,731;    0,591
269,398; 9637,202;   -0,360;    2,500
269,995; 9656,864;    0,277;    1,591
270,592; 9414,074;   -0,632;   -0,500
271,189; 9601,325;    0,186;    0,409
271,786; 9758,759;   -0,632;    1,227
272,383; 9576,825;   -1,087;    0,227
272,980; 9800,280;    0,277;    0,318
273,577;10278,642;    0,004;    1,227
274,174; 9842,788;    0,822;    2,591
274,771; 9838,672;   -0,814;   -0,773
275,367;10023,727;    2,277;    1,409
275,964; 9937,315;    0,731;   -0,500
276,561;10045,417;    1,549;   -1,045
277,158;10299,602;    0,095;   -1,773
277,755;10424,593;    2,185;    0,409
278,351; 9795,760;   -0,451;   -1,500
278,948;10112,736;   -0,815;    0,045
279,545;10117,336;   -1,360;    2,318
280,141;10808,374;   -1,723;   -2,045
280,738;10654,661;   -0,451;   -0,136
281,334;10952,292;   -1,633;    0,591
281,931;10338,995;   -0,087;   -1,318
282,528;10424,635;    0,822;   -0,500
283,124;11139,680;   -1,087;   -0,500
283,721;11047,972;   -0,451;    1,409
284,317;10858,974;    0,185;    2,500
284,913;11455,497;   -1,360;    0,591
285,510;11663,224;    0,640;   -0,318
286,106;11687,935;   -2,269;   -0,955
286,703;11291,960;   -0,360;    1,955
287,299;11484,191;   -1,451;   -0,591
287,895;11675,786;    0,822;   -1,045
288,491;12304,383;    0,186;    2,136
289,088;12007,221;   -2,360;    2,409
289,684;12086,491;   -1,723;    1,500
290,280;12121,085;    0,368;    0,682
290,876;12232,262;    1,822;    5,500
291,472;12100,543;    1,276;    2,227
292,068;12215,038;    1,367;    0,227
292,665;11939,919;    2,095;    0,773
293,261;11517,518;    0,276;    2,136
293,857;11962,437;    2,913;    2,136
294,453;11879,112;    3,550;    0,955
295,049;11765,407;   -0,268;    1,955
295,644;11796,262;    0,095;    0,136
296,240;11674,951;   -0,905;   -0,136
296,836;11744,370;   -0,995;    0,318
297,432;12024,935;    1,096;   -0,500
298,028;12061,272;    0,732;    0,773
298,624;12515,569;    1,459;    1,864
299,220;12728,394;    2,368;    0,591
299,815;12393,709;    1,005;   -0,409
300,411;12184,134;    0,914;    1,773
301,007;12202,164;    1,368;    0,227
301,602;12236,622;   -0,541;   -2,318
302,198;12408,016;    0,732;   -0,773
302,794;12782,436;    1,187;   -0,500
303,389;12887,635;   -1,177;    1,045
303,985;13002,983;    0,550;    1,409
304,580;12946,248;    1,459;    1,591
305,176;12890,374;   -3,086;    0,136
305,771;12829,549;   -1,268;   -1,227
306,367;12690,557;    4,095;    0,136
306,962;13030,622;    0,641;    1,500
307,558;12787,830;   -0,450;    0,136
308,153;12692,198;    1,095;   -1,136
308,748;12948,404;   -0,814;    1,682
309,344;12961,589;   -0,632;   -1,318
309,939;13023,752;   -1,905;   -1,318
310,534;13291,625;   -0,086;   -1,682
311,130;13272,111;    0,459;   -2,500
311,725;12958,157;    1,004;   -0,500
312,320;13259,874;    2,459;    0,045
312,915;13112,176;    1,459;   -1,045
313,510;13232,740;    1,550;   -0,500
314,105;13748,914;    1,096;    1,409
314,700;13069,597;   -3,086;   -1,045
315,295;12699,430;   -0,904;    0,045
315,890;12253,883;    1,277;    0,864
316,485;12595,986;   -0,359;   -0,318
317,080;12665,361;   -3,086;    1,591
317,675;13263,516;    2,005;   -0,682
318,270;12692,772;    5,550;    3,318
318,865;12645,130;    3,278;    3,045
319,460;12501,590;   -0,904;    0,591
320,055;12740,228;   -0,541;   -1,227
320,650;12376,894;   -1,995;   -0,591
321,244;12461,802;   -0,177;   -1,409
321,839;13404,341;   -1,541;   -0,227
322,434;13300,874;   -1,086;   -1,591
323,029;12940,924;    1,732;    1,591
323,623;12787,495;    1,550;    0,773
324,218;12532,065;    2,368;    1,409
324,812;12419,714;    1,096;    1,591
325,407;12226,317;   -0,814;    2,045
326,002;12136,751;    0,277;   -0,409
326,596;12470,216;    0,914;    1,318
327,191;12663,086;    0,823;   -1,045
327,785;12208,670;   -0,813;   -0,227
328,379;12464,936;    1,368;    0,136
328,974;12258,605;    0,914;   -3,955
329,568;12470,752;    0,186;   -2,409
330,163;12245,877;    2,096;    1,045
330,757;12649,244;    2,459;    1,591
331,351;11979,304;    0,459;    0,682
331,945;12311,066;    0,914;    1,409
332,540;11889,764;   -1,723;   -0,591
333,134;12024,860;   -1,086;    0,773
333,728;12294,278;    0,005;    0,318
334,322;12608,593;   -1,177;   -0,864
334,916;11870,982;    0,277;    0,955
335,510;12247,870;   -0,450;   -0,136
336,105;12476,449;   -1,086;    1,591
336,699;12200,964;   -1,086;    0,591
337,293;12123,029;   -1,723;    0,318
337,887;12299,815;   -2,723;    1,955
338,481;12407,064;    0,459;    0,591
339,074;12563,703;   -0,359;    2,682
339,668;12416,188;   -1,632;    1,227
340,262;12691,352;    1,732;    3,227
340,856;12146,461;    1,822;   -0,682
341,450;11472,299;    1,004;    1,864
342,044;12434,120;    1,459;    0,136
342,637;12193,319;    0,913;   -2,136
343,231;12038,189;   -2,360;    0,682
343,825;11969,412;   -1,086;   -0,591
344,419;11940,464;   -1,995;    0,500
345,012;11743,718;    2,459;    4,045
345,606;11747,833;    4,641;    1,591
346,199;11575,881;   -1,813;   -0,227
346,793;11076,457;    1,914;    2,045
347,386;11234,767;   -0,813;   -1,136
347,980;11257,420;   -0,268;   -0,045
348,573;11058,478;    2,278;    0,409
349,167;10715,524;    5,278;    4,773
349,760;11044,750;    2,914;    2,682
350,354;11037,330;   -0,813;    1,136
350,947;10780,938;    1,096;    1,682
351,540;10422,595;   -0,358;   -1,409
352,134;10347,509;    1,096;    1,136
352,727;10447,755;   -0,086;    1,136
353,320;10249,752;    0,005;    0,591
353,913;10038,728;   -1,995;    1,864
354,507;10215,847;    0,823;   -1,227
355,100;10227,904;    0,460;    0,864
355,693; 9491,146;    2,005;    2,409
356,286; 9523,322;    0,823;    2,773
356,879; 9874,216;   -0,722;    1,227
357,472; 9461,811;   -0,904;    1,500
358,065; 9671,505;   -0,722;    2,500
358,658; 9571,210;   -0,540;    2,318
359,251; 9184,312;   -1,631;   -0,591
359,844; 8675,215;   -1,904;   -1,136
360,437; 8885,247;   -2,995;    0,045
361,030; 9126,007;    1,369;   -0,682
361,623; 8712,067;    2,824;    0,318
362,215; 8790,338;   -0,086;    2,045
362,808; 8615,372;   -2,358;   -1,682
363,401; 8797,988;   -2,449;    0,136
363,994; 8529,359;   -0,631;   -1,500
364,586; 8427,770;    0,824;   -1,500
365,179; 8668,881;   -0,449;   -1,136
365,772; 8119,330;   -1,995;    2,045
366,364; 8461,971;    1,915;   -3,227
366,957; 8664,252;    2,279;   -0,045
367,549; 8693,488;    2,188;   -0,864
368,142; 8307,527;    1,825;   -1,500
368,734; 8505,635;    0,734;   -2,136
369,327; 8464,890;    1,643;   -0,500
369,919; 8386,850;   -1,538;    0,409
370,512; 8146,698;   -1,083;   -0,500
371,104; 7921,354;   -0,901;    1,591
371,696; 8124,892;    1,191;   -0,955
372,289; 8245,134;    0,373;    1,136
372,881; 8389,454;   -2,080;    1,318
373,473; 8292,465;   -2,170;    1,136
374,066; 8107,376;   -0,169;    0,500
374,658; 7907,158;    0,378;    1,136
375,250; 8285,458;    0,653;   -1,409
375,842; 8143,501;    0,473;   -0,045
376,434; 8023,628;   -0,435;   -0,409
377,026; 8604,920;    0,204;   -2,500
377,618; 8513,580;   -0,158;   -0,682
378,210; 8375,860;   -0,338;   -1,955
378,802; 8209,189;    0,754;   -0,591
379,394; 8213,105;    1,846;    0,682
379,986; 8779,511;    1,393;   -0,955
380,578; 8865,863;   -0,153;    0,773
381,170; 8196,270;   -0,972;    0,045
381,762; 8162,192;    0,755;    1,409
382,354; 8373,873;   -0,065;   -1,318
382,945; 8482,694;   -2,976;    0,318
383,537; 8616,235;   -2,705;   -1,955
384,129; 8624,528;   -2,160;   -1,136
384,721; 8832,005;   -0,252;    0,955
385,312; 8742,624;   -0,161;   -0,955
385,904; 8878,056;   -2,706;    1,591
386,496; 8207,861;   -0,979;    1,045
387,087; 8352,238;    1,022;    2,500
387,679; 8426,436;   -1,160;    0,045
388,270; 8572,576;    2,840;    2,045
388,862; 8689,519;    1,295;   -0,318
389,453; 8598,461;   -0,887;    1,045
390,045; 8880,883;   -0,705;   -2,682
390,636; 8739,969;    0,204;   -0,591
391,227; 8610,346;   -0,523;   -0,045
391,819; 8718,989;    0,204;    0,773
392,410; 8796,731;    1,022;    0,045
393,001; 8729,716;   -0,979;   -1,591
393,593; 9047,562;    1,930;   -0,045
394,184; 8919,091;    1,385;   -0,409
394,775; 8845,311;    1,839;    2,136
395,366; 8999,345;    1,385;    0,773
395,957; 9045,865;    0,113;    0,136
396,548; 9382,378;   -0,342;    2,682
397,139; 9709,694;   -2,433;    0,591
397,730; 9416,574;   -1,888;    0,955
398,321; 9444,893;   -1,252;    0,955
398,912; 9472,335;   -0,615;    0,136
399,503; 9543,810;   -3,524;   -1,409
400,094; 8950,025;    0,294;    1,682
400,685; 8812,266;   -0,433;    0,045
401,276; 8911,584;    0,930;   -0,955
401,867; 9244,693;   -0,888;    0,773
402,458; 9336,540;   -2,251;   -2,318
403,048; 9311,460;    1,112;    0,591
403,639; 8892,646;    0,840;    0,864
404,230; 9133,322;    2,476;    0,318
404,821; 9054,719;   -0,615;    0,045
405,411; 9215,491;    1,203;   -2,591
406,002; 8804,141;   -1,252;   -1,136
406,592; 8647,011;    2,294;    0,045
407,183; 8954,506;    0,566;   -1,500
407,774; 8895,490;    3,475;   -0,136
408,364; 9218,224;    0,930;    0,409
408,954; 8811,891;    0,384;    1,227
409,545; 8824,056;    1,021;    1,045
410,135; 8394,671;    1,293;    0,500
410,726; 8549,172;    1,838;    0,318
411,316; 8944,661;    0,111;    0,773
411,906; 8620,819;   -0,253;   -0,409
412,497; 8053,275;   -1,070;   -0,045
413,087; 8710,988;   -1,980;   -0,227
413,677; 9140,113;   -0,707;    3,864
414,267; 8959,513;    0,656;    1,409
414,857; 8935,002;   -2,980;    4,227
415,448; 9241,230;    0,839;    0,500
416,038; 8888,837;    0,020;   -0,591
416,628; 8906,369;   -0,889;    0,409
417,218; 8331,872;    0,565;    3,318
417,808; 8611,088;    0,202;   -0,409
418,398; 9100,853;    0,020;    2,682
418,988; 9148,031;    2,020;    0,591
419,578; 9419,479;   -0,707;    1,409
420,168; 9759,103;   -1,343;   -0,955
420,757; 9354,535;   -1,343;   -1,500
421,347; 9005,158;    0,111;   -0,227
421,937; 9167,445;    2,292;    1,409
422,527; 9131,065;    0,838;   -0,773
423,116; 8963,152;   -0,253;   -0,045
423,706; 9297,649;   -1,889;    0,318
424,296; 9261,729;    1,384;    0,682
424,885; 9700,365;   -0,071;   -3,045
425,475;10011,269;    1,474;   -2,864
426,065; 9883,472;   -0,980;   -0,318
426,654; 9519,135;   -0,435;   -0,318
427,244; 9680,143;    0,020;    1,409
427,833; 9105,739;    1,383;   -0,500
428,423; 9609,131;   -0,526;    1,136
429,012;10403,831;   -0,344;   -1,136
429,601; 9854,944;   -1,344;    0,136
430,191;10089,736;    1,292;    4,318
430,780; 9731,201;   -0,344;   -0,409
431,369; 9645,768;    0,746;   -0,045
431,959;10294,829;   -1,254;    0,500
432,548;10109,878;   -1,163;   -0,045
433,137;10225,492;   -1,254;   -1,318
433,726;10777,532;    0,292;    0,500
434,315;10087,642;   -0,526;    2,409
434,905;10177,813;   -1,254;    1,409
435,494;10048,821;    0,746;    0,955
436,083;10519,619;   -0,981;   -0,955
436,672;10432,688;    0,110;    0,500
437,261; 9960,691;    0,292;   -1,955
437,850;10083,783;    1,383;    0,682
438,439;10098,872;    3,291;    1,955
439,027; 9983,282;    3,655;    1,773
439,616;10332,247;    2,927;    1,227
440,205;10180,197;    0,200;   -2,136
440,794;10252,548;    2,109;   -0,045
441,383;10531,569;   -1,346;   -0,591
441,971;10409,273;   -2,436;    0,591
442,560;10276,625;    0,563;   -1,773
443,149; 9989,276;    0,379;   -1,318
443,737;10117,002;   -0,074;   -2,318
444,326;10410,006;    0,018;    0,318
444,915;10504,191;   -1,982;    0,864
445,503;10936,401;   -2,891;   -0,318
446,092;10161,083;    0,382;    2,136
446,680;10711,987;    0,382;    0,318
447,269;10872,189;   -0,346;   -0,318
447,857;10624,849;    0,018;   -1,773
448,445;10715,103;    0,563;    1,318
449,034;10938,010;   -1,528;   -1,136
449,622;11071,470;   -1,073;    3,500
450,210;10285,444;    2,017;    2,227
450,799;10853,575;    0,290;   -0,591
451,387;10798,926;    1,381;   -0,591
451,975;10423,863;    2,654;    0,864
452,563;10521,364;    3,472;    2,318
453,151;10550,530;   -0,528;   -1,227
453,739;10525,551;   -1,347;    0,136
454,328;10315,172;    2,381;   -2,136
454,916;10018,478;    2,562;   -0,136
455,504;10240,606;    1,017;    1,227
456,092;10365,927;    0,017;   -1,591
456,679;10402,185;    1,472;    0,682
457,267;10338,754;    4,017;    1,045
457,855;10490,882;    1,017;    1,409
458,443;10223,383;   -0,165;    1,682
459,031;10379,933;    0,108;    2,409
459,619;10874,190;   -1,801;    2,864
460,206;11010,183;    0,835;    2,045
460,794;11066,932;   -2,983;   -0,227
461,382;11305,227;   -0,529;   -0,864
461,970;10873,526;    1,198;    1,864
462,557;10877,547;   -0,711;   -0,682
463,145;11120,361;   -3,165;   -1,682
463,732;11278,817;    2,016;   -1,045
464,320;11207,624;   -0,075;   -3,045
464,907;10892,267;    2,743;   -0,773
465,495;10727,419;    0,743;   -1,227
466,082;10907,548;   -1,984;   -0,045
466,670;10819,116;   -2,529;    1,227
467,257;11223,446;   -1,711;    2,045
467,844;11359,076;   -0,075;    0,045
468,432;11427,131;    0,834;    3,500
469,019;10872,168;    0,925;   -1,773
469,606;11376,499;    0,470;    3,682
470,193;11183,946;   -1,439;    0,227
470,780;10736,020;   -2,075;    0,864
471,368;11081,792;   -1,257;   -0,773
471,955;10873,740;    1,379;   -0,682
472,542;10500,194;    0,652;   -1,136
473,129;10738,924;   -0,166;    0,136
473,716;10418,034;    1,470;    0,591
474,303;10667,772;    0,652;   -0,864
474,890;11009,983;   -1,439;   -0,500
475,477;11010,208;   -1,621;    0,409
476,064;10905,101;    1,106;   -1,591
476,650;10884,316;    0,288;    0,318
477,237;10704,134;   -0,258;    0,955
477,824;10861,110;   -1,076;    0,864
478,411;10852,269;   -1,894;   -0,318
478,997;11084,401;    0,560;   -0,773
479,584;11157,631;    1,196;   -0,409
480,171;11910,108;   -0,440;   -0,773
480,757;11537,386;    2,651;    0,773
481,344;11848,269;    0,469;    0,409
481,931;11389,338;    1,105;    1,045
482,517;12541,234;   -1,258;    0,318
483,104;13202,599;    1,106;    2,864
483,690;13478,980;   -1,804;    0,045
484,276;13825,775;   -0,895;    0,227
484,863;13534,246;    2,469;    1,136
485,449;14156,333;   -0,077;    0,318
486,035;14148,479;   -1,986;   -0,136
486,622;14563,540;   -0,895;    0,045
487,208;14507,770;    1,378;    1,500
487,794;14364,184;    0,741;    0,318
488,380;14501,139;    0,105;   -1,409
488,967;14516,545;   -1,168;   -0,409
489,553;14631,667;   -1,895;   -1,409
490,139;14801,555;    1,559;    0,773
490,725;14116,402;    0,741;   -0,227
491,311;13603,250;    3,287;    3,045
491,897;12880,268;   -0,986;    1,500
492,483;12692,527;    0,105;    1,227
493,069;12518,167;    3,923;    0,864
493,655;12505,945;    1,650;    0,682
494,241;12407,884;    1,377;   -0,955
494,826;12821,479;    0,287;   -1,045
495,412;12267,693;    2,559;   -0,682
495,998;12404,622;   -0,805;   -0,318
496,584;12553,853;    0,377;    1,045
497,169;12576,156;    1,014;   -0,682
497,755;12509,422;    0,650;    1,227
498,341;13102,878;    0,559;    0,318
498,926;12684,938;    1,832;    1,955
499,512;12817,332;    1,286;    2,955
500,097;12987,228;    0,195;   -0,318
500,683;12939,341;   -0,350;    2,136
501,268;13289,021;   -0,169;   -0,955
501,854;12994,967;   -0,169;    1,227
502,439;12943,127;   -0,624;   -1,773
503,024;13165,708;    0,195;    0,500
503,610;13230,086;   -0,078;   -0,682
504,195;13235,727;    0,558;    1,955
504,780;13322,226;    2,922;    1,227
505,366;13166,646;    3,013;    2,864
505,951;12874,784;    0,740;    1,045
506,536;12900,873;   -3,260;   -3,682
507,121;12894,927;    0,285;   -0,318
507,706;13415,944;    2,376;    1,045
508,291;13817,608;    2,649;    1,136
508,876;13277,683;   -0,988;    2,591
509,461;12713,108;   -0,169;   -0,773
510,046;13110,754;    0,194;    0,318
510,631;13386,383;   -0,351;   -0,773
511,216;13041,250;    2,467;   -0,500
511,801;13398,403;   -0,442;    2,591
512,386;13747,215;    0,740;    0,500
512,971;13650,831;   -2,988;    0,955
513,555;13172,417;   -0,897;   -1,500
514,140;14030,944;   -0,442;   -3,136
514,725;14056,368;   -0,715;   -1,136
515,309;14170,061;   -0,533;    0,318
515,894;13568,114;   -0,624;   -2,227
516,479;14046,262;   -0,624;   -0,955
517,063;13904,483;    0,376;    1,227
517,648;14012,233;    1,012;   -1,136
518,232;13642,274;   -0,261;   -1,409
518,817;14009,799;   -0,079;    1,682
519,401;14248,096;    2,194;    0,591
519,985;13738,595;    1,103;    1,136
520,570;13607,912;    0,830;   -1,955
521,154;13896,051;    2,102;    0,591
521,738;14089,939;   -2,352;    2,409
522,323;14640,108;   -0,170;    1,682
522,907;14366,708;    0,466;   -0,136
523,491;14087,634;    0,557;    0,955
524,075;14076,068;    2,284;    0,591
524,659;14206,185;    1,466;    0,591
525,243;13659,694;    1,739;    0,409
525,827;13856,678;    0,648;   -0,045
526,411;14761,821;   -1,989;   -0,136
526,995;14978,028;   -0,352;    1,409
527,579;14541,786;   -0,443;   -1,045
528,163;14873,274;    0,375;   -1,500
528,747;14787,881;    2,466;   -0,773
529,331;15095,794;   -0,080;   -1,409
529,915;15294,408;    1,738;    0,955
530,499;15258,921;   -0,807;    1,227
531,082;14982,138;   -0,534;    1,591
531,666;14424,546;    1,374;    0,773
532,250;15126,042;    1,284;    2,682
532,833;15444,121;    0,920;    2,773
533,417;15287,165;   -1,807;    0,864
534,001;15297,488;    1,647;   -0,318
534,584;16013,277;    0,374;    0,500
535,168;15831,902;    0,465;    1,409
535,751;15956,493;    0,647;    0,045
536,334;15345,908;   -0,898;   -0,409
536,918;15906,560;    0,011;    1,591
537,501;16026,185;   -0,899;    1,318
538,085;16052,771;   -0,444;    1,045
538,668;16227,114;    0,829;    2,409
539,251;16566,002;    1,829;    3,773
539,834;16573,343;    0,101;    0,773
540,418;16493,445;   -1,990;    4,318
541,001;16644,821;   -0,990;    1,773
541,584;16619,513;    2,101;    2,227
542,167;16330,046;    1,374;    2,955
542,750;16471,675;    1,919;   -0,773
543,333;16051,014;    0,555;    2,136
543,916;16825,920;    0,192;    2,500
544,499;17453,763;   -1,354;    0,227
545,082;17442,657;    1,374;    3,591
545,665;17615,734;    1,919;    1,500
546,248;18007,377;    1,010;   -0,318
546,830;17637,317;   -0,445;    1,955
547,413;18050,235;    1,010;   -0,773
547,996;18632,004;    0,555;    0,500
548,579;18384,070;    0,919;    0,955
549,161;18175,600;    1,828;    2,682
549,744;17942,393;   -0,809;    0,409
550,326;18444,222;   -0,809;   -1,136
550,909;18264,816;    2,737;    0,591
551,492;18663,642;   -0,263;    0,227
552,074;18454,712;   -0,173;   -1,318
552,657;19017,231;    2,373;    0,045
553,239;18750,169;   -0,173;   -0,773
553,821;18636,145;   -1,082;    1,045
554,404;18139,284;    1,282;    1,136
554,986;18572,171;    0,464;    1,045
555,568;19131,927;    1,191;   -0,955
556,151;18343,543;    1,191;   -0,227
556,733;18530,779;   -0,264;   -0,864
557,315;19039,872;    0,100;    0,500
557,897;18813,180;    0,554;   -0,500
558,479;18957,406;   -1,991;    1,318
559,061;19090,396;   -0,719;   -0,864
559,643;19456,283;   -0,264;    0,045
560,225;19820,458;    1,645;    2,864
560,807;19847,283;    0,918;    0,318
561,389;19316,649;    0,554;    2,318
561,971;20169,958;    0,463;    2,136
562,553;19884,252;   -1,628;    1,591
563,135;20055,812;   -0,537;    1,136
563,717;19674,047;    3,372;    1,136
564,298;20436,864;    3,645;   -0,045
564,880;20117,806;    0,645;   -1,409
565,462;20270,351;    0,645;    1,318
566,043;21526,194;   -0,446;    2,318
566,625;21064,098;    1,918;    1,227
567,207;20865,474;    1,099;    1,682
567,788;22082,775;   -1,264;    1,500
568,370;22954,250;    1,917;   -0,500
568,951;22860,783;    0,190;    0,227
569,533;23743,694;   -0,628;   -0,500
570,114;24198,005;   -0,446;    0,682
570,695;24784,866;   -0,174;   -1,318
571,277;25324,207;   -0,265;   -1,682
571,858;26061,546;    2,008;   -1,136
572,439;27041,893;    1,554;   -1,045
573,021;27211,230;    2,099;   -2,773
573,602;27706,155;   -1,265;    0,318
574,183;28725,379;   -2,083;    2,227
574,764;28846,603;   -1,629;    0,409
575,345;29469,575;    0,917;   -0,136
575,926;30061,159;   -0,356;    0,136
576,507;29959,786;    1,099;   -0,227
577,088;31135,208;    3,099;    1,682
577,669;31214,467;    0,735;    1,955
578,250;32063,561;    0,644;   -1,045
578,831;32807,270;   -1,356;   -2,227
579,412;33016,173;   -0,810;    0,955
579,993;33860,340;    1,008;    0,227
580,573;34169,560;   -0,629;   -0,955
581,154;33154,596;    0,735;   -0,591
581,735;34046,883;    0,644;    0,773
582,315;33571,065;   -0,629;    2,136
582,896;33765,875;   -0,174;    1,227
583,477;33157,377;    0,189;    1,227
584,057;33379,581;    0,553;    0,955
584,638;33756,431;    2,553;    2,318
585,218;33735,205;   -0,538;    2,682
585,799;33867,192;    0,281;   -0,227
586,379;33791,117;    0,372;    1,591
586,959;32441,989;    0,735;    0,318
587,540;31617,156;   -0,629;    2,227
588,120;31177,167;    1,007;   -0,045
588,700;30210,340;    2,553;    2,136
589,281;30649,223;    0,462;   -0,955
589,861;30552,926;    0,099;   -1,682
590,441;30273,780;    2,371;   -2,682
591,021;29193,607;   -0,265;   -2,591
591,601;29466,564;   -0,537;    0,500
592,181;29469,391;   -0,719;   -0,773
592,761;28722,016;    0,007;    1,409
593,341;28616,951;   -0,901;    0,045
593,921;28640,994;   -0,265;    1,591
594,501;28560,476;   -0,538;    1,318
595,081;28408,015;    0,917;   -0,318
595,661;28746,500;   -1,447;    0,955
596,240;29311,051;   -0,537;    0,136
596,820;28963,883;    0,372;    1,955
597,400;29102,697;    2,008;    0,773
597,980;29332,219;    2,008;    1,045
598,559;29278,134;    2,735;   -0,227
599,139;28991,078;   -0,174;   -1,227
599,718;28919,169;   -0,174;   -0,409
600,298;29220,076;    0,735;    0,682
600,877;29452,690;    2,917;    1,409
601,457;29747,523;    2,281;    1,136
602,036;29598,558;    0,190;    2,045
602,616;29860,031;    0,644;    1,682
603,195;30232,608;   -0,355;    3,500
603,774;29696,337;   -0,901;    2,045
604,354;29603,044;    0,826;   -0,500
604,933;29079,092;    0,463;    1,864
605,512;29171,756;    3,554;    0,591
606,091;29202,263;   -0,537;    3,773
606,671;30023,951;    0,281;    0,773
607,250;29147,508;    1,644;    3,136
607,829;29378,194;    2,372;    3,227
608,408;29240,219;    1,190;    2,591
608,987;28262,223;    1,281;    3,409
609,566;28546,506;   -1,265;   -2,500
610,145;28660,214;   -1,082;    0,682
610,723;29036,269;    4,372;    6,864
611,302;28292,626;   -0,446;    1,682
611,881;27755,308;    5,008;   11,227
612,460;28630,475;    1,645;    3,955
613,039;29077,574;   -0,082;    2,045
613,617;27714,976;    1,736;    4,773
614,196;27944,689;    1,099;    1,227
614,775;28307,440;    1,009;    2,409
615,353;28188,162;    0,736;    0,864
615,932;27940,693;    0,100;    2,409
616,510;28521,616;    0,554;    0,591
617,089;28005,405;    7,100;   17,591
617,667;27778,880;    2,372;    6,136
618,246;27629,117;   -1,537;    1,318
618,824;27828,744;   -3,355;   -0,955
619,402;27355,386;   -2,900;   -1,773
619,981;27855,675;   -0,173;   -1,045
620,559;27616,591;    0,009;    1,682
621,137;27105,320;   -0,718;    1,864
621,715;27216,557;   -1,173;   -0,682
622,293;27130,464;   -0,537;   -0,773
622,871;27505,599;   -0,718;    0,500
623,450;27134,830;    0,373;   -0,864
624,028;27020,072;    0,191;   -0,955
624,606;26653,950;   -1,718;    1,682
625,183;27027,292;   -1,536;   -1,136
625,761;26579,014;    1,009;    1,136
626,339;26974,947;    1,373;    2,591
626,917;27327,439;   -0,172;   -0,045
627,495;27352,579;   -0,354;    1,318
628,073;26800,070;   -0,263;    2,864
628,650;26437,358;    0,100;    2,136
629,228;26886,385;    0,373;    4,409
629,806;26300,278;    2,282;    1,136
630,383;26584,149;    1,464;   -0,318
630,961;26411,220;    2,555;   -0,955
631,539;26120,923;    2,464;    0,227
632,116;25536,492;   11,373;   15,409
632,694;26051,887;    2,555;    6,500
633,271;26329,281;    0,828;    2,682
633,848;26287,544;    1,828;    2,045
634,426;26277,737;   -1,081;    1,773
635,003;25341,135;    1,101;   -0,409
635,580;25737,203;    1,192;    3,682
636,158;26279,149;    3,737;    1,227
636,735;26291,950;    0,555;   -0,500
637,312;26408,995;   -0,809;   -0,682
637,889;26499,585;   -4,354;   -0,682
638,466;25953,623;   -3,990;   -0,409
639,043;25986,125;    2,101;   -1,136
639,620;26281,087;   -2,262;   -0,955
640,197;26570,702;    1,100;    1,682
640,774;26627,580;   -0,172;    1,136
641,351;27123,639;    0,737;    1,136
641,928;26561,699;   -0,627;    1,409
642,505;26207,304;    0,828;   -0,500
643,082;26359,818;   -1,718;    1,227
643,658;25310,786;   -0,718;    1,500
644,235;26044,846;    1,191;    2,500
644,812;26395,906;    1,918;    0,773
645,388;26134,238;   -0,991;    1,409
645,965;26217,479;   -0,809;    1,682
646,542;26287,357;   -1,445;   -0,227
647,118;26238,144;    1,009;   -0,955
647,695;26545,749;   -0,263;    1,136
648,271;26454,536;   -0,536;    0,500
648,848;26785,504;    0,736;    2,227
649,424;26603,109;    0,827;    1,318
650,000;26354,442;   -0,354;   -1,045
650,577;26162,865;   -0,627;   -0,955
651,153;26706,379;   -1,809;    0,955
651,729;27731,711;    1,191;    0,864
652,305;28500,043;    0,645;    2,773
652,881;34181,194;   -0,082;    1,136
653,458;41205,072;    1,100;    0,227
654,034;44327,404;    0,282;    1,591
654,610;45524,645;    0,554;    0,773
655,186;46825,159;    0,645;    3,045
655,762;46390,764;   -0,991;    0,409
656,338;46389,642;    0,100;    0,136
656,913;47404,974;   -0,082;    0,409
657,489;46623,579;    0,827;   -0,318
658,065;46592,912;   -0,173;   -1,591
658,641;47309,335;   -0,900;   -0,864
659,217;46582,213;   -0,991;    0,409
659,792;46031,181;    0,645;   -0,409
660,368;46226,695;   -2,173;   -0,682
660,944;45276,210;   -2,082;    1,227
661,519;39457,905;   -0,628;    0,409
662,095;33321,329;   -1,719;    0,591
662,670;29316,297;    1,281;   -0,136
663,246;28509,630;    1,009;   -0,409
663,821;27927,598;    0,281;    1,682
664,396;27426,749;    0,009;    1,864
664,972;27715,354;    0,009;   -0,500
665,547;28053,231;    1,372;    0,136
666,122;28119,927;   -1,082;    0,318
666,698;28422,169;   -0,173;    0,318
667,273;27758,046;   -0,173;    0,136
667,848;28574,197;    2,372;    1,500
668,423;28364,256;    2,190;    2,318
668,998;28953,225;    2,827;   -0,682
669,573;29542,103;   -3,264;   -1,500
670,148;29335,708;   -1,446;   -0,682
670,723;29063,949;   -1,810;    0,318
671,298;29515,100;    2,372;    1,045
671,873;29676,250;   -0,082;   -0,136
672,448;29562,492;    0,645;    0,136
673,023;29919,460;   -1,992;   -0,227
673,597;30237,883;    0,827;    2,318
674,172;30011,216;   -0,355;    0,318
674,747;29461,366;    0,372;   -1,045
675,321;29294,244;   -0,628;    3,318
675,896;28875,122;    0,645;    1,045
676,471;29884,545;    2,645;    1,591
677,045;29642,695;   -1,264;    0,682
677,620;29703,937;    0,190;    1,136
678,194;30024,360;   -2,628;    1,136
678,769;29574,147;   -1,083;   -0,318
679,343;29886,570;   -0,628;    1,773
679,917;29760,175;   -1,446;    1,955
680,492;29756,962;    0,826;    3,227
681,066;29951,112;    3,372;    0,409
681,640;30000,263;    1,463;   -0,318
682,214;30822,140;    0,735;    0,500
682,788;30392,018;   -1,356;   -0,773
683,363;30343,987;   -1,810;    1,682
683,937;29989,410;   -1,719;   -0,318
684,511;30739,833;    0,463;   -0,591
685,085;30525,893;   -1,356;    0,318
685,659;30202,498;   -2,538;    0,864
686,232;30521,285;   -0,356;   -0,318
686,806;30168,344;   -0,901;    0,409
687,380;30817,949;   -0,174;    0,591
687,954;31003,918;   -1,174;    1,136
688,528;30695,250;   -0,719;    1,955
689,101;31532,128;   -3,992;    1,045
689,675;31074,460;   -0,356;   -0,136
690,249;30464,520;   -0,719;    0,409
690,822;30717,034;    0,280;    0,318
691,396;30895,639;   -0,265;    1,227
691,969;30316,971;    1,280;    0,136
692,543;30718,122;   -0,447;   -1,955
693,116;30353,727;   -0,265;   -1,409
693,690;30202,059;    0,099;    0,500
694,263;30831,300;   -1,083;    2,955
694,836;30872,451;    1,371;    3,591
695,410;29546,601;   -0,265;    1,773
695,983;29972,752;    0,189;    0,591
696,556;29959,266;   -0,447;   -1,045
697,129;30331,416;   -0,356;    1,409
697,703;29973,476;   -1,629;    1,955
698,276;29928,990;    1,462;   -0,773
698,849;29776,413;    1,280;    1,409
699,422;30144,109;   -1,083;    0,591
699,995;29810,169;    0,007;    0,136
700,568;30364,592;   -0,629;    3,045
701,140;30402,651;   -2,811;    1,682
701,713;30095,529;   -0,174;    2,409
702,286;29825,407;   -0,538;    0,864
702,859;29736,012;   -0,902;   -0,591
703,432;28913,617;    0,825;    0,682
704,004;29356,404;    0,462;    0,318
704,577;29244,645;   -0,629;    0,136
705,150;29850,977;    0,189;    2,500
705,722;29594,491;   -0,356;   -3,227
706,295;29389,551;   -0,175;   -0,591
706,867;29288,792;   -0,175;    1,955
707,440;29447,579;   -1,720;   -0,409
708,012;29743,730;    0,462;    0,591
708,584;29722,244;    2,462;    0,227
709,157;29928,122;    1,825;   -0,591
709,729;29554,999;    2,280;    2,045
710,301;30394,877;    0,734;    0,045
710,874;30399,209;   -1,447;   -0,227
711,446;29327,723;    0,371;    0,864
712,018;29181,419;    0,098;    0,500
712,590;28876,388;   -1,993;    1,682
713,162;29431,629;    0,825;    1,318
713,734;29649,507;    1,825;   -2,045
714,306;29563,203;   -1,902;   -0,409
714,878;28249,172;    0,825;    0,864
715,450;29048,049;    0,643;    0,864
716,022;29280,018;    1,552;    1,318
716,593;29446,441;    0,189;    0,591
717,165;29359,501;   -3,175;   -1,227
717,737;29101,379;    0,280;    0,409
718,309;28773,347;    0,280;   -0,045
718,880;28721,316;   -0,539;   -1,409
719,452;28951,194;   -0,175;   -1,591
720,024;28569,980;    0,734;   -0,591
720,595;29080,131;   -2,902;    0,955
721,167;28623,554;    0,370;   -2,045
721,738;28208,250;   -0,812;   -1,045
722,309;28223,310;   -0,993;   -1,227
722,881;27931,369;   -1,357;    0,773
723,452;28557,156;   -2,630;    2,864
724,023;28749,034;   -0,721;    2,682
724,595;28460,911;    0,007;    0,682
725,166;28228,335;    0,007;   -0,409
725,737;27961,849;    1,734;    0,227
726,308;27990,636;   -0,266;    0,318
726,879;28424,059;   -1,630;    1,227
727,450;28323,482;    0,552;   -0,045
728,021;28261,541;    3,097;    0,682
728,592;28007,692;    0,734;    0,500
729,163;28326,206;    0,643;   -0,136
729,734;28442,811;    0,188;   -0,227
730,305;28770,234;    1,734;    0,136
730,876;29105,385;    0,188;    2,955
731,447;28870,626;    2,188;    2,682
732,017;28979,413;    1,097;    1,864
732,588;28406,472;    0,734;    1,227
733,159;28605,805;    0,643;   -1,045
733,729;28413,319;    0,006;    0,409
734,300;27715,833;    0,915;    0,864
734,870;28110,165;    3,461;    0,591
735,441;28614,861;    0,370;   -0,591
736,011;28415,739;    0,643;   -1,591
736,582;28374,071;   -0,812;    0,045
737,152;27836,040;   -1,721;   -2,045
737,722;28247,554;   -0,267;   -0,682
738,293;27927,068;   -1,358;    1,318
738,863;27838,764;    2,461;    2,318
739,433;27635,278;    5,279;    0,318
740,003;28264,701;   -0,994;   -0,682
740,573;27680,488;    2,097;   -1,591
741,143;27624,366;   -1,085;    0,318
741,713;28441,425;    1,188;   -0,500
742,283;28128,303;    0,915;    1,591
742,853;27886,999;    1,915;    1,591
743,423;27312,150;    1,733;    0,045
743,993;27391,300;   -0,358;    1,500
744,563;26833,814;    0,097;   -0,864
745,133;26781,056;   -0,812;   -0,864
745,702;27424,206;   -0,267;    1,773
746,272;26640,902;   -0,176;    0,591
746,842;26440,234;   -1,358;   -0,591
747,411;26887,203;   -0,267;   -0,318
747,981;26999,262;    0,097;    0,500
748,551;26990,958;    2,278;   -1,045
749,120;26921,563;    0,642;   -0,227
749,690;27324,259;   -0,631;    2,409
750,259;27633,046;    1,369;    2,955
750,828;27575,469;    1,551;   -1,955
751,398;27823,165;    1,278;   -0,045
751,967;27400,043;    2,187;    0,409
752,536;27571,466;   -0,813;   -0,227
753,105;27991,617;    0,096;    0,227
753,675;27796,676;    0,096;    1,773
754,244;27726,827;   -0,904;    3,591
754,813;27785,250;    0,551;    1,227
755,382;27326,400;    0,460;    0,955
755,951;27947,369;    1,551;    3,682
756,520;27473,974;   -0,085;    1,864
757,089;28100,306;    0,278;    0,500
757,658;28252,548;    1,733;    1,227
758,227;28154,425;    1,096;    0,318
758,795;28475,485;    1,187;    1,136
759,364;28702,817;   -0,086;   -0,591
759,933;27663,422;   -1,176;   -0,045
760,501;27203,027;    0,733;   -1,318
761,070;27747,905;   -2,813;   -1,409
761,639;28411,601;   -1,904;    1,318
762,207;27758,388;    1,551;   -0,955
762,776;27695,902;    0,369;    0,864
763,344;27673,507;   -0,995;    0,591
763,913;26689,930;   -0,722;    1,409
764,481;27449,444;    1,005;   -0,136
765,049;27242,140;   -1,358;    1,409
765,618;27121,472;   -0,086;    0,318
766,186;27188,168;    0,278;    0,136
766,754;27327,046;    0,005;    1,864
767,322;26366,287;   -1,995;    0,409
767,890;26398,620;   -0,722;   -1,773
768,459;26750,679;   -2,177;   -0,318
769,027;26931,375;    1,641;    3,409
769,595;25943,162;    3,278;    2,591
770,163;26371,949;    3,823;    2,955
770,730;26103,736;    0,732;   -0,136
771,298;25919,613;    0,187;   -1,409
771,866;25973,127;   -1,541;    4,955
772,434;26337,096;   -0,631;   -1,864
773,002;26491,701;    0,005;    0,682
773,569;26158,943;    0,914;    1,682
774,137;25957,729;   -0,268;   -0,045
774,705;26678,607;    0,278;   -0,136
775,272;26185,212;    0,641;    0,682
775,840;25949,181;   -0,177;    2,682
776,407;25588,058;    0,277;    1,955
776,975;25149,391;   -0,632;    0,318
777,542;26114,905;   -1,086;   -0,045
778,110;25948,874;   -1,268;   -0,045
778,677;25619,751;   -2,359;   -0,864
779,244;25388,265;    2,186;    1,045
779,812;25504,143;    1,823;    0,864
780,379;25389,748;    0,005;    1,136
780,946;25606,262;    1,005;   -0,773
781,513;25930,776;   -1,450;    0,318
782,080;25282,200;   -0,086;    2,864
782,647;26091,077;   -0,268;    3,045
783,214;25689,773;   -0,177;    3,864
783,781;25263,378;   -0,723;   -0,682
784,348;25114,438;   -0,632;    1,500
784,915;25502,134;   -3,177;    0,318
785,482;25304,284;    1,368;    2,591
786,049;25721,162;    0,186;   -0,591
786,615;25799,767;    0,277;   -0,955
787,182;25575,372;    0,186;   -0,682
787,749;25230,886;   -2,814;    1,409
788,315;24597,400;   -1,632;   -0,409
788,882;24929,914;    1,550;   -1,227
789,448;25644,792;    1,732;   -0,955
790,015;25609,397;    1,095;    3,227
790,581;25207,911;    1,459;    0,227
791,148;25136,425;    0,641;    1,045
791,714;25300,576;   -0,541;    3,136
792,280;24934,181;    0,186;    1,591
792,847;24485,149;    0,550;    2,500
793,413;25063,845;   -0,269;   -0,318
793,979;24605,450;    3,459;   -1,318
794,545;24716,419;    4,459;    2,682
795,111;24157,115;    2,186;    1,318
795,678;24343,083;    0,731;   -1,682
796,244;23979,779;    3,368;    0,136
796,810;24466,566;    1,731;    0,773
797,375;24165,262;    0,549;   -2,136
797,941;24232,594;   -0,541;    0,591
798,507;24363,563;   -0,451;   -0,955
799,073;23863,623;   -0,360;    0,591
799,639;23905,591;   -2,632;    3,136
800,205;23935,651;    0,095;    2,682
800,770;23487,074;    0,640;    1,773
801,336;23539,770;    1,368;   -0,955
801,901;23294,830;    4,549;    3,136
802,467;23882,071;   -0,542;    2,045
803,033;23203,858;   -0,087;    0,864
803,598;23408,645;    1,913;   -1,045
804,163;23432,068;    1,095;   -0,318
804,729;23409,945;   -0,178;    1,136
805,294;23801,187;    0,822;    2,227
805,859;23562,519;    0,731;   -0,409
806,425;23018,761;    1,186;    2,682
806,990;22672,184;    2,186;    4,318
807,555;23189,880;   -1,451;    2,591
808,120;23072,121;    0,822;   -0,409
808,685;23092,090;    0,185;   -2,500
809,250;22608,967;    0,004;   -0,500
809,815;22945,300;    1,913;    0,682
810,380;23486,450;   -0,269;    1,591
810,945;24045,692;   -1,087;    2,045
811,510;23180,024;    2,094;    1,591
812,075;22862,902;   -0,633;   -1,409
812,640;22891,779;    2,003;    1,409
813,204;22915,112;    0,822;   -0,227
813,769;23441,353;    2,094;   -0,045
814,334;22854,140;    0,458;    0,864
814,898;22883,290;    0,367;    0,591
815,463;22739,350;    1,276;   -0,773
816,027;22736,137;   -0,724;   -2,318
816,592;22775,287;    0,640;   -2,045
817,156;22394,892;    2,094;    1,136
817,721;22263,588;    4,276;    2,318
818,285;22178,011;    2,912;    1,500
818,849;22816,344;   -1,451;    1,682
819,414;22727,221;   -0,269;    2,955
819,978;22260,917;   -1,269;    1,773
820,542;22843,977;    2,003;    0,500
821,106;22569,218;   -0,815;    0,682
821,670;22684,096;   -0,815;    2,591
822,234;22436,792;   -0,270;    1,409
822,798;21729,397;    0,003;    0,500
823,362;21744,820;   -0,633;    4,227
823,926;21036,061;    0,094;    1,136
824,490;21254,757;   -0,997;   -0,682
825,054;21730,544;   -0,088;   -1,136
825,618;21340,422;   -1,542;   -1,500
826,181;21295,572;    0,458;   -1,318
826,745;21260,541;    1,367;   -1,045
827,309;21599,146;    1,185;    1,318
827,872;20925,387;    1,367;    0,955
828,436;21968,265;    1,185;   -0,773
828,999;22007,961;   -0,997;    1,227
829,563;20752,748;   -0,179;    1,136
830,126;20601,989;   -0,179;   -0,591
830,690;20614,503;   -1,997;    2,864
831,253;20106,290;   -0,543;    2,227
831,816;20267,622;   -1,906;    0,500
832,380;20217,682;    0,185;    0,864
832,943;20446,196;   -1,361;   -0,500
833,506;19895,074;    2,639;   -1,227
834,069;20725,861;    3,912;   -0,955
834,632;20748,648;    1,730;    1,318
835,195;20678,525;    1,003;    0,955
835,758;19847,948;   -0,997;    1,955
836,321;19690,553;    0,730;   -1,045
836,884;19775,158;   -0,725;   -0,955
837,447;19768,218;   -2,816;    1,773
838,010;20113,550;    0,366;    3,227
838,573;20390,155;   -1,179;    0,773
839,135;20298,579;   -1,361;   -0,955
839,698;19831,274;    1,275;    0,409
840,261;19317,698;    1,003;   -0,227
840,823;19113,939;   -0,543;    0,864
841,386;19406,726;   -0,452;   -2,409
841,948;19309,422;   -1,361;    1,773
842,511;19035,118;    0,912;    1,682
843,073;19242,177;    1,912;    0,227
843,636;18958,510;   -0,361;   -0,227
844,198;18948,115;    0,911;    0,591
844,760;19036,538;    1,093;    1,955
845,322;18679,234;    0,548;    1,136
845,885;19128,930;    0,730;    0,591
846,447;19544,080;   -1,998;    0,227
847,009;19153,503;    1,911;   -0,682
847,571;19535,017;    0,820;   -2,045
848,133;19575,895;   -1,089;   -1,864
848,695;19374,500;   -0,543;    1,409
849,257;18950,196;   -1,089;   -1,682
849,819;19110,892;   -0,998;   -0,409
850,381;19181,224;   -0,725;   -0,864
850,942;19530,375;    1,093;   -0,591
851,504;19517,889;    1,184;    0,227
852,066;19519,948;    1,275;   -1,591
852,628;19007,099;   -0,180;    1,955
853,189;18538,340;    1,638;    2,682
853,751;18678,582;   -0,907;    1,409
854,312;18483,278;   -0,453;   -1,682
854,874;19011,701;   -2,089;   -0,773
855,435;19511,215;   -0,907;   -1,682
855,997;19686,911;   -1,816;   -0,136
856,558;18994,516;    0,366;    1,773
857,119;19119,575;    0,820;    2,864
857,681;18753,908;    0,002;    0,318
858,242;18825,331;    1,911;   -2,136
858,803;19240,754;    0,456;   -0,773
859,364;19834,177;    0,184;   -4,773
859,925;19104,419;   -2,453;   -0,955
860,486;19014,296;   -0,453;   -0,955
861,047;18723,810;   -0,544;   -1,227
861,608;18557,688;   -1,089;   -0,773
862,169;18705,020;    0,638;   -0,045
862,730;18449,535;    0,456;    1,409
863,291;18710,867;   -0,635;   -0,500
863,852;19089,654;   -0,635;    1,955
864,412;18505,986;   -0,271;   -0,864
864,973;17088,682;   -0,089;    0,500
865,534;16950,287;   -1,726;    0,227
866,094;18497,892;    1,820;    0,227
866,655;18176,679;    1,274;    3,318
867,215;18381,556;    0,274;    0,136
867,776;18261,343;    0,547;   -0,136
868,336;18403,221;   -1,453;    0,136
868,897;17836,917;    2,638;    1,682
869,457;17575,431;    1,365;    0,318
870,017;17794,400;    0,547;   -1,227
870,578;18302,368;   -0,817;    0,773
871,138;18004,792;   -2,089;   -0,955
871,698;17539,578;   -0,817;   -1,318
872,258;17450,729;   -0,453;   -2,864
872,818;17800,516;    2,729;    0,045
873,378;17774,212;    0,638;    1,045
873,938;17287,998;    0,547;    0,500
874,498;17609,513;    0,274;   -1,955
875,058;17536,663;    2,183;    1,773
875,618;17387,723;    1,910;   -2,682
876,177;17266,964;    1,274;    0,136
876,737;16883,660;   -0,090;    1,955
877,297;16922,265;    0,183;    1,955
877,856;16959,143;   -0,362;    0,318
878,416;16903,202;    1,183;   -0,136
878,976;17109,353;   -1,817;    0,409
879,535;17230,958;    0,092;    3,136
880,095;16977,108;   -0,544;    0,045
880,654;17109,077;   -1,090;    1,318
881,213;17240,682;    2,456;    1,500
881,773;16884,378;    2,637;    2,682
882,332;17239,165;    3,365;    5,136
882,891;17070,770;    3,092;    2,136
883,451;17562,011;   -1,272;    1,682
884,010;16959,525;   -2,908;   -0,409
884,569;17045,676;   -0,999;   -0,045
885,128;17219,553;    2,819;   -1,864
885,687;17354,067;    4,455;    0,682
886,246;17067,854;    1,455;    2,136
886,805;16823,277;    2,455;    2,045
887,364;17032,973;   -0,999;   -0,500
887,922;17409,851;   -1,181;    0,045
888,481;16916,002;   -1,545;    0,591
889,040;17229,697;    1,183;    2,136
889,599;17934,575;    2,455;    1,409
890,157;17970,271;    1,455;    2,409
890,716;17642,422;   -0,090;    0,227
891,274;17450,390;    0,092;   -1,136
891,833;17889,722;    1,546;    0,864
892,391;17740,782;   -0,454;    0,500
892,950;17840,387;    1,819;   -0,773
893,508;18174,447;    0,455;   -0,409
894,067;17464,052;    0,637;    0,136
894,625;17374,657;   -0,636;   -1,500
895,183;17628,807;   -0,363;   -0,682
895,741;17534,776;    1,728;   -1,773
896,299;17397,381;   -0,545;   -2,409
896,858;17575,440;    0,819;   -1,591
897,416;17696,318;    2,728;   -1,318
897,974;17429,378;    1,819;    0,318
898,532;17629,892;    6,091;    2,682
899,089;17511,042;    2,091;   -0,682
899,647;17538,738;   -1,454;    1,318
900,205;17214,252;    1,182;    1,045
900,763;17413,130;   -0,454;    0,227
901,321;17439,008;    2,364;   -1,409
901,878;16836,067;   -1,000;   -0,773
902,436;16727,218;   -1,363;    1,318
902,994;17158,550;    4,728;    3,682
903,551;16590,337;    0,728;    0,409
904,109;17009,487;    0,182;   -1,409
904,666;16541,274;    2,455;    1,045
905,224;16346,879;    0,182;   -0,409
905,781;16053,848;    0,727;   -0,318
906,338;16142,907;   -1,363;    1,045
906,895;16075,785;    0,637;    2,045
907,453;16017,390;    1,727;    1,136
908,010;16076,541;   -0,909;    0,409
908,567;15737,964;    1,273;    0,591
909,124;15145,842;    0,364;   -1,500
909,681;15293,356;   -2,909;    0,682
910,238;15414,961;    0,636;   -1,318
910,795;15700,202;   -0,273;   -1,136
911,352;15279,657;   -2,909;   -2,682
911,909;14704,657;   -1,364;   -0,864
912,466;15283,566;   -3,182;    1,500
913,022;14782,384;   -1,636;    0,500
913,579;15131,838;   -0,909;    2,045
914,136;14857,020;    1,636;    0,955
914,692;15185,020;    0,091;   -1,227
915,249;14800,475;    1,455;    0,409
915,806;15045,929;    0,182;    1,955
916,362;14785,020;    1,909;    1,864
916,918;14352,475;    2,000;    1,045
917,475;14331,384;   -1,182;    0,955
918,031;14387,202;    3,364;   -0,045
918,587;13775,384;   -0,909;   -0,318
919,144;14003,657;   -2,273;    0,227
919,700;14344,475;    1,727;    0,773
920,256;13929,929;    0,727;    0,045
920,812;13519,202;   -0,727;   -1,045
921,368;13541,293;   -1,727;   -1,045
921,924;13176,020;    0,182;   -0,136
922,480;12788,202;   -0,545;    1,227
923,036;13382,020;    1,273;    1,955
923,592;13299,838;    0,455;    0,318
924,148;13220,020;    0,455;   -0,955
924,704;12506,929;   -1,364;   -0,409
925,259;12767,202;   -0,273;    0,591
925,815;12549,111;    1,455;    0,500
926,371;12043,111;    2,909;    1,409
926,926;11967,475;    2,091;    0,591
927,482;11597,838;   -1,364;    0,773
928,037;11452,838;    0,909;    2,045
928,593;11742,020;    1,636;    1,045
929,148;11583,020;   -1,818;   -1,500
929,704;11051,566;   -1,455;   -0,500
930,259;11262,475;    0,091;   -0,136
930,814;10344,657;   -0,818;    1,955
931,369;10008,929;    1,091;   -0,773
931,925; 9865,657;   -0,091;    0,136
932,480; 9785,838;   -2,818;   -2,591
933,035; 9655,293;    0,545;   -0,318
933,590; 9442,020;    0,364;   -1,773
934,145; 9064,929;   -1,364;   -0,318
934,700; 9371,020;    0,455;   -0,591
935,255; 9182,747;   -0,091;    0,045
935,809; 8501,384;    3,182;    0,864
936,364; 7585,566;   -0,455;   -0,136
936,919; 7541,838;    0,455;   -1,773
937,474; 7408,111;    1,455;    0,136
938,028; 7166,657;   -1,636;    1,136
938,583; 6676,838;    1,818;    4,682
939,138; 6923,293;    2,091;    2,136
939,692; 6358,020;    1,636;   -1,136
940,247; 6082,657;   -0,727;   -1,045
940,801; 5637,838;   -0,636;    0,227
941,355; 5499,384;   -0,364;    2,591
941,910; 5160,747;   -0,273;   -2,136
942,464; 5307,475;   -0,818;   -0,318
943,018; 5058,020;    1,000;   -0,227
943,572; 4998,929;    2,545;   -0,682
944,126; 4411,293;    0,091;   -0,409
944,681; 4337,384;    3,091;    0,227
945,235; 4311,657;    1,000;   -0,591
945,789; 4231,566;    0,364;   -1,864
946,342; 4334,475;    0,455;   -0,591
946,896; 4145,111;   -2,273;    0,955
947,450; 3908,111;    1,545;   -0,227
948,004; 4097,475;    1,727;   -0,045
948,558; 4080,657;    0,273;   -0,864
949,111; 4016,929;   -0,273;   -0,318
949,665; 4071,747;    1,636;   -0,682
950,219; 3939,020;   -0,091;   -1,045
950,772; 3999,747;   -1,909;    1,864
951,326; 3887,929;    0,545;   -0,955
951,879; 4025,747;    0,727;   -2,318
952,433; 4041,657;    0,000;    2,227
952,986; 3868,111;    2,909;    0,682
953,539; 3819,929;   -0,273;    0,591
954,093; 3751,747;    0,545;   -1,318
954,646; 3896,020;    0,909;    1,318
955,199; 3719,384;    0,000;   -0,500
955,752; 3602,838;   -0,455;    1,773
956,305; 3547,657;   -0,091;    2,955
956,858; 3725,838;    0,818;   -0,318
957,411; 3891,111;   -0,545;    2,136
957,964; 3721,475;    1,364;    2,136
958,517; 3716,384;   -1,545;    3,136
959,070; 3552,020;   -0,455;    1,955
959,623; 3631,202;    1,091;    1,500
960,176; 3372,929;    1,727;    2,045
960,728; 3360,838;   -2,727;    0,773
961,281; 3398,202;    0,545;    0,500
961,834; 3450,384;   -0,909;    0,864
962,386; 3376,747;    1,727;    1,045
962,939; 3297,838;    0,364;   -0,318
963,491; 3462,747;    0,455;    1,136
964,043; 3323,566;    1,182;    2,409
964,596; 3458,111;   -1,000;    2,227
965,148; 3284,111;   -1,000;    1,773
965,700; 3187,657;    1,091;   -0,227
966,253; 3352,566;   -0,636;    0,318
966,805; 3178,020;   -2,273;    0,773
967,357; 3225,202;    1,091;   -1,500
967,909; 3179,384;    0,455;   -1,227
968,461; 3290,111;    0,545;    3,136
969,013; 3238,384;   -0,182;   -0,864
969,565; 3320,475;   -0,455;   -1,136
970,117; 3364,657;   -0,364;    1,045
970,669; 3192,475;    0,182;   -0,136
971,220; 3069,566;   -0,455;   -1,500
971,772; 2980,475;   -0,636;   -0,318
972,324; 3110,020;    0,091;   -0,500
972,876; 3063,566;    0,818;   -0,045
973,427; 3226,747;    1,909;   -1,045
973,979; 3154,929;   -0,727;   -2,500
974,530; 3196,747;    1,818;    1,318
975,082; 3207,020;   -0,545;    1,682
975,633; 3094,929;    1,091;    1,682
976,184; 3252,384;    0,909;    0,773
976,736; 3023,293;    0,091;    0,227
977,287; 2833,384;   -0,909;   -0,500
977,838; 3013,293;    0,909;   -0,318
978,389; 3087,929;   -1,000;   -0,500
978,940; 2938,838;    0,545;   -0,409
979,491; 2964,657;    0,091;   -0,500
980,042; 2934,020;    0,182;    3,045
980,593; 2984,293;   -2,545;    0,227
981,144; 3024,929;    2,545;   -0,500
981,695; 3016,293;    1,455;    1,500
982,246; 2978,020;   -0,273;    1,045
982,797; 3126,293;   -1,727;    0,682
983,347; 3228,657;    0,364;    0,591
983,898; 3409,929;    3,091;    0,409
984,449; 3210,384;    2,182;    0,773
984,999; 3107,929;    1,455;   -1,136
985,550; 2885,020;    0,182;   -0,318
986,100; 2898,202;   -0,455;   -0,318
986,651; 2955,384;   -0,818;    0,045
987,201; 2922,475;   -1,000;   -0,591
987,751; 3019,657;    0,818;    2,864
988,302; 3005,657;    2,636;    1,500
988,852; 3038,111;    0,455;   -1,136
989,402; 3063,747;    0,091;    0,682
989,952; 2980,838;   -2,182;    0,864
990,502; 3085,657;   -0,091;    0,682
991,052; 3040,384;   -0,727;    0,045
991,602; 2904,747;   -2,909;    1,318
992,152; 2898,838;    0,455;    0,682
992,702; 2893,384;    1,364;   -0,045
993,252; 2824,384;   -3,000;   -0,500
993,802; 2938,293;   -0,273;    1,318
994,352; 3158,747;   -1,545;    1,136
994,901; 3215,929;   -0,182;    3,227
995,451; 3128,657;   -0,182;    0,318
996,000; 3205,838;    1,636;    0,318
996,550; 2943,384;    2,273;    0,227
997,100; 2935,202;    1,273;   -0,045
997,649; 3223,384;    2,182;    0,955
998,198; 2845,202;    1,727;   -1,500
998,748; 3067,384;    1,091;   -2,318
999,297; 2989,202;   -0,818;   -0,409
999,846; 3030,475;    1,000;   -0,773
1000,395; 3066,020;   -0,818;    0,500
1000,945; 3029,202;    1,818;   -0,773
1001,494; 3122,202;    2,364;    0,682
1002,043; 3096,111;    4,636;    0,864
1002,592; 2925,293;   -1,091;    1,955
1003,141; 3087,020;   -0,455;   -0,682
1003,690; 2947,384;    1,727;    0,500
1004,238; 3016,384;    1,455;   -0,045
1004,787; 2651,020;    1,364;    1,227
1005,336; 2886,657;    0,364;    0,682
1005,885; 3034,566;    1,364;   -2,773
1006,433; 3190,566;    0,545;    0,955
1006,982; 3248,747;    0,455;    1,682
1007,531; 3153,020;   -1,818;   -0,227
1008,079; 3104,838;   -2,273;    0,500
1008,627; 3220,384;   -1,455;    0,409
1009,176; 2958,475;    0,000;   -1,955
1009,724; 3016,566;    1,091;    0,864
1010,273; 3070,747;    1,273;    0,500
1010,821; 3169,111;    0,091;    1,409
1011,369; 2904,929;   -1,364;    1,318
1011,917; 2901,202;   -1,364;   -0,591
1012,465; 3162,202;    1,273;   -1,591
1013,013; 3267,111;    2,091;   -1,682
1013,561; 3158,566;    0,455;   -0,773
1014,109; 3216,747;   -1,909;    1,682
1014,657; 3094,566;    0,364;    0,591
1015,205; 3207,838;    1,636;   -0,955
1015,753; 3248,475;   -0,545;   -1,409
1016,301; 3286,111;   -2,636;    3,045
1016,848; 3278,293;   -1,273;    0,409
1017,396; 3323,475;    2,545;    0,045
1017,944; 3450,566;    1,182;    1,864
1018,491; 3209,566;    0,273;    1,409
1019,039; 3371,657;    0,455;    0,591
1019,586; 3268,838;   -1,364;    1,682
1020,134; 3337,202;    0,455;    1,500
1020,681; 3388,838;    0,182;   -1,136
1021,228; 3394,020;    2,909;   -2,227
1021,776; 3204,384;    1,182;   -1,136
1022,323; 3440,929;    0,455;    0,773
1022,870; 3369,838;   -1,000;   -0,045
1023,417; 3254,202;    2,636;    1,864
1023,964; 3422,838;    2,636;    1,227
1024,511; 3262,747;    1,000;    0,773
1025,058; 3043,020;    3,182;   -0,045
1025,605; 3096,657;   -2,273;    3,136
1026,152; 3326,566;    1,727;   -0,591
1026,699; 3050,929;    1,818;    1,318
1027,245; 3209,657;   -0,091;    0,318
1027,792; 3426,111;   -1,000;    1,409
1028,339; 3304,020;    2,364;   -0,045
1028,885; 3159,020;    1,000;   -0,227
1029,432; 3095,475;   -0,091;    0,227
1029,978; 3163,384;   -1,000;   -1,591
1030,525; 3062,111;    1,000;    0,409
1031,071; 3281,020;   -1,364;    1,136
1031,618; 3411,657;    0,364;    1,682
1032,164; 3157,202;   -0,091;    3,045
1032,710; 3246,929;    1,636;   -1,500
1033,256; 3144,657;   -0,636;   -0,136
1033,803; 3138,838;   -0,545;    1,500
1034,349; 2827,838;   -1,364;    0,136
1034,895; 2979,747;    0,000;   -0,318
1035,441; 2954,293;   -0,818;    0,318
1035,987; 2961,838;   -2,364;   -0,682
1036,533; 2951,293;   -1,455;   -0,955
1037,078; 3173,929;    1,455;    1,682
1037,624; 2985,020;    2,455;   -0,955
1038,170; 3018,566;    0,455;   -0,318
1038,716; 2948,020;    1,636;   -0,409
1039,261; 2860,020;   -2,273;   -0,773
1039,807; 2787,384;   -0,091;    3,409
1040,352; 2838,747;   -1,909;   -0,318
1040,898; 2886,929;   -1,545;   -0,682
1041,443; 2792,384;   -1,455;   -2,591
1041,989; 2819,838;    1,091;    1,591
1042,534; 2703,475;   -0,364;    2,591
1043,079; 2812,475;    2,909;    0,955
1043,625; 2611,293;    1,818;    0,500
1044,170; 2658,929;   -1,364;    1,045
1044,715; 2916,838;    2,455;    0,955
1045,260; 2723,111;    2,182;   -0,955
1045,805; 2759,020;    1,182;   -0,591
1046,350; 2692,020;    1,364;   -0,409
1046,895; 2646,657;    2,909;    1,591
1047,440; 2611,475;    5,364;    0,409
1047,985; 2492,475;    2,818;   -0,955
1048,530; 2413,838;    1,545;    1,227
1049,074; 2502,293;    0,000;    0,318
1049,619; 2465,293;   -1,364;    1,955
1050,164; 2273,384;    0,455;    0,227
1050,708; 2306,566;   -0,455;    0,045
1051,253; 2692,020;    1,273;   -2,227
1051,797; 2399,838;    0,818;   -1,318
1052,342; 2377,929;   -1,182;    1,045
1052,886; 2400,475;    0,364;   -1,409
1053,430; 2267,111;   -1,364;    0,136
1053,975; 2282,747;   -0,818;   -0,318
1054,519; 2263,293;   -0,727;    3,227
1055,063; 2294,838;    0,909;    1,318
1055,607; 2173,566;   -0,182;    0,227
1056,151; 2196,475;    2,909;    1,682
1056,695; 2105,293;    2,273;   -1,136
1057,239; 2184,747;   -1,727;   -0,682
1057,783; 2188,838;    0,818;   -1,500
1058,327; 2128,293;    0,000;    1,409
1058,871; 2367,747;   -0,545;    1,318
1059,415; 2083,384;   -0,818;   -0,045
1059,958; 2352,838;    1,455;    2,591
1060,502; 2056,020;   -1,000;   -0,773
1061,046; 1952,384;    0,364;   -0,955
1061,589; 1925,566;   -3,000;   -1,136
1062,133; 1812,111;   -1,273;    1,864
1062,676; 1748,111;    1,182;    0,864
1063,220; 1753,657;    1,091;    0,500
1063,763; 1792,111;    0,909;    1,136
1064,306; 1880,657;   -0,909;    1,864
1064,849; 1757,293;   -0,909;    0,591
1065,393; 1765,657;    2,000;   -1,500
1065,936; 1887,475;    0,182;   -0,409
1066,479; 1752,929;   -1,455;    1,318
1067,022; 1772,202;   -0,273;   -0,227
1067,565; 1680,657;   -0,091;   -1,318
1068,108; 1703,202;    0,727;   -0,591
1068,651; 1676,020;   -0,636;    1,409
1069,194; 1596,202;   -0,455;   -1,682
1069,736; 1613,929;   -1,273;    0,955
1070,279; 1586,202;   -1,364;   -0,500
1070,822; 1656,020;   -2,000;   -0,318
1071,364; 1750,293;   -0,364;    1,318
1071,907; 1560,202;   -0,727;    3,227
1072,450; 1448,475;    0,000;   -0,045
1072,992; 1451,929;   -0,273;    3,136
1073,535; 1597,838;    2,091;    2,136
1074,077; 1377,111;   -0,727;    2,045
1074,619; 1349,475;   -1,364;    0,591
1075,161; 1396,293;   -1,091;    1,500
1075,704; 1568,020;    1,545;    1,227
1076,246; 1353,838;   -0,182;    0,682
1076,788; 1290,020;   -0,364;    1,773
1077,330; 1353,020;    1,273;    2,136
1077,872; 1334,747;    0,909;    0,955
1078,414; 1569,566;    2,727;    0,773
1078,956; 1294,657;    1,273;   -0,227
1079,498; 1569,657;    1,636;    0,318
1080,040; 1255,475;    1,909;   -1,318
1080,581; 1193,657;    1,636;   -0,318
1081,123; 1108,293;    0,091;   -0,773
1081,665; 1158,747;   -1,182;   -0,955
1082,206; 1473,202;    1,364;   -0,500
1082,748; 1322,747;    0,727;    2,045
1083,289; 1206,929;   -2,000;    1,318
1083,831; 1114,657;   -0,545;    0,227
1084,372; 1154,020;    0,000;    0,591
1084,913; 1153,202;    1,091;    0,864
1085,455; 1104,747;   -1,909;   -2,045
1085,996; 1093,929;   -2,273;    0,136
1086,537; 1120,475;   -0,091;    0,864
1087,078; 1149,838;   -0,909;   -2,136
1087,619; 1203,566;   -1,273;    0,227
1088,160; 1103,838;    0,000;    1,318
1088,701; 1080,293;   -1,091;    0,682
1089,242; 1019,111;    1,364;   -2,227
1089,783; 1127,384;   -0,273;    1,409
1090,324; 1089,202;    0,455;    0,682
1090,865;  964,020;    2,727;   -0,409
1091,405;  921,929;    0,727;    2,227
1091,946;  962,929;    0,182;   -0,955
1092,487;  880,929;    0,818;   -1,409
1093,027; 1071,747;   -1,364;   -1,500
1093,568;  919,929;   -0,364;    1,227
1094,108; 1021,020;    0,273;    1,773
1094,649;  960,020;   -1,182;    0,136
1095,189;  885,384;   -0,636;   -0,682
1095,729;  837,384;   -0,091;    0,955
1096,269;  844,475;    0,727;   -0,955
1096,810; 1175,111;   -1,364;    0,500
1097,350;  998,384;    1,364;   -0,773
1097,890;  892,929;    0,364;    1,227
1098,430; 1165,111;    2,364;    2,864
1098,970; 1023,111;    2,182;    1,682
1099,510;  874,929;    0,545;   -2,318
1100,050;  803,566;    1,000;   -1,591
1100,589;  766,293;   -0,727;   -0,318
1101,129;  904,475;    0,818;   -0,955
1101,669; 1071,747;    1,727;    2,136
1102,209;  864,111;   -0,091;    2,227
1102,748;  831,929;    0,000;    0,955
1103,288;  827,929;    1,273;   -1,227
1103,827;  855,566;    3,091;   -2,227
1104,367;  721,293;   -0,091;   -2,409
1104,906;  686,111;    1,364;   -1,136
1105,445;  763,566;    0,636;   -1,136
1105,985;  712,929;   -0,727;    1,500
1106,524;  768,202;   -1,727;   -0,682
1107,063;  732,657;   -2,727;    1,409
1107,602;  701,838;   -1,909;   -1,500
1108,141;  618,202;   -1,909;    1,500
1108,680;  737,657;   -3,455;   -0,591
1109,219;  667,657;   -0,909;   -0,500
1109,758;  659,111;    0,455;    0,682
1110,297;  634,384;    1,000;   -0,682
1110,836;  584,838;   -0,727;    0,955
1111,375;  762,020;   -2,545;    0,409
1111,913;  772,747;   -1,000;    0,773
1112,452;  697,838;   -0,273;    0,136
1112,991;  579,202;    1,091;    1,955
1113,529;  545,202;   -0,818;   -0,045
1114,068;  617,929;   -0,273;    2,955
1114,606;  502,838;   -0,364;   -0,955
1115,144;  673,020;   -1,273;    1,045
1115,683;  608,929;   -0,727;    0,318
1116,221;  667,020;   -0,455;   -0,864
1116,759;  573,838;    0,636;   -0,864
1117,297;  787,657;    0,000;    1,864
1117,836;  578,475;   -2,182;   -1,227
1118,374;  589,020;    0,182;   -0,682
1118,912;  526,020;    0,909;    2,682
1119,450;  527,657;    1,000;    0,864
1119,988;  574,293;    1,545;    2,136
1120,525; 1041,838;    5,091;    3,318
1121,063;  730,747;    1,182;    1,864
1121,601;  532,747;   -0,909;   -1,227
1122,139;  489,293;   -0,727;   -2,045
1122,676;  692,202;   -0,727;    2,773
1123,214;  629,566;   -1,182;    4,409
1123,751;  425,020;    1,727;    2,227
1124,289;  562,566;   -0,091;   -0,409
1124,826;  428,020;    1,727;    0,227
1125,364;  343,475;    1,727;   -0,955
1125,901;  540,202;    1,182;    1,227
1126,438;  656,929;    0,818;    0,955
1126,975;  380,020;   -0,727;   -0,773
1127,513;  451,838;    0,273;    2,136
1128,050;  346,384;    1,636;   -0,682
1128,587;  456,202;    2,000;   -0,227
1129,124;  511,838;    0,091;    1,318
1129,661;  361,657;    0,273;    0,227
1130,198;  532,929;    1,636;    0,773
1130,734;  489,657;    0,182;    1,409
1131,271;  331,747;   -0,909;    0,864
1131,808;  504,747;    2,909;    3,045
1132,345;  384,111;    1,545;    0,318
1132,881;  236,293;   -1,545;   -1,864
1133,418;  383,657;    0,727;   -1,136
1133,954;  316,111;    2,455;   -2,682
1134,491;  400,929;    1,364;   -0,773
1135,027;  298,293;    2,364;    0,864
1135,564;  401,838;    0,273;    2,955
1136,100;  380,657;    0,364;    2,136
1136,636;  263,475;   -1,273;   -1,045
1137,172;  365,566;    0,000;   -1,045
1137,708;  282,111;   -1,364;   -1,045
1138,245;  286,293;    1,273;   -1,227
1138,781;  223,838;    1,091;   -3,318
1139,317;  300,384;    1,273;   -1,409
1139,852;  289,202;    3,091;    0,136
1140,388;  423,293;   -1,182;   -0,409
1140,924;  296,020;   -1,091;   -2,227
1141,460;  218,475;   -1,636;    0,136
1141,996;  157,566;   -1,364;    2,682
1142,531;  215,293;    1,364;    3,318
1143,067;  444,020;    1,182;    1,045
1143,602;  506,475;   -0,091;   -0,318
1144,138;  336,747;   -2,636;    1,045
1144,673;  196,384;   -1,455;    1,409
1145,209;  275,566;   -1,909;   -0,318
1145,744;  180,838;   -0,727;    0,864
1146,279;  330,202;    1,818;   -0,136
1146,815;  235,202;    1,545;   -2,682
1147,350;  282,838;   -1,364;    0,045
1147,885;  191,202;   -0,818;   -1,318
1148,420;  188,838;   -2,273;    0,773
1148,955;  174,020;   -1,727;    1,864
1149,490;  196,384;   -0,909;   -1,591
1150,025;  186,384;    0,455;   -1,773
1150,560;  304,111;    1,091;   -0,955
1151,094;  272,566;    1,455;   -0,591
1151,629;  281,566;    1,636;    0,864
1152,164;  195,384;    1,364;    1,318
1152,698;  143,838;   -0,182;   -0,136
1153,233;  107,293;    0,091;   -0,682
1153,767;  158,202;   -3,000;   -2,318
1154,302;  212,929;   -1,455;    1,773
1154,836;  209,202;   -0,455;   -2,136
1155,371;  271,566;   -1,364;    3,682
1155,905;  211,475;   -0,636;    1,682
1156,439;  182,838;   -0,636;   -0,500
1156,973;  215,566;    0,364;    0,318
1157,507;  146,747;   -0,364;    0,682
1158,042;  183,111;   -0,727;    1,045
1158,576;  227,657;    0,182;    1,773
1159,110;  217,475;   -0,818;    2,409
1159,643;  187,293;    0,636;   -0,045
1160,177;  121,293;   -1,545;    1,500

