
Integration time [ms]:   0,040
Averaging Nr. [scans]: 11
Smoothing Nr. [pixels]: 0
Data measured with spectrometer [name]: 7318044SP
Wave   ;Sample   ;Dark     ;Reference
[nm]   ;[counts] ;[counts] ;[counts] 

186,757;   32,934;   31,551;    1,318
187,357;   28,133;   22,551;    0,955
187,958;   20,052;   15,460;   -1,591
188,558;   21,656;    8,915;   -1,227
189,159;   13,141;    6,733;   -4,500
189,759;    8,228;    7,278;   -3,591
190,360;    9,290;    2,824;   -2,136
190,960;   11,620;    2,915;   -4,136
191,560;   11,804;    3,189;   -6,591
192,161;   54,149;    4,372;   -3,500
192,761;   29,981;    4,010;   -3,227
193,361;   15,748;    1,556;   -3,773
193,962;   25,689;    2,010;   -2,682
194,562;   10,308;    1,189;   -3,955
195,162;    7,478;   -2,448;   -2,227
195,762;   30,188;   -3,176;   -0,045
196,362;   19,221;    1,370;   -2,500
196,963;    5,360;    2,006;   -0,864
197,563;   10,476;    1,551;   -0,955
198,163;    3,756;    0,096;   -0,682
198,763;    6,528;    1,733;   -0,500
199,363;   15,081;    3,096;   -0,500
199,963;    5,170;    0,369;    0,409
200,563;    8,116;    2,823;   -1,409
201,163;    4,434;    3,277;   -0,227
201,763;    9,602;    3,732;    0,318
202,363;    4,353;    1,459;    1,500
202,963;    7,672;    1,459;    1,045
203,563;   15,915;    0,277;    0,500
204,162;    7,653;    2,096;   -1,864
204,762;    6,318;    0,550;    0,591
205,362;    5,361;    3,004;    1,955
205,962;    7,794;    3,096;    1,955
206,562;    2,973;    1,823;    2,318
207,161;    2,529;   -0,087;    0,318
207,761;   15,974;    1,277;    2,409
208,361;    6,841;   -0,268;    1,409
208,960;    7,961;    0,459;    1,500
209,560;    5,417;    1,277;    1,591
210,160;    7,378;    0,550;    1,864
210,759;    5,897;    4,186;    1,227
211,359;    1,731;    1,459;    1,045
211,958;   23,750;    1,277;    2,045
212,558;   20,461;    1,732;    1,864
213,157;    8,133;    1,822;    1,500
213,757;   38,748;    3,822;   -0,227
214,356;   12,795;    1,277;   -0,409
214,956;   26,169;    3,095;    0,409
215,555;    9,398;    2,095;    2,136
216,154;    2,217;   -2,723;   -0,591
216,754;    3,757;    0,277;    0,773
217,353;    5,243;   -0,268;   -1,045
217,952;    2,546;   -0,178;    0,318
218,552;    9,276;    1,368;   -0,773
219,151;    4,674;    0,277;    0,955
219,750;    3,365;    0,004;   -0,227
220,349;   -0,711;   -0,451;    1,045
220,948;    8,964;   -1,360;    1,136
221,548;    3,896;    0,913;    1,227
222,147;    3,247;   -0,087;   -0,409
222,746;   13,956;   -0,451;   -0,955
223,345;    6,970;    0,731;    0,500
223,944;    3,825;   -0,451;    0,773
224,543;    6,244;    1,004;   -1,409
225,142;   -2,339;    0,094;    0,136
225,741;    4,389;   -0,814;    1,045
226,340;    3,586;   -0,451;   -0,955
226,939;    9,423;   -0,996;   -0,136
227,538;    6,018;   -0,360;   -0,773
228,137;    9,854;   -0,814;    0,864
228,735;    7,761;   -0,541;    1,227
229,334;    0,210;   -0,905;   -0,227
229,933;   14,217;    0,459;    0,591
230,532;   11,548;    1,186;   -0,409
231,131;   17,345;    1,732;    0,318
231,729;    6,749;   -2,450;   -2,318
232,328;    3,376;   -0,723;   -1,500
232,927;    5,418;    1,004;   -0,500
233,525;    4,717;    3,640;    0,045
234,124;    5,365;    2,368;   -1,591
234,723;   -1,249;    0,913;   -1,045
235,321;   -0,842;    2,277;    0,136
235,920;    3,297;    1,186;   -1,227
236,518;   11,704;    3,459;    0,318
237,117;    5,989;    0,004;   -0,227
237,715;    7,848;    0,640;   -0,500
238,314;    3,556;   -0,087;   -2,318
238,912;   10,011;   -0,723;   -1,409
239,510;    9,273;    0,459;   -1,227
240,109;   19,033;    0,004;    3,773
240,707;   13,864;   -0,996;    1,227
241,305;    3,794;    0,550;    0,136
241,904;    8,521;   -0,178;   -2,045
242,502;   17,711;   -0,632;   -0,227
243,100;    7,752;   -0,087;   -0,955
243,698;    3,247;    0,732;    1,682
244,297;    6,576;   -0,632;    0,682
244,895;    6,061;   -0,269;   -2,318
245,493;    8,270;    2,186;   -0,591
246,091;   14,167;    1,368;   -1,318
246,689;    8,073;    1,004;    0,591
247,287;    7,251;    0,822;   -1,136
247,885;    3,579;   -1,451;    1,227
248,483;    1,702;    1,822;   -0,500
249,081;    2,722;    0,185;    1,591
249,679;    7,257;   -0,178;    1,682
250,277;    0,560;   -1,723;    0,864
250,875;    5,936;   -1,087;   -1,045
251,473;    1,083;   -1,178;    0,500
252,071;   10,975;    1,459;    1,045
252,669;    6,098;   -1,814;    0,318
253,267;    1,920;   -0,087;    0,773
253,864;    5,615;   -0,360;    0,682
254,462;    5,844;    1,640;    1,591
255,060;   -0,261;   -0,269;    1,318
255,658;    2,007;    0,822;   -0,136
256,255;    2,885;    0,186;   -2,045
256,853;    5,943;   -0,269;    1,409
257,451;   -0,190;    0,822;    1,864
258,048;   28,159;    1,822;    1,864
258,646;   12,114;    1,731;   -1,045
259,243;   15,125;   -0,087;    2,227
259,841;    9,464;   -0,814;    0,318
260,438;    3,581;   -0,087;    0,864
261,036;    7,853;   -1,905;    1,409
261,633;    5,376;   -0,087;    2,227
262,231;    3,909;    2,731;   -0,045
262,828;    2,015;   -0,905;    1,136
263,425;    2,427;    0,913;   -0,591
264,023;    2,103;    0,186;    0,045
264,620;    8,654;   -0,360;   -0,318
265,217;   10,010;   -2,087;    3,136
265,815;    3,989;   -1,905;    2,136
266,412;    6,470;    0,731;    0,136
267,009;    3,625;   -1,451;    0,773
267,606;    8,114;    0,822;   -0,955
268,203;    3,774;   -0,269;   -0,591
268,801;    4,642;    1,731;    0,591
269,398;    3,316;   -0,360;    2,500
269,995;    7,106;    0,277;    1,591
270,592;    4,393;   -0,632;   -0,500
271,189;   -0,229;    0,186;    0,409
271,786;    1,703;   -0,632;    1,227
272,383;    9,676;   -1,087;    0,227
272,980;    2,448;    0,277;    0,318
273,577;    1,996;    0,004;    1,227
274,174;    2,371;    0,822;    2,591
274,771;    3,916;   -0,814;   -0,773
275,367;   33,720;    2,277;    1,409
275,964;   15,392;    0,731;   -0,500
276,561;    4,925;    1,549;   -1,045
277,158;   -2,834;    0,095;   -1,773
277,755;    9,086;    2,185;    0,409
278,351;    5,747;   -0,451;   -1,500
278,948;    6,355;   -0,815;    0,045
279,545;    6,686;   -1,360;    2,318
280,141;    9,162;   -1,723;   -2,045
280,738;   14,002;   -0,451;   -0,136
281,334;    5,770;   -1,633;    0,591
281,931;    1,406;   -0,087;   -1,318
282,528;    8,757;    0,822;   -0,500
283,124;   11,117;   -1,087;   -0,500
283,721;   10,304;   -0,451;    1,409
284,317;    4,320;    0,185;    2,500
284,913;    8,218;   -1,360;    0,591
285,510;    6,582;    0,640;   -0,318
286,106;    8,636;   -2,269;   -0,955
286,703;    7,982;   -0,360;    1,955
287,299;    2,736;   -1,451;   -0,591
287,895;    0,836;    0,822;   -1,045
288,491;    1,407;    0,186;    2,136
289,088;    1,249;   -2,360;    2,409
289,684;    1,644;   -1,723;    1,500
290,280;    9,608;    0,368;    0,682
290,876;   10,923;    1,822;    5,500
291,472;    8,076;    1,276;    2,227
292,068;    6,187;    1,367;    0,227
292,665;    4,191;    2,095;    0,773
293,261;    0,413;    0,276;    2,136
293,857;    9,876;    2,913;    2,136
294,453;    4,123;    3,550;    0,955
295,049;   10,973;   -0,268;    1,955
295,644;    4,504;    0,095;    0,136
296,240;    2,002;   -0,905;   -0,136
296,836;    5,123;   -0,995;    0,318
297,432;    7,801;    1,096;   -0,500
298,028;    3,985;    0,732;    0,773
298,624;    1,949;    1,459;    1,864
299,220;    6,650;    2,368;    0,591
299,815;    3,504;    1,005;   -0,409
300,411;    5,609;    0,914;    1,773
301,007;    5,885;    1,368;    0,227
301,602;    2,491;   -0,541;   -2,318
302,198;   10,767;    0,732;   -0,773
302,794;    6,096;    1,187;   -0,500
303,389;    2,922;   -1,177;    1,045
303,985;    3,475;    0,550;    1,409
304,580;   11,184;    1,459;    1,591
305,176;    4,154;   -3,086;    0,136
305,771;   -0,548;   -1,268;   -1,227
306,367;   26,107;    4,095;    0,136
306,962;    9,945;    0,641;    1,500
307,558;   11,125;   -0,450;    0,136
308,153;    3,248;    1,095;   -1,136
308,748;   -1,406;   -0,814;    1,682
309,344;   11,108;   -0,632;   -1,318
309,939;   10,993;   -1,905;   -1,318
310,534;    1,914;   -0,086;   -1,682
311,130;    4,416;    0,459;   -2,500
311,725;    1,711;    1,004;   -0,500
312,320;    1,314;    2,459;    0,045
312,915;    4,917;    1,459;   -1,045
313,510;   11,442;    1,550;   -0,500
314,105;    3,987;    1,096;    1,409
314,700;    2,282;   -3,086;   -1,045
315,295;    3,729;   -0,904;    0,045
315,890;    0,122;    1,277;    0,864
316,485;    5,171;   -0,359;   -0,318
317,080;    3,315;   -3,086;    1,591
317,675;   15,589;    2,005;   -0,682
318,270;   39,508;    5,550;    3,318
318,865;   17,869;    3,278;    3,045
319,460;    8,854;   -0,904;    0,591
320,055;    5,570;   -0,541;   -1,227
320,650;    1,283;   -1,995;   -0,591
321,244;    3,766;   -0,177;   -1,409
321,839;    3,291;   -1,541;   -0,227
322,434;    2,586;   -1,086;   -1,591
323,029;    0,704;    1,732;    1,591
323,623;   -0,134;    1,550;    0,773
324,218;   12,231;    2,368;    1,409
324,812;    6,644;    1,096;    1,591
325,407;    6,490;   -0,814;    2,045
326,002;   19,404;    0,277;   -0,409
326,596;    8,728;    0,914;    1,318
327,191;    3,753;    0,823;   -1,045
327,785;    7,547;   -0,813;   -0,227
328,379;    1,391;    1,368;    0,136
328,974;   -0,154;    0,914;   -3,955
329,568;    5,011;    0,186;   -2,409
330,163;   12,256;    2,096;    1,045
330,757;    2,361;    2,459;    1,591
331,351;    0,149;    0,459;    0,682
331,945;    2,184;    0,914;    1,409
332,540;    5,152;   -1,723;   -0,591
333,134;    2,365;   -1,086;    0,773
333,728;    6,697;    0,005;    0,318
334,322;   -0,705;   -1,177;   -0,864
334,916;    0,395;    0,277;    0,955
335,510;    8,145;   -0,450;   -0,136
336,105;    3,117;   -1,086;    1,591
336,699;    3,160;   -1,086;    0,591
337,293;    5,661;   -1,723;    0,318
337,887;    3,951;   -2,723;    1,955
338,481;    8,968;    0,459;    0,591
339,074;   14,574;   -0,359;    2,682
339,668;   11,741;   -1,632;    1,227
340,262;   69,460;    1,732;    3,227
340,856;   23,967;    1,822;   -0,682
341,450;    3,900;    1,004;    1,864
342,044;    6,297;    1,459;    0,136
342,637;   15,760;    0,913;   -2,136
343,231;    6,902;   -2,360;    0,682
343,825;    5,339;   -1,086;   -0,591
344,419;    7,837;   -1,995;    0,500
345,012;   70,631;    2,459;    4,045
345,606;   40,977;    4,641;    1,591
346,199;   11,306;   -1,813;   -0,227
346,793;   20,200;    1,914;    2,045
347,386;    9,822;   -0,813;   -1,136
347,980;    2,804;   -0,268;   -0,045
348,573;   10,395;    2,278;    0,409
349,167;   75,708;    5,278;    4,773
349,760;   34,715;    2,914;    2,682
350,354;   28,222;   -0,813;    1,136
350,947;   29,554;    1,096;    1,682
351,540;   21,276;   -0,358;   -1,409
352,134;    7,897;    1,096;    1,136
352,727;    7,608;   -0,086;    1,136
353,320;    9,185;    0,005;    0,591
353,913;    4,021;   -1,995;    1,864
354,507;   24,307;    0,823;   -1,227
355,100;   11,745;    0,460;    0,864
355,693;  103,188;    2,005;    2,409
356,286;   46,167;    0,823;    2,773
356,879;   15,538;   -0,722;    1,227
357,472;   22,275;   -0,904;    1,500
358,065;   24,502;   -0,722;    2,500
358,658;    9,899;   -0,540;    2,318
359,251;    4,632;   -1,631;   -0,591
359,844;   28,858;   -1,904;   -1,136
360,437;   32,386;   -2,995;    0,045
361,030;   15,358;    1,369;   -0,682
361,623;   17,103;    2,824;    0,318
362,215;   50,677;   -0,086;    2,045
362,808;   14,602;   -2,358;   -1,682
363,401;   10,443;   -2,449;    0,136
363,994;   51,326;   -0,631;   -1,500
364,586;   22,429;    0,824;   -1,500
365,179;   11,380;   -0,449;   -1,136
365,772;    4,658;   -1,995;    2,045
366,364;   13,045;    1,915;   -3,227
366,957;   15,099;    2,279;   -0,045
367,549;   10,885;    2,188;   -0,864
368,142;   14,180;    1,825;   -1,500
368,734;    9,860;    0,734;   -2,136
369,327;    7,717;    1,643;   -0,500
369,919;    8,806;   -1,538;    0,409
370,512;    9,947;   -1,083;   -0,500
371,104;   55,526;   -0,901;    1,591
371,696;   49,881;    1,191;   -0,955
372,289;   22,797;    0,373;    1,136
372,881;   15,301;   -2,080;    1,318
373,473;    3,771;   -2,170;    1,136
374,066;    8,652;   -0,169;    0,500
374,658;   10,567;    0,378;    1,136
375,250;    7,602;    0,653;   -1,409
375,842;    6,466;    0,473;   -0,045
376,434;    3,655;   -0,435;   -0,409
377,026;    1,919;    0,204;   -2,500
377,618;   12,577;   -0,158;   -0,682
378,210;    2,771;   -0,338;   -1,955
378,802;    9,329;    0,754;   -0,591
379,394;   70,786;    1,846;    0,682
379,986;   26,695;    1,393;   -0,955
380,578;   11,071;   -0,153;    0,773
381,170;   50,704;   -0,972;    0,045
381,762;   32,334;    0,755;    1,409
382,354;   17,475;   -0,065;   -1,318
382,945;    9,079;   -2,976;    0,318
383,537;    4,737;   -2,705;   -1,955
384,129;    3,822;   -2,160;   -1,136
384,721;   15,434;   -0,252;    0,955
385,312;    8,725;   -0,161;   -0,955
385,904;   15,731;   -2,706;    1,591
386,496;    9,637;   -0,979;    1,045
387,087;   41,378;    1,022;    2,500
387,679;   24,752;   -1,160;    0,045
388,270;   12,597;    2,840;    2,045
388,862;   11,370;    1,295;   -0,318
389,453;   15,615;   -0,887;    1,045
390,045;   13,159;   -0,705;   -2,682
390,636;    3,993;    0,204;   -0,591
391,227;   11,541;   -0,523;   -0,045
391,819;    5,134;    0,204;    0,773
392,410;   55,290;    1,022;    0,045
393,001;   14,488;   -0,979;   -1,591
393,593;   18,530;    1,930;   -0,045
394,184;   22,130;    1,385;   -0,409
394,775;   11,315;    1,839;    2,136
395,366;    4,033;    1,385;    0,773
395,957;   12,115;    0,113;    0,136
396,548;    1,823;   -0,342;    2,682
397,139;   21,894;   -2,433;    0,591
397,730;   11,390;   -1,888;    0,955
398,321;   12,275;   -1,252;    0,955
398,912;    6,480;   -0,615;    0,136
399,503;    6,384;   -3,524;   -1,409
400,094;    7,429;    0,294;    1,682
400,685;    6,446;   -0,433;    0,045
401,276;    7,333;    0,930;   -0,955
401,867;    5,295;   -0,888;    0,773
402,458;    1,599;   -2,251;   -2,318
403,048;    8,223;    1,112;    0,591
403,639;    5,047;    0,840;    0,864
404,230;   23,503;    2,476;    0,318
404,821;   27,020;   -0,615;    0,045
405,411;   16,526;    1,203;   -2,591
406,002;    5,503;   -1,252;   -1,136
406,592;   47,390;    2,294;    0,045
407,183;   20,937;    0,566;   -1,500
407,774;   18,718;    3,475;   -0,136
408,364;    7,420;    0,930;    0,409
408,954;   22,995;    0,384;    1,227
409,545;   24,714;    1,021;    1,045
410,135;   15,336;    1,293;    0,500
410,726;    6,294;    1,838;    0,318
411,316;   33,466;    0,111;    0,773
411,906;   12,892;   -0,253;   -0,409
412,497;   13,608;   -1,070;   -0,045
413,087;    8,252;   -1,980;   -0,227
413,677;   -0,523;   -0,707;    3,864
414,267;   -0,535;    0,656;    1,409
414,857;   -2,064;   -2,980;    4,227
415,448;   -1,188;    0,839;    0,500
416,038;    1,827;    0,020;   -0,591
416,628;    5,378;   -0,889;    0,409
417,218;   11,325;    0,565;    3,318
417,808;   28,341;    0,202;   -0,409
418,398;   12,981;    0,020;    2,682
418,988;    2,721;    2,020;    0,591
419,578;   18,311;   -0,707;    1,409
420,168;    6,261;   -1,343;   -0,955
420,757;   15,722;   -1,343;   -1,500
421,347;    0,510;    0,111;   -0,227
421,937;    3,957;    2,292;    1,409
422,527;   20,175;    0,838;   -0,773
423,116;   40,161;   -0,253;   -0,045
423,706;    7,651;   -1,889;    0,318
424,296;    1,645;    1,384;    0,682
424,885;   11,100;   -0,071;   -3,045
425,475;    8,050;    1,474;   -2,864
426,065;    1,773;   -0,980;   -0,318
426,654;   -0,021;   -0,435;   -0,318
427,244;   26,972;    0,020;    1,409
427,833;   18,952;    1,383;   -0,500
428,423;    5,312;   -0,526;    1,136
429,012;    5,659;   -0,344;   -1,136
429,601;   17,335;   -1,344;    0,136
430,191;    6,810;    1,292;    4,318
430,780;    0,043;   -0,344;   -0,409
431,369;   21,156;    0,746;   -0,045
431,959;    4,716;   -1,254;    0,500
432,548;    1,180;   -1,163;   -0,045
433,137;   -0,150;   -1,254;   -1,318
433,726;    2,370;    0,292;    0,500
434,315;    4,303;   -0,526;    2,409
434,905;   17,597;   -1,254;    1,409
435,494;   12,906;    0,746;    0,955
436,083;    1,474;   -0,981;   -0,955
436,672;   16,325;    0,110;    0,500
437,261;    9,840;    0,292;   -1,955
437,850;   33,811;    1,383;    0,682
438,439;   45,004;    3,291;    1,955
439,027;   68,935;    3,655;    1,773
439,616;   44,537;    2,927;    1,227
440,205;    9,483;    0,200;   -2,136
440,794;    5,823;    2,109;   -0,045
441,383;    4,346;   -1,346;   -0,591
441,971;    1,426;   -2,436;    0,591
442,560;    1,584;    0,563;   -1,773
443,149;   -5,725;    0,379;   -1,318
443,737;   -3,113;   -0,074;   -2,318
444,326;    4,593;    0,018;    0,318
444,915;    3,762;   -1,982;    0,864
445,503;    6,368;   -2,891;   -0,318
446,092;   65,117;    0,382;    2,136
446,680;   42,704;    0,382;    0,318
447,269;   17,182;   -0,346;   -0,318
447,857;   14,965;    0,018;   -1,773
448,445;    9,895;    0,563;    1,318
449,034;    1,606;   -1,528;   -1,136
449,622;    5,154;   -1,073;    3,500
450,210;   35,910;    2,017;    2,227
450,799;   24,475;    0,290;   -0,591
451,387;   22,861;    1,381;   -0,591
451,975;   19,467;    2,654;    0,864
452,563;   28,235;    3,472;    2,318
453,151;    9,497;   -0,528;   -1,227
453,739;    6,882;   -1,347;    0,136
454,328;   15,572;    2,381;   -2,136
454,916;   10,618;    2,562;   -0,136
455,504;   21,123;    1,017;    1,227
456,092;    6,724;    0,017;   -1,591
456,679;    2,186;    1,472;    0,682
457,267;   73,968;    4,017;    1,045
457,855;   21,910;    1,017;    1,409
458,443;   -1,751;   -0,165;    1,682
459,031;    7,935;    0,108;    2,409
459,619;    6,080;   -1,801;    2,864
460,206;    2,287;    0,835;    2,045
460,794;    0,963;   -2,983;   -0,227
461,382;    5,229;   -0,529;   -0,864
461,970;    7,591;    1,198;    1,864
462,557;    2,768;   -0,711;   -0,682
463,145;    5,828;   -3,165;   -1,682
463,732;   49,371;    2,016;   -1,045
464,320;   16,075;   -0,075;   -3,045
464,907;   26,140;    2,743;   -0,773
465,495;   13,726;    0,743;   -1,227
466,082;   11,431;   -1,984;   -0,045
466,670;   12,987;   -2,529;    1,227
467,257;    2,379;   -1,711;    2,045
467,844;   10,586;   -0,075;    0,045
468,432;    6,689;    0,834;    3,500
469,019;    5,948;    0,925;   -1,773
469,606;   20,539;    0,470;    3,682
470,193;   18,456;   -1,439;    0,227
470,780;    9,193;   -2,075;    0,864
471,368;    1,880;   -1,257;   -0,773
471,955;   13,309;    1,379;   -0,682
472,542;   12,291;    0,652;   -1,136
473,129;    1,325;   -0,166;    0,136
473,716;    1,668;    1,470;    0,591
474,303;    5,038;    0,652;   -0,864
474,890;    1,351;   -1,439;   -0,500
475,477;   17,386;   -1,621;    0,409
476,064;    6,739;    1,106;   -1,591
476,650;   28,485;    0,288;    0,318
477,237;   11,212;   -0,258;    0,955
477,824;    8,684;   -1,076;    0,864
478,411;   -1,327;   -1,894;   -0,318
478,997;   -0,900;    0,560;   -0,773
479,584;   -2,908;    1,196;   -0,409
480,171;    9,149;   -0,440;   -0,773
480,757;   10,589;    2,651;    0,773
481,344;    5,427;    0,469;    0,409
481,931;   -1,441;    1,105;    1,045
482,517;    7,920;   -1,258;    0,318
483,104;   21,727;    1,106;    2,864
483,690;    5,917;   -1,804;    0,045
484,276;    3,252;   -0,895;    0,227
484,863;   28,852;    2,469;    1,136
485,449;    8,756;   -0,077;    0,318
486,035;   -0,141;   -1,986;   -0,136
486,622;   10,437;   -0,895;    0,045
487,208;    1,839;    1,378;    1,500
487,794;   -1,289;    0,741;    0,318
488,380;   -1,449;    0,105;   -1,409
488,967;   -1,250;   -1,168;   -0,409
489,553;   -1,475;   -1,895;   -1,409
490,139;    4,802;    1,559;    0,773
490,725;   -0,821;    0,741;   -0,227
491,311;    1,074;    3,287;    3,045
491,897;    0,173;   -0,986;    1,500
492,483;    0,832;    0,105;    1,227
493,069;   68,729;    3,923;    0,864
493,655;   25,146;    1,650;    0,682
494,241;    4,131;    1,377;   -0,955
494,826;    3,704;    0,287;   -1,045
495,412;    9,977;    2,559;   -0,682
495,998;    0,391;   -0,805;   -0,318
496,584;    6,538;    0,377;    1,045
497,169;    9,295;    1,014;   -0,682
497,755;    4,848;    0,650;    1,227
498,341;   20,474;    0,559;    0,318
498,926;   37,972;    1,832;    1,955
499,512;    8,464;    1,286;    2,955
500,097;    2,097;    0,195;   -0,318
500,683;    4,428;   -0,350;    2,136
501,268;    5,616;   -0,169;   -0,955
501,854;    4,648;   -0,169;    1,227
502,439;   -0,911;   -0,624;   -1,773
503,024;    1,033;    0,195;    0,500
503,610;    8,298;   -0,078;   -0,682
504,195;   -0,216;    0,558;    1,955
504,780;   13,991;    2,922;    1,227
505,366;   32,156;    3,013;    2,864
505,951;   14,612;    0,740;    1,045
506,536;    4,506;   -3,260;   -3,682
507,121;   12,564;    0,285;   -0,318
507,706;   12,209;    2,376;    1,045
508,291;    4,070;    2,649;    1,136
508,876;    1,132;   -0,988;    2,591
509,461;    2,983;   -0,169;   -0,773
510,046;    8,973;    0,194;    0,318
510,631;   10,926;   -0,351;   -0,773
511,216;    3,782;    2,467;   -0,500
511,801;   13,695;   -0,442;    2,591
512,386;   10,492;    0,740;    0,500
512,971;    8,388;   -2,988;    0,955
513,555;   10,698;   -0,897;   -1,500
514,140;   12,355;   -0,442;   -3,136
514,725;   31,897;   -0,715;   -1,136
515,309;   13,426;   -0,533;    0,318
515,894;    4,331;   -0,624;   -2,227
516,479;   10,359;   -0,624;   -0,955
517,063;    7,152;    0,376;    1,227
517,648;    4,709;    1,012;   -1,136
518,232;    2,300;   -0,261;   -1,409
518,817;   16,486;   -0,079;    1,682
519,401;   32,014;    2,194;    0,591
519,985;   36,628;    1,103;    1,136
520,570;   15,770;    0,830;   -1,955
521,154;   36,263;    2,102;    0,591
521,738;   74,522;   -2,352;    2,409
522,323;   42,700;   -0,170;    1,682
522,907;   49,240;    0,466;   -0,136
523,491;   36,157;    0,557;    0,955
524,075;   38,889;    2,284;    0,591
524,659;  125,207;    1,466;    0,591
525,243;  114,037;    1,739;    0,409
525,827;   99,891;    0,648;   -0,045
526,411;  105,570;   -1,989;   -0,136
526,995;  167,324;   -0,352;    1,409
527,579;  212,518;   -0,443;   -1,045
528,163;  184,472;    0,375;   -1,500
528,747;  253,095;    2,466;   -0,773
529,331;  229,900;   -0,080;   -1,409
529,915;  144,297;    1,738;    0,955
530,499;  222,841;   -0,807;    1,227
531,082;  370,694;   -0,534;    1,591
531,666;  453,727;    1,374;    0,773
532,250;  356,736;    1,284;    2,682
532,833;  445,712;    0,920;    2,773
533,417;  331,719;   -1,807;    0,864
534,001;  450,227;    1,647;   -0,318
534,584;  391,649;    0,374;    0,500
535,168;  241,371;    0,465;    1,409
535,751;  572,549;    0,647;    0,045
536,334;  349,301;   -0,898;   -0,409
536,918;  205,112;    0,011;    1,591
537,501;  231,241;   -0,899;    1,318
538,085;  282,261;   -0,444;    1,045
538,668;  361,538;    0,829;    2,409
539,251;  627,725;    1,829;    3,773
539,834;  356,804;    0,101;    0,773
540,418;  485,337;   -1,990;    4,318
541,001;  660,132;   -0,990;    1,773
541,584;  441,625;    2,101;    2,227
542,167;  552,258;    1,374;    2,955
542,750;  380,739;    1,919;   -0,773
543,333;  271,102;    0,555;    2,136
543,916;  491,042;    0,192;    2,500
544,499;  425,342;   -1,354;    0,227
545,082;  509,985;    1,374;    3,591
545,665;  424,964;    1,919;    1,500
546,248;  550,284;    1,010;   -0,318
546,830;  526,633;   -0,445;    1,955
547,413;  483,514;    1,010;   -0,773
547,996;  454,549;    0,555;    0,500
548,579;  412,868;    0,919;    0,955
549,161;  646,693;    1,828;    2,682
549,744;  530,921;   -0,809;    0,409
550,326;  382,927;   -0,809;   -1,136
550,909;  851,965;    2,737;    0,591
551,492;  509,728;   -0,263;    0,227
552,074;  638,351;   -0,173;   -1,318
552,657;  660,444;    2,373;    0,045
553,239;  529,549;   -0,173;   -0,773
553,821;  396,948;   -1,082;    1,045
554,404;  656,804;    1,282;    1,136
554,986;  765,110;    0,464;    1,045
555,568;  601,760;    1,191;   -0,955
556,151;  811,128;    1,191;   -0,227
556,733;  487,551;   -0,264;   -0,864
557,315;  501,366;    0,100;    0,500
557,897;  377,536;    0,554;   -0,500
558,479;  394,452;   -1,991;    1,318
559,061;  482,171;   -0,719;   -0,864
559,643;  529,495;   -0,264;    0,045
560,225;  575,677;    1,645;    2,864
560,807;  424,950;    0,918;    0,318
561,389;  397,420;    0,554;    2,318
561,971;  497,798;    0,463;    2,136
562,553;  411,084;   -1,628;    1,591
563,135;  502,622;   -0,537;    1,136
563,717;  898,709;    3,372;    1,136
564,298;  791,920;    3,645;   -0,045
564,880;  542,583;    0,645;   -1,409
565,462;  375,674;    0,645;    1,318
566,043;  497,220;   -0,446;    2,318
566,625;  805,581;    1,918;    1,227
567,207;  617,631;    1,099;    1,682
567,788;  482,463;   -1,264;    1,500
568,370;  483,440;    1,917;   -0,500
568,951;  478,754;    0,190;    0,227
569,533;  584,570;   -0,628;   -0,500
570,114;  606,246;   -0,446;    0,682
570,695;  633,172;   -0,174;   -1,318
571,277;  610,205;   -0,265;   -1,682
571,858;  814,997;    2,008;   -1,136
572,439;  654,596;    1,554;   -1,045
573,021;  692,289;    2,099;   -2,773
573,602;  811,981;   -1,265;    0,318
574,183;  751,561;   -2,083;    2,227
574,764;  693,825;   -1,629;    0,409
575,345;  897,855;    0,917;   -0,136
575,926;  719,241;   -0,356;    0,136
576,507;  801,796;    1,099;   -0,227
577,088;  757,977;    3,099;    1,682
577,669;  938,211;    0,735;    1,955
578,250; 1125,107;    0,644;   -1,045
578,831;  908,654;   -1,356;   -2,227
579,412;  893,306;   -0,810;    0,955
579,993;  877,859;    1,008;    0,227
580,573;  783,863;   -0,629;   -0,955
581,154;  926,669;    0,735;   -0,591
581,735;  940,480;    0,644;    0,773
582,315; 1085,661;   -0,629;    2,136
582,896;  890,643;   -0,174;    1,227
583,477;  732,618;    0,189;    1,227
584,057;  862,585;    0,553;    0,955
584,638;  985,950;    2,553;    2,318
585,218; 1235,034;   -0,538;    2,682
585,799; 1040,831;    0,281;   -0,227
586,379;  895,704;    0,372;    1,591
586,959;  865,745;    0,735;    0,318
587,540;  778,280;   -0,629;    2,227
588,120;  788,995;    1,007;   -0,045
588,700;  803,750;    2,553;    2,136
589,281;  984,679;    0,462;   -0,955
589,861;  842,515;    0,099;   -1,682
590,441;  699,412;    2,371;   -2,682
591,021;  791,583;   -0,265;   -2,591
591,601;  741,322;   -0,537;    0,500
592,181;  728,585;   -0,719;   -0,773
592,761;  619,315;    0,007;    1,409
593,341;  745,923;   -0,901;    0,045
593,921;  746,612;   -0,265;    1,591
594,501;  640,837;   -0,538;    1,318
595,081;  658,517;    0,917;   -0,318
595,661;  730,274;   -1,447;    0,955
596,240;  661,050;   -0,537;    0,136
596,820; 1093,726;    0,372;    1,955
597,400;  801,994;    2,008;    0,773
597,980;  692,211;    2,008;    1,045
598,559;  637,531;    2,735;   -0,227
599,139;  615,911;   -0,174;   -1,227
599,718;  611,002;   -0,174;   -0,409
600,298;  601,350;    0,735;    0,682
600,877; 1110,947;    2,917;    1,409
601,457;  809,440;    2,281;    1,136
602,036;  678,047;    0,190;    2,045
602,616;  734,299;    0,644;    1,682
603,195;  864,256;   -0,355;    3,500
603,774;  923,635;   -0,901;    2,045
604,354;  847,640;    0,826;   -0,500
604,933;  781,768;    0,463;    1,864
605,512;  887,920;    3,554;    0,591
606,091;  880,235;   -0,537;    3,773
606,671;  820,897;    0,281;    0,773
607,250; 1005,902;    1,644;    3,136
607,829;  935,384;    2,372;    3,227
608,408;  771,865;    1,190;    2,591
608,987;  902,598;    1,281;    3,409
609,566;  721,640;   -1,265;   -2,500
610,145;  820,971;   -1,082;    0,682
610,723;  863,983;    4,372;    6,864
611,302;  770,300;   -0,446;    1,682
611,881; 1069,322;    5,008;   11,227
612,460;  761,693;    1,645;    3,955
613,039;  642,911;   -0,082;    2,045
613,617;  634,851;    1,736;    4,773
614,196;  648,785;    1,099;    1,227
614,775;  736,450;    1,009;    2,409
615,353;  780,783;    0,736;    0,864
615,932;  742,063;    0,100;    2,409
616,510;  728,630;    0,554;    0,591
617,089; 1254,616;    7,100;   17,591
617,667;  842,611;    2,372;    6,136
618,246;  596,670;   -1,537;    1,318
618,824;  676,771;   -3,355;   -0,955
619,402;  701,137;   -2,900;   -1,773
619,981;  765,010;   -0,173;   -1,045
620,559;  667,348;    0,009;    1,682
621,137;  691,909;   -0,718;    1,864
621,715;  595,103;   -1,173;   -0,682
622,293;  616,996;   -0,537;   -0,773
622,871;  628,912;   -0,718;    0,500
623,450;  572,303;    0,373;   -0,864
624,028;  778,710;    0,191;   -0,955
624,606;  734,862;   -1,718;    1,682
625,183;  540,550;   -1,536;   -1,136
625,761;  683,092;    1,009;    1,136
626,339;  996,511;    1,373;    2,591
626,917;  633,307;   -0,172;   -0,045
627,495;  574,498;   -0,354;    1,318
628,073;  709,639;   -0,263;    2,864
628,650;  720,341;    0,100;    2,136
629,228;  712,020;    0,373;    4,409
629,806;  522,347;    2,282;    1,136
630,383;  581,753;    1,464;   -0,318
630,961;  589,348;    2,555;   -0,955
631,539;  641,110;    2,464;    0,227
632,116; 1371,711;   11,373;   15,409
632,694;  967,213;    2,555;    6,500
633,271;  798,489;    0,828;    2,682
633,848;  901,801;    1,828;    2,045
634,426;  629,006;   -1,081;    1,773
635,003;  486,905;    1,101;   -0,409
635,580;  919,531;    1,192;    3,682
636,158;  780,789;    3,737;    1,227
636,735;  589,308;    0,555;   -0,500
637,312;  578,359;   -0,809;   -0,682
637,889;  579,900;   -4,354;   -0,682
638,466;  562,150;   -3,990;   -0,409
639,043;  613,344;    2,101;   -1,136
639,620;  527,795;   -2,262;   -0,955
640,197;  674,242;    1,100;    1,682
640,774;  490,703;   -0,172;    1,136
641,351;  563,801;    0,737;    1,136
641,928;  771,717;   -0,627;    1,409
642,505;  894,633;    0,828;   -0,500
643,082;  702,185;   -1,718;    1,227
643,658;  554,919;   -0,718;    1,500
644,235;  539,199;    1,191;    2,500
644,812;  737,206;    1,918;    0,773
645,388;  726,122;   -0,991;    1,409
645,965;  498,038;   -0,809;    1,682
646,542;  513,863;   -1,445;   -0,227
647,118;  914,234;    1,009;   -0,955
647,695;  688,968;   -0,263;    1,136
648,271;  494,157;   -0,536;    0,500
648,848;  676,527;    0,736;    2,227
649,424;  802,807;    0,827;    1,318
650,000;  612,268;   -0,354;   -1,045
650,577;  643,911;   -0,627;   -0,955
651,153;  644,918;   -1,809;    0,955
651,729;  602,653;    1,191;    0,864
652,305;  968,750;    0,645;    2,773
652,881;  930,212;   -0,082;    1,136
653,458; 1087,492;    1,100;    0,227
654,034; 1197,044;    0,282;    1,591
654,610; 1340,142;    0,554;    0,773
655,186; 1859,876;    0,645;    3,045
655,762; 1371,610;   -0,991;    0,409
656,338; 1347,526;    0,100;    0,136
656,913; 1428,806;   -0,082;    0,409
657,489; 1203,994;    0,827;   -0,318
658,065; 1320,638;   -0,173;   -1,591
658,641; 1345,008;   -0,900;   -0,864
659,217; 1262,288;   -0,991;    0,409
659,792; 1402,295;    0,645;   -0,409
660,368; 1206,938;   -2,173;   -0,682
660,944; 1256,672;   -2,082;    1,227
661,519; 1125,225;   -0,628;    0,409
662,095;  823,686;   -1,719;    0,591
662,670;  643,420;    1,281;   -0,136
663,246;  551,518;    1,009;   -0,409
663,821;  724,707;    0,281;    1,682
664,396;  675,350;    0,009;    1,864
664,972;  580,630;    0,009;   -0,500
665,547;  641,364;    1,372;    0,136
666,122;  623,553;   -1,082;    0,318
666,698;  819,196;   -0,173;    0,318
667,273;  579,294;   -0,173;    0,136
667,848;  620,210;    2,372;    1,500
668,423;  796,853;    2,190;    2,318
668,998;  645,042;    2,827;   -0,682
669,573;  599,231;   -3,264;   -1,500
670,148;  797,601;   -1,446;   -0,682
670,723;  564,790;   -1,810;    0,318
671,298;  863,524;    2,372;    1,045
671,873;  771,258;   -0,082;   -0,136
672,448;  754,356;    0,645;    0,136
673,023;  741,999;   -1,992;   -0,227
673,597;  844,643;    0,827;    2,318
674,172;  893,013;   -0,355;    0,318
674,747;  798,838;    0,372;   -1,045
675,321;  548,027;   -0,628;    3,318
675,896;  492,489;    0,645;    1,045
676,471;  729,132;    2,645;    1,591
677,045;  645,321;   -1,264;    0,682
677,620;  743,146;    0,190;    1,136
678,194;  568,880;   -2,628;    1,136
678,769;  647,159;   -1,083;   -0,318
679,343;  706,439;   -0,628;    1,773
679,917;  833,173;   -1,446;    1,955
680,492;  675,271;    0,826;    3,227
681,066;  717,460;    3,372;    0,409
681,640;  639,921;    1,463;   -0,318
682,214;  658,292;    0,735;    0,500
682,788;  654,481;   -1,356;   -0,773
683,363;  811,124;   -1,810;    1,682
683,937;  677,676;   -1,719;   -0,318
684,511;  701,410;    0,463;   -0,591
685,085;  708,145;   -1,356;    0,318
685,659;  623,061;   -2,538;    0,864
686,232;  880,613;   -0,356;   -0,318
686,806;  752,074;   -0,901;    0,409
687,380;  632,263;   -0,174;    0,591
687,954;  563,725;   -1,174;    1,136
688,528;  901,641;   -0,719;    1,955
689,101;  722,375;   -3,992;    1,045
689,675;  611,382;   -0,356;   -0,136
690,249;  874,025;   -0,719;    0,409
690,822;  866,123;    0,280;    0,318
691,396;  745,857;   -0,265;    1,227
691,969;  657,228;    1,280;    0,136
692,543;  550,325;   -0,447;   -1,955
693,116;  532,241;   -0,265;   -1,409
693,690;  634,157;    0,099;    0,500
694,263;  569,619;   -1,083;    2,955
694,836;  939,535;    1,371;    3,591
695,410;  813,633;   -0,265;    1,773
695,983;  839,094;    0,189;    0,591
696,556;  630,283;   -0,447;   -1,045
697,129;  537,926;   -0,356;    1,409
697,703;  772,751;   -1,629;    1,955
698,276;  660,849;    1,462;   -0,773
698,849;  832,947;    1,280;    1,409
699,422;  591,408;   -1,083;    0,591
699,995;  478,143;    0,007;    0,136
700,568;  627,513;   -0,629;    3,045
701,140;  656,611;   -2,811;    1,682
701,713;  826,709;   -0,174;    2,409
702,286;  709,807;   -0,538;    0,864
702,859;  783,995;   -0,902;   -0,591
703,432;  878,457;    0,825;    0,682
704,004;  750,646;    0,462;    0,318
704,577;  621,380;   -0,629;    0,136
705,150;  677,023;    0,189;    2,500
705,722;  727,848;   -0,356;   -3,227
706,295;  802,219;   -0,175;   -0,591
706,867;  674,953;   -0,175;    1,955
707,440;  776,596;   -1,720;   -0,409
708,012;  853,967;    0,462;    0,591
708,584;  762,428;    2,462;    0,227
709,157;  534,253;    1,825;   -0,591
709,729;  771,806;    2,280;    2,045
710,301;  616,994;    0,734;    0,045
710,874;  637,456;   -1,447;   -0,227
711,446;  527,372;    0,371;    0,864
712,018;  603,379;    0,098;    0,500
712,590;  542,658;   -1,993;    1,682
713,162;  836,847;    0,825;    1,318
713,734;  618,218;    1,825;   -2,045
714,306;  526,406;   -1,902;   -0,409
714,878;  584,777;    0,825;    0,864
715,450;  540,238;    0,643;    0,864
716,022;  551,882;    1,552;    1,318
716,593;  541,070;    0,189;    0,591
717,165;  593,986;   -3,175;   -1,227
717,737;  865,084;    0,280;    0,409
718,309;  632,455;    0,280;   -0,045
718,880;  552,644;   -0,539;   -1,409
719,452;  629,650;   -0,175;   -1,591
720,024;  729,112;    0,734;   -0,591
720,595;  618,482;   -2,902;    0,955
721,167;  598,671;    0,370;   -2,045
721,738;  730,496;   -0,812;   -1,045
722,309;  888,867;   -0,993;   -1,227
722,881;  606,056;   -1,357;    0,773
723,452;  689,426;   -2,630;    2,864
724,023;  705,524;   -0,721;    2,682
724,595;  769,349;    0,007;    0,682
725,166;  629,356;    0,007;   -0,409
725,737;  840,727;    1,734;    0,227
726,308;  614,733;   -0,266;    0,318
726,879;  526,013;   -1,630;    1,227
727,450;  705,565;    0,552;   -0,045
728,021;  634,118;    3,097;    0,682
728,592;  807,125;    0,734;    0,500
729,163;  895,768;    0,643;   -0,136
729,734;  876,775;    0,188;   -0,227
730,305;  721,055;    1,734;    0,136
730,876;  675,243;    0,188;    2,955
731,447; 1016,432;    2,188;    2,682
732,017;  913,803;    1,097;    1,864
732,588;  701,628;    0,734;    1,227
733,159;  982,089;    0,643;   -1,045
733,729;  697,369;    0,006;    0,409
734,300;  852,739;    0,915;    0,864
734,870;  672,201;    3,461;    0,591
735,441;  649,299;    0,370;   -0,591
736,011;  640,396;    0,643;   -1,591
736,582;  657,676;   -0,812;    0,045
737,152;  790,229;   -1,721;   -2,045
737,722;  755,417;   -0,267;   -0,682
738,293;  596,061;   -1,358;    1,318
738,863;  789,795;    2,461;    2,318
739,433; 1061,983;    5,279;    0,318
740,003;  762,899;   -0,994;   -0,682
740,573;  886,725;    2,097;   -1,591
741,143;  758,095;   -1,085;    0,318
741,713;  655,466;    1,188;   -0,500
742,283;  732,473;    0,915;    1,591
742,853;  661,025;    1,915;    1,591
743,423;  479,668;    1,733;    0,045
743,993;  603,221;   -0,358;    1,500
744,563;  663,864;    0,097;   -0,864
745,133;  696,689;   -0,812;   -0,864
745,702;  554,514;   -0,267;    1,773
746,272;  781,794;   -0,176;    0,591
746,842;  807,528;   -1,358;   -0,591
747,411;  582,535;   -0,267;   -0,318
747,981;  480,178;    0,097;    0,500
748,551;  474,730;    2,278;   -1,045
749,120;  683,556;    0,642;   -0,227
749,690;  625,472;   -0,631;    2,409
750,259;  740,751;    1,369;    2,955
750,828;  801,940;    1,551;   -1,955
751,398;  562,947;    1,278;   -0,045
751,967; 1055,136;    2,187;    0,409
752,536;  691,415;   -0,813;   -0,227
753,105;  804,149;    0,096;    0,227
753,675;  636,520;    0,096;    1,773
754,244;  652,436;   -0,904;    3,591
754,813;  691,988;    0,551;    1,227
755,382;  648,723;    0,460;    0,955
755,951;  783,820;    1,551;    3,682
756,520;  893,191;   -0,085;    1,864
757,089; 1005,380;    0,278;    0,500
757,658;  733,205;    1,733;    1,227
758,227;  556,303;    1,096;    0,318
758,795;  611,673;    1,187;    1,136
759,364;  626,316;   -0,086;   -0,591
759,933;  558,960;   -1,176;   -0,045
760,501;  498,148;    0,733;   -1,318
761,070;  664,246;   -2,813;   -1,409
761,639;  626,253;   -1,904;    1,318
762,207;  751,896;    1,551;   -0,955
762,776;  798,903;    0,369;    0,864
763,344;  652,001;   -0,995;    0,591
763,913;  449,372;   -0,722;    1,409
764,481;  997,924;    1,005;   -0,136
765,049;  995,476;   -1,358;    1,409
765,618;  898,756;   -0,086;    0,318
766,186;  693,127;    0,278;    0,136
766,754;  751,861;    0,005;    1,864
767,322;  636,231;   -1,995;    0,409
767,890;  574,238;   -0,722;   -1,773
768,459;  577,518;   -2,177;   -0,318
769,027;  811,252;    1,641;    3,409
769,595;  626,168;    3,278;    2,591
770,163;  727,630;    3,823;    2,955
770,730;  709,273;    0,732;   -0,136
771,298;  689,734;    0,187;   -1,409
771,866;  604,287;   -1,541;    4,955
772,434;  637,475;   -0,631;   -1,864
773,002;  855,391;    0,005;    0,682
773,569;  714,307;    0,914;    1,682
774,137;  845,223;   -0,268;   -0,045
774,705;  624,321;    0,278;   -0,136
775,272;  589,601;    0,641;    0,682
775,840;  612,426;   -0,177;    2,682
776,407;  736,706;    0,277;    1,955
776,975;  605,894;   -0,632;    0,318
777,542;  541,992;   -1,086;   -0,045
778,110;  580,181;   -1,268;   -0,045
778,677;  461,097;   -2,359;   -0,864
779,244;  542,013;    2,186;    1,045
779,812;  687,202;    1,823;    0,864
780,379;  776,481;    0,005;    1,136
780,946;  644,034;    1,005;   -0,773
781,513;  550,404;   -1,450;    0,318
782,080;  530,593;   -0,086;    2,864
782,647;  558,055;   -0,268;    3,045
783,214;  535,243;   -0,177;    3,864
783,781;  757,341;   -0,723;   -0,682
784,348;  690,257;   -0,632;    1,500
784,915;  461,991;   -3,177;    0,318
785,482;  700,089;    1,368;    2,591
786,049;  621,732;    0,186;   -0,591
786,615;  503,921;    0,277;   -0,955
787,182;  464,383;    0,186;   -0,682
787,749;  436,753;   -2,814;    1,409
788,315;  676,487;   -1,632;   -0,409
788,882;  556,221;    1,550;   -1,227
789,448;  857,410;    1,732;   -0,955
790,015;  613,781;    1,095;    3,227
790,581;  802,606;    1,459;    0,227
791,148;  612,249;    0,641;    1,045
791,714;  500,620;   -0,541;    3,136
792,280;  511,536;    0,186;    1,591
792,847;  453,815;    0,550;    2,500
793,413;  547,913;   -0,269;   -0,318
793,979;  767,738;    3,459;   -1,318
794,545; 1051,109;    4,459;    2,682
795,111;  925,661;    2,186;    1,318
795,678;  773,123;    0,731;   -1,682
796,244;  939,493;    3,368;    0,136
796,810;  778,136;    1,731;    0,773
797,375;  774,052;    0,549;   -2,136
797,941;  452,969;   -0,541;    0,591
798,507;  461,703;   -0,451;   -0,955
799,073;  498,528;   -0,360;    0,591
799,639;  490,444;   -2,632;    3,136
800,205;  447,905;    0,095;    2,682
800,770;  486,094;    0,640;    1,773
801,336;  506,465;    1,368;   -0,955
801,901; 1104,199;    4,549;    3,136
802,467;  747,933;   -0,542;    2,045
803,033;  534,849;   -0,087;    0,864
803,598;  527,219;    1,913;   -1,045
804,163;  529,863;    1,095;   -0,318
804,729;  632,506;   -0,178;    1,136
805,294;  522,968;    0,822;    2,227
805,859;  470,338;    0,731;   -0,409
806,425;  867,527;    1,186;    2,682
806,990;  837,352;    2,186;    4,318
807,555;  585,359;   -1,451;    2,591
808,120;  743,548;    0,822;   -0,409
808,685;  529,464;    0,185;   -2,500
809,250;  437,289;    0,004;   -0,500
809,815;  426,568;    1,913;    0,682
810,380;  557,302;   -0,269;    1,591
810,945;  740,491;   -1,087;    2,045
811,510;  569,407;    2,094;    1,591
812,075;  632,687;   -0,633;   -1,409
812,640;  874,148;    2,003;    1,409
813,204;  615,792;    0,822;   -0,227
813,769;  766,980;    2,094;   -0,045
814,334;  757,896;    0,458;    0,864
814,898;  471,085;    0,367;    0,591
815,463;  586,365;    1,276;   -0,773
816,027;  525,190;   -0,724;   -2,318
816,592;  443,833;    0,640;   -2,045
817,156;  627,567;    2,094;    1,136
817,721;  753,301;    4,276;    2,318
818,285;  473,581;    2,912;    1,500
818,849;  534,043;   -1,451;    1,682
819,414;  465,595;   -0,269;    2,955
819,978;  416,147;   -1,269;    1,773
820,542;  707,427;    2,003;    0,500
821,106;  527,707;   -0,815;    0,682
821,670;  758,986;   -0,815;    2,591
822,234;  531,902;   -0,270;    1,409
822,798;  420,636;    0,003;    0,500
823,362;  662,189;   -0,633;    4,227
823,926;  512,650;    0,094;    1,136
824,490;  701,112;   -0,997;   -0,682
825,054;  570,937;   -0,088;   -1,136
825,618;  461,216;   -1,542;   -1,500
826,181;  518,860;    0,458;   -1,318
826,745;  634,594;    1,367;   -1,045
827,309;  850,419;    1,185;    1,318
827,872;  719,517;    1,367;    0,955
828,436;  597,160;    1,185;   -0,773
828,999;  495,167;   -0,997;    1,227
829,563;  475,810;   -0,179;    1,136
830,126;  446,363;   -0,179;   -0,591
830,690;  565,915;   -1,997;    2,864
831,253;  477,467;   -0,543;    2,227
831,816;  526,020;   -1,906;    0,500
832,380;  488,209;    0,185;    0,864
832,943;  454,397;   -1,361;   -0,500
833,506;  467,859;    2,639;   -1,227
834,069;  622,411;    3,912;   -0,955
834,632;  463,236;    1,730;    1,318
835,195;  503,879;    1,003;    0,955
835,758;  440,341;   -0,997;    1,955
836,321;  460,075;    0,730;   -1,045
836,884;  430,264;   -0,725;   -0,955
837,447;  374,362;   -2,816;    1,773
838,010;  558,369;    0,366;    3,227
838,573;  560,557;   -1,179;    0,773
839,135;  416,292;   -1,361;   -0,955
839,698;  497,026;    1,275;    0,409
840,261;  437,760;    1,003;   -0,227
840,823;  393,676;   -0,543;    0,864
841,386;  379,046;   -0,452;   -2,409
841,948;  692,599;   -1,361;    1,773
842,511;  477,424;    0,912;    1,682
843,073;  679,249;    1,912;    0,227
843,636;  424,256;   -0,361;   -0,227
844,198;  652,627;    0,911;    0,591
844,760;  603,088;    1,093;    1,955
845,322;  407,095;    0,548;    1,136
845,885;  541,829;    0,730;    0,591
846,447;  472,291;   -1,998;    0,227
847,009;  817,934;    1,911;   -0,682
847,571;  524,759;    0,820;   -2,045
848,133;  466,584;   -1,089;   -1,864
848,695;  329,045;   -0,543;    1,409
849,257;  416,052;   -1,089;   -1,682
849,819;  566,423;   -0,998;   -0,409
850,381;  439,884;   -0,725;   -0,864
850,942;  500,710;    1,093;   -0,591
851,504;  580,171;    1,184;    0,227
852,066;  431,269;    1,275;   -1,591
852,628;  463,003;   -0,180;    1,955
853,189;  371,101;    1,638;    2,682
853,751;  375,562;   -0,907;    1,409
854,312;  543,206;   -0,453;   -1,682
854,874;  673,758;   -2,089;   -0,773
855,435;  482,492;   -0,907;   -1,682
855,997;  511,499;   -1,816;   -0,136
856,558;  633,688;    0,366;    1,773
857,119;  545,422;    0,820;    2,864
857,681;  385,065;    0,002;    0,318
858,242;  662,981;    1,911;   -2,136
858,803;  608,443;    0,456;   -0,773
859,364;  482,268;    0,184;   -4,773
859,925;  565,547;   -2,453;   -0,955
860,486;  436,373;   -0,453;   -0,955
861,047;  388,289;   -0,544;   -1,227
861,608;  439,295;   -1,089;   -0,773
862,169;  293,484;    0,638;   -0,045
862,730;  427,309;    0,456;    1,409
863,291;  470,498;   -0,635;   -0,500
863,852;  441,596;   -0,635;    1,955
864,412;  445,512;   -0,271;   -0,864
864,973;  686,246;   -0,089;    0,500
865,534;  800,889;   -1,726;    0,227
866,094;  573,987;    1,820;    0,227
866,655;  713,358;    1,274;    3,318
867,215;  523,456;    0,274;    0,136
867,776;  367,190;    0,547;   -0,136
868,336;  466,560;   -1,453;    0,136
868,897;  851,476;    2,638;    1,682
869,457;  630,938;    1,365;    0,318
870,017;  422,126;    0,547;   -1,227
870,578;  410,315;   -0,817;    0,773
871,138;  502,504;   -2,089;   -0,955
871,698;  419,784;   -0,817;   -1,318
872,258;  532,154;   -0,453;   -2,864
872,818;  687,070;    2,729;    0,045
873,378;  496,622;    0,638;    1,045
873,938;  481,357;    0,547;    0,500
874,498;  383,818;    0,274;   -1,955
875,058;  497,371;    2,183;    1,773
875,618;  491,014;    1,910;   -2,682
876,177;  529,293;    1,274;    0,136
876,737;  356,573;   -0,090;    1,955
877,297;  723,853;    0,183;    1,955
877,856;  658,587;   -0,362;    0,318
878,416;  423,412;    1,183;   -0,136
878,976;  384,783;   -1,817;    0,409
879,535;  420,062;    0,092;    3,136
880,095;  408,887;   -0,544;    0,045
880,654;  357,349;   -1,090;    1,318
881,213;  656,538;    2,456;    1,500
881,773;  495,454;    2,637;    2,682
882,332;  977,006;    3,365;    5,136
882,891;  474,649;    3,092;    2,136
883,451;  468,383;   -1,272;    1,682
884,010;  427,481;   -2,908;   -0,409
884,569;  364,215;   -0,999;   -0,045
885,128;  548,222;    2,819;   -1,864
885,687;  783,047;    4,455;    0,682
886,246;  953,600;    1,455;    2,136
886,805;  759,516;    2,455;    2,045
887,364;  411,704;   -0,999;   -0,500
887,922;  341,984;   -1,181;    0,045
888,481;  551,355;   -1,545;    0,591
889,040;  608,725;    1,183;    2,136
889,599;  490,278;    2,455;    1,409
890,157;  487,921;    1,455;    2,409
890,716;  425,837;   -0,090;    0,227
891,274;  546,753;    0,092;   -1,136
891,833;  601,123;    1,546;    0,864
892,391;  500,312;   -0,454;    0,500
892,950;  582,228;    1,819;   -0,773
893,508;  395,871;    0,455;   -0,409
894,067;  321,424;    0,637;    0,136
894,625;  427,340;   -0,636;   -1,500
895,183;  382,347;   -0,363;   -0,682
895,741;  653,172;    1,728;   -1,773
896,299;  457,724;   -0,545;   -2,409
896,858;  399,004;    0,819;   -1,591
897,416;  528,920;    2,728;   -1,318
897,974;  452,472;    1,819;    0,318
898,532;  877,843;    6,091;    2,682
899,089;  599,213;    2,091;   -0,682
899,647;  497,584;   -1,454;    1,318
900,205;  493,954;    1,182;    1,045
900,763;  482,143;   -0,454;    0,227
901,321;  432,514;    2,364;   -1,409
901,878;  275,975;   -1,000;   -0,773
902,436;  365,346;   -1,363;    1,318
902,994; 1030,080;    4,728;    3,682
903,551;  607,087;    0,728;    0,409
904,109;  472,367;    0,182;   -1,409
904,666;  441,373;    2,455;    1,045
905,224;  331,289;    0,182;   -0,409
905,781;  498,933;    0,727;   -0,318
906,338;  435,121;   -1,363;    1,045
906,895;  331,583;    0,637;    2,045
907,453;  599,317;    1,727;    1,136
908,010;  450,324;   -0,909;    0,409
908,567;  438,967;    1,273;    0,591
909,124;  295,156;    0,364;   -1,500
909,681;  357,527;   -2,909;    0,682
910,238;  385,897;    0,636;   -1,318
910,795;  285,449;   -0,273;   -1,136
911,352;  315,540;   -2,909;   -2,682
911,909;  361,904;   -1,364;   -0,864
912,466;  352,722;   -3,182;    1,500
913,022;  467,995;   -1,636;    0,500
913,579;  536,540;   -0,909;    2,045
914,136;  420,631;    1,636;    0,955
914,692;  409,540;    0,091;   -1,227
915,249;  444,904;    1,455;    0,409
915,806;  508,995;    0,182;    1,955
916,362;  406,813;    1,909;    1,864
916,918;  385,904;    2,000;    1,045
917,475;  512,813;   -1,182;    0,955
918,031;  361,540;    3,364;   -0,045
918,587;  435,086;   -0,909;   -0,318
919,144;  347,086;   -2,273;    0,227
919,700;  281,268;    1,727;    0,773
920,256;  287,086;    0,727;    0,045
920,812;  347,177;   -0,727;   -1,045
921,368;  312,904;   -1,727;   -1,045
921,924;  340,722;    0,182;   -0,136
922,480;  427,268;   -0,545;    1,227
923,036;  426,449;    1,273;    1,955
923,592;  328,177;    0,455;    0,318
924,148;  345,449;    0,455;   -0,955
924,704;  473,086;   -1,364;   -0,409
925,259;  304,177;   -0,273;    0,591
925,815;  307,631;    1,455;    0,500
926,371;  288,086;    2,909;    1,409
926,926;  434,359;    2,091;    0,591
927,482;  412,631;   -1,364;    0,773
928,037;  339,722;    0,909;    2,045
928,593;  511,722;    1,636;    1,045
929,148;  307,722;   -1,818;   -1,500
929,704;  374,359;   -1,455;   -0,500
930,259;  309,722;    0,091;   -0,136
930,814;  474,540;   -0,818;    1,955
931,369;  411,086;    1,091;   -0,773
931,925;  263,722;   -0,091;    0,136
932,480;  364,631;   -2,818;   -2,591
933,035;  653,631;    0,545;   -0,318
933,590;  559,268;    0,364;   -1,773
934,145;  269,540;   -1,364;   -0,318
934,700;  183,359;    0,455;   -0,591
935,255;  241,631;   -0,091;    0,045
935,809;  525,268;    3,182;    0,864
936,364;  249,359;   -0,455;   -0,136
936,919;  235,631;    0,455;   -1,773
937,474;  182,268;    1,455;    0,136
938,028;  193,904;   -1,636;    1,136
938,583;  530,813;    1,818;    4,682
939,138;  265,540;    2,091;    2,136
939,692;  166,449;    1,636;   -1,136
940,247;  214,722;   -0,727;   -1,045
940,801;  238,631;   -0,636;    0,227
941,355;  177,449;   -0,364;    2,591
941,910;  125,813;   -0,273;   -2,136
942,464;  151,995;   -0,818;   -0,318
943,018;  322,904;    1,000;   -0,227
943,572;  208,359;    2,545;   -0,682
944,126;  266,177;    0,091;   -0,409
944,681;  177,813;    3,091;    0,227
945,235;  135,086;    1,000;   -0,591
945,789;  117,722;    0,364;   -1,864
946,342;  306,631;    0,455;   -0,591
946,896;  149,268;   -2,273;    0,955
947,450;  127,631;    1,545;   -0,227
948,004;  297,722;    1,727;   -0,045
948,558;  181,631;    0,273;   -0,864
949,111;  174,813;   -0,273;   -0,318
949,665;  296,268;    1,636;   -0,682
950,219;  273,813;   -0,091;   -1,045
950,772;  210,359;   -1,909;    1,864
951,326;  199,813;    0,545;   -0,955
951,879;  165,995;    0,727;   -2,318
952,433;  265,268;    0,000;    2,227
952,986;  152,540;    2,909;    0,682
953,539;  131,268;   -0,273;    0,591
954,093;  102,813;    0,545;   -1,318
954,646;  171,722;    0,909;    1,318
955,199;  126,631;    0,000;   -0,500
955,752;  292,086;   -0,455;    1,773
956,305;  179,086;   -0,091;    2,955
956,858;  208,722;    0,818;   -0,318
957,411;  240,359;   -0,545;    2,136
957,964;  196,995;    1,364;    2,136
958,517;  138,904;   -1,545;    3,136
959,070;  106,904;   -0,455;    1,955
959,623;  286,995;    1,091;    1,500
960,176;  256,540;    1,727;    2,045
960,728;  217,359;   -2,727;    0,773
961,281;  175,177;    0,545;    0,500
961,834;  135,904;   -0,909;    0,864
962,386;  148,995;    1,727;    1,045
962,939;  131,631;    0,364;   -0,318
963,491;  164,904;    0,455;    1,136
964,043;  120,449;    1,182;    2,409
964,596;  228,540;   -1,000;    2,227
965,148;  165,995;   -1,000;    1,773
965,700;  113,268;    1,091;   -0,227
966,253;  220,813;   -0,636;    0,318
966,805;  191,268;   -2,273;    0,773
967,357;  142,449;    1,091;   -1,500
967,909;  215,904;    0,455;   -1,227
968,461;  150,722;    0,545;    3,136
969,013;  119,086;   -0,182;   -0,864
969,565;  223,177;   -0,455;   -1,136
970,117;  370,813;   -0,364;    1,045
970,669;  224,449;    0,182;   -0,136
971,220;   96,995;   -0,455;   -1,500
971,772;  149,631;   -0,636;   -0,318
972,324;  209,631;    0,091;   -0,500
972,876;  136,540;    0,818;   -0,045
973,427;  208,813;    1,909;   -1,045
973,979;  271,540;   -0,727;   -2,500
974,530;  144,631;    1,818;    1,318
975,082;  181,813;   -0,545;    1,682
975,633;  146,813;    1,091;    1,682
976,184;  168,449;    0,909;    0,773
976,736;  166,995;    0,091;    0,227
977,287;  190,177;   -0,909;   -0,500
977,838;  156,449;    0,909;   -0,318
978,389;  156,813;   -1,000;   -0,500
978,940;   83,449;    0,545;   -0,409
979,491;   86,086;    0,091;   -0,500
980,042;  145,449;    0,182;    3,045
980,593;  154,086;   -2,545;    0,227
981,144;  207,359;    2,545;   -0,500
981,695;  212,268;    1,455;    1,500
982,246;  181,813;   -0,273;    1,045
982,797;  109,904;   -1,727;    0,682
983,347;  199,631;    0,364;    0,591
983,898;  334,449;    3,091;    0,409
984,449;  315,540;    2,182;    0,773
984,999;  206,904;    1,455;   -1,136
985,550;  179,359;    0,182;   -0,318
986,100;  100,995;   -0,455;   -0,318
986,651;   97,631;   -0,818;    0,045
987,201;  111,359;   -1,000;   -0,591
987,751;  120,540;    0,818;    2,864
988,302;  135,268;    2,636;    1,500
988,852;  173,086;    0,455;   -1,136
989,402;  207,995;    0,091;    0,682
989,952;  234,904;   -2,182;    0,864
990,502;  131,268;   -0,091;    0,682
991,052;   74,722;   -0,727;    0,045
991,602;  105,268;   -2,909;    1,318
992,152;  132,177;    0,455;    0,682
992,702;  156,995;    1,364;   -0,045
993,252;  122,268;   -3,000;   -0,500
993,802;  178,813;   -0,273;    1,318
994,352;  144,540;   -1,545;    1,136
994,901;   90,631;   -0,182;    3,227
995,451;   88,268;   -0,182;    0,318
996,000;  106,540;    1,636;    0,318
996,550;  120,086;    2,273;    0,227
997,100;  137,995;    1,273;   -0,045
997,649;  221,268;    2,182;    0,955
998,198;  116,995;    1,727;   -1,500
998,748;  170,631;    1,091;   -2,318
999,297;  142,177;   -0,818;   -0,409
999,846;  218,813;    1,000;   -0,773
1000,395;  166,177;   -0,818;    0,500
1000,945;  232,722;    1,818;   -0,773
1001,494;  225,359;    2,364;    0,682
1002,043;  226,904;    4,636;    0,864
1002,592;  121,722;   -1,091;    1,955
1003,141;  112,268;   -0,455;   -0,682
1003,690;  217,995;    1,727;    0,500
1004,238;  139,540;    1,455;   -0,045
1004,787;   94,449;    1,364;    1,227
1005,336;  191,449;    0,364;    0,682
1005,885;  157,904;    1,364;   -2,773
1006,433;  153,268;    0,545;    0,955
1006,982;  255,813;    0,455;    1,682
1007,531;  170,449;   -1,818;   -0,227
1008,079;  150,540;   -2,273;    0,500
1008,627;  114,540;   -1,455;    0,409
1009,176;  137,995;    0,000;   -1,955
1009,724;  105,813;    1,091;    0,864
1010,273;  190,086;    1,273;    0,500
1010,821;  114,631;    0,091;    1,409
1011,369;   96,904;   -1,364;    1,318
1011,917;  102,995;   -1,364;   -0,591
1012,465;  148,631;    1,273;   -1,591
1013,013;  138,359;    2,091;   -1,682
1013,561;  211,086;    0,455;   -0,773
1014,109;  267,995;   -1,909;    1,682
1014,657;  184,359;    0,364;    0,591
1015,205;  128,449;    1,636;   -0,955
1015,753;   98,540;   -0,545;   -1,409
1016,301;  143,359;   -2,636;    3,045
1016,848;  186,631;   -1,273;    0,409
1017,396;  174,631;    2,545;    0,045
1017,944;  169,359;    1,182;    1,864
1018,491;  130,086;    0,273;    1,409
1019,039;  313,813;    0,455;    0,591
1019,586;  168,177;   -1,364;    1,682
1020,134;  156,359;    0,455;    1,500
1020,681;  209,722;    0,182;   -1,136
1021,228;  156,449;    2,909;   -2,227
1021,776;  134,631;    1,182;   -1,136
1022,323;  275,268;    0,455;    0,773
1022,870;  206,177;   -1,000;   -0,045
1023,417;  236,813;    2,636;    1,864
1023,964;  148,813;    2,636;    1,227
1024,511;  124,177;    1,000;    0,773
1025,058;  159,359;    3,182;   -0,045
1025,605;  124,086;   -2,273;    3,136
1026,152;  251,995;    1,727;   -0,591
1026,699;  159,722;    1,818;    1,318
1027,245;  149,268;   -0,091;    0,318
1027,792;  106,086;   -1,000;    1,409
1028,339;  256,904;    2,364;   -0,045
1028,885;  169,449;    1,000;   -0,227
1029,432;  136,722;   -0,091;    0,227
1029,978;  192,359;   -1,000;   -1,591
1030,525;  204,177;    1,000;    0,409
1031,071;  123,086;   -1,364;    1,136
1031,618;  294,631;    0,364;    1,682
1032,164;  192,904;   -0,091;    3,045
1032,710;  213,359;    1,636;   -1,500
1033,256;  188,631;   -0,636;   -0,136
1033,803;  107,177;   -0,545;    1,500
1034,349;   40,177;   -1,364;    0,136
1034,895;   65,904;    0,000;   -0,318
1035,441;  102,177;   -0,818;    0,318
1035,987;  134,995;   -2,364;   -0,682
1036,533;  175,631;   -1,455;   -0,955
1037,078;  304,268;    1,455;    1,682
1037,624;  210,995;    2,455;   -0,955
1038,170;  124,813;    0,455;   -0,318
1038,716;  176,540;    1,636;   -0,409
1039,261;  107,995;   -2,273;   -0,773
1039,807;  117,268;   -0,091;    3,409
1040,352;  127,631;   -1,909;   -0,318
1040,898;  119,631;   -1,545;   -0,682
1041,443;   87,995;   -1,455;   -2,591
1041,989;  278,086;    1,091;    1,591
1042,534;  154,359;   -0,364;    2,591
1043,079;   82,268;    2,909;    0,955
1043,625;  145,268;    1,818;    0,500
1044,170;  149,177;   -1,364;    1,045
1044,715;  272,449;    2,455;    0,955
1045,260;  211,813;    2,182;   -0,955
1045,805;  117,540;    1,182;   -0,591
1046,350;  101,813;    1,364;   -0,409
1046,895;  213,449;    2,909;    1,591
1047,440;  194,904;    5,364;    0,409
1047,985;  127,722;    2,818;   -0,955
1048,530;  113,177;    1,545;    1,227
1049,074;  142,268;    0,000;    0,318
1049,619;  109,086;   -1,364;    1,955
1050,164;  105,904;    0,455;    0,227
1050,708;  169,086;   -0,455;    0,045
1051,253;  306,086;    1,273;   -2,227
1051,797;  175,086;    0,818;   -1,318
1052,342;   84,449;   -1,182;    1,045
1052,886;  130,813;    0,364;   -1,409
1053,430;   80,631;   -1,364;    0,136
1053,975;  140,540;   -0,818;   -0,318
1054,519;  136,359;   -0,727;    3,227
1055,063;  170,086;    0,909;    1,318
1055,607;  167,449;   -0,182;    0,227
1056,151;  164,540;    2,909;    1,682
1056,695;  115,540;    2,273;   -1,136
1057,239;  107,722;   -1,727;   -0,682
1057,783;  135,904;    0,818;   -1,500
1058,327;  182,722;    0,000;    1,409
1058,871;  270,540;   -0,545;    1,318
1059,415;  195,722;   -0,818;   -0,045
1059,958;  273,722;    1,455;    2,591
1060,502;  126,359;   -1,000;   -0,773
1061,046;   77,813;    0,364;   -0,955
1061,589;   72,449;   -3,000;   -1,136
1062,133;   63,813;   -1,273;    1,864
1062,676;   91,995;    1,182;    0,864
1063,220;  105,540;    1,091;    0,500
1063,763;  123,086;    0,909;    1,136
1064,306;  133,177;   -0,909;    1,864
1064,849;  140,449;   -0,909;    0,591
1065,393;  122,086;    2,000;   -1,500
1065,936;  124,268;    0,182;   -0,409
1066,479;   83,268;   -1,455;    1,318
1067,022;   96,995;   -0,273;   -0,227
1067,565;   81,268;   -0,091;   -1,318
1068,108;   69,813;    0,727;   -0,591
1068,651;   62,268;   -0,636;    1,409
1069,194;   63,359;   -0,455;   -1,682
1069,736;   72,449;   -1,273;    0,955
1070,279;   59,722;   -1,364;   -0,500
1070,822;  104,904;   -2,000;   -0,318
1071,364;  185,631;   -0,364;    1,318
1071,907;  103,722;   -0,727;    3,227
1072,450;   34,904;    0,000;   -0,045
1072,992;   68,631;   -0,273;    3,136
1073,535;   98,177;    2,091;    2,136
1074,077;   65,995;   -0,727;    2,045
1074,619;   55,540;   -1,364;    0,591
1075,161;   80,540;   -1,091;    1,500
1075,704;  149,449;    1,545;    1,227
1076,246;   80,631;   -0,182;    0,682
1076,788;   45,722;   -0,364;    1,773
1077,330;   44,813;    1,273;    2,136
1077,872;   68,268;    0,909;    0,955
1078,414;  163,086;    2,727;    0,773
1078,956;   85,359;    1,273;   -0,227
1079,498;  150,268;    1,636;    0,318
1080,040;   82,359;    1,909;   -1,318
1080,581;   63,631;    1,636;   -0,318
1081,123;   35,540;    0,091;   -0,773
1081,665;   41,449;   -1,182;   -0,955
1082,206;  140,631;    1,364;   -0,500
1082,748;   87,177;    0,727;    2,045
1083,289;   47,268;   -2,000;    1,318
1083,831;   43,904;   -0,545;    0,227
1084,372;   66,722;    0,000;    0,591
1084,913;   63,086;    1,091;    0,864
1085,455;   42,813;   -1,909;   -2,045
1085,996;   32,995;   -2,273;    0,136
1086,537;   46,813;   -0,091;    0,864
1087,078;   56,086;   -0,909;   -2,136
1087,619;   85,722;   -1,273;    0,227
1088,160;   68,904;    0,000;    1,318
1088,701;   58,449;   -1,091;    0,682
1089,242;   51,449;    1,364;   -2,227
1089,783;   73,813;   -0,273;    1,409
1090,324;   57,995;    0,455;    0,682
1090,865;   40,449;    2,727;   -0,409
1091,405;   29,086;    0,727;    2,227
1091,946;   52,268;    0,182;   -0,955
1092,487;   25,904;    0,818;   -1,409
1093,027;   80,631;   -1,364;   -1,500
1093,568;   47,631;   -0,364;    1,227
1094,108;   60,904;    0,273;    1,773
1094,649;   46,631;   -1,182;    0,136
1095,189;   35,631;   -0,636;   -0,682
1095,729;   37,086;   -0,091;    0,955
1096,269;   30,995;    0,727;   -0,955
1096,810;  102,904;   -1,364;    0,500
1097,350;   71,086;    1,364;   -0,773
1097,890;   51,631;    0,364;    1,227
1098,430;  140,359;    2,364;    2,864
1098,970;  101,086;    2,182;    1,682
1099,510;   42,995;    0,545;   -2,318
1100,050;   33,904;    1,000;   -1,591
1100,589;   43,540;   -0,727;   -0,318
1101,129;   68,268;    0,818;   -0,955
1101,669;  105,631;    1,727;    2,136
1102,209;   70,540;   -0,091;    2,227
1102,748;   44,904;    0,000;    0,955
1103,288;   51,631;    1,273;   -1,227
1103,827;   42,540;    3,091;   -2,227
1104,367;   30,540;   -0,091;   -2,409
1104,906;   35,177;    1,364;   -1,136
1105,445;   57,268;    0,636;   -1,136
1105,985;   44,540;   -0,727;    1,500
1106,524;   51,086;   -1,727;   -0,682
1107,063;   45,995;   -2,727;    1,409
1107,602;   34,904;   -1,909;   -1,500
1108,141;   24,995;   -1,909;    1,500
1108,680;   57,359;   -3,455;   -0,591
1109,219;   45,268;   -0,909;   -0,500
1109,758;   34,904;    0,455;    0,682
1110,297;   34,359;    1,000;   -0,682
1110,836;   20,540;   -0,727;    0,955
1111,375;   32,086;   -2,545;    0,409
1111,913;   57,540;   -1,000;    0,773
1112,452;   41,177;   -0,273;    0,136
1112,991;   22,086;    1,091;    1,955
1113,529;   24,449;   -0,818;   -0,045
1114,068;   36,268;   -0,273;    2,955
1114,606;   23,449;   -0,364;   -0,955
1115,144;   50,177;   -1,273;    1,045
1115,683;   38,086;   -0,727;    0,318
1116,221;   56,449;   -0,455;   -0,864
1116,759;   32,359;    0,636;   -0,864
1117,297;   59,722;    0,000;    1,864
1117,836;   31,813;   -2,182;   -1,227
1118,374;   31,722;    0,182;   -0,682
1118,912;   33,631;    0,909;    2,682
1119,450;   30,177;    1,000;    0,864
1119,988;   33,086;    1,545;    2,136
1120,525;  178,268;    5,091;    3,318
1121,063;   83,995;    1,182;    1,864
1121,601;   31,449;   -0,909;   -1,227
1122,139;   24,540;   -0,727;   -2,045
1122,676;   76,177;   -0,727;    2,773
1123,214;   63,086;   -1,182;    4,409
1123,751;   24,268;    1,727;    2,227
1124,289;   39,359;   -0,091;   -0,409
1124,826;   29,359;    1,727;    0,227
1125,364;   11,631;    1,727;   -0,955
1125,901;   68,813;    1,182;    1,227
1126,438;   60,904;    0,818;    0,955
1126,975;   17,449;   -0,727;   -0,773
1127,513;   22,904;    0,273;    2,136
1128,050;   14,449;    1,636;   -0,682
1128,587;   24,813;    2,000;   -0,227
1129,124;   35,540;    0,091;    1,318
1129,661;   18,268;    0,273;    0,227
1130,198;   49,995;    1,636;    0,773
1130,734;   30,904;    0,182;    1,409
1131,271;   13,086;   -0,909;    0,864
1131,808;   42,722;    2,909;    3,045
1132,345;   23,177;    1,545;    0,318
1132,881;    8,813;   -1,545;   -1,864
1133,418;   26,177;    0,727;   -1,136
1133,954;   16,722;    2,455;   -2,682
1134,491;   28,722;    1,364;   -0,773
1135,027;   15,359;    2,364;    0,864
1135,564;   22,995;    0,273;    2,955
1136,100;   23,995;    0,364;    2,136
1136,636;    8,540;   -1,273;   -1,045
1137,172;   19,722;    0,000;   -1,045
1137,708;   11,449;   -1,364;   -1,045
1138,245;    8,995;    1,273;   -1,227
1138,781;   10,086;    1,091;   -3,318
1139,317;   13,722;    1,273;   -1,409
1139,852;   21,631;    3,091;    0,136
1140,388;   26,722;   -1,182;   -0,409
1140,924;   12,904;   -1,091;   -2,227
1141,460;    9,359;   -1,636;    0,136
1141,996;    3,540;   -1,364;    2,682
1142,531;    9,449;    1,364;    3,318
1143,067;   40,359;    1,182;    1,045
1143,602;   52,813;   -0,091;   -0,318
1144,138;   25,177;   -2,636;    1,045
1144,673;    9,540;   -1,455;    1,409
1145,209;   17,359;   -1,909;   -0,318
1145,744;    9,086;   -0,727;    0,864
1146,279;   22,177;    1,818;   -0,136
1146,815;   14,813;    1,545;   -2,682
1147,350;   19,995;   -1,364;    0,045
1147,885;    8,722;   -0,818;   -1,318
1148,420;    9,177;   -2,273;    0,773
1148,955;    6,540;   -1,727;    1,864
1149,490;    9,540;   -0,909;   -1,591
1150,025;    5,722;    0,455;   -1,773
1150,560;   19,813;    1,091;   -0,955
1151,094;   17,086;    1,455;   -0,591
1151,629;   14,449;    1,636;    0,864
1152,164;   10,449;    1,364;    1,318
1152,698;    8,268;   -0,182;   -0,136
1153,233;    0,177;    0,091;   -0,682
1153,767;    4,359;   -3,000;   -2,318
1154,302;   13,904;   -1,455;    1,773
1154,836;   10,359;   -0,455;   -2,136
1155,371;   15,540;   -1,364;    3,682
1155,905;    8,995;   -0,636;    1,682
1156,439;    9,722;   -0,636;   -0,500
1156,973;   12,177;    0,364;    0,318
1157,507;    6,631;   -0,364;    0,682
1158,042;    5,631;   -0,727;    1,045
1158,576;   13,904;    0,182;    1,773
1159,110;   11,904;   -0,818;    2,409
1159,643;    9,359;    0,636;   -0,045
1160,177;    3,995;   -1,545;    1,500

