
Integration time [ms]:   0,040
Averaging Nr. [scans]: 11
Smoothing Nr. [pixels]: 0
Data measured with spectrometer [name]: 7318044SP
Wave   ;Sample   ;Dark     ;Reference
[nm]   ;[counts] ;[counts] ;[counts] 

186,757;   33,521;   31,551;    1,318
187,357;   24,944;   22,551;    0,955
187,958;   13,493;   15,460;   -1,591
188,558;   14,064;    8,915;   -1,227
189,159;    7,674;    6,733;   -4,500
189,759;    6,400;    7,278;   -3,591
190,360;    6,439;    2,824;   -2,136
190,960;    7,749;    2,915;   -4,136
191,560;    6,632;    3,189;   -6,591
192,161;   27,025;    4,372;   -3,500
192,761;   12,249;    4,010;   -3,227
193,361;    9,772;    1,556;   -3,773
193,962;   12,541;    2,010;   -2,682
194,562;    3,302;    1,189;   -3,955
195,162;    1,818;   -2,448;   -2,227
195,762;   17,253;   -3,176;   -0,045
196,362;    9,721;    1,370;   -2,500
196,963;    1,197;    2,006;   -0,864
197,563;    5,156;    1,551;   -0,955
198,163;    3,289;    0,096;   -0,682
198,763;    5,542;    1,733;   -0,500
199,363;    7,182;    3,096;   -0,500
199,963;    3,129;    0,369;    0,409
200,563;    6,963;    2,823;   -1,409
201,163;    5,074;    3,277;   -0,227
201,763;    5,522;    3,732;    0,318
202,363;    2,260;    1,459;    1,500
202,963;    6,553;    1,459;    1,045
203,563;   14,267;    0,277;    0,500
204,162;    6,999;    2,096;   -1,864
204,762;    0,960;    0,550;    0,591
205,362;    2,121;    3,004;    1,955
205,962;    5,527;    3,096;    1,955
206,562;    5,292;    1,823;    2,318
207,161;    4,336;   -0,087;    0,318
207,761;   19,474;    1,277;    2,409
208,361;    6,365;   -0,268;    1,409
208,960;    8,560;    0,459;    1,500
209,560;    7,600;    1,277;    1,591
210,160;    9,765;    0,550;    1,864
210,759;    7,299;    4,186;    1,227
211,359;    6,072;    1,459;    1,045
211,958;   28,041;    1,277;    2,045
212,558;   24,761;    1,732;    1,864
213,157;   12,504;    1,822;    1,500
213,757;   48,897;    3,822;   -0,227
214,356;   21,879;    1,277;   -0,409
214,956;   41,298;    3,095;    0,409
215,555;   15,631;    2,095;    2,136
216,154;    9,086;   -2,723;   -0,591
216,754;    8,901;    0,277;    0,773
217,353;    9,967;   -0,268;   -1,045
217,952;    2,474;   -0,178;    0,318
218,552;   19,020;    1,368;   -0,773
219,151;   11,399;    0,277;    0,955
219,750;    7,604;    0,004;   -0,227
220,349;    6,935;   -0,451;    1,045
220,948;   29,952;   -1,360;    1,136
221,548;   12,740;    0,913;    1,227
222,147;   16,280;   -0,087;   -0,409
222,746;   42,948;   -0,451;   -0,955
223,345;   26,318;    0,731;    0,500
223,944;   26,022;   -0,451;    0,773
224,543;   30,097;    1,004;   -1,409
225,142;   25,250;    0,094;    0,136
225,741;   30,939;   -0,814;    1,045
226,340;   25,036;   -0,451;   -0,955
226,939;   48,187;   -0,996;   -0,136
227,538;   22,299;   -0,360;   -0,773
228,137;   57,813;   -0,814;    0,864
228,735;   45,630;   -0,541;    1,227
229,334;   16,810;   -0,905;   -0,227
229,933;   66,722;    0,459;    0,591
230,532;   66,253;    1,186;   -0,409
231,131;   88,789;    1,732;    0,318
231,729;   54,807;   -2,450;   -2,318
232,328;   39,530;   -0,723;   -1,500
232,927;   45,600;    1,004;   -0,500
233,525;   42,196;    3,640;    0,045
234,124;   54,707;    2,368;   -1,591
234,723;   35,535;    0,913;   -1,045
235,321;   30,281;    2,277;    0,136
235,920;   44,626;    1,186;   -1,227
236,518;   93,827;    3,459;    0,318
237,117;   42,741;    0,004;   -0,227
237,715;   52,083;    0,640;   -0,500
238,314;   66,711;   -0,087;   -2,318
238,912;  104,712;   -0,723;   -1,409
239,510;   78,434;    0,459;   -1,227
240,109;  116,045;    0,004;    3,773
240,707;   99,505;   -0,996;    1,227
241,305;   49,242;    0,550;    0,136
241,904;   79,332;   -0,178;   -2,045
242,502;  123,972;   -0,632;   -0,227
243,100;   88,990;   -0,087;   -0,955
243,698;   55,968;    0,732;    1,682
244,297;   74,084;   -0,632;    0,682
244,895;   74,097;   -0,269;   -2,318
245,493;  134,381;    2,186;   -0,591
246,091;  138,921;    1,368;   -1,318
246,689;  109,557;    1,004;    0,591
247,287;  100,191;    0,822;   -1,136
247,885;   84,761;   -1,451;    1,227
248,483;   70,190;    1,822;   -0,500
249,081;  104,510;    0,185;    1,591
249,679;  119,870;   -0,178;    1,682
250,277;   73,480;   -1,723;    0,864
250,875;  116,446;   -1,087;   -1,045
251,473;   80,197;   -1,178;    0,500
252,071;  119,644;    1,459;    1,045
252,669;   88,567;   -1,814;    0,318
253,267;   70,517;   -0,087;    0,773
253,864;   91,191;   -0,360;    0,682
254,462;  142,939;    1,640;    1,591
255,060;   72,842;   -0,269;    1,318
255,658;   69,295;    0,822;   -0,136
256,255;   90,463;    0,186;   -2,045
256,853;  109,215;   -0,269;    1,409
257,451;   95,742;    0,822;    1,864
258,048;  248,009;    1,822;    1,864
258,646;  148,574;    1,731;   -1,045
259,243;  183,579;   -0,087;    2,227
259,841;  135,295;   -0,814;    0,318
260,438;   82,852;   -0,087;    0,864
261,036;  128,085;   -1,905;    1,409
261,633;   87,297;   -0,087;    2,227
262,231;   74,837;    2,731;   -0,045
262,828;   72,986;   -0,905;    1,136
263,425;   94,461;    0,913;   -0,591
264,023;   93,297;    0,186;    0,045
264,620;  151,572;   -0,360;   -0,318
265,217;  195,387;   -2,087;    3,136
265,815;  100,053;   -1,905;    2,136
266,412;  141,571;    0,731;    0,136
267,009;  151,196;   -1,451;    0,773
267,606;  177,665;    0,822;   -0,955
268,203;  111,454;   -0,269;   -0,591
268,801;  119,930;    1,731;    0,591
269,398;   89,037;   -0,360;    2,500
269,995;  145,986;    0,277;    1,591
270,592;  122,537;   -0,632;   -0,500
271,189;   87,038;    0,186;    0,409
271,786;   76,917;   -0,632;    1,227
272,383;  166,542;   -1,087;    0,227
272,980;  113,470;    0,277;    0,318
273,577;  100,432;    0,004;    1,227
274,174;   91,165;    0,822;    2,591
274,771;  143,022;   -0,814;   -0,773
275,367;  289,340;    2,277;    1,409
275,964;  208,264;    0,731;   -0,500
276,561;  131,298;    1,549;   -1,045
277,158;   98,142;    0,095;   -1,773
277,755;  191,238;    2,185;    0,409
278,351;  153,573;   -0,451;   -1,500
278,948;  174,509;   -0,815;    0,045
279,545;  150,858;   -1,360;    2,318
280,141;  217,010;   -1,723;   -2,045
280,738;  211,019;   -0,451;   -0,136
281,334;  127,401;   -1,633;    0,591
281,931;  135,895;   -0,087;   -1,318
282,528;  177,798;    0,822;   -0,500
283,124;  204,484;   -1,087;   -0,500
283,721;  205,254;   -0,451;    1,409
284,317;  146,897;    0,185;    2,500
284,913;  217,346;   -1,360;    0,591
285,510;  310,165;    0,640;   -0,318
286,106;  234,785;   -2,269;   -0,955
286,703;  162,505;   -0,360;    1,955
287,299;  135,205;   -1,451;   -0,591
287,895;  125,299;    0,822;   -1,045
288,491;  119,583;    0,186;    2,136
289,088;  168,321;   -2,360;    2,409
289,684;  185,476;   -1,723;    1,500
290,280;  242,916;    0,368;    0,682
290,876;  224,388;    1,822;    5,500
291,472;  189,506;    1,276;    2,227
292,068;  193,151;    1,367;    0,227
292,665;  145,023;    2,095;    0,773
293,261;  105,677;    0,276;    2,136
293,857;  185,368;    2,913;    2,136
294,453;  150,084;    3,550;    0,955
295,049;  236,019;   -0,268;    1,955
295,644;  170,234;    0,095;    0,136
296,240;  112,668;   -0,905;   -0,136
296,836;  159,369;   -0,995;    0,318
297,432;  216,893;    1,096;   -0,500
298,028;  227,621;    0,732;    0,773
298,624;  173,827;    1,459;    1,864
299,220;  159,816;    2,368;    0,591
299,815;  155,104;    1,005;   -0,409
300,411;  195,747;    0,914;    1,773
301,007;  234,072;    1,368;    0,227
301,602;  166,371;   -0,541;   -2,318
302,198;  222,879;    0,732;   -0,773
302,794;  158,994;    1,187;   -0,500
303,389;  131,907;   -1,177;    1,045
303,985;  154,819;    0,550;    1,409
304,580;  208,447;    1,459;    1,591
305,176;  170,837;   -3,086;    0,136
305,771;  120,121;   -1,268;   -1,227
306,367;  278,584;    4,095;    0,136
306,962;  184,371;    0,641;    1,500
307,558;  207,552;   -0,450;    0,136
308,153;  225,293;    1,095;   -1,136
308,748;  142,104;   -0,814;    1,682
309,344;  295,675;   -0,632;   -1,318
309,939;  296,028;   -1,905;   -1,318
310,534;  166,488;   -0,086;   -1,682
311,130;  160,560;    0,459;   -2,500
311,725;  143,570;    1,004;   -0,500
312,320;  162,737;    2,459;    0,045
312,915;  205,671;    1,459;   -1,045
313,510;  293,662;    1,550;   -0,500
314,105;  168,714;    1,096;    1,409
314,700;  118,814;   -3,086;   -1,045
315,295;  155,356;   -0,904;    0,045
315,890;  136,914;    1,277;    0,864
316,485;  182,663;   -0,359;   -0,318
317,080;  136,828;   -3,086;    1,591
317,675;  271,102;    2,005;   -0,682
318,270;  358,976;    5,550;    3,318
318,865;  310,702;    3,278;    3,045
319,460;  243,098;   -0,904;    0,591
320,055;  163,963;   -0,541;   -1,227
320,650;  162,502;   -1,995;   -0,591
321,244;  165,696;   -0,177;   -1,409
321,839;  172,909;   -1,541;   -0,227
322,434;  202,373;   -1,086;   -1,591
323,029;  164,255;    1,732;    1,591
323,623;  155,013;    1,550;    0,773
324,218;  230,064;    2,368;    1,409
324,812;  199,086;    1,096;    1,591
325,407;  201,553;   -0,814;    2,045
326,002;  258,282;    0,277;   -0,409
326,596;  224,810;    0,914;    1,318
327,191;  161,458;    0,823;   -1,045
327,785;  159,629;   -0,813;   -0,227
328,379;  163,549;    1,368;    0,136
328,974;  190,731;    0,914;   -3,955
329,568;  191,724;    0,186;   -2,409
330,163;  224,712;    2,096;    1,045
330,757;  153,303;    2,459;    1,591
331,351;  130,744;    0,459;    0,682
331,945;  131,993;    0,914;    1,409
332,540;  193,927;   -1,723;   -0,591
333,134;  195,305;   -1,086;    0,773
333,728;  188,200;    0,005;    0,318
334,322;  139,911;   -1,177;   -0,864
334,916;  133,135;    0,277;    0,955
335,510;  210,470;   -0,450;   -0,136
336,105;  204,549;   -1,086;    1,591
336,699;  159,931;   -1,086;    0,591
337,293;  175,860;   -1,723;    0,318
337,887;  149,283;   -2,723;    1,955
338,481;  212,836;    0,459;    0,591
339,074;  254,771;   -0,359;    2,682
339,668;  245,310;   -1,632;    1,227
340,262;  485,488;    1,732;    3,227
340,856;  309,783;    1,822;   -0,682
341,450;  170,521;    1,004;    1,864
342,044;  195,405;    1,459;    0,136
342,637;  251,864;    0,913;   -2,136
343,231;  242,470;   -2,360;    0,682
343,825;  198,112;   -1,086;   -0,591
344,419;  184,727;   -1,995;    0,500
345,012;  411,808;    2,459;    4,045
345,606;  328,709;    4,641;    1,591
346,199;  186,239;   -1,813;   -0,227
346,793;  240,324;    1,914;    2,045
347,386;  157,357;   -0,813;   -1,136
347,980;  112,583;   -0,268;   -0,045
348,573;  163,109;    2,278;    0,409
349,167;  285,450;    5,278;    4,773
349,760;  230,180;    2,914;    2,682
350,354;  213,670;   -0,813;    1,136
350,947;  238,514;    1,096;    1,682
351,540;  177,966;   -0,358;   -1,409
352,134;  124,272;    1,096;    1,136
352,727;  135,213;   -0,086;    1,136
353,320;  140,278;    0,005;    0,591
353,913;  118,558;   -1,995;    1,864
354,507;  207,564;    0,823;   -1,227
355,100;  152,103;    0,460;    0,864
355,693;  336,149;    2,005;    2,409
356,286;  227,998;    0,823;    2,773
356,879;  164,092;   -0,722;    1,227
357,472;  160,369;   -0,904;    1,500
358,065;  177,531;   -0,722;    2,500
358,658;  116,636;   -0,540;    2,318
359,251;  105,457;   -1,631;   -0,591
359,844;  187,345;   -1,904;   -1,136
360,437;  217,923;   -2,995;    0,045
361,030;  147,275;    1,369;   -0,682
361,623;  147,970;    2,824;    0,318
362,215;  251,982;   -0,086;    2,045
362,808;  183,989;   -2,358;   -1,682
363,401;  154,505;   -2,449;    0,136
363,994;  250,949;   -0,631;   -1,500
364,586;  156,005;    0,824;   -1,500
365,179;  135,439;   -0,449;   -1,136
365,772;   70,429;   -1,995;    2,045
366,364;  142,269;    1,915;   -3,227
366,957;  170,214;    2,279;   -0,045
367,549;  143,928;    2,188;   -0,864
368,142;  149,625;    1,825;   -1,500
368,734;  133,111;    0,734;   -2,136
369,327;  101,270;    1,643;   -0,500
369,919;  119,776;   -1,538;    0,409
370,512;  131,809;   -1,083;   -0,500
371,104;  247,524;   -0,901;    1,591
371,696;  262,402;    1,191;   -0,955
372,289;  195,054;    0,373;    1,136
372,881;  168,282;   -2,080;    1,318
373,473;  119,989;   -2,170;    1,136
374,066;  167,053;   -0,169;    0,500
374,658;  155,508;    0,378;    1,136
375,250;  124,430;    0,653;   -1,409
375,842;  147,590;    0,473;   -0,045
376,434;  129,630;   -0,435;   -0,409
377,026;  123,948;    0,204;   -2,500
377,618;  147,461;   -0,158;   -0,682
378,210;  122,282;   -0,338;   -1,955
378,802;  119,455;    0,754;   -0,591
379,394;  293,662;    1,846;    0,682
379,986;  180,635;    1,393;   -0,955
380,578;  139,965;   -0,153;    0,773
381,170;  251,900;   -0,972;    0,045
381,762;  203,781;    0,755;    1,409
382,354;  182,363;   -0,065;   -1,318
382,945;  141,039;   -2,976;    0,318
383,537;  118,012;   -2,705;   -1,955
384,129;  110,660;   -2,160;   -1,136
384,721;  162,001;   -0,252;    0,955
385,312;  138,503;   -0,161;   -0,955
385,904;  178,648;   -2,706;    1,591
386,496;  145,607;   -0,979;    1,045
387,087;  210,262;    1,022;    2,500
387,679;  181,772;   -1,160;    0,045
388,270;  174,654;    2,840;    2,045
388,862;  155,673;    1,295;   -0,318
389,453;  151,661;   -0,887;    1,045
390,045;  156,752;   -0,705;   -2,682
390,636;  104,083;    0,204;   -0,591
391,227;  138,851;   -0,523;   -0,045
391,819;  129,144;    0,204;    0,773
392,410;  242,900;    1,022;    0,045
393,001;  155,076;   -0,979;   -1,591
393,593;  185,003;    1,930;   -0,045
394,184;  209,624;    1,385;   -0,409
394,775;  153,534;    1,839;    2,136
395,366;  120,491;    1,385;    0,773
395,957;  208,448;    0,113;    0,136
396,548;  154,024;   -0,342;    2,682
397,139;  212,067;   -2,433;    0,591
397,730;  174,761;   -1,888;    0,955
398,321;  178,880;   -1,252;    0,955
398,912;  142,709;   -0,615;    0,136
399,503;  142,525;   -3,524;   -1,409
400,094;  171,635;    0,294;    1,682
400,685;  163,240;   -0,433;    0,045
401,276;  140,594;    0,930;   -0,955
401,867;  129,707;   -0,888;    0,773
402,458;  111,682;   -2,251;   -2,318
403,048;  184,989;    1,112;    0,591
403,639;  156,497;    0,840;    0,864
404,230;  211,264;    2,476;    0,318
404,821;  235,979;   -0,615;    0,045
405,411;  193,547;    1,203;   -2,591
406,002;  149,900;   -1,252;   -1,136
406,592;  258,749;    2,294;    0,045
407,183;  190,698;    0,566;   -1,500
407,774;  179,591;    3,475;   -0,136
408,364;  155,761;    0,930;    0,409
408,954;  217,683;    0,384;    1,227
409,545;  217,770;    1,021;    1,045
410,135;  195,259;    1,293;    0,500
410,726;  173,137;    1,838;    0,318
411,316;  260,639;    0,111;    0,773
411,906;  177,847;   -0,253;   -0,409
412,497;  183,622;   -1,070;   -0,045
413,087;  157,807;   -1,980;   -0,227
413,677;  123,592;   -0,707;    3,864
414,267;  119,314;    0,656;    1,409
414,857;  108,958;   -2,980;    4,227
415,448;  115,540;    0,839;    0,500
416,038;  132,092;    0,020;   -0,591
416,628;  152,316;   -0,889;    0,409
417,218;  182,877;    0,565;    3,318
417,808;  261,885;    0,202;   -0,409
418,398;  195,613;    0,020;    2,682
418,988;  138,801;    2,020;    0,591
419,578;  192,508;   -0,707;    1,409
420,168;  163,759;   -1,343;   -0,955
420,757;  232,177;   -1,343;   -1,500
421,347;  180,191;    0,111;   -0,227
421,937;  161,460;    2,292;    1,409
422,527;  228,930;    0,838;   -0,773
423,116;  305,976;   -0,253;   -0,045
423,706;  158,264;   -1,889;    0,318
424,296;  136,535;    1,384;    0,682
424,885;  205,625;   -0,071;   -3,045
425,475;  193,734;    1,474;   -2,864
426,065;  138,187;   -0,980;   -0,318
426,654;  124,600;   -0,435;   -0,318
427,244;  270,921;    0,020;    1,409
427,833;  256,458;    1,383;   -0,500
428,423;  184,678;   -0,526;    1,136
429,012;  184,892;   -0,344;   -1,136
429,601;  250,091;   -1,344;    0,136
430,191;  193,787;    1,292;    4,318
430,780;  141,862;   -0,344;   -0,409
431,369;  244,001;    0,746;   -0,045
431,959;  186,917;   -1,254;    0,500
432,548;  145,830;   -1,163;   -0,045
433,137;  117,208;   -1,254;   -1,318
433,726;  162,288;    0,292;    0,500
434,315;  173,571;   -0,526;    2,409
434,905;  230,892;   -1,254;    1,409
435,494;  235,687;    0,746;    0,955
436,083;  159,112;   -0,981;   -0,955
436,672;  208,035;    0,110;    0,500
437,261;  177,879;    0,292;   -1,955
437,850;  314,412;    1,383;    0,682
438,439;  337,002;    3,291;    1,955
439,027;  396,648;    3,655;    1,773
439,616;  361,126;    2,927;    1,227
440,205;  238,194;    0,200;   -2,136
440,794;  202,041;    2,109;   -0,045
441,383;  157,344;   -1,346;   -0,591
441,971;  138,793;   -2,436;    0,591
442,560;  151,550;    0,563;   -1,773
443,149;   88,706;    0,379;   -1,318
443,737;  128,459;   -0,074;   -2,318
444,326;  140,735;    0,018;    0,318
444,915;  171,184;   -1,982;    0,864
445,503;  179,171;   -2,891;   -0,318
446,092;  320,453;    0,382;    2,136
446,680;  285,471;    0,382;    0,318
447,269;  237,300;   -0,346;   -0,318
447,857;  224,233;    0,018;   -1,773
448,445;  196,878;    0,563;    1,318
449,034;  164,599;   -1,528;   -1,136
449,622;  160,963;   -1,073;    3,500
450,210;  334,288;    2,017;    2,227
450,799;  287,569;    0,290;   -0,591
451,387;  251,851;    1,381;   -0,591
451,975;  245,838;    2,654;    0,864
452,563;  299,998;    3,472;    2,318
453,151;  188,124;   -0,528;   -1,227
453,739;  217,082;   -1,347;    0,136
454,328;  282,884;    2,381;   -2,136
454,916;  243,176;    2,562;   -0,136
455,504;  249,886;    1,017;    1,227
456,092;  183,234;    0,017;   -1,591
456,679;  152,783;    1,472;    0,682
457,267;  402,080;    4,017;    1,045
457,855;  209,003;    1,017;    1,409
458,443;  121,486;   -0,165;    1,682
459,031;  234,195;    0,108;    2,409
459,619;  208,725;   -1,801;    2,864
460,206;  142,736;    0,835;    2,045
460,794;  146,389;   -2,983;   -0,227
461,382;  177,517;   -0,529;   -0,864
461,970;  177,788;    1,198;    1,864
462,557;  129,877;   -0,711;   -0,682
463,145;  213,955;   -3,165;   -1,682
463,732;  358,539;    2,016;   -1,045
464,320;  218,022;   -0,075;   -3,045
464,907;  307,375;    2,743;   -0,773
465,495;  250,977;    0,743;   -1,227
466,082;  198,928;   -1,984;   -0,045
466,670;  212,297;   -2,529;    1,227
467,257;  148,127;   -1,711;    2,045
467,844;  215,229;   -0,075;    0,045
468,432;  199,688;    0,834;    3,500
469,019;  167,813;    0,925;   -1,773
469,606;  217,429;    0,470;    3,682
470,193;  233,563;   -1,439;    0,227
470,780;  209,891;   -2,075;    0,864
471,368;  160,822;   -1,257;   -0,773
471,955;  230,175;    1,379;   -0,682
472,542;  200,752;    0,652;   -1,136
473,129;  127,909;   -0,166;    0,136
473,716;  133,537;    1,470;    0,591
474,303;  161,630;    0,652;   -0,864
474,890;  164,778;   -1,439;   -0,500
475,477;  226,884;   -1,621;    0,409
476,064;  165,555;    1,106;   -1,591
476,650;  241,251;    0,288;    0,318
477,237;  188,797;   -0,258;    0,955
477,824;  178,895;   -1,076;    0,864
478,411;  119,799;   -1,894;   -0,318
478,997;  115,463;    0,560;   -0,773
479,584;   76,953;    1,196;   -0,409
480,171;  203,666;   -0,440;   -0,773
480,757;  253,608;    2,651;    0,773
481,344;  169,759;    0,469;    0,409
481,931;  105,401;    1,105;    1,045
482,517;  210,179;   -1,258;    0,318
483,104;  270,680;    1,106;    2,864
483,690;  191,411;   -1,804;    0,045
484,276;  176,892;   -0,895;    0,227
484,863;  331,150;    2,469;    1,136
485,449;  219,823;   -0,077;    0,318
486,035;  187,737;   -1,986;   -0,136
486,622;  265,985;   -0,895;    0,045
487,208;  201,274;    1,378;    1,500
487,794;  141,297;    0,741;    0,318
488,380;  139,761;    0,105;   -1,409
488,967;  149,172;   -1,168;   -0,409
489,553;  159,062;   -1,895;   -1,409
490,139;  213,973;    1,559;    0,773
490,725;  153,524;    0,741;   -0,227
491,311;  183,791;    3,287;    3,045
491,897;  153,522;   -0,986;    1,500
492,483;  153,350;    0,105;    1,227
493,069;  435,435;    3,923;    0,864
493,655;  250,276;    1,650;    0,682
494,241;  164,452;    1,377;   -0,955
494,826;  183,606;    0,287;   -1,045
495,412;  225,788;    2,559;   -0,682
495,998;  158,940;   -0,805;   -0,318
496,584;  198,743;    0,377;    1,045
497,169;  202,847;    1,014;   -0,682
497,755;  158,799;    0,650;    1,227
498,341;  263,755;    0,559;    0,318
498,926;  340,410;    1,832;    1,955
499,512;  170,232;    1,286;    2,955
500,097;  170,919;    0,195;   -0,318
500,683;  177,632;   -0,350;    2,136
501,268;  140,544;   -0,169;   -0,955
501,854;  155,921;   -0,169;    1,227
502,439;  140,591;   -0,624;   -1,773
503,024;  176,294;    0,195;    0,500
503,610;  191,109;   -0,078;   -0,682
504,195;  147,850;    0,558;    1,955
504,780;  204,276;    2,922;    1,227
505,366;  263,359;    3,013;    2,864
505,951;  216,348;    0,740;    1,045
506,536;  164,614;   -3,260;   -3,682
507,121;  199,600;    0,285;   -0,318
507,706;  164,785;    2,376;    1,045
508,291;  133,895;    2,649;    1,136
508,876;  133,143;   -0,988;    2,591
509,461;  168,754;   -0,169;   -0,773
510,046;  188,568;    0,194;    0,318
510,631;  192,456;   -0,351;   -0,773
511,216;  141,927;    2,467;   -0,500
511,801;  180,981;   -0,442;    2,591
512,386;  190,375;    0,740;    0,500
512,971;  196,954;   -2,988;    0,955
513,555;  224,749;   -0,897;   -1,500
514,140;  195,576;   -0,442;   -3,136
514,725;  255,341;   -0,715;   -1,136
515,309;  199,425;   -0,533;    0,318
515,894;  143,423;   -0,624;   -2,227
516,479;  163,980;   -0,624;   -0,955
517,063;  166,515;    0,376;    1,227
517,648;  136,611;    1,012;   -1,136
518,232;  127,670;   -0,261;   -1,409
518,817;  170,763;   -0,079;    1,682
519,401;  233,846;    2,194;    0,591
519,985;  211,473;    1,103;    1,136
520,570;  136,949;    0,830;   -1,955
521,154;  192,238;    2,102;    0,591
521,738;  280,181;   -2,352;    2,409
522,323;  189,322;   -0,170;    1,682
522,907;  189,268;    0,466;   -0,136
523,491;  143,817;    0,557;    0,955
524,075;  126,910;    2,284;    0,591
524,659;  220,435;    1,466;    0,591
525,243;  193,713;    1,739;    0,409
525,827;  159,638;    0,648;   -0,045
526,411;  160,799;   -1,989;   -0,136
526,995;  209,083;   -0,352;    1,409
527,579;  233,764;   -0,443;   -1,045
528,163;  203,693;    0,375;   -1,500
528,747;  246,868;    2,466;   -0,773
529,331;  219,136;   -0,080;   -1,409
529,915;  146,695;    1,738;    0,955
530,499;  187,150;   -0,807;    1,227
531,082;  261,034;   -0,534;    1,591
531,666;  297,270;    1,374;    0,773
532,250;  240,689;    1,284;    2,682
532,833;  290,718;    0,920;    2,773
533,417;  219,993;   -1,807;    0,864
534,001;  277,471;    1,647;   -0,318
534,584;  234,678;    0,374;    0,500
535,168;  156,040;    0,465;    1,409
535,751;  311,817;    0,647;    0,045
536,334;  199,464;   -0,898;   -0,409
536,918;  129,461;    0,011;    1,591
537,501;  135,023;   -0,899;    1,318
538,085;  156,304;   -0,444;    1,045
538,668;  192,488;    0,829;    2,409
539,251;  321,399;    1,829;    3,773
539,834;  185,303;    0,101;    0,773
540,418;  243,155;   -1,990;    4,318
541,001;  324,418;   -0,990;    1,773
541,584;  218,837;    2,101;    2,227
542,167;  270,706;    1,374;    2,955
542,750;  186,444;    1,919;   -0,773
543,333;  131,756;    0,555;    2,136
543,916;  235,185;    0,192;    2,500
544,499;  205,378;   -1,354;    0,227
545,082;  240,199;    1,374;    3,591
545,665;  198,099;    1,919;    1,500
546,248;  256,029;    1,010;   -0,318
546,830;  244,841;   -0,445;    1,955
547,413;  224,140;    1,010;   -0,773
547,996;  207,610;    0,555;    0,500
548,579;  188,539;    0,919;    0,955
549,161;  301,361;    1,828;    2,682
549,744;  246,926;   -0,809;    0,409
550,326;  176,747;   -0,809;   -1,136
550,909;  386,581;    2,737;    0,591
551,492;  231,739;   -0,263;    0,227
552,074;  287,500;   -0,173;   -1,318
552,657;  298,410;    2,373;    0,045
553,239;  234,507;   -0,173;   -0,773
553,821;  176,938;   -1,082;    1,045
554,404;  295,681;    1,282;    1,136
554,986;  344,968;    0,464;    1,045
555,568;  266,792;    1,191;   -0,955
556,151;  359,158;    1,191;   -0,227
556,733;  212,144;   -0,264;   -0,864
557,315;  221,182;    0,100;    0,500
557,897;  165,995;    0,554;   -0,500
558,479;  167,725;   -1,991;    1,318
559,061;  210,943;   -0,719;   -0,864
559,643;  236,017;   -0,264;    0,045
560,225;  258,432;    1,645;    2,864
560,807;  184,381;    0,918;    0,318
561,389;  176,660;    0,554;    2,318
561,971;  216,342;    0,463;    2,136
562,553;  178,945;   -1,628;    1,591
563,135;  217,123;   -0,537;    1,136
563,717;  398,576;    3,372;    1,136
564,298;  348,407;    3,645;   -0,045
564,880;  236,367;    0,645;   -1,409
565,462;  160,913;    0,645;    1,318
566,043;  218,783;   -0,446;    2,318
566,625;  361,418;    1,918;    1,227
567,207;  276,439;    1,099;    1,682
567,788;  210,354;   -1,264;    1,500
568,370;  203,566;    1,917;   -0,500
568,951;  207,181;    0,190;    0,227
569,533;  256,310;   -0,628;   -0,500
570,114;  263,248;   -0,446;    0,682
570,695;  280,022;   -0,174;   -1,318
571,277;  266,855;   -0,265;   -1,682
571,858;  360,934;    2,008;   -1,136
572,439;  285,373;    1,554;   -1,045
573,021;  302,255;    2,099;   -2,773
573,602;  350,876;   -1,265;    0,318
574,183;  332,254;   -2,083;    2,227
574,764;  310,705;   -1,629;    0,409
575,345;  399,536;    0,917;   -0,136
575,926;  313,597;   -0,356;    0,136
576,507;  348,874;    1,099;   -0,227
577,088;  331,147;    3,099;    1,682
577,669;  415,260;    0,735;    1,955
578,250;  498,709;    0,644;   -1,045
578,831;  393,658;   -1,356;   -2,227
579,412;  387,353;   -0,810;    0,955
579,993;  386,629;    1,008;    0,227
580,573;  342,176;   -0,629;   -0,955
581,154;  406,443;    0,735;   -0,591
581,735;  404,986;    0,644;    0,773
582,315;  476,804;   -0,629;    2,136
582,896;  393,069;   -0,174;    1,227
583,477;  317,734;    0,189;    1,227
584,057;  376,992;    0,553;    0,955
584,638;  431,901;    2,553;    2,318
585,218;  542,626;   -0,538;    2,682
585,799;  451,435;    0,281;   -0,227
586,379;  393,147;    0,372;    1,591
586,959;  378,528;    0,735;    0,318
587,540;  333,199;   -0,629;    2,227
588,120;  343,778;    1,007;   -0,045
588,700;  351,842;    2,553;    2,136
589,281;  433,175;    0,462;   -0,955
589,861;  369,364;    0,099;   -1,682
590,441;  299,086;    2,371;   -2,682
591,021;  346,809;   -0,265;   -2,591
591,601;  322,866;   -0,537;    0,500
592,181;  317,043;   -0,719;   -0,773
592,761;  273,305;    0,007;    1,409
593,341;  325,163;   -0,901;    0,045
593,921;  328,510;   -0,265;    1,591
594,501;  279,892;   -0,538;    1,318
595,081;  283,326;    0,917;   -0,318
595,661;  317,430;   -1,447;    0,955
596,240;  283,866;   -0,537;    0,136
596,820;  479,935;    0,372;    1,955
597,400;  348,608;    2,008;    0,773
597,980;  302,675;    2,008;    1,045
598,559;  273,968;    2,735;   -0,227
599,139;  269,157;   -0,174;   -1,227
599,718;  263,339;   -0,174;   -0,409
600,298;  258,514;    0,735;    0,682
600,877;  494,497;    2,917;    1,409
601,457;  351,748;    2,281;    1,136
602,036;  294,137;    0,190;    2,045
602,616;  323,129;    0,644;    1,682
603,195;  377,564;   -0,355;    3,500
603,774;  401,208;   -0,901;    2,045
604,354;  371,301;    0,826;   -0,500
604,933;  344,953;    0,463;    1,864
605,512;  388,758;    3,554;    0,591
606,091;  386,556;   -0,537;    3,773
606,671;  359,203;    0,281;    0,773
607,250;  443,933;    1,644;    3,136
607,829;  412,996;    2,372;    3,227
608,408;  341,826;    1,190;    2,591
608,987;  394,789;    1,281;    3,409
609,566;  313,613;   -1,265;   -2,500
610,145;  356,066;   -1,082;    0,682
610,723;  374,525;    4,372;    6,864
611,302;  337,050;   -0,446;    1,682
611,881;  475,515;    5,008;   11,227
612,460;  333,336;    1,645;    3,955
613,039;  275,312;   -0,082;    2,045
613,617;  275,547;    1,736;    4,773
614,196;  278,882;    1,099;    1,227
614,775;  311,582;    1,009;    2,409
615,353;  340,296;    0,736;    0,864
615,932;  324,117;    0,100;    2,409
616,510;  309,308;    0,554;    0,591
617,089;  555,393;    7,100;   17,591
617,667;  364,119;    2,372;    6,136
618,246;  255,650;   -1,537;    1,318
618,824;  293,927;   -3,355;   -0,955
619,402;  303,201;   -2,900;   -1,773
619,981;  331,367;   -0,173;   -1,045
620,559;  292,356;    0,009;    1,682
621,137;  299,636;   -0,718;    1,864
621,715;  253,368;   -1,173;   -0,682
622,293;  269,271;   -0,537;   -0,773
622,871;  262,637;   -0,718;    0,500
623,450;  239,609;    0,373;   -0,864
624,028;  335,901;    0,191;   -0,955
624,606;  315,161;   -1,718;    1,682
625,183;  224,780;   -1,536;   -1,136
625,761;  293,506;    1,009;    1,136
626,339;  438,621;    1,373;    2,591
626,917;  270,845;   -0,172;   -0,045
627,495;  243,758;   -0,354;    1,318
628,073;  301,740;   -0,263;    2,864
628,650;  308,678;    0,100;    2,136
629,228;  305,787;    0,373;    4,409
629,806;  224,316;    2,282;    1,136
630,383;  255,387;    1,464;   -0,318
630,961;  255,862;    2,555;   -0,955
631,539;  273,566;    2,464;    0,227
632,116;  609,590;   11,373;   15,409
632,694;  429,389;    2,555;    6,500
633,271;  349,987;    0,828;    2,682
633,848;  399,459;    1,828;    2,045
634,426;  271,066;   -1,081;    1,773
635,003;  206,841;    1,101;   -0,409
635,580;  399,745;    1,192;    3,682
636,158;  340,051;    3,737;    1,227
636,735;  255,806;    0,555;   -0,500
637,312;  248,737;   -0,809;   -0,682
637,889;  248,878;   -4,354;   -0,682
638,466;  244,010;   -3,990;   -0,409
639,043;  267,613;    2,101;   -1,136
639,620;  224,884;   -2,262;   -0,955
640,197;  284,816;    1,100;    1,682
640,774;  208,092;   -0,172;    1,136
641,351;  239,550;    0,737;    1,136
641,928;  333,007;   -0,627;    1,409
642,505;  386,374;    0,828;   -0,500
643,082;  299,104;   -1,718;    1,227
643,658;  241,380;   -0,718;    1,500
644,235;  235,292;    1,191;    2,500
644,812;  322,204;    1,918;    0,773
645,388;  310,116;   -0,991;    1,409
645,965;  211,210;   -0,809;    1,682
646,542;  218,577;   -1,445;   -0,227
647,118;  397,852;    1,009;   -0,955
647,695;  292,946;   -0,263;    1,136
648,271;  212,767;   -0,536;    0,500
648,848;  290,316;    0,736;    2,227
649,424;  348,955;    0,827;    1,318
650,000;  262,231;   -0,354;   -1,045
650,577;  277,143;   -0,627;   -0,955
651,153;  280,146;   -1,809;    0,955
651,729;  256,240;    1,191;    0,864
652,305;  429,425;    0,645;    2,773
652,881;  407,973;   -0,082;    1,136
653,458;  468,522;    1,100;    0,227
654,034;  507,706;    0,282;    1,591
654,610;  572,346;    0,554;    0,773
655,186;  809,621;    0,645;    3,045
655,762;  591,170;   -0,991;    0,409
656,338;  578,173;    0,100;    0,136
656,913;  620,903;   -0,082;    0,409
657,489;  516,179;    0,827;   -0,318
658,065;  567,091;   -0,173;   -1,591
658,641;  582,458;   -0,900;   -0,864
659,217;  541,733;   -0,991;    0,409
659,792;  614,009;    0,645;   -0,409
660,368;  522,739;   -2,173;   -0,682
660,944;  534,015;   -2,082;    1,227
661,519;  487,563;   -0,628;    0,409
662,095;  348,748;   -1,719;    0,591
662,670;  275,569;    1,281;   -0,136
663,246;  232,300;    1,009;   -0,409
663,821;  314,575;    0,281;    1,682
664,396;  292,578;    0,009;    1,864
664,972;  248,945;    0,009;   -0,500
665,547;  277,766;    1,372;    0,136
666,122;  266,405;   -1,082;    0,318
666,698;  359,136;   -0,173;    0,318
667,273;  251,593;   -0,173;    0,136
667,848;  270,051;    2,372;    1,500
668,423;  349,054;    2,190;    2,318
668,998;  272,784;    2,827;   -0,682
669,573;  252,423;   -3,264;   -1,500
670,148;  342,336;   -1,446;   -0,682
670,723;  240,429;   -1,810;    0,318
671,298;  379,432;    2,372;    1,045
671,873;  331,072;   -0,082;   -0,136
672,448;  323,347;    0,645;    0,136
673,023;  316,987;   -1,992;   -0,227
673,597;  367,263;    0,827;    2,318
674,172;  392,084;   -0,355;    0,318
674,747;  343,996;    0,372;   -1,045
675,321;  236,090;   -0,628;    3,318
675,896;  209,729;    0,645;    1,045
676,471;  315,459;    2,645;    1,591
677,045;  275,371;   -1,264;    0,682
677,620;  327,465;    0,190;    1,136
678,194;  242,741;   -2,628;    1,136
678,769;  278,289;   -1,083;   -0,318
679,343;  298,111;   -0,628;    1,773
679,917;  363,114;   -1,446;    1,955
680,492;  290,117;    0,826;    3,227
681,066;  306,483;    3,372;    0,409
681,640;  272,759;    1,463;   -0,318
682,214;  283,216;    0,735;    0,500
682,788;  278,129;   -1,356;   -0,773
683,363;  352,586;   -1,810;    1,682
683,937;  292,407;   -1,719;   -0,318
684,511;  300,865;    0,463;   -0,591
685,085;  304,686;   -1,356;    0,318
685,659;  266,962;   -2,538;    0,864
686,232;  379,510;   -0,356;   -0,318
686,806;  321,240;   -0,901;    0,409
687,380;  265,607;   -0,174;    0,591
687,954;  241,883;   -1,174;    1,136
688,528;  390,704;   -0,719;    1,955
689,101;  305,707;   -3,992;    1,045
689,675;  259,801;   -0,356;   -0,136
690,249;  377,622;   -0,719;    0,409
690,822;  378,352;    0,280;    0,318
691,396;  322,446;   -0,265;    1,227
691,969;  287,540;    1,280;    0,136
692,543;  232,452;   -0,447;   -1,955
693,116;  228,728;   -0,265;   -1,409
693,690;  266,913;    0,099;    0,500
694,263;  243,643;   -1,083;    2,955
694,836;  409,919;    1,371;    3,591
695,410;  358,649;   -0,265;    1,773
695,983;  366,470;    0,189;    0,591
696,556;  270,018;   -0,447;   -1,045
697,129;  235,294;   -0,356;    1,409
697,703;  341,570;   -1,629;    1,955
698,276;  286,573;    1,462;   -0,773
698,849;  364,212;    1,280;    1,409
699,422;  255,488;   -1,083;    0,591
699,995;  209,673;    0,007;    0,136
700,568;  273,403;   -0,629;    3,045
701,140;  281,951;   -2,811;    1,682
701,713;  361,500;   -0,174;    2,409
702,286;  307,230;   -0,538;    0,864
702,859;  346,779;   -0,902;   -0,591
703,432;  386,236;    0,825;    0,682
704,004;  323,694;    0,462;    0,318
704,577;  264,333;   -0,629;    0,136
705,150;  290,972;    0,189;    2,500
705,722;  320,339;   -0,356;   -3,227
706,295;  350,887;   -0,175;   -0,591
706,867;  289,163;   -0,175;    1,955
707,440;  336,893;   -1,720;   -0,409
708,012;  370,806;    0,462;    0,591
708,584;  328,536;    2,462;    0,227
709,157;  227,266;    1,825;   -0,591
709,729;  337,542;    2,280;    2,045
710,301;  265,545;    0,734;    0,045
710,874;  275,457;   -1,447;   -0,227
711,446;  220,005;    0,371;    0,864
712,018;  259,190;    0,098;    0,500
712,590;  232,920;   -1,993;    1,682
713,162;  359,287;    0,825;    1,318
713,734;  262,017;    1,825;   -2,045
714,306;  225,929;   -1,902;   -0,409
714,878;  249,569;    0,825;    0,864
715,450;  227,844;    0,643;    0,864
716,022;  238,847;    1,552;    1,318
716,593;  230,396;    0,189;    0,591
717,165;  249,308;   -3,175;   -1,227
717,737;  381,402;    0,280;    0,409
718,309;  271,132;    0,280;   -0,045
718,880;  235,226;   -0,539;   -1,409
719,452;  268,320;   -0,175;   -1,591
720,024;  313,959;    0,734;   -0,591
720,595;  263,962;   -2,902;    0,955
721,167;  260,420;    0,370;   -2,045
721,738;  314,786;   -0,812;   -1,045
722,309;  383,789;   -0,993;   -1,227
722,881;  257,429;   -1,357;    0,773
723,452;  297,704;   -2,630;    2,864
724,023;  307,889;   -0,721;    2,682
724,595;  333,620;    0,007;    0,682
725,166;  266,532;    0,007;   -0,409
725,737;  363,262;    1,734;    0,227
726,308;  266,628;   -0,266;    0,318
726,879;  225,450;   -1,630;    1,227
727,450;  302,634;    0,552;   -0,045
728,021;  271,547;    3,097;    0,682
728,592;  349,640;    0,734;    0,500
729,163;  388,553;    0,643;   -0,136
729,734;  380,374;    0,188;   -0,227
730,305;  315,922;    1,734;    0,136
730,876;  293,652;    0,188;    2,955
731,447;  447,564;    2,188;    2,682
732,017;  400,295;    1,097;    1,864
732,588;  299,025;    0,734;    1,227
733,159;  424,119;    0,643;   -1,045
733,729;  302,213;    0,006;    0,409
734,300;  377,761;    0,915;    0,864
734,870;  288,855;    3,461;    0,591
735,441;  281,494;    0,370;   -0,591
736,011;  276,588;    0,643;   -1,591
736,582;  277,228;   -0,812;    0,045
737,152;  340,685;   -1,721;   -2,045
737,722;  325,143;   -0,267;   -0,682
738,293;  255,237;   -1,358;    1,318
738,863;  338,512;    2,461;    2,318
739,433;  461,061;    5,279;    0,318
740,003;  326,427;   -0,994;   -0,682
740,573;  390,249;    2,097;   -1,591
741,143;  327,343;   -1,085;    0,318
741,713;  285,618;    1,188;   -0,500
742,283;  313,076;    0,915;    1,591
742,853;  282,533;    1,915;    1,591
743,423;  206,536;    1,733;    0,045
743,993;  254,448;   -0,358;    1,500
744,563;  284,724;    0,097;   -0,864
745,133;  297,182;   -0,812;   -0,864
745,702;  239,457;   -0,267;    1,773
746,272;  336,915;   -0,176;    0,591
746,842;  346,372;   -1,358;   -0,591
747,411;  250,648;   -0,267;   -0,318
747,981;  205,651;    0,097;    0,500
748,551;  194,291;    2,278;   -1,045
749,120;  291,930;    0,642;   -0,227
749,690;  270,206;   -0,631;    2,409
750,259;  319,118;    1,369;    2,955
750,828;  346,848;    1,551;   -1,955
751,398;  245,760;    1,278;   -0,045
751,967;  470,218;    2,187;    0,409
752,536;  302,948;   -0,813;   -0,227
753,105;  352,042;    0,096;    0,227
753,675;  276,863;    0,096;    1,773
754,244;  280,957;   -0,904;    3,591
754,813;  294,687;    0,551;    1,227
755,382;  278,508;    0,460;    0,955
755,951;  339,329;    1,551;    3,682
756,520;  393,151;   -0,085;    1,864
757,089;  443,244;    0,278;    0,500
757,658;  314,338;    1,733;    1,227
758,227;  238,250;    1,096;    0,318
758,795;  266,253;    1,187;    1,136
759,364;  273,893;   -0,086;   -0,591
759,933;  243,987;   -1,176;   -0,045
760,501;  209,535;    0,733;   -1,318
761,070;  284,811;   -2,813;   -1,409
761,639;  266,814;   -1,904;    1,318
762,207;  330,635;    1,551;   -0,955
762,776;  347,002;    0,369;    0,864
763,344;  277,186;   -0,995;    0,591
763,913;  187,371;   -0,722;    1,409
764,481;  437,465;    1,005;   -0,136
765,049;  433,195;   -1,358;    1,409
765,618;  396,107;   -0,086;    0,318
766,186;  301,656;    0,278;    0,136
766,754;  324,659;    0,005;    1,864
767,322;  273,935;   -1,995;    0,409
767,890;  249,756;   -0,722;   -1,773
768,459;  252,213;   -2,177;   -0,318
769,027;  352,580;    1,641;    3,409
769,595;  268,038;    3,278;    2,591
770,163;  315,313;    3,823;    2,955
770,730;  310,680;    0,732;   -0,136
771,298;  298,137;    0,187;   -1,409
771,866;  263,868;   -1,541;    4,955
772,434;  280,962;   -0,631;   -1,864
773,002;  369,510;    0,005;    0,682
773,569;  309,786;    0,914;    1,682
774,137;  368,243;   -0,268;   -0,045
774,705;  260,792;    0,278;   -0,136
775,272;  251,704;    0,641;    0,682
775,840;  262,434;   -0,177;    2,682
776,407;  316,982;    0,277;    1,955
776,975;  263,804;   -0,632;    0,318
777,542;  232,716;   -1,086;   -0,045
778,110;  250,082;   -1,268;   -0,045
778,677;  194,631;   -2,359;   -0,864
779,244;  228,816;    2,186;    1,045
779,812;  295,000;    1,823;    0,864
780,379;  343,003;    0,005;    1,136
780,946;  276,643;    1,005;   -0,773
781,513;  235,737;   -1,450;    0,318
782,080;  226,103;   -0,086;    2,864
782,647;  236,015;   -0,268;    3,045
783,214;  224,927;   -0,177;    3,864
783,781;  328,930;   -0,723;   -0,682
784,348;  299,297;   -0,632;    1,500
784,915;  197,300;   -3,177;    0,318
785,482;  308,576;    1,368;    2,591
786,049;  270,215;    0,186;   -0,591
786,615;  211,127;    0,277;   -0,955
787,182;  197,221;    0,186;   -0,682
787,749;  184,406;   -2,814;    1,409
788,315;  300,136;   -1,632;   -0,409
788,882;  233,866;    1,550;   -1,227
789,448;  374,233;    1,732;   -0,955
790,015;  267,236;    1,095;    3,227
790,581;  348,148;    1,459;    0,227
791,148;  264,878;    0,641;    1,045
791,714;  217,427;   -0,541;    3,136
792,280;  225,248;    0,186;    1,591
792,847;  192,706;    0,550;    2,500
793,413;  230,527;   -0,269;   -0,318
793,979;  333,530;    3,459;   -1,318
794,545;  458,260;    4,459;    2,682
795,111;  404,354;    2,186;    1,318
795,678;  335,630;    0,731;   -1,682
796,244;  412,542;    3,368;    0,136
796,810;  334,636;    1,731;    0,773
797,375;  336,093;    0,549;   -2,136
797,941;  190,278;   -0,541;    0,591
798,507;  197,372;   -0,451;   -0,955
799,073;  212,375;   -0,360;    0,591
799,639;  207,287;   -2,632;    3,136
800,205;  193,563;    0,095;    2,682
800,770;  212,202;    0,640;    1,773
801,336;  217,205;    1,368;   -0,955
801,901;  488,208;    4,549;    3,136
802,467;  326,484;   -0,542;    2,045
803,033;  229,396;   -0,087;    0,864
803,598;  223,581;    1,913;   -1,045
804,163;  225,674;    1,095;   -0,318
804,729;  276,132;   -0,178;    1,136
805,294;  228,044;    0,822;    2,227
805,859;  201,683;    0,731;   -0,409
806,425;  380,050;    1,186;    2,682
806,990;  364,598;    2,186;    4,318
807,555;  250,238;   -1,451;    2,591
808,120;  320,968;    0,822;   -0,409
808,685;  230,971;    0,185;   -2,500
809,250;  187,065;    0,004;   -0,500
809,815;  182,432;    1,913;    0,682
810,380;  244,616;   -0,269;    1,591
810,945;  324,347;   -1,087;    2,045
811,510;  244,077;    2,094;    1,591
812,075;  274,534;   -0,633;   -1,409
812,640;  380,992;    2,003;    1,409
813,204;  267,177;    0,822;   -0,227
813,769;  330,453;    2,094;   -0,045
814,334;  329,819;    0,458;    0,864
814,898;  204,640;    0,367;    0,591
815,463;  252,643;    1,276;   -0,773
816,027;  224,101;   -0,724;   -2,318
816,592;  184,195;    0,640;   -2,045
817,156;  272,470;    2,094;    1,136
817,721;  327,928;    4,276;    2,318
818,285;  203,295;    2,912;    1,500
818,849;  228,389;   -1,451;    1,682
819,414;  197,664;   -0,269;    2,955
819,978;  177,576;   -1,269;    1,773
820,542;  309,852;    2,003;    0,500
821,106;  232,219;   -0,815;    0,682
821,670;  332,222;   -0,815;    2,591
822,234;  230,043;   -0,270;    1,409
822,798;  182,591;    0,003;    0,500
823,362;  284,412;   -0,633;    4,227
823,926;  222,052;    0,094;    1,136
824,490;  308,964;   -0,997;   -0,682
825,054;  248,512;   -0,088;   -1,136
825,618;  196,788;   -1,542;   -1,500
826,181;  228,336;    0,458;   -1,318
826,745;  273,430;    1,367;   -1,045
827,309;  369,342;    1,185;    1,318
827,872;  311,709;    1,367;    0,955
828,436;  252,894;    1,185;   -0,773
828,999;  209,806;   -0,997;    1,227
829,563;  200,536;   -0,179;    1,136
830,126;  187,903;   -0,179;   -0,591
830,690;  247,451;   -1,997;    2,864
831,253;  209,454;   -0,543;    2,227
831,816;  229,003;   -1,906;    0,500
832,380;  208,915;    0,185;    0,864
832,943;  192,281;   -1,361;   -0,500
833,506;  199,103;    2,639;   -1,227
834,069;  264,651;    3,912;   -0,955
834,632;  199,381;    1,730;    1,318
835,195;  221,566;    1,003;    0,955
835,758;  194,842;   -0,997;    1,955
836,321;  202,118;    0,730;   -1,045
836,884;  186,575;   -0,725;   -0,955
837,447;  161,305;   -2,816;    1,773
838,010;  245,308;    0,366;    3,227
838,573;  240,311;   -1,179;    0,773
839,135;  176,860;   -1,361;   -0,955
839,698;  216,045;    1,275;    0,409
840,261;  192,684;    1,003;   -0,227
840,823;  171,323;   -0,543;    0,864
841,386;  165,235;   -0,452;   -2,409
841,948;  300,602;   -1,361;    1,773
842,511;  204,241;    0,912;    1,682
843,073;  295,699;    1,912;    0,227
843,636;  176,338;   -0,361;   -0,227
844,198;  284,978;    0,911;    0,591
844,760;  263,435;    1,093;    1,955
845,322;  173,347;    0,548;    1,136
845,885;  230,987;    0,730;    0,591
846,447;  202,990;   -1,998;    0,227
847,009;  358,265;    1,911;   -0,682
847,571;  229,632;    0,820;   -2,045
848,133;  206,453;   -1,089;   -1,864
848,695;  142,365;   -0,543;    1,409
849,257;  180,095;   -1,089;   -1,682
849,819;  246,462;   -0,998;   -0,409
850,381;  185,920;   -0,725;   -0,864
850,942;  216,013;    1,093;   -0,591
851,504;  251,289;    1,184;    0,227
852,066;  186,656;    1,275;   -1,591
852,628;  206,750;   -0,180;    1,955
853,189;  159,662;    1,638;    2,682
853,751;  160,119;   -0,907;    1,409
854,312;  232,940;   -0,453;   -1,682
854,874;  290,943;   -2,089;   -0,773
855,435;  212,856;   -0,907;   -1,682
855,997;  224,222;   -1,816;   -0,136
856,558;  279,498;    0,366;    1,773
857,119;  236,410;    0,820;    2,864
857,681;  166,777;    0,002;    0,318
858,242;  285,143;    1,911;   -2,136
858,803;  264,328;    0,456;   -0,773
859,364;  206,331;    0,184;   -4,773
859,925;  243,698;   -2,453;   -0,955
860,486;  189,701;   -0,453;   -0,955
861,047;  162,340;   -0,544;   -1,227
861,608;  186,888;   -1,089;   -0,773
862,169;  121,982;    0,638;   -0,045
862,730;  183,167;    0,456;    1,409
863,291;  204,443;   -0,635;   -0,500
863,852;  191,446;   -0,635;    1,955
864,412;  193,358;   -0,271;   -0,864
864,973;  300,179;   -0,089;    0,500
865,534;  348,182;   -1,726;    0,227
866,094;  250,731;    1,820;    0,227
866,655;  317,370;    1,274;    3,318
867,215;  227,918;    0,274;    0,136
867,776;  160,012;    0,547;   -0,136
868,336;  200,924;   -1,453;    0,136
868,897;  371,109;    2,638;    1,682
869,457;  271,476;    1,365;    0,318
870,017;  176,024;    0,547;   -1,227
870,578;  174,936;   -0,817;    0,773
871,138;  218,394;   -2,089;   -0,955
871,698;  179,851;   -0,817;   -1,318
872,258;  236,309;   -0,453;   -2,864
872,818;  299,403;    2,729;    0,045
873,378;  215,588;    0,638;    1,045
873,938;  204,954;    0,547;    0,500
874,498;  165,775;    0,274;   -1,955
875,058;  215,597;    2,183;    1,773
875,618;  209,418;    1,910;   -2,682
876,177;  228,057;    1,274;    0,136
876,737;  155,787;   -0,090;    1,955
877,297;  318,154;    0,183;    1,955
877,856;  282,521;   -0,362;    0,318
878,416;  181,978;    1,183;   -0,136
878,976;  163,072;   -1,817;    0,409
879,535;  181,984;    0,092;    3,136
880,095;  169,896;   -0,544;    0,045
880,654;  154,626;   -1,090;    1,318
881,213;  287,448;    2,456;    1,500
881,773;  214,996;    2,637;    2,682
882,332;  428,999;    3,365;    5,136
882,891;  210,911;    3,092;    2,136
883,451;  200,914;   -1,272;    1,682
884,010;  186,917;   -2,908;   -0,409
884,569;  160,466;   -0,999;   -0,045
885,128;  240,014;    2,819;   -1,864
885,687;  345,199;    4,455;    0,682
886,246;  420,747;    1,455;    2,136
886,805;  328,568;    2,455;    2,045
887,364;  178,390;   -0,999;   -0,500
887,922;  146,393;   -1,181;    0,045
888,481;  236,668;   -1,545;    0,591
889,040;  266,853;    1,183;    2,136
889,599;  215,765;    2,455;    1,409
890,157;  211,586;    1,455;    2,409
890,716;  183,135;   -0,090;    0,227
891,274;  240,229;    0,092;   -1,136
891,833;  260,595;    1,546;    0,864
892,391;  215,598;   -0,454;    0,500
892,950;  253,329;    1,819;   -0,773
893,508;  166,332;    0,455;   -0,409
894,067;  138,516;    0,637;    0,136
894,625;  182,701;   -0,636;   -1,500
895,183;  166,522;   -0,363;   -0,682
895,741;  287,253;    1,728;   -1,773
896,299;  197,347;   -0,545;   -2,409
896,858;  170,168;    0,819;   -1,591
897,416;  232,625;    2,728;   -1,318
897,974;  194,355;    1,819;    0,318
898,532;  388,358;    6,091;    2,682
899,089;  257,816;    2,091;   -0,682
899,647;  214,637;   -1,454;    1,318
900,205;  215,458;    1,182;    1,045
900,763;  209,007;   -0,454;    0,227
901,321;  188,464;    2,364;   -1,409
901,878;  117,013;   -1,000;   -0,773
902,436;  158,470;   -1,363;    1,318
902,994;  462,837;    4,728;    3,682
903,551;  266,476;    0,728;    0,409
904,109;  206,752;    0,182;   -1,409
904,666;  187,573;    2,455;    1,045
905,224;  140,667;    0,182;   -0,409
905,781;  212,670;    0,727;   -0,318
906,338;  187,219;   -1,363;    1,045
906,895;  139,767;    0,637;    2,045
907,453;  257,952;    1,727;    1,136
908,010;  193,864;   -0,909;    0,409
908,567;  192,049;    1,273;    0,591
909,124;  126,324;    0,364;   -1,500
909,681;  151,782;   -2,909;    0,682
910,238;  165,785;    0,636;   -1,318
910,795;  124,970;   -0,273;   -1,136
911,352;  130,242;   -2,909;   -2,682
911,909;  150,333;   -1,364;   -0,864
912,466;  149,152;   -3,182;    1,500
913,022;  201,515;   -1,636;    0,500
913,579;  233,606;   -0,909;    2,045
914,136;  183,788;    1,636;    0,955
914,692;  178,606;    0,091;   -1,227
915,249;  195,515;    1,455;    0,409
915,806;  226,061;    0,182;    1,955
916,362;  178,424;    1,909;    1,864
916,918;  167,606;    2,000;    1,045
917,475;  225,061;   -1,182;    0,955
918,031;  158,152;    3,364;   -0,045
918,587;  191,970;   -0,909;   -0,318
919,144;  153,061;   -2,273;    0,227
919,700;  116,333;    1,727;    0,773
920,256;  121,242;    0,727;    0,045
920,812;  150,152;   -0,727;   -1,045
921,368;  132,061;   -1,727;   -1,045
921,924;  144,879;    0,182;   -0,136
922,480;  185,606;   -0,545;    1,227
923,036;  188,606;    1,273;    1,955
923,592;  141,515;    0,455;    0,318
924,148;  148,788;    0,455;   -0,955
924,704;  201,333;   -1,364;   -0,409
925,259;  129,242;   -0,273;    0,591
925,815;  133,424;    1,455;    0,500
926,371;  121,697;    2,909;    1,409
926,926;  185,061;    2,091;    0,591
927,482;  174,333;   -1,364;    0,773
928,037;  149,242;    0,909;    2,045
928,593;  221,606;    1,636;    1,045
929,148;  128,879;   -1,818;   -1,500
929,704;  164,061;   -1,455;   -0,500
930,259;  136,970;    0,091;   -0,136
930,814;  212,970;   -0,818;    1,955
931,369;  178,788;    1,091;   -0,773
931,925;  111,697;   -0,091;    0,136
932,480;  152,152;   -2,818;   -2,591
933,035;  286,424;    0,545;   -0,318
933,590;  248,879;    0,364;   -1,773
934,145;  113,242;   -1,364;   -0,318
934,700;   79,879;    0,455;   -0,591
935,255;  106,515;   -0,091;    0,045
935,809;  235,152;    3,182;    0,864
936,364;  109,424;   -0,455;   -0,136
936,919;  102,061;    0,455;   -1,773
937,474;   78,606;    1,455;    0,136
938,028;   84,424;   -1,636;    1,136
938,583;  238,788;    1,818;    4,682
939,138;  120,424;    2,091;    2,136
939,692;   70,152;    1,636;   -1,136
940,247;   88,152;   -0,727;   -1,045
940,801;   98,061;   -0,636;    0,227
941,355;   75,333;   -0,364;    2,591
941,910;   55,970;   -0,273;   -2,136
942,464;   64,061;   -0,818;   -0,318
943,018;  142,152;    1,000;   -0,227
943,572;   90,333;    2,545;   -0,682
944,126;  114,788;    0,091;   -0,409
944,681;   76,879;    3,091;    0,227
945,235;   55,879;    1,000;   -0,591
945,789;   48,515;    0,364;   -1,864
946,342;  131,879;    0,455;   -0,591
946,896;   68,152;   -2,273;    0,955
947,450;   53,970;    1,545;   -0,227
948,004;  131,970;    1,727;   -0,045
948,558;   77,879;    0,273;   -0,864
949,111;   73,152;   -0,273;   -0,318
949,665;  125,970;    1,636;   -0,682
950,219;  118,515;   -0,091;   -1,045
950,772;   92,970;   -1,909;    1,864
951,326;   87,152;    0,545;   -0,955
951,879;   72,606;    0,727;   -2,318
952,433;  113,152;    0,000;    2,227
952,986;   67,970;    2,909;    0,682
953,539;   56,788;   -0,273;    0,591
954,093;   41,424;    0,545;   -1,318
954,646;   75,515;    0,909;    1,318
955,199;   52,515;    0,000;   -0,500
955,752;  123,697;   -0,455;    1,773
956,305;   79,697;   -0,091;    2,955
956,858;   85,333;    0,818;   -0,318
957,411;  105,152;   -0,545;    2,136
957,964;   84,515;    1,364;    2,136
958,517;   65,061;   -1,545;    3,136
959,070;   44,333;   -0,455;    1,955
959,623;  124,606;    1,091;    1,500
960,176;  118,333;    1,727;    2,045
960,728;   96,879;   -2,727;    0,773
961,281;   76,788;    0,545;    0,500
961,834;   57,970;   -0,909;    0,864
962,386;   63,515;    1,727;    1,045
962,939;   51,970;    0,364;   -0,318
963,491;   69,424;    0,455;    1,136
964,043;   51,333;    1,182;    2,409
964,596;   98,424;   -1,000;    2,227
965,148;   67,242;   -1,000;    1,773
965,700;   45,788;    1,091;   -0,227
966,253;   97,242;   -0,636;    0,318
966,805;   82,333;   -2,273;    0,773
967,357;   64,424;    1,091;   -1,500
967,909;   94,061;    0,455;   -1,227
968,461;   64,606;    0,545;    3,136
969,013;   52,879;   -0,182;   -0,864
969,565;   99,242;   -0,455;   -1,136
970,117;  160,242;   -0,364;    1,045
970,669;   96,424;    0,182;   -0,136
971,220;   42,606;   -0,455;   -1,500
971,772;   66,242;   -0,636;   -0,318
972,324;   88,879;    0,091;   -0,500
972,876;   58,333;    0,818;   -0,045
973,427;   92,970;    1,909;   -1,045
973,979;  116,061;   -0,727;   -2,500
974,530;   64,424;    1,818;    1,318
975,082;   83,606;   -0,545;    1,682
975,633;   67,061;    1,091;    1,682
976,184;   73,788;    0,909;    0,773
976,736;   70,333;    0,091;    0,227
977,287;   81,242;   -0,909;   -0,500
977,838;   66,697;    0,909;   -0,318
978,389;   65,515;   -1,000;   -0,500
978,940;   37,242;    0,545;   -0,409
979,491;   37,788;    0,091;   -0,500
980,042;   66,788;    0,182;    3,045
980,593;   68,061;   -2,545;    0,227
981,144;   86,970;    2,545;   -0,500
981,695;   93,333;    1,455;    1,500
982,246;   84,333;   -0,273;    1,045
982,797;   46,424;   -1,727;    0,682
983,347;   84,970;    0,364;    0,591
983,898;  143,879;    3,091;    0,409
984,449;  135,515;    2,182;    0,773
984,999;   90,061;    1,455;   -1,136
985,550;   81,424;    0,182;   -0,318
986,100;   43,152;   -0,455;   -0,318
986,651;   43,152;   -0,818;    0,045
987,201;   49,061;   -1,000;   -0,591
987,751;   51,970;    0,818;    2,864
988,302;   59,970;    2,636;    1,500
988,852;   76,152;    0,455;   -1,136
989,402;   88,061;    0,091;    0,682
989,952;  101,697;   -2,182;    0,864
990,502;   54,606;   -0,091;    0,682
991,052;   32,061;   -0,727;    0,045
991,602;   46,606;   -2,909;    1,318
992,152;   59,606;    0,455;    0,682
992,702;   67,970;    1,364;   -0,045
993,252;   52,061;   -3,000;   -0,500
993,802;   75,970;   -0,273;    1,318
994,352;   64,242;   -1,545;    1,136
994,901;   42,697;   -0,182;    3,227
995,451;   37,424;   -0,182;    0,318
996,000;   43,788;    1,636;    0,318
996,550;   49,970;    2,273;    0,227
997,100;   62,333;    1,273;   -0,045
997,649;   96,061;    2,182;    0,955
998,198;   52,970;    1,727;   -1,500
998,748;   76,424;    1,091;   -2,318
999,297;   60,515;   -0,818;   -0,409
999,846;   95,061;    1,000;   -0,773
1000,395;   66,970;   -0,818;    0,500
1000,945;   97,788;    1,818;   -0,773
1001,494;   96,424;    2,364;    0,682
1002,043;   97,424;    4,636;    0,864
1002,592;   51,424;   -1,091;    1,955
1003,141;   46,879;   -0,455;   -0,682
1003,690;   91,333;    1,727;    0,500
1004,238;   60,152;    1,455;   -0,045
1004,787;   39,333;    1,364;    1,227
1005,336;   81,879;    0,364;    0,682
1005,885;   65,788;    1,364;   -2,773
1006,433;   65,061;    0,545;    0,955
1006,982;  106,788;    0,455;    1,682
1007,531;   72,879;   -1,818;   -0,227
1008,079;   65,606;   -2,273;    0,500
1008,627;   51,970;   -1,455;    0,409
1009,176;   60,515;    0,000;   -1,955
1009,724;   45,333;    1,091;    0,864
1010,273;   80,970;    1,273;    0,500
1010,821;   47,970;    0,091;    1,409
1011,369;   42,879;   -1,364;    1,318
1011,917;   46,515;   -1,364;   -0,591
1012,465;   62,788;    1,273;   -1,591
1013,013;   60,970;    2,091;   -1,682
1013,561;   92,242;    0,455;   -0,773
1014,109;  117,606;   -1,909;    1,682
1014,657;   79,788;    0,364;    0,591
1015,205;   51,333;    1,636;   -0,955
1015,753;   41,424;   -0,545;   -1,409
1016,301;   59,515;   -2,636;    3,045
1016,848;   85,879;   -1,273;    0,409
1017,396;   78,879;    2,545;    0,045
1017,944;   73,333;    1,182;    1,864
1018,491;   57,242;    0,273;    1,409
1019,039;  132,061;    0,455;    0,591
1019,586;   70,970;   -1,364;    1,682
1020,134;   67,152;    0,455;    1,500
1020,681;   88,242;    0,182;   -1,136
1021,228;   67,788;    2,909;   -2,227
1021,776;   56,424;    1,182;   -1,136
1022,323;  118,424;    0,455;    0,773
1022,870;   85,879;   -1,000;   -0,045
1023,417;  101,970;    2,636;    1,864
1023,964;   60,242;    2,636;    1,227
1024,511;   50,970;    1,000;    0,773
1025,058;   70,879;    3,182;   -0,045
1025,605;   54,606;   -2,273;    3,136
1026,152;  110,061;    1,727;   -0,591
1026,699;   67,970;    1,818;    1,318
1027,245;   60,333;   -0,091;    0,318
1027,792;   45,606;   -1,000;    1,409
1028,339;  109,606;    2,364;   -0,045
1028,885;   72,515;    1,000;   -0,227
1029,432;   57,788;   -0,091;    0,227
1029,978;   84,061;   -1,000;   -1,591
1030,525;   88,788;    1,000;    0,409
1031,071;   50,606;   -1,364;    1,136
1031,618;  125,242;    0,364;    1,682
1032,164;   81,879;   -0,091;    3,045
1032,710;   91,242;    1,636;   -1,500
1033,256;   83,242;   -0,636;   -0,136
1033,803;   45,424;   -0,545;    1,500
1034,349;   17,879;   -1,364;    0,136
1034,895;   30,788;    0,000;   -0,318
1035,441;   46,333;   -0,818;    0,318
1035,987;   53,606;   -2,364;   -0,682
1036,533;   76,242;   -1,455;   -0,955
1037,078;  136,697;    1,455;    1,682
1037,624;   95,697;    2,455;   -0,955
1038,170;   53,788;    0,455;   -0,318
1038,716;   74,788;    1,636;   -0,409
1039,261;   47,879;   -2,273;   -0,773
1039,807;   51,242;   -0,091;    3,409
1040,352;   55,152;   -1,909;   -0,318
1040,898;   51,606;   -1,545;   -0,682
1041,443;   36,242;   -1,455;   -2,591
1041,989;  122,970;    1,091;    1,591
1042,534;   65,788;   -0,364;    2,591
1043,079;   35,152;    2,909;    0,955
1043,625;   61,606;    1,818;    0,500
1044,170;   67,515;   -1,364;    1,045
1044,715;  122,970;    2,455;    0,955
1045,260;   91,061;    2,182;   -0,955
1045,805;   51,424;    1,182;   -0,591
1046,350;   40,879;    1,364;   -0,409
1046,895;   92,697;    2,909;    1,591
1047,440;   87,515;    5,364;    0,409
1047,985;   55,333;    2,818;   -0,955
1048,530;   47,515;    1,545;    1,227
1049,074;   57,152;    0,000;    0,318
1049,619;   47,061;   -1,364;    1,955
1050,164;   45,606;    0,455;    0,227
1050,708;   71,970;   -0,455;    0,045
1051,253;  132,970;    1,273;   -2,227
1051,797;   77,970;    0,818;   -1,318
1052,342;   36,970;   -1,182;    1,045
1052,886;   58,970;    0,364;   -1,409
1053,430;   35,333;   -1,364;    0,136
1053,975;   61,970;   -0,818;   -0,318
1054,519;   60,242;   -0,727;    3,227
1055,063;   75,515;    0,909;    1,318
1055,607;   72,606;   -0,182;    0,227
1056,151;   75,152;    2,909;    1,682
1056,695;   49,788;    2,273;   -1,136
1057,239;   47,061;   -1,727;   -0,682
1057,783;   62,061;    0,818;   -1,500
1058,327;   81,152;    0,000;    1,409
1058,871;  118,970;   -0,545;    1,318
1059,415;   83,424;   -0,818;   -0,045
1059,958;  118,970;    1,455;    2,591
1060,502;   52,606;   -1,000;   -0,773
1061,046;   32,788;    0,364;   -0,955
1061,589;   31,788;   -3,000;   -1,136
1062,133;   25,788;   -1,273;    1,864
1062,676;   40,424;    1,182;    0,864
1063,220;   47,788;    1,091;    0,500
1063,763;   50,970;    0,909;    1,136
1064,306;   56,515;   -0,909;    1,864
1064,849;   59,242;   -0,909;    0,591
1065,393;   53,333;    2,000;   -1,500
1065,936;   54,697;    0,182;   -0,409
1066,479;   36,242;   -1,455;    1,318
1067,022;   40,879;   -0,273;   -0,227
1067,565;   39,424;   -0,091;   -1,318
1068,108;   29,970;    0,727;   -0,591
1068,651;   26,697;   -0,636;    1,409
1069,194;   28,515;   -0,455;   -1,682
1069,736;   30,515;   -1,273;    0,955
1070,279;   26,333;   -1,364;   -0,500
1070,822;   47,061;   -2,000;   -0,318
1071,364;   77,970;   -0,364;    1,318
1071,907;   43,697;   -0,727;    3,227
1072,450;   12,242;    0,000;   -0,045
1072,992;   31,697;   -0,273;    3,136
1073,535;   45,152;    2,091;    2,136
1074,077;   29,515;   -0,727;    2,045
1074,619;   26,606;   -1,364;    0,591
1075,161;   34,970;   -1,091;    1,500
1075,704;   66,606;    1,545;    1,227
1076,246;   34,879;   -0,182;    0,682
1076,788;   20,061;   -0,364;    1,773
1077,330;   18,515;    1,273;    2,136
1077,872;   31,697;    0,909;    0,955
1078,414;   71,152;    2,727;    0,773
1078,956;   36,424;    1,273;   -0,227
1079,498;   65,788;    1,636;    0,318
1080,040;   39,879;    1,909;   -1,318
1080,581;   27,061;    1,636;   -0,318
1081,123;   16,697;    0,091;   -0,773
1081,665;   18,606;   -1,182;   -0,955
1082,206;   63,970;    1,364;   -0,500
1082,748;   37,152;    0,727;    2,045
1083,289;   21,970;   -2,000;    1,318
1083,831;   18,152;   -0,545;    0,227
1084,372;   26,879;    0,000;    0,591
1084,913;   26,424;    1,091;    0,864
1085,455;   16,697;   -1,909;   -2,045
1085,996;   14,061;   -2,273;    0,136
1086,537;   19,061;   -0,091;    0,864
1087,078;   22,879;   -0,909;   -2,136
1087,619;   39,697;   -1,273;    0,227
1088,160;   31,424;    0,000;    1,318
1088,701;   24,515;   -1,091;    0,682
1089,242;   19,333;    1,364;   -2,227
1089,783;   32,242;   -0,273;    1,409
1090,324;   24,697;    0,455;    0,682
1090,865;   18,970;    2,727;   -0,409
1091,405;   14,606;    0,727;    2,227
1091,946;   23,606;    0,182;   -0,955
1092,487;    9,152;    0,818;   -1,409
1093,027;   37,152;   -1,364;   -1,500
1093,568;   20,424;   -0,364;    1,227
1094,108;   29,515;    0,273;    1,773
1094,649;   24,788;   -1,182;    0,136
1095,189;   16,424;   -0,636;   -0,682
1095,729;   14,333;   -0,091;    0,955
1096,269;   12,606;    0,727;   -0,955
1096,810;   46,879;   -1,364;    0,500
1097,350;   30,152;    1,364;   -0,773
1097,890;   21,424;    0,364;    1,227
1098,430;   64,061;    2,364;    2,864
1098,970;   49,242;    2,182;    1,682
1099,510;   21,424;    0,545;   -2,318
1100,050;   16,424;    1,000;   -1,591
1100,589;   18,697;   -0,727;   -0,318
1101,129;   29,152;    0,818;   -0,955
1101,669;   46,152;    1,727;    2,136
1102,209;   31,152;   -0,091;    2,227
1102,748;   21,515;    0,000;    0,955
1103,288;   21,242;    1,273;   -1,227
1103,827;   20,424;    3,091;   -2,227
1104,367;   15,061;   -0,091;   -2,409
1104,906;   18,333;    1,364;   -1,136
1105,445;   26,606;    0,636;   -1,136
1105,985;   18,970;   -0,727;    1,500
1106,524;   19,333;   -1,727;   -0,682
1107,063;   19,879;   -2,727;    1,409
1107,602;   13,424;   -1,909;   -1,500
1108,141;   13,697;   -1,909;    1,500
1108,680;   23,606;   -3,455;   -0,591
1109,219;   16,061;   -0,909;   -0,500
1109,758;   17,333;    0,455;    0,682
1110,297;   17,515;    1,000;   -0,682
1110,836;   10,606;   -0,727;    0,955
1111,375;   14,424;   -2,545;    0,409
1111,913;   24,152;   -1,000;    0,773
1112,452;   17,242;   -0,273;    0,136
1112,991;   10,606;    1,091;    1,955
1113,529;   11,606;   -0,818;   -0,045
1114,068;   15,424;   -0,273;    2,955
1114,606;   10,879;   -0,364;   -0,955
1115,144;   21,606;   -1,273;    1,045
1115,683;   20,152;   -0,727;    0,318
1116,221;   21,424;   -0,455;   -0,864
1116,759;   16,061;    0,636;   -0,864
1117,297;   26,697;    0,000;    1,864
1117,836;   15,152;   -2,182;   -1,227
1118,374;   12,333;    0,182;   -0,682
1118,912;   16,424;    0,909;    2,682
1119,450;   16,606;    1,000;    0,864
1119,988;   11,242;    1,545;    2,136
1120,525;   83,424;    5,091;    3,318
1121,063;   36,788;    1,182;    1,864
1121,601;   12,970;   -0,909;   -1,227
1122,139;   11,242;   -0,727;   -2,045
1122,676;   30,970;   -0,727;    2,773
1123,214;   26,152;   -1,182;    4,409
1123,751;   10,333;    1,727;    2,227
1124,289;   18,697;   -0,091;   -0,409
1124,826;   12,152;    1,727;    0,227
1125,364;    7,879;    1,727;   -0,955
1125,901;   33,152;    1,182;    1,227
1126,438;   27,879;    0,818;    0,955
1126,975;    7,788;   -0,727;   -0,773
1127,513;    7,515;    0,273;    2,136
1128,050;    4,242;    1,636;   -0,682
1128,587;   11,424;    2,000;   -0,227
1129,124;   21,424;    0,091;    1,318
1129,661;    8,697;    0,273;    0,227
1130,198;   25,515;    1,636;    0,773
1130,734;   14,515;    0,182;    1,409
1131,271;    7,061;   -0,909;    0,864
1131,808;   19,061;    2,909;    3,045
1132,345;   12,606;    1,545;    0,318
1132,881;    3,879;   -1,545;   -1,864
1133,418;   12,424;    0,727;   -1,136
1133,954;    8,697;    2,455;   -2,682
1134,491;   14,879;    1,364;   -0,773
1135,027;    6,333;    2,364;    0,864
1135,564;   12,788;    0,273;    2,955
1136,100;   11,606;    0,364;    2,136
1136,636;    7,606;   -1,273;   -1,045
1137,172;   10,697;    0,000;   -1,045
1137,708;    5,515;   -1,364;   -1,045
1138,245;    5,333;    1,273;   -1,227
1138,781;    3,424;    1,091;   -3,318
1139,317;    6,970;    1,273;   -1,409
1139,852;    9,515;    3,091;    0,136
1140,388;   15,242;   -1,182;   -0,409
1140,924;   10,515;   -1,091;   -2,227
1141,460;    2,879;   -1,636;    0,136
1141,996;   -0,758;   -1,364;    2,682
1142,531;    2,879;    1,364;    3,318
1143,067;   19,788;    1,182;    1,045
1143,602;   24,515;   -0,091;   -0,318
1144,138;   10,879;   -2,636;    1,045
1144,673;    3,879;   -1,455;    1,409
1145,209;    4,061;   -1,909;   -0,318
1145,744;   -0,848;   -0,727;    0,864
1146,279;    9,061;    1,818;   -0,136
1146,815;    6,061;    1,545;   -2,682
1147,350;    8,424;   -1,364;    0,045
1147,885;    4,970;   -0,818;   -1,318
1148,420;    2,424;   -2,273;    0,773
1148,955;   -0,394;   -1,727;    1,864
1149,490;    2,152;   -0,909;   -1,591
1150,025;    1,879;    0,455;   -1,773
1150,560;    8,697;    1,091;   -0,955
1151,094;    7,424;    1,455;   -0,591
1151,629;    7,970;    1,636;    0,864
1152,164;    5,061;    1,364;    1,318
1152,698;    4,424;   -0,182;   -0,136
1153,233;    1,697;    0,091;   -0,682
1153,767;    3,152;   -3,000;   -2,318
1154,302;    6,788;   -1,455;    1,773
1154,836;    5,061;   -0,455;   -2,136
1155,371;    4,333;   -1,364;    3,682
1155,905;    4,606;   -0,636;    1,682
1156,439;    3,788;   -0,636;   -0,500
1156,973;    8,606;    0,364;    0,318
1157,507;    4,242;   -0,364;    0,682
1158,042;    4,970;   -0,727;    1,045
1158,576;    4,879;    0,182;    1,773
1159,110;    4,879;   -0,818;    2,409
1159,643;    3,061;    0,636;   -0,045
1160,177;    2,333;   -1,545;    1,500

