
Integration time [ms]:   0,040
Averaging Nr. [scans]: 11
Smoothing Nr. [pixels]: 0
Data measured with spectrometer [name]: 7318044SP
Wave   ;Sample   ;Dark     ;Reference
[nm]   ;[counts] ;[counts] ;[counts] 

186,757;   31,493;   31,551;    1,318
187,357;   28,512;   22,551;    0,955
187,958;   17,431;   15,460;   -1,591
188,558;   25,124;    8,915;   -1,227
189,159;   19,157;    6,733;   -4,500
189,759;   11,880;    7,278;   -3,591
190,360;   10,218;    2,824;   -2,136
190,960;    8,461;    2,915;   -4,136
191,560;   12,198;    3,189;   -6,591
192,161;   60,741;    4,372;   -3,500
192,761;   32,225;    4,010;   -3,227
193,361;   18,993;    1,556;   -3,773
193,962;   25,835;    2,010;   -2,682
194,562;    8,525;    1,189;   -3,955
195,162;    8,503;   -2,448;   -2,227
195,762;   34,026;   -3,176;   -0,045
196,362;   22,422;    1,370;   -2,500
196,963;    7,468;    2,006;   -0,864
197,563;   13,308;    1,551;   -0,955
198,163;    4,585;    0,096;   -0,682
198,763;    4,813;    1,733;   -0,500
199,363;   14,820;    3,096;   -0,500
199,963;   11,725;    0,369;    0,409
200,563;   11,033;    2,823;   -1,409
201,163;    5,895;    3,277;   -0,227
201,763;   10,791;    3,732;    0,318
202,363;    6,087;    1,459;    1,500
202,963;   11,132;    1,459;    1,045
203,563;   25,830;    0,277;    0,500
204,162;   10,296;    2,096;   -1,864
204,762;    8,230;    0,550;    0,591
205,362;    6,819;    3,004;    1,955
205,962;    9,711;    3,096;    1,955
206,562;   10,251;    1,823;    2,318
207,161;    6,349;   -0,087;    0,318
207,761;   31,524;    1,277;    2,409
208,361;   13,210;   -0,268;    1,409
208,960;   13,784;    0,459;    1,500
209,560;   10,783;    1,277;    1,591
210,160;   18,564;    0,550;    1,864
210,759;   11,265;    4,186;    1,227
211,359;   10,278;    1,459;    1,045
211,958;   50,117;    1,277;    2,045
212,558;   47,192;    1,732;    1,864
213,157;   22,863;    1,822;    1,500
213,757;   81,203;    3,822;   -0,227
214,356;   34,161;    1,277;   -0,409
214,956;   73,537;    3,095;    0,409
215,555;   23,944;    2,095;    2,136
216,154;   14,490;   -2,723;   -0,591
216,754;   13,758;    0,277;    0,773
217,353;   20,064;   -0,268;   -1,045
217,952;    4,363;   -0,178;    0,318
218,552;   32,002;    1,368;   -0,773
219,151;   15,490;    0,277;    0,955
219,750;   13,361;    0,004;   -0,227
220,349;   10,742;   -0,451;    1,045
220,948;   45,234;   -1,360;    1,136
221,548;   20,804;    0,913;    1,227
222,147;   25,246;   -0,087;   -0,409
222,746;   62,681;   -0,451;   -0,955
223,345;   35,603;    0,731;    0,500
223,944;   39,642;   -0,451;    0,773
224,543;   45,607;    1,004;   -1,409
225,142;   30,202;    0,094;    0,136
225,741;   38,933;   -0,814;    1,045
226,340;   40,220;   -0,451;   -0,955
226,939;   72,968;   -0,996;   -0,136
227,538;   32,289;   -0,360;   -0,773
228,137;   85,946;   -0,814;    0,864
228,735;   68,307;   -0,541;    1,227
229,334;   23,119;   -0,905;   -0,227
229,933;   97,763;    0,459;    0,591
230,532;   96,458;    1,186;   -0,409
231,131;  132,437;    1,732;    0,318
231,729;   77,295;   -2,450;   -2,318
232,328;   48,013;   -0,723;   -1,500
232,927;   61,057;    1,004;   -0,500
233,525;   56,898;    3,640;    0,045
234,124;   72,821;    2,368;   -1,591
234,723;   45,206;    0,913;   -1,045
235,321;   37,430;    2,277;    0,136
235,920;   50,207;    1,186;   -1,227
236,518;  124,976;    3,459;    0,318
237,117;   56,533;    0,004;   -0,227
237,715;   72,576;    0,640;   -0,500
238,314;   83,830;   -0,087;   -2,318
238,912;  149,194;   -0,723;   -1,409
239,510;  111,729;    0,459;   -1,227
240,109;  172,309;    0,004;    3,773
240,707;  147,776;   -0,996;    1,227
241,305;   69,977;    0,550;    0,136
241,904;  117,159;   -0,178;   -2,045
242,502;  198,622;   -0,632;   -0,227
243,100;  132,298;   -0,087;   -0,955
243,698;   89,795;    0,732;    1,682
244,297;  117,213;   -0,632;    0,682
244,895;  112,788;   -0,269;   -2,318
245,493;  218,269;    2,186;   -0,591
246,091;  225,893;    1,368;   -1,318
246,689;  169,436;    1,004;    0,591
247,287;  161,160;    0,822;   -1,136
247,885;  131,759;   -1,451;    1,227
248,483;  110,338;    1,822;   -0,500
249,081;  173,264;    0,185;    1,591
249,679;  195,527;   -0,178;    1,682
250,277;  116,740;   -1,723;    0,864
250,875;  204,937;   -1,087;   -1,045
251,473;  133,537;   -1,178;    0,500
252,071;  206,974;    1,459;    1,045
252,669;  150,188;   -1,814;    0,318
253,267;  114,279;   -0,087;    0,773
253,864;  155,432;   -0,360;    0,682
254,462;  251,115;    1,640;    1,591
255,060;  127,010;   -0,269;    1,318
255,658;  123,097;    0,822;   -0,136
256,255;  160,793;    0,186;   -2,045
256,853;  198,486;   -0,269;    1,409
257,451;  166,536;    0,822;    1,864
258,048;  458,523;    1,822;    1,864
258,646;  265,566;    1,731;   -1,045
259,243;  338,214;   -0,087;    2,227
259,841;  246,826;   -0,814;    0,318
260,438;  145,306;   -0,087;    0,864
261,036;  231,126;   -1,905;    1,409
261,633;  152,466;   -0,087;    2,227
262,231;  126,089;    2,731;   -0,045
262,828;  121,652;   -0,905;    1,136
263,425;  162,153;    0,913;   -0,591
264,023;  163,828;    0,186;    0,045
264,620;  269,379;   -0,360;   -0,318
265,217;  366,463;   -2,087;    3,136
265,815;  181,622;   -1,905;    2,136
266,412;  260,832;    0,731;    0,136
267,009;  269,988;   -1,451;    0,773
267,606;  331,203;    0,822;   -0,955
268,203;  200,865;   -0,269;   -0,591
268,801;  218,095;    1,731;    0,591
269,398;  160,041;   -0,360;    2,500
269,995;  273,107;    0,277;    1,591
270,592;  230,939;   -0,632;   -0,500
271,189;  157,678;    0,186;    0,409
271,786;  142,430;   -0,632;    1,227
272,383;  313,040;   -1,087;    0,227
272,980;  209,174;    0,277;    0,318
273,577;  175,815;    0,004;    1,227
274,174;  157,645;    0,822;    2,591
274,771;  267,551;   -0,814;   -0,773
275,367;  564,904;    2,277;    1,409
275,964;  397,756;    0,731;   -0,500
276,561;  237,196;    1,549;   -1,045
277,158;  164,708;    0,095;   -1,773
277,755;  360,627;    2,185;    0,409
278,351;  287,109;   -0,451;   -1,500
278,948;  329,987;   -0,815;    0,045
279,545;  288,683;   -1,360;    2,318
280,141;  414,616;   -1,723;   -2,045
280,738;  399,819;   -0,451;   -0,136
281,334;  240,950;   -1,633;    0,591
281,931;  249,856;   -0,087;   -1,318
282,528;  341,843;    0,822;   -0,500
283,124;  401,660;   -1,087;   -0,500
283,721;  391,481;   -0,451;    1,409
284,317;  274,678;    0,185;    2,500
284,913;  421,122;   -1,360;    0,591
285,510;  609,395;    0,640;   -0,318
286,106;  454,177;   -2,269;   -0,955
286,703;  311,706;   -0,360;    1,955
287,299;  261,098;   -1,451;   -0,591
287,895;  248,380;    0,822;   -1,045
288,491;  232,132;    0,186;    2,136
289,088;  330,791;   -2,360;    2,409
289,684;  369,460;   -1,723;    1,500
290,280;  495,608;    0,368;    0,682
290,876;  452,648;    1,822;    5,500
291,472;  376,437;    1,276;    2,227
292,068;  388,455;    1,367;    0,227
292,665;  289,553;    2,095;    0,773
293,261;  209,865;    0,276;    2,136
293,857;  370,875;    2,913;    2,136
294,453;  294,397;    3,550;    0,955
295,049;  481,796;   -0,268;    1,955
295,644;  341,234;    0,095;    0,136
296,240;  233,369;   -0,905;   -0,136
296,836;  327,492;   -0,995;    0,318
297,432;  433,899;    1,096;   -0,500
298,028;  463,810;    0,732;    0,773
298,624;  345,045;    1,459;    1,864
299,220;  318,384;    2,368;    0,591
299,815;  316,418;    1,005;   -0,409
300,411;  406,705;    0,914;    1,773
301,007;  491,711;    1,368;    0,227
301,602;  346,678;   -0,541;   -2,318
302,198;  457,502;    0,732;   -0,773
302,794;  328,739;    1,187;   -0,500
303,389;  272,201;   -1,177;    1,045
303,985;  323,208;    0,550;    1,409
304,580;  433,372;    1,459;    1,591
305,176;  351,704;   -3,086;    0,136
305,771;  250,729;   -1,268;   -1,227
306,367;  593,656;    4,095;    0,136
306,962;  386,769;    0,641;    1,500
307,558;  424,676;   -0,450;    0,136
308,153;  470,434;    1,095;   -1,136
308,748;  292,599;   -0,814;    1,682
309,344;  622,021;   -0,632;   -1,318
309,939;  620,816;   -1,905;   -1,318
310,534;  350,827;   -0,086;   -1,682
311,130;  328,058;    0,459;   -2,500
311,725;  294,716;    1,004;   -0,500
312,320;  337,592;    2,459;    0,045
312,915;  420,012;    1,459;   -1,045
313,510;  609,447;    1,550;   -0,500
314,105;  347,994;    1,096;    1,409
314,700;  234,743;   -3,086;   -1,045
315,295;  311,827;   -0,904;    0,045
315,890;  273,218;    1,277;    0,864
316,485;  370,721;   -0,359;   -0,318
317,080;  278,411;   -3,086;    1,591
317,675;  557,413;    2,005;   -0,682
318,270;  743,516;    5,550;    3,318
318,865;  639,786;    3,278;    3,045
319,460;  488,495;   -0,904;    0,591
320,055;  336,033;   -0,541;   -1,227
320,650;  336,655;   -1,995;   -0,591
321,244;  343,410;   -0,177;   -1,409
321,839;  344,478;   -1,541;   -0,227
322,434;  406,410;   -1,086;   -1,591
323,029;  336,621;    1,732;    1,591
323,623;  312,053;    1,550;    0,773
324,218;  476,966;    2,368;    1,409
324,812;  414,650;    1,096;    1,591
325,407;  416,768;   -0,814;    2,045
326,002;  536,682;    0,277;   -0,409
326,596;  470,462;    0,914;    1,318
327,191;  324,032;    0,823;   -1,045
327,785;  327,099;   -0,813;   -0,227
328,379;  331,487;    1,368;    0,136
328,974;  385,670;    0,914;   -3,955
329,568;  398,836;    0,186;   -2,409
330,163;  468,718;    2,096;    1,045
330,757;  318,456;    2,459;    1,591
331,351;  272,700;    0,459;    0,682
331,945;  267,463;    0,914;    1,409
332,540;  396,702;   -1,723;   -0,591
333,134;  389,278;   -1,086;    0,773
333,728;  388,065;    0,005;    0,318
334,322;  279,483;   -1,177;   -0,864
334,916;  280,398;    0,277;    0,955
335,510;  438,786;   -0,450;   -0,136
336,105;  430,577;   -1,086;    1,591
336,699;  329,165;   -1,086;    0,591
337,293;  363,210;   -1,723;    0,318
337,887;  305,684;   -2,723;    1,955
338,481;  441,519;    0,459;    0,591
339,074;  537,850;   -0,359;    2,682
339,668;  508,654;   -1,632;    1,227
340,262; 1027,918;    1,732;    3,227
340,856;  657,060;    1,822;   -0,682
341,450;  356,356;    1,004;    1,864
342,044;  404,119;    1,459;    0,136
342,637;  534,672;    0,913;   -2,136
343,231;  523,083;   -2,360;    0,682
343,825;  419,162;   -1,086;   -0,591
344,419;  387,479;   -1,995;    0,500
345,012;  880,729;    2,459;    4,045
345,606;  692,166;    4,641;    1,591
346,199;  402,678;   -1,813;   -0,227
346,793;  530,027;    1,914;    2,045
347,386;  336,283;   -0,813;   -1,136
347,980;  241,996;   -0,268;   -0,045
348,573;  342,224;    2,278;    0,409
349,167;  621,993;    5,278;    4,773
349,760;  497,181;    2,914;    2,682
350,354;  466,238;   -0,813;    1,136
350,947;  504,750;    1,096;    1,682
351,540;  384,291;   -0,358;   -1,409
352,134;  254,455;    1,096;    1,136
352,727;  282,437;   -0,086;    1,136
353,320;  304,742;    0,005;    0,591
353,913;  250,032;   -1,995;    1,864
354,507;  439,045;    0,823;   -1,227
355,100;  313,211;    0,460;    0,864
355,693;  706,930;    2,005;    2,409
356,286;  484,816;    0,823;    2,773
356,879;  338,914;   -0,722;    1,227
357,472;  339,196;   -0,904;    1,500
358,065;  382,970;   -0,722;    2,500
358,658;  245,275;   -0,540;    2,318
359,251;  220,644;   -1,631;   -0,591
359,844;  402,416;   -1,904;   -1,136
360,437;  467,215;   -2,995;    0,045
361,030;  311,189;    1,369;   -0,682
361,623;  316,299;    2,824;    0,318
362,215;  536,054;   -0,086;    2,045
362,808;  387,161;   -2,358;   -1,682
363,401;  321,094;   -2,449;    0,136
363,994;  528,433;   -0,631;   -1,500
364,586;  332,356;    0,824;   -1,500
365,179;  286,581;   -0,449;   -1,136
365,772;  155,218;   -1,995;    2,045
366,364;  298,791;    1,915;   -3,227
366,957;  354,303;    2,279;   -0,045
367,549;  300,726;    2,188;   -0,864
368,142;  315,296;    1,825;   -1,500
368,734;  281,707;    0,734;   -2,136
369,327;  212,838;    1,643;   -0,500
369,919;  255,930;   -1,538;    0,409
370,512;  276,893;   -1,083;   -0,500
371,104;  539,297;   -0,901;    1,591
371,696;  557,478;    1,191;   -0,955
372,289;  409,217;    0,373;    1,136
372,881;  361,003;   -2,080;    1,318
373,473;  251,480;   -2,170;    1,136
374,066;  351,285;   -0,169;    0,500
374,658;  323,490;    0,378;    1,136
375,250;  253,179;    0,653;   -1,409
375,842;  309,881;    0,473;   -0,045
376,434;  270,268;   -0,435;   -0,409
377,026;  251,916;    0,204;   -2,500
377,618;  308,413;   -0,158;   -0,682
378,210;  249,624;   -0,338;   -1,955
378,802;  248,469;    0,754;   -0,591
379,394;  627,117;    1,846;    0,682
379,986;  391,126;    1,393;   -0,955
380,578;  298,231;   -0,153;    0,773
381,170;  536,766;   -0,972;    0,045
381,762;  433,385;    0,755;    1,409
382,354;  386,693;   -0,065;   -1,318
382,945;  295,555;   -2,976;    0,318
383,537;  240,561;   -2,705;   -1,955
384,129;  230,360;   -2,160;   -1,136
384,721;  340,785;   -0,252;    0,955
385,312;  282,527;   -0,161;   -0,955
385,904;  371,264;   -2,706;    1,591
386,496;  306,900;   -0,979;    1,045
387,087;  446,372;    1,022;    2,500
387,679;  387,203;   -1,160;    0,045
388,270;  360,960;    2,840;    2,045
388,862;  333,094;    1,295;   -0,318
389,453;  326,795;   -0,887;    1,045
390,045;  329,430;   -0,705;   -2,682
390,636;  221,175;    0,204;   -0,591
391,227;  282,903;   -0,523;   -0,045
391,819;  262,858;    0,204;    0,773
392,410;  520,649;    1,022;    0,045
393,001;  329,568;   -0,979;   -1,591
393,593;  389,154;    1,930;   -0,045
394,184;  441,482;    1,385;   -0,409
394,775;  318,122;    1,839;    2,136
395,366;  238,570;    1,385;    0,773
395,957;  436,473;    0,113;    0,136
396,548;  316,997;   -0,342;    2,682
397,139;  443,344;   -2,433;    0,591
397,730;  356,836;   -1,888;    0,955
398,321;  366,628;   -1,252;    0,955
398,912;  301,378;   -0,615;    0,136
399,503;  298,464;   -3,524;   -1,409
400,094;  359,963;    0,294;    1,682
400,685;  349,709;   -0,433;    0,045
401,276;  294,506;    0,930;   -0,955
401,867;  266,920;   -0,888;    0,773
402,458;  226,318;   -2,251;   -2,318
403,048;  385,758;    1,112;    0,591
403,639;  330,310;    0,840;    0,864
404,230;  445,037;    2,476;    0,318
404,821;  503,373;   -0,615;    0,045
405,411;  405,332;    1,203;   -2,591
406,002;  312,127;   -1,252;   -1,136
406,592;  542,740;    2,294;    0,045
407,183;  396,830;    0,566;   -1,500
407,774;  374,248;    3,475;   -0,136
408,364;  327,132;    0,930;    0,409
408,954;  449,616;    0,384;    1,227
409,545;  450,971;    1,021;    1,045
410,135;  403,047;    1,293;    0,500
410,726;  343,909;    1,838;    0,318
411,316;  539,084;    0,111;    0,773
411,906;  360,326;   -0,253;   -0,409
412,497;  380,955;   -1,070;   -0,045
413,087;  321,416;   -1,980;   -0,227
413,677;  246,819;   -0,707;    3,864
414,267;  235,262;    0,656;    1,409
414,857;  212,005;   -2,980;    4,227
415,448;  222,613;    0,839;    0,500
416,038;  259,627;    0,020;   -0,591
416,628;  310,720;   -0,889;    0,409
417,218;  369,121;    0,565;    3,318
417,808;  525,773;    0,202;   -0,409
418,398;  389,958;    0,020;    2,682
418,988;  269,335;    2,020;    0,591
419,578;  370,925;   -0,707;    1,409
420,168;  303,786;   -1,343;   -0,955
420,757;  470,704;   -1,343;   -1,500
421,347;  354,848;    0,111;   -0,227
421,937;  313,659;    2,292;    1,409
422,527;  455,603;    0,838;   -0,773
423,116;  598,957;   -0,253;   -0,045
423,706;  292,718;   -1,889;    0,318
424,296;  249,804;    1,384;    0,682
424,885;  399,167;   -0,071;   -3,045
425,475;  371,662;    1,474;   -2,864
426,065;  249,839;   -0,980;   -0,318
426,654;  221,497;   -0,435;   -0,318
427,244;  522,946;    0,020;    1,409
427,833;  493,200;    1,383;   -0,500
428,423;  348,739;   -0,526;    1,136
429,012;  343,630;   -0,344;   -1,136
429,601;  479,850;   -1,344;    0,136
430,191;  364,690;    1,292;    4,318
430,780;  254,562;   -0,344;   -0,409
431,369;  463,035;    0,746;   -0,045
431,959;  333,958;   -1,254;    0,500
432,548;  264,876;   -1,163;   -0,045
433,137;  198,181;   -1,254;   -1,318
433,726;  286,884;    0,292;    0,500
434,315;  313,999;   -0,526;    2,409
434,905;  424,380;   -1,254;    1,409
435,494;  426,236;    0,746;    0,955
436,083;  275,715;   -0,981;   -0,955
436,672;  370,111;    0,110;    0,500
437,261;  311,351;    0,292;   -1,955
437,850;  579,141;    1,383;    0,682
438,439;  618,786;    3,291;    1,955
439,027;  736,898;    3,655;    1,773
439,616;  656,316;    2,927;    1,227
440,205;  415,082;    0,200;   -2,136
440,794;  357,239;    2,109;   -0,045
441,383;  267,123;   -1,346;   -0,591
441,971;  230,022;   -2,436;    0,591
442,560;  252,178;    0,563;   -1,773
443,149;  128,483;    0,379;   -1,318
443,737;  199,383;   -0,074;   -2,318
444,326;  228,459;    0,018;    0,318
444,915;  288,083;   -1,982;    0,864
445,503;  293,053;   -2,891;   -0,318
446,092;  577,165;    0,382;    2,136
446,680;  500,024;    0,382;    0,318
447,269;  390,138;   -0,346;   -0,318
447,857;  366,556;    0,018;   -1,773
448,445;  316,575;    0,563;    1,318
449,034;  248,469;   -1,528;   -1,136
449,622;  251,654;   -1,073;    3,500
450,210;  570,678;    2,017;    2,227
450,799;  476,606;    0,290;   -0,591
451,387;  420,174;    1,381;   -0,591
451,975;  402,236;    2,654;    0,864
452,563;  486,277;    3,472;    2,318
453,151;  283,810;   -0,528;   -1,227
453,739;  334,737;   -1,347;    0,136
454,328;  452,065;    2,381;   -2,136
454,916;  376,200;    2,562;   -0,136
455,504;  386,797;    1,017;    1,227
456,092;  260,672;    0,017;   -1,591
456,679;  216,952;    1,472;    0,682
457,267;  686,006;    4,017;    1,045
457,855;  328,855;    1,017;    1,409
458,443;  161,283;   -0,165;    1,682
459,031;  351,152;    0,108;    2,409
459,619;  301,298;   -1,801;    2,864
460,206;  193,505;    0,835;    2,045
460,794;  195,543;   -2,983;   -0,227
461,382;  252,443;   -0,529;   -0,864
461,970;  246,805;    1,198;    1,864
462,557;  164,619;   -0,711;   -0,682
463,145;  307,406;   -3,165;   -1,682
463,732;  570,220;    2,016;   -1,045
464,320;  315,831;   -0,075;   -3,045
464,907;  469,806;    2,743;   -0,773
465,495;  368,843;    0,743;   -1,227
466,082;  280,551;   -1,984;   -0,045
466,670;  307,380;   -2,529;    1,227
467,257;  183,497;   -1,711;    2,045
467,844;  300,068;   -0,075;    0,045
468,432;  269,443;    0,834;    3,500
469,019;  222,609;    0,925;   -1,773
469,606;  310,928;    0,470;    3,682
470,193;  335,933;   -1,439;    0,227
470,780;  292,491;   -2,075;    0,864
471,368;  210,813;   -1,257;   -0,773
471,955;  319,607;    1,379;   -0,682
472,542;  273,587;    0,652;   -1,136
473,129;  152,986;   -0,166;    0,136
473,716;  165,693;    1,470;    0,591
474,303;  199,335;    0,652;   -0,864
474,890;  201,826;   -1,439;   -0,500
475,477;  306,133;   -1,621;    0,409
476,064;  203,483;    1,106;   -1,591
476,650;  329,414;    0,288;    0,318
477,237;  237,323;   -0,258;    0,955
477,824;  204,976;   -1,076;    0,864
478,411;  115,693;   -1,894;   -0,318
478,997;  112,209;    0,560;   -0,773
479,584;   64,471;    1,196;   -0,409
480,171;  245,166;   -0,440;   -0,773
480,757;  307,512;    2,651;    0,773
481,344;  193,806;    0,469;    0,409
481,931;   96,296;    1,105;    1,045
482,517;  231,023;   -1,258;    0,318
483,104;  335,197;    1,106;    2,864
483,690;  198,932;   -1,804;    0,045
484,276;  176,265;   -0,895;    0,227
484,863;  423,503;    2,469;    1,136
485,449;  245,859;   -0,077;    0,318
486,035;  193,416;   -1,986;   -0,136
486,622;  300,905;   -0,895;    0,045
487,208;  201,305;    1,378;    1,500
487,794;  110,357;    0,741;    0,318
488,380;  113,470;    0,105;   -1,409
488,967;  118,575;   -1,168;   -0,409
489,553;  142,078;   -1,895;   -1,409
490,139;  230,901;    1,559;    0,773
490,725;  137,823;    0,741;   -0,227
491,311;  191,445;    3,287;    3,045
491,897;  164,999;   -0,986;    1,500
492,483;  159,476;    0,105;    1,227
493,069;  618,827;    3,923;    0,864
493,655;  314,242;    1,650;    0,682
494,241;  183,955;    1,377;   -0,955
494,826;  201,257;    0,287;   -1,045
495,412;  278,622;    2,559;   -0,682
495,998;  175,668;   -0,805;   -0,318
496,584;  244,816;    0,377;    1,045
497,169;  267,572;    1,014;   -0,682
497,755;  198,304;    0,650;    1,227
498,341;  365,660;    0,559;    0,318
498,926;  509,247;    1,832;    1,955
499,512;  206,370;    1,286;    2,955
500,097;  218,733;    0,195;   -0,318
500,683;  253,792;   -0,350;    2,136
501,268;  187,616;   -0,169;   -0,955
501,854;  220,375;   -0,169;    1,227
502,439;  209,814;   -0,624;   -1,773
503,024;  266,395;    0,195;    0,500
503,610;  301,752;   -0,078;   -0,682
504,195;  222,328;    0,558;    1,955
504,780;  347,990;    2,922;    1,227
505,366;  461,702;    3,013;    2,864
505,951;  375,425;    0,740;    1,045
506,536;  270,138;   -3,260;   -3,682
507,121;  351,561;    0,285;   -0,318
507,706;  287,932;    2,376;    1,045
508,291;  226,428;    2,649;    1,136
508,876;  235,213;   -0,988;    2,591
509,461;  309,793;   -0,169;   -0,773
510,046;  358,965;    0,194;    0,318
510,631;  365,010;   -0,351;   -0,773
511,216;  262,593;    2,467;   -0,500
511,801;  348,872;   -0,442;    2,591
512,386;  384,122;    0,740;    0,500
512,971;  400,470;   -2,988;    0,955
513,555;  452,418;   -0,897;   -1,500
514,140;  395,619;   -0,442;   -3,136
514,725;  531,977;   -0,715;   -1,136
515,309;  422,052;   -0,533;    0,318
515,894;  299,412;   -0,624;   -2,227
516,479;  345,985;   -0,624;   -0,955
517,063;  356,779;    0,376;    1,227
517,648;  294,244;    1,012;   -1,136
518,232;  267,013;   -0,261;   -1,409
518,817;  370,563;   -0,079;    1,682
519,401;  503,091;    2,194;    0,591
519,985;  463,979;    1,103;    1,136
520,570;  302,937;    0,830;   -1,955
521,154;  431,519;    2,102;    0,591
521,738;  621,140;   -2,352;    2,409
522,323;  425,867;   -0,170;    1,682
522,907;  422,404;    0,466;   -0,136
523,491;  320,776;    0,557;    0,955
524,075;  283,871;    2,284;    0,591
524,659;  490,553;    1,466;    0,591
525,243;  418,747;    1,739;    0,409
525,827;  360,873;    0,648;   -0,045
526,411;  367,735;   -1,989;   -0,136
526,995;  472,307;   -0,352;    1,409
527,579;  532,679;   -0,443;   -1,045
528,163;  461,814;    0,375;   -1,500
528,747;  559,709;    2,466;   -0,773
529,331;  495,061;   -0,080;   -1,409
529,915;  338,820;    1,738;    0,955
530,499;  425,092;   -0,807;    1,227
531,082;  592,219;   -0,534;    1,591
531,666;  660,430;    1,374;    0,773
532,250;  539,350;    1,284;    2,682
532,833;  649,598;    0,920;    2,773
533,417;  485,786;   -1,807;    0,864
534,001;  608,383;    1,647;   -0,318
534,584;  514,440;    0,374;    0,500
535,168;  338,617;    0,465;    1,409
535,751;  700,615;    0,647;    0,045
536,334;  439,458;   -0,898;   -0,409
536,918;  285,451;    0,011;    1,591
537,501;  301,670;   -0,899;    1,318
538,085;  350,416;   -0,444;    1,045
538,668;  426,603;    0,829;    2,409
539,251;  706,152;    1,829;    3,773
539,834;  419,687;    0,101;    0,773
540,418;  548,582;   -1,990;    4,318
541,001;  730,559;   -0,990;    1,773
541,584;  493,412;    2,101;    2,227
542,167;  608,230;    1,374;    2,955
542,750;  430,709;    1,919;   -0,773
543,333;  302,797;    0,555;    2,136
543,916;  529,466;    0,192;    2,500
544,499;  460,765;   -1,354;    0,227
545,082;  538,499;    1,374;    3,591
545,665;  441,115;    1,919;    1,500
546,248;  574,524;    1,010;   -0,318
546,830;  551,419;   -0,445;    1,955
547,413;  510,207;    1,010;   -0,773
547,996;  471,060;    0,555;    0,500
548,579;  436,013;    0,919;    0,955
549,161;  668,293;    1,828;    2,682
549,744;  548,156;   -0,809;    0,409
550,326;  396,707;   -0,809;   -1,136
550,909;  870,471;    2,737;    0,591
551,492;  513,055;   -0,263;    0,227
552,074;  649,766;   -0,173;   -1,318
552,657;  674,677;    2,373;    0,045
553,239;  536,145;   -0,173;   -0,773
553,821;  400,819;   -1,082;    1,045
554,404;  660,037;    1,282;    1,136
554,986;  770,070;    0,464;    1,045
555,568;  605,538;    1,191;   -0,955
556,151;  810,815;    1,191;   -0,227
556,733;  485,511;   -0,264;   -0,864
557,315;  503,324;    0,100;    0,500
557,897;  382,312;    0,554;   -0,500
558,479;  391,046;   -1,991;    1,318
559,061;  480,490;   -0,719;   -0,864
559,643;  529,906;   -0,264;    0,045
560,225;  571,817;    1,645;    2,864
560,807;  418,815;    0,918;    0,318
561,389;  397,103;    0,554;    2,318
561,971;  490,478;    0,463;    2,136
562,553;  405,676;   -1,628;    1,591
563,135;  495,396;   -0,537;    1,136
563,717;  886,756;    3,372;    1,136
564,298;  777,238;    3,645;   -0,045
564,880;  531,807;    0,645;   -1,409
565,462;  365,171;    0,645;    1,318
566,043;  492,447;   -0,446;    2,318
566,625;  801,535;    1,918;    1,227
567,207;  616,583;    1,099;    1,682
567,788;  464,233;   -1,264;    1,500
568,370;  467,300;    1,917;   -0,500
568,951;  469,797;    0,190;    0,227
569,533;  576,428;   -0,628;   -0,500
570,114;  590,654;   -0,446;    0,682
570,695;  628,122;   -0,174;   -1,318
571,277;  607,155;   -0,265;   -1,682
571,858;  812,947;    2,008;   -1,136
572,439;  647,729;    1,554;   -1,045
573,021;  681,418;    2,099;   -2,773
573,602;  795,292;   -1,265;    0,318
574,183;  739,508;   -2,083;    2,227
574,764;  686,135;   -1,629;    0,409
575,345;  888,529;    0,917;   -0,136
575,926;  710,189;   -0,356;    0,136
576,507;  786,108;    1,099;   -0,227
577,088;  742,107;    3,099;    1,682
577,669;  932,157;    0,735;    1,955
578,250; 1122,599;    0,644;   -1,045
578,831;  903,598;   -1,356;   -2,227
579,412;  885,525;   -0,810;    0,955
579,993;  857,623;    1,008;    0,227
580,573;  774,899;   -0,629;   -0,955
581,154;  916,342;    0,735;   -0,591
581,735;  928,517;    0,644;    0,773
582,315; 1075,244;   -0,629;    2,136
582,896;  871,135;   -0,174;    1,227
583,477;  718,200;    0,189;    1,227
584,057;  856,259;    0,553;    0,955
584,638;  975,259;    2,553;    2,318
585,218; 1221,526;   -0,538;    2,682
585,799; 1023,778;    0,281;   -0,227
586,379;  891,561;    0,372;    1,591
586,959;  857,782;    0,735;    0,318
587,540;  771,770;   -0,629;    2,227
588,120;  775,118;    1,007;   -0,045
588,700;  791,239;    2,553;    2,136
589,281;  968,625;    0,462;   -0,955
589,861;  828,278;    0,099;   -1,682
590,441;  674,085;    2,371;   -2,682
591,021;  775,802;   -0,265;   -2,591
591,601;  727,361;   -0,537;    0,500
592,181;  712,079;   -0,719;   -0,773
592,761;  610,440;    0,007;    1,409
593,341;  733,052;   -0,901;    0,045
593,921;  739,560;   -0,265;    1,591
594,501;  637,056;   -0,538;    1,318
595,081;  639,374;    0,917;   -0,318
595,661;  711,039;   -1,447;    0,955
596,240;  640,908;   -0,537;    0,136
596,820; 1074,858;    0,372;    1,955
597,400;  780,486;    2,008;    0,773
597,980;  674,433;    2,008;    1,045
598,559;  620,115;    2,735;   -0,227
599,139;  601,040;   -0,174;   -1,227
599,718;  598,676;   -0,174;   -0,409
600,298;  592,752;    0,735;    0,682
600,877; 1095,623;    2,917;    1,409
601,457;  791,209;    2,281;    1,136
602,036;  666,268;    0,190;    2,045
602,616;  721,339;    0,644;    1,682
603,195;  846,024;   -0,355;    3,500
603,774;  904,494;   -0,901;    2,045
604,354;  838,953;    0,826;   -0,500
604,933;  770,899;    0,463;    1,864
605,512;  862,869;    3,554;    0,591
606,091;  864,914;   -0,537;    3,773
606,671;  809,756;    0,281;    0,773
607,250;  989,034;    1,644;    3,136
607,829;  921,699;    2,372;    3,227
608,408;  755,453;    1,190;    2,591
608,987;  883,369;    1,281;    3,409
609,566;  699,678;   -1,265;   -2,500
610,145;  793,107;   -1,082;    0,682
610,723;  841,936;    4,372;    6,864
611,302;  747,800;   -0,446;    1,682
611,881; 1056,185;    5,008;   11,227
612,460;  747,374;    1,645;    3,955
613,039;  628,776;   -0,082;    2,045
613,617;  617,984;    1,736;    4,773
614,196;  637,738;    1,099;    1,227
614,775;  706,406;    1,009;    2,409
615,353;  765,921;    0,736;    0,864
615,932;  725,837;    0,100;    2,409
616,510;  709,767;    0,554;    0,591
617,089; 1238,299;    7,100;   17,591
617,667;  823,112;    2,372;    6,136
618,246;  582,990;   -1,537;    1,318
618,824;  659,091;   -3,355;   -0,955
619,402;  679,912;   -2,900;   -1,773
619,981;  747,695;   -0,173;   -1,045
620,559;  649,124;    0,009;    1,682
621,137;  668,958;   -0,718;    1,864
621,715;  573,424;   -1,173;   -0,682
622,293;  592,500;   -0,537;   -0,773
622,871;  600,233;   -0,718;    0,500
623,450;  549,626;    0,373;   -0,864
624,028;  748,577;    0,191;   -0,955
624,606;  710,821;   -1,718;    1,682
625,183;  522,692;   -1,536;   -1,136
625,761;  665,234;    1,009;    1,136
626,339;  966,379;    1,373;    2,591
626,917;  602,542;   -0,172;   -0,045
627,495;  551,369;   -0,354;    1,318
628,073;  680,966;   -0,263;    2,864
628,650;  695,938;    0,100;    2,136
629,228;  698,161;    0,373;    4,409
629,806;  509,671;    2,282;    1,136
630,383;  574,624;    1,464;   -0,318
630,961;  570,945;    2,555;   -0,955
631,539;  619,073;    2,464;    0,227
632,116; 1338,399;   11,373;   15,409
632,694;  950,721;    2,555;    6,500
633,271;  786,817;    0,828;    2,682
633,848;  890,219;    1,828;    2,045
634,426;  604,244;   -1,081;    1,773
635,003;  468,237;    1,101;   -0,409
635,580;  894,499;    1,192;    3,682
636,158;  762,937;    3,737;    1,227
636,735;  570,182;    0,555;   -0,500
637,312;  567,322;   -0,809;   -0,682
637,889;  569,502;   -4,354;   -0,682
638,466;  551,665;   -3,990;   -0,409
639,043;  600,679;    2,101;   -1,136
639,620;  514,130;   -2,262;   -0,955
640,197;  654,023;    1,100;    1,682
640,774;  465,394;   -0,172;    1,136
641,351;  545,673;    0,737;    1,136
641,928;  749,316;   -0,627;    1,409
642,505;  866,141;    0,828;   -0,500
643,082;  684,875;   -1,718;    1,227
643,658;  540,064;   -0,718;    1,500
644,235;  526,252;    1,191;    2,500
644,812;  721,714;    1,918;    0,773
645,388;  703,175;   -0,991;    1,409
645,965;  479,909;   -0,809;    1,682
646,542;  492,916;   -1,445;   -0,227
647,118;  879,650;    1,009;   -0,955
647,695;  670,111;   -0,263;    1,136
648,271;  481,845;   -0,536;    0,500
648,848;  656,761;    0,736;    2,227
649,424;  789,585;    0,827;    1,318
650,000;  595,229;   -0,354;   -1,045
650,577;  624,872;   -0,627;   -0,955
651,153;  624,697;   -1,809;    0,955
651,729;  570,612;    1,191;    0,864
652,305;  943,892;    0,645;    2,773
652,881;  902,717;   -0,082;    1,136
653,458; 1047,178;    1,100;    0,227
654,034; 1150,730;    0,282;    1,591
654,610; 1308,100;    0,554;    0,773
655,186; 1814,562;    0,645;    3,045
655,762; 1332,659;   -0,991;    0,409
656,338; 1302,848;    0,100;    0,136
656,913; 1396,491;   -0,082;    0,409
657,489; 1170,134;    0,827;   -0,318
658,065; 1279,414;   -0,173;   -1,591
658,641; 1312,784;   -0,900;   -0,864
659,217; 1210,972;   -0,991;    0,409
659,792; 1365,797;    0,645;   -0,409
660,368; 1175,895;   -2,173;   -0,682
660,944; 1204,720;   -2,082;    1,227
661,519; 1091,999;   -0,628;    0,409
662,095;  789,461;   -1,719;    0,591
662,670;  624,285;    1,281;   -0,136
663,246;  539,383;    1,009;   -0,409
663,821;  704,753;    0,281;    1,682
664,396;  651,033;    0,009;    1,864
664,972;  561,494;    0,009;   -0,500
665,547;  622,319;    1,372;    0,136
666,122;  601,417;   -1,082;    0,318
666,698;  796,242;   -0,173;    0,318
667,273;  568,521;   -0,173;    0,136
667,848;  605,982;    2,372;    1,500
668,423;  781,171;    2,190;    2,318
668,998;  620,814;    2,827;   -0,682
669,573;  572,730;   -3,264;   -1,500
670,148;  767,282;   -1,446;   -0,682
670,723;  542,652;   -1,810;    0,318
671,298;  847,750;    2,372;    1,045
671,873;  746,757;   -0,082;   -0,136
672,448;  730,127;    0,645;    0,136
673,023;  720,315;   -1,992;   -0,227
673,597;  824,595;    0,827;    2,318
674,172;  868,238;   -0,355;    0,318
674,747;  773,245;    0,372;   -1,045
675,321;  528,979;   -0,628;    3,318
675,896;  470,894;    0,645;    1,045
676,471;  704,719;    2,645;    1,591
677,045;  635,090;   -1,264;    0,682
677,620;  723,278;    0,190;    1,136
678,194;  552,103;   -2,628;    1,136
678,769;  628,928;   -1,083;   -0,318
679,343;  683,662;   -0,628;    1,773
679,917;  806,123;   -1,446;    1,955
680,492;  658,221;    0,826;    3,227
681,066;  691,319;    3,372;    0,409
681,640;  616,325;    1,463;   -0,318
682,214;  632,241;    0,735;    0,500
682,788;  634,793;   -1,356;   -0,773
683,363;  792,982;   -1,810;    1,682
683,937;  663,443;   -1,719;   -0,318
684,511;  687,813;    0,463;   -0,591
685,085;  706,093;   -1,356;    0,318
685,659;  606,281;   -2,538;    0,864
686,232;  859,652;   -0,356;   -0,318
686,806;  719,568;   -0,901;    0,409
687,380;  608,392;   -0,174;    0,591
687,954;  541,490;   -1,174;    1,136
688,528;  872,224;   -0,719;    1,955
689,101;  697,413;   -3,992;    1,045
689,675;  590,783;   -0,356;   -0,136
690,249;  844,517;   -0,719;    0,409
690,822;  838,705;    0,280;    0,318
691,396;  721,349;   -0,265;    1,227
691,969;  639,173;    1,280;    0,136
692,543;  534,544;   -0,447;   -1,955
693,116;  519,096;   -0,265;   -1,409
693,690;  609,921;    0,099;    0,500
694,263;  548,018;   -1,083;    2,955
694,836;  920,298;    1,371;    3,591
695,410;  794,123;   -0,265;    1,773
695,983;  820,311;    0,189;    0,591
696,556;  612,500;   -0,447;   -1,045
697,129;  529,598;   -0,356;    1,409
697,703;  754,059;   -1,629;    1,955
698,276;  638,429;    1,462;   -0,773
698,849;  807,527;    1,280;    1,409
699,422;  565,170;   -1,083;    0,591
699,995;  458,722;    0,007;    0,136
700,568;  608,274;   -0,629;    3,045
701,140;  621,735;   -2,811;    1,682
701,713;  792,015;   -0,174;    2,409
702,286;  684,113;   -0,538;    0,864
702,859;  766,574;   -0,902;   -0,591
703,432;  854,671;    0,825;    0,682
704,004;  731,224;    0,462;    0,318
704,577;  598,412;   -0,629;    0,136
705,150;  657,419;    0,189;    2,500
705,722;  710,516;   -0,356;   -3,227
706,295;  788,250;   -0,175;   -0,591
706,867;  652,803;   -0,175;    1,955
707,440;  749,355;   -1,720;   -0,409
708,012;  829,634;    0,462;    0,591
708,584;  741,823;    2,462;    0,227
709,157;  508,648;    1,825;   -0,591
709,729;  750,927;    2,280;    2,045
710,301;  600,025;    0,734;    0,045
710,874;  616,304;   -1,447;   -0,227
711,446;  501,947;    0,371;    0,864
712,018;  578,045;    0,098;    0,500
712,590;  515,142;   -1,993;    1,682
713,162;  812,149;    0,825;    1,318
713,734;  597,520;    1,825;   -2,045
714,306;  509,072;   -1,902;   -0,409
714,878;  566,260;    0,825;    0,864
715,450;  516,085;    0,643;    0,864
716,022;  530,365;    1,552;    1,318
716,593;  519,008;    0,189;    0,591
717,165;  571,014;   -3,175;   -1,227
717,737;  838,657;    0,280;    0,409
718,309;  602,846;    0,280;   -0,045
718,880;  526,125;   -0,539;   -1,409
719,452;  606,041;   -0,175;   -1,591
720,024;  706,321;    0,734;   -0,591
720,595;  598,600;   -2,902;    0,955
721,167;  580,971;    0,370;   -2,045
721,738;  715,705;   -0,812;   -1,045
722,309;  863,438;   -0,993;   -1,227
722,881;  583,718;   -1,357;    0,773
723,452;  664,816;   -2,630;    2,864
724,023;  682,822;   -0,721;    2,682
724,595;  741,284;    0,007;    0,682
725,166;  604,927;    0,007;   -0,409
725,737;  807,388;    1,734;    0,227
726,308;  599,122;   -0,266;    0,318
726,879;  507,583;   -1,630;    1,227
727,450;  694,681;    0,552;   -0,045
728,021;  614,506;    3,097;    0,682
728,592;  784,331;    0,734;    0,500
729,163;  874,337;    0,643;   -0,136
729,734;  855,162;    0,188;   -0,227
730,305;  699,533;    1,734;    0,136
730,876;  662,630;    0,188;    2,955
731,447; 1003,364;    2,188;    2,682
732,017;  897,825;    1,097;    1,864
732,588;  687,287;    0,734;    1,227
733,159;  951,202;    0,643;   -1,045
733,729;  678,755;    0,006;    0,409
734,300;  847,489;    0,915;    0,864
734,870;  650,223;    3,461;    0,591
735,441;  635,320;    0,370;   -0,591
736,011;  624,872;    0,643;   -1,591
736,582;  626,879;   -0,812;    0,045
737,152;  762,159;   -1,721;   -2,045
737,722;  735,074;   -0,267;   -0,682
738,293;  576,445;   -1,358;    1,318
738,863;  759,633;    2,461;    2,318
739,433; 1035,731;    5,279;    0,318
740,003;  734,465;   -0,994;   -0,682
740,573;  874,381;    2,097;   -1,591
741,143;  737,751;   -1,085;    0,318
741,713;  633,576;    1,188;   -0,500
742,283;  707,492;    0,915;    1,591
742,853;  643,498;    1,915;    1,591
743,423;  467,414;    1,733;    0,045
743,993;  583,330;   -0,358;    1,500
744,563;  638,973;    0,097;   -0,864
745,133;  670,707;   -0,812;   -0,864
745,702;  536,987;   -0,267;    1,773
746,272;  765,539;   -0,176;    0,591
746,842;  782,455;   -1,358;   -0,591
747,411;  570,461;   -0,267;   -0,318
747,981;  467,923;    0,097;    0,500
748,551;  461,020;    2,278;   -1,045
749,120;  669,936;    0,642;   -0,227
749,690;  613,306;   -0,631;    2,409
750,259;  722,495;    1,369;    2,955
750,828;  783,411;    1,551;   -1,955
751,398;  551,690;    1,278;   -0,045
751,967; 1040,606;    2,187;    0,409
752,536;  677,431;   -0,813;   -0,227
753,105;  785,892;    0,096;    0,227
753,675;  621,808;    0,096;    1,773
754,244;  632,451;   -0,904;    3,591
754,813;  663,094;    0,551;    1,227
755,382;  627,010;    0,460;    0,955
755,951;  768,198;    1,551;    3,682
756,520;  868,660;   -0,085;    1,864
757,089;  977,848;    0,278;    0,500
757,658;  708,764;    1,733;    1,227
758,227;  537,680;    1,096;    0,318
758,795;  595,505;    1,187;    1,136
759,364;  607,148;   -0,086;   -0,591
759,933;  547,700;   -1,176;   -0,045
760,501;  479,252;    0,733;   -1,318
761,070;  644,986;   -2,813;   -1,409
761,639;  600,811;   -1,904;    1,318
762,207;  735,272;    1,551;   -0,955
762,776;  779,461;    0,369;    0,864
763,344;  628,104;   -0,995;    0,591
763,913;  434,838;   -0,722;    1,409
764,481;  973,663;    1,005;   -0,136
765,049;  967,851;   -1,358;    1,409
765,618;  886,858;   -0,086;    0,318
766,186;  679,956;    0,278;    0,136
766,754;  734,144;    0,005;    1,864
767,322;  621,242;   -1,995;    0,409
767,890;  562,976;   -0,722;   -1,773
768,459;  561,073;   -2,177;   -0,318
769,027;  795,898;    1,641;    3,409
769,595;  612,905;    3,278;    2,591
770,163;  707,548;    3,823;    2,955
770,730;  674,464;    0,732;   -0,136
771,298;  662,198;    0,187;   -1,409
771,866;  585,386;   -1,541;    4,955
772,434;  614,666;   -0,631;   -1,864
773,002;  831,854;    0,005;    0,682
773,569;  697,407;    0,914;    1,682
774,137;  821,050;   -0,268;   -0,045
774,705;  595,784;    0,278;   -0,136
775,272;  571,336;    0,641;    0,682
775,840;  594,524;   -0,177;    2,682
776,407;  715,804;    0,277;    1,955
776,975;  595,901;   -0,632;    0,318
777,542;  531,635;   -1,086;   -0,045
778,110;  556,188;   -1,268;   -0,045
778,677;  437,922;   -2,359;   -0,864
779,244;  525,565;    2,186;    1,045
779,812;  690,481;    1,823;    0,864
780,379;  774,214;    0,005;    1,136
780,946;  630,948;    1,005;   -0,773
781,513;  534,228;   -1,450;    0,318
782,080;  509,962;   -0,086;    2,864
782,647;  538,423;   -0,268;    3,045
783,214;  516,248;   -0,177;    3,864
783,781;  732,618;   -0,723;   -0,682
784,348;  672,534;   -0,632;    1,500
784,915;  448,268;   -3,177;    0,318
785,482;  691,820;    1,368;    2,591
786,049;  611,554;    0,186;   -0,591
786,615;  480,379;    0,277;   -0,955
787,182;  445,931;    0,186;   -0,682
787,749;  420,575;   -2,814;    1,409
788,315;  663,945;   -1,632;   -0,409
788,882;  540,133;    1,550;   -1,227
789,448;  834,413;    1,732;   -0,955
790,015;  590,601;    1,095;    3,227
790,581;  788,426;    1,459;    0,227
791,148;  598,797;    0,641;    1,045
791,714;  479,258;   -0,541;    3,136
792,280;  492,901;    0,186;    1,591
792,847;  435,090;    0,550;    2,500
793,413;  526,005;   -0,269;   -0,318
793,979;  743,921;    3,459;   -1,318
794,545; 1026,655;    4,459;    2,682
795,111;  916,116;    2,186;    1,318
795,678;  758,214;    0,731;   -1,682
796,244;  914,130;    3,368;    0,136
796,810;  758,409;    1,731;    0,773
797,375;  757,325;    0,549;   -2,136
797,941;  429,059;   -0,541;    0,591
798,507;  443,702;   -0,451;   -0,955
799,073;  482,982;   -0,360;    0,591
799,639;  475,988;   -2,632;    3,136
800,205;  426,450;    0,095;    2,682
800,770;  469,002;    0,640;    1,773
801,336;  485,918;    1,368;   -0,955
801,901; 1090,015;    4,549;    3,136
802,467;  733,022;   -0,542;    2,045
803,033;  515,483;   -0,087;    0,864
803,598;  512,763;    1,913;   -1,045
804,163;  514,678;    1,095;   -0,318
804,729;  616,049;   -0,178;    1,136
805,294;  508,055;    0,822;    2,227
805,859;  451,608;    0,731;   -0,409
806,425;  848,433;    1,186;    2,682
806,990;  821,348;    2,186;    4,318
807,555;  571,082;   -1,451;    2,591
808,120;  724,180;    0,822;   -0,409
808,685;  512,914;    0,185;   -2,500
809,250;  427,830;    0,004;   -0,500
809,815;  414,836;    1,913;    0,682
810,380;  545,843;   -0,269;    1,591
810,945;  724,850;   -1,087;    2,045
811,510;  550,675;    2,094;    1,591
812,075;  612,772;   -0,633;   -1,409
812,640;  850,688;    2,003;    1,409
813,204;  603,150;    0,822;   -0,227
813,769;  743,520;    2,094;   -0,045
814,334;  740,345;    0,458;    0,864
814,898;  457,261;    0,367;    0,591
815,463;  574,085;    1,276;   -0,773
816,027;  511,183;   -0,724;   -2,318
816,592;  422,190;    0,640;   -2,045
817,156;  612,651;    2,094;    1,136
817,721;  736,385;    4,276;    2,318
818,285;  466,210;    2,912;    1,500
818,849;  527,126;   -1,451;    1,682
819,414;  448,587;   -0,269;    2,955
819,978;  402,685;   -1,269;    1,773
820,542;  688,691;    2,003;    0,500
821,106;  518,880;   -0,815;    0,682
821,670;  740,159;   -0,815;    2,591
822,234;  515,984;   -0,270;    1,409
822,798;  408,355;    0,003;    0,500
823,362;  647,179;   -0,633;    4,227
823,926;  497,004;    0,094;    1,136
824,490;  689,647;   -0,997;   -0,682
825,054;  557,472;   -0,088;   -1,136
825,618;  445,752;   -1,542;   -1,500
826,181;  519,395;    0,458;   -1,318
826,745;  623,765;    1,367;   -1,045
827,309;  829,863;    1,185;    1,318
827,872;  699,051;    1,367;    0,955
828,436;  574,967;    1,185;   -0,773
828,999;  474,701;   -0,997;    1,227
829,563;  463,162;   -0,179;    1,136
830,126;  435,624;   -0,179;   -0,591
830,690;  549,994;   -1,997;    2,864
831,253;  464,092;   -0,543;    2,227
831,816;  512,735;   -1,906;    0,500
832,380;  480,105;    0,185;    0,864
832,943;  442,930;   -1,361;   -0,500
833,506;  454,482;    2,639;   -1,227
834,069;  603,125;    3,912;   -0,955
834,632;  444,041;    1,730;    1,318
835,195;  485,139;    1,003;    0,955
835,758;  425,691;   -0,997;    1,955
836,321;  451,698;    0,730;   -1,045
836,884;  414,613;   -0,725;   -0,955
837,447;  355,166;   -2,816;    1,773
838,010;  549,081;    0,366;    3,227
838,573;  541,452;   -1,179;    0,773
839,135;  403,822;   -1,361;   -0,955
839,698;  484,102;    1,275;    0,409
840,261;  432,017;    1,003;   -0,227
840,823;  382,388;   -0,543;    0,864
841,386;  364,576;   -0,452;   -2,409
841,948;  669,310;   -1,361;    1,773
842,511;  457,681;    0,912;    1,682
843,073;  663,142;    1,912;    0,227
843,636;  412,058;   -0,361;   -0,227
844,198;  629,428;    0,911;    0,591
844,760;  584,798;    1,093;    1,955
845,322;  391,896;    0,548;    1,136
845,885;  529,812;    0,730;    0,591
846,447;  461,273;   -1,998;    0,227
847,009;  796,189;    1,911;   -0,682
847,571;  503,196;    0,820;   -2,045
848,133;  449,748;   -1,089;   -1,864
848,695;  317,482;   -0,543;    1,409
849,257;  402,307;   -1,089;   -1,682
849,819;  556,041;   -0,998;   -0,409
850,381;  420,866;   -0,725;   -0,864
850,942;  487,509;    1,093;   -0,591
851,504;  566,334;    1,184;    0,227
852,066;  417,431;    1,275;   -1,591
852,628;  450,983;   -0,180;    1,955
853,189;  362,717;    1,638;    2,682
853,751;  362,451;   -0,907;    1,409
854,312;  526,913;   -0,453;   -1,682
854,874;  651,192;   -2,089;   -0,773
855,435;  461,381;   -0,907;   -1,682
855,997;  505,842;   -1,816;   -0,136
856,558;  624,758;    0,366;    1,773
857,119;  532,037;    0,820;    2,864
857,681;  366,953;    0,002;    0,318
858,242;  642,050;    1,911;   -2,136
858,803;  593,421;    0,456;   -0,773
859,364;  465,518;    0,184;   -4,773
859,925;  545,616;   -2,453;   -0,955
860,486;  425,350;   -0,453;   -0,955
861,047;  369,720;   -0,544;   -1,227
861,608;  419,000;   -1,089;   -0,773
862,169;  272,643;    0,638;   -0,045
862,730;  415,195;    0,456;    1,409
863,291;  457,929;   -0,635;   -0,500
863,852;  432,663;   -0,635;    1,955
864,412;  434,033;   -0,271;   -0,864
864,973;  670,949;   -0,089;    0,500
865,534;  783,501;   -1,726;    0,227
866,094;  561,690;    1,820;    0,227
866,655;  700,060;    1,274;    3,318
867,215;  507,976;    0,274;    0,136
867,776;  361,074;    0,547;   -0,136
868,336;  457,717;   -1,453;    0,136
868,897;  825,814;    2,638;    1,682
869,457;  614,821;    1,365;    0,318
870,017;  403,555;    0,547;   -1,227
870,578;  392,926;   -0,817;    0,773
871,138;  489,659;   -2,089;   -0,955
871,698;  400,212;   -0,817;   -1,318
872,258;  518,491;   -0,453;   -2,864
872,818;  669,771;    2,729;    0,045
873,378;  481,868;    0,638;    1,045
873,938;  468,784;    0,547;    0,500
874,498;  370,609;    0,274;   -1,955
875,058;  475,797;    2,183;    1,773
875,618;  469,259;    1,910;   -2,682
876,177;  508,720;    1,274;    0,136
876,737;  347,363;   -0,090;    1,955
877,297;  711,279;    0,183;    1,955
877,856;  646,467;   -0,362;    0,318
878,416;  411,565;    1,183;   -0,136
878,976;  365,663;   -1,817;    0,409
879,535;  408,306;    0,092;    3,136
880,095;  399,403;   -0,544;    0,045
880,654;  347,774;   -1,090;    1,318
881,213;  640,871;    2,456;    1,500
881,773;  484,514;    2,637;    2,682
882,332;  959,157;    3,365;    5,136
882,891;  466,982;    3,092;    2,136
883,451;  450,171;   -1,272;    1,682
884,010;  422,178;   -2,908;   -0,409
884,569;  354,730;   -0,999;   -0,045
885,128;  523,918;    2,819;   -1,864
885,687;  770,652;    4,455;    0,682
886,246;  935,023;    1,455;    2,136
886,805;  738,757;    2,455;    2,045
887,364;  405,945;   -0,999;   -0,500
887,922;  330,770;   -1,181;    0,045
888,481;  535,686;   -1,545;    0,591
889,040;  601,965;    1,183;    2,136
889,599;  482,608;    2,455;    1,409
890,157;  479,433;    1,455;    2,409
890,716;  415,349;   -0,090;    0,227
891,274;  536,356;    0,092;   -1,136
891,833;  593,635;    1,546;    0,864
892,391;  482,460;   -0,454;    0,500
892,950;  566,103;    1,819;   -0,773
893,508;  376,201;    0,455;   -0,409
894,067;  306,208;    0,637;    0,136
894,625;  412,669;   -0,636;   -1,500
895,183;  373,130;   -0,363;   -0,682
895,741;  639,319;    1,728;   -1,773
896,299;  445,962;   -0,545;   -2,409
896,858;  382,787;    0,819;   -1,591
897,416;  521,066;    2,728;   -1,318
897,974;  443,255;    1,819;    0,318
898,532;  860,261;    6,091;    2,682
899,089;  583,995;    2,091;   -0,682
899,647;  484,729;   -1,454;    1,318
900,205;  480,009;    1,182;    1,045
900,763;  467,197;   -0,454;    0,227
901,321;  419,477;    2,364;   -1,409
901,878;  266,483;   -1,000;   -0,773
902,436;  356,217;   -1,363;    1,318
902,994; 1022,315;    4,728;    3,682
903,551;  600,413;    0,728;    0,409
904,109;  461,965;    0,182;   -1,409
904,666;  426,790;    2,455;    1,045
905,224;  321,615;    0,182;   -0,409
905,781;  487,530;    0,727;   -0,318
906,338;  428,174;   -1,363;    1,045
906,895;  321,635;    0,637;    2,045
907,453;  576,551;    1,727;    1,136
908,010;  434,921;   -0,909;    0,409
908,567;  426,837;    1,273;    0,591
909,124;  282,753;    0,364;   -1,500
909,681;  344,668;   -2,909;    0,682
910,238;  376,039;    0,636;   -1,318
910,795;  284,682;   -0,273;   -1,136
911,352;  304,682;   -2,909;   -2,682
911,909;  350,591;   -1,364;   -0,864
912,466;  345,409;   -3,182;    1,500
913,022;  455,864;   -1,636;    0,500
913,579;  517,227;   -0,909;    2,045
914,136;  404,682;    1,636;    0,955
914,692;  400,409;    0,091;   -1,227
915,249;  437,773;    1,455;    0,409
915,806;  495,682;    0,182;    1,955
916,362;  397,864;    1,909;    1,864
916,918;  376,500;    2,000;    1,045
917,475;  497,227;   -1,182;    0,955
918,031;  348,318;    3,364;   -0,045
918,587;  422,227;   -0,909;   -0,318
919,144;  336,773;   -2,273;    0,227
919,700;  266,591;    1,727;    0,773
920,256;  275,955;    0,727;    0,045
920,812;  341,591;   -0,727;   -1,045
921,368;  296,409;   -1,727;   -1,045
921,924;  329,409;    0,182;   -0,136
922,480;  416,227;   -0,545;    1,227
923,036;  414,227;    1,273;    1,955
923,592;  320,591;    0,455;    0,318
924,148;  337,045;    0,455;   -0,955
924,704;  459,500;   -1,364;   -0,409
925,259;  291,409;   -0,273;    0,591
925,815;  301,045;    1,455;    0,500
926,371;  279,955;    2,909;    1,409
926,926;  421,591;    2,091;    0,591
927,482;  398,045;   -1,364;    0,773
928,037;  330,955;    0,909;    2,045
928,593;  498,682;    1,636;    1,045
929,148;  296,136;   -1,818;   -1,500
929,704;  364,500;   -1,455;   -0,500
930,259;  306,591;    0,091;   -0,136
930,814;  471,227;   -0,818;    1,955
931,369;  414,136;    1,091;   -0,773
931,925;  258,773;   -0,091;    0,136
932,480;  347,409;   -2,818;   -2,591
933,035;  639,318;    0,545;   -0,318
933,590;  551,500;    0,364;   -1,773
934,145;  262,955;   -1,364;   -0,318
934,700;  180,409;    0,455;   -0,591
935,255;  231,136;   -0,091;    0,045
935,809;  508,591;    3,182;    0,864
936,364;  238,864;   -0,455;   -0,136
936,919;  233,500;    0,455;   -1,773
937,474;  176,045;    1,455;    0,136
938,028;  187,773;   -1,636;    1,136
938,583;  518,318;    1,818;    4,682
939,138;  254,045;    2,091;    2,136
939,692;  160,045;    1,636;   -1,136
940,247;  202,500;   -0,727;   -1,045
940,801;  231,773;   -0,636;    0,227
941,355;  165,318;   -0,364;    2,591
941,910;  115,045;   -0,273;   -2,136
942,464;  147,136;   -0,818;   -0,318
943,018;  314,045;    1,000;   -0,227
943,572;  202,773;    2,545;   -0,682
944,126;  260,682;    0,091;   -0,409
944,681;  173,500;    3,091;    0,227
945,235;  130,318;    1,000;   -0,591
945,789;  110,591;    0,364;   -1,864
946,342;  294,500;    0,455;   -0,591
946,896;  148,136;   -2,273;    0,955
947,450;  121,591;    1,545;   -0,227
948,004;  289,409;    1,727;   -0,045
948,558;  172,682;    0,273;   -0,864
949,111;  168,591;   -0,273;   -0,318
949,665;  287,591;    1,636;   -0,682
950,219;  265,409;   -0,091;   -1,045
950,772;  212,682;   -1,909;    1,864
951,326;  197,318;    0,545;   -0,955
951,879;  167,409;    0,727;   -2,318
952,433;  254,955;    0,000;    2,227
952,986;  151,682;    2,909;    0,682
953,539;  128,318;   -0,273;    0,591
954,093;   99,591;    0,545;   -1,318
954,646;  172,773;    0,909;    1,318
955,199;  120,227;    0,000;   -0,500
955,752;  284,682;   -0,455;    1,773
956,305;  178,409;   -0,091;    2,955
956,858;  201,227;    0,818;   -0,318
957,411;  234,136;   -0,545;    2,136
957,964;  195,864;    1,364;    2,136
958,517;  137,045;   -1,545;    3,136
959,070;  104,318;   -0,455;    1,955
959,623;  280,500;    1,091;    1,500
960,176;  254,773;    1,727;    2,045
960,728;  215,955;   -2,727;    0,773
961,281;  169,955;    0,545;    0,500
961,834;  129,318;   -0,909;    0,864
962,386;  143,864;    1,727;    1,045
962,939;  128,227;    0,364;   -0,318
963,491;  156,955;    0,455;    1,136
964,043;  111,773;    1,182;    2,409
964,596;  219,136;   -1,000;    2,227
965,148;  156,500;   -1,000;    1,773
965,700;  107,409;    1,091;   -0,227
966,253;  214,318;   -0,636;    0,318
966,805;  182,500;   -2,273;    0,773
967,357;  141,409;    1,091;   -1,500
967,909;  206,955;    0,455;   -1,227
968,461;  144,045;    0,545;    3,136
969,013;  113,045;   -0,182;   -0,864
969,565;  213,864;   -0,455;   -1,136
970,117;  360,045;   -0,364;    1,045
970,669;  219,409;    0,182;   -0,136
971,220;   96,409;   -0,455;   -1,500
971,772;  148,682;   -0,636;   -0,318
972,324;  202,045;    0,091;   -0,500
972,876;  135,409;    0,818;   -0,045
973,427;  210,500;    1,909;   -1,045
973,979;  257,864;   -0,727;   -2,500
974,530;  137,955;    1,818;    1,318
975,082;  180,227;   -0,545;    1,682
975,633;  144,136;    1,091;    1,682
976,184;  165,682;    0,909;    0,773
976,736;  158,955;    0,091;    0,227
977,287;  183,409;   -0,909;   -0,500
977,838;  153,864;    0,909;   -0,318
978,389;  149,773;   -1,000;   -0,500
978,940;   81,136;    0,545;   -0,409
979,491;   82,864;    0,091;   -0,500
980,042;  137,682;    0,182;    3,045
980,593;  149,591;   -2,545;    0,227
981,144;  201,773;    2,545;   -0,500
981,695;  208,227;    1,455;    1,500
982,246;  180,136;   -0,273;    1,045
982,797;  107,136;   -1,727;    0,682
983,347;  192,409;    0,364;    0,591
983,898;  324,409;    3,091;    0,409
984,449;  307,227;    2,182;    0,773
984,999;  203,773;    1,455;   -1,136
985,550;  170,409;    0,182;   -0,318
986,100;   99,045;   -0,455;   -0,318
986,651;   93,591;   -0,818;    0,045
987,201;  104,318;   -1,000;   -0,591
987,751;  112,955;    0,818;    2,864
988,302;  137,773;    2,636;    1,500
988,852;  173,136;    0,455;   -1,136
989,402;  204,864;    0,091;    0,682
989,952;  227,591;   -2,182;    0,864
990,502;  124,682;   -0,091;    0,682
991,052;   73,955;   -0,727;    0,045
991,602;  102,227;   -2,909;    1,318
992,152;  131,227;    0,455;    0,682
992,702;  155,773;    1,364;   -0,045
993,252;  117,591;   -3,000;   -0,500
993,802;  176,591;   -0,273;    1,318
994,352;  144,409;   -1,545;    1,136
994,901;   91,136;   -0,182;    3,227
995,451;   82,318;   -0,182;    0,318
996,000;  102,045;    1,636;    0,318
996,550;  114,045;    2,273;    0,227
997,100;  134,682;    1,273;   -0,045
997,649;  211,136;    2,182;    0,955
998,198;  114,682;    1,727;   -1,500
998,748;  170,409;    1,091;   -2,318
999,297;  140,864;   -0,818;   -0,409
999,846;  214,045;    1,000;   -0,773
1000,395;  157,136;   -0,818;    0,500
1000,945;  227,682;    1,818;   -0,773
1001,494;  220,955;    2,364;    0,682
1002,043;  221,682;    4,636;    0,864
1002,592;  118,773;   -1,091;    1,955
1003,141;  106,136;   -0,455;   -0,682
1003,690;  213,409;    1,727;    0,500
1004,238;  134,682;    1,455;   -0,045
1004,787;   93,227;    1,364;    1,227
1005,336;  184,500;    0,364;    0,682
1005,885;  154,136;    1,364;   -2,773
1006,433;  149,500;    0,545;    0,955
1006,982;  247,500;    0,455;    1,682
1007,531;  165,864;   -1,818;   -0,227
1008,079;  148,136;   -2,273;    0,500
1008,627;  112,227;   -1,455;    0,409
1009,176;  133,136;    0,000;   -1,955
1009,724;   97,227;    1,091;    0,864
1010,273;  185,591;    1,273;    0,500
1010,821;  113,227;    0,091;    1,409
1011,369;   98,591;   -1,364;    1,318
1011,917;  100,773;   -1,364;   -0,591
1012,465;  142,591;    1,273;   -1,591
1013,013;  134,045;    2,091;   -1,682
1013,561;  205,682;    0,455;   -0,773
1014,109;  260,318;   -1,909;    1,682
1014,657;  184,318;    0,364;    0,591
1015,205;  123,682;    1,636;   -0,955
1015,753;   94,591;   -0,545;   -1,409
1016,301;  135,227;   -2,636;    3,045
1016,848;  185,318;   -1,273;    0,409
1017,396;  172,864;    2,545;    0,045
1017,944;  164,045;    1,182;    1,864
1018,491;  126,682;    0,273;    1,409
1019,039;  300,773;    0,455;    0,591
1019,586;  161,864;   -1,364;    1,682
1020,134;  152,591;    0,455;    1,500
1020,681;  199,591;    0,182;   -1,136
1021,228;  149,773;    2,909;   -2,227
1021,776;  130,227;    1,182;   -1,136
1022,323;  271,864;    0,455;    0,773
1022,870;  203,227;   -1,000;   -0,045
1023,417;  230,591;    2,636;    1,864
1023,964;  139,045;    2,636;    1,227
1024,511;  115,955;    1,000;    0,773
1025,058;  155,409;    3,182;   -0,045
1025,605;  123,045;   -2,273;    3,136
1026,152;  245,318;    1,727;   -0,591
1026,699;  160,773;    1,818;    1,318
1027,245;  144,136;   -0,091;    0,318
1027,792;  106,409;   -1,000;    1,409
1028,339;  246,864;    2,364;   -0,045
1028,885;  158,864;    1,000;   -0,227
1029,432;  132,955;   -0,091;    0,227
1029,978;  184,227;   -1,000;   -1,591
1030,525;  199,045;    1,000;    0,409
1031,071;  122,500;   -1,364;    1,136
1031,618;  287,591;    0,364;    1,682
1032,164;  183,773;   -0,091;    3,045
1032,710;  206,318;    1,636;   -1,500
1033,256;  185,591;   -0,636;   -0,136
1033,803;  108,682;   -0,545;    1,500
1034,349;   41,409;   -1,364;    0,136
1034,895;   61,500;    0,000;   -0,318
1035,441;  103,955;   -0,818;    0,318
1035,987;  128,318;   -2,364;   -0,682
1036,533;  170,682;   -1,455;   -0,955
1037,078;  297,591;    1,455;    1,682
1037,624;  205,864;    2,455;   -0,955
1038,170;  121,773;    0,455;   -0,318
1038,716;  169,409;    1,636;   -0,409
1039,261;  100,773;   -2,273;   -0,773
1039,807;  114,136;   -0,091;    3,409
1040,352;  124,500;   -1,909;   -0,318
1040,898;  118,500;   -1,545;   -0,682
1041,443;   81,955;   -1,455;   -2,591
1041,989;  274,318;    1,091;    1,591
1042,534;  152,591;   -0,364;    2,591
1043,079;   81,045;    2,909;    0,955
1043,625;  138,045;    1,818;    0,500
1044,170;  148,227;   -1,364;    1,045
1044,715;  261,500;    2,455;    0,955
1045,260;  208,136;    2,182;   -0,955
1045,805;  113,409;    1,182;   -0,591
1046,350;   97,864;    1,364;   -0,409
1046,895;  211,591;    2,909;    1,591
1047,440;  191,227;    5,364;    0,409
1047,985;  118,227;    2,818;   -0,955
1048,530;  107,318;    1,545;    1,227
1049,074;  136,045;    0,000;    0,318
1049,619;  103,773;   -1,364;    1,955
1050,164;  105,318;    0,455;    0,227
1050,708;  162,318;   -0,455;    0,045
1051,253;  301,227;    1,273;   -2,227
1051,797;  175,500;    0,818;   -1,318
1052,342;   82,955;   -1,182;    1,045
1052,886;  131,773;    0,364;   -1,409
1053,430;   84,045;   -1,364;    0,136
1053,975;  140,591;   -0,818;   -0,318
1054,519;  130,682;   -0,727;    3,227
1055,063;  167,955;    0,909;    1,318
1055,607;  164,955;   -0,182;    0,227
1056,151;  159,682;    2,909;    1,682
1056,695;  115,591;    2,273;   -1,136
1057,239;  108,136;   -1,727;   -0,682
1057,783;  132,591;    0,818;   -1,500
1058,327;  172,500;    0,000;    1,409
1058,871;  267,227;   -0,545;    1,318
1059,415;  189,409;   -0,818;   -0,045
1059,958;  270,318;    1,455;    2,591
1060,502;  119,318;   -1,000;   -0,773
1061,046;   73,591;    0,364;   -0,955
1061,589;   74,409;   -3,000;   -1,136
1062,133;   60,318;   -1,273;    1,864
1062,676;   82,045;    1,182;    0,864
1063,220;  104,045;    1,091;    0,500
1063,763;  121,682;    0,909;    1,136
1064,306;  133,227;   -0,909;    1,864
1064,849;  135,591;   -0,909;    0,591
1065,393;  120,045;    2,000;   -1,500
1065,936;  114,682;    0,182;   -0,409
1066,479;   80,045;   -1,455;    1,318
1067,022;   95,500;   -0,273;   -0,227
1067,565;   82,409;   -0,091;   -1,318
1068,108;   65,955;    0,727;   -0,591
1068,651;   51,409;   -0,636;    1,409
1069,194;   61,773;   -0,455;   -1,682
1069,736;   69,318;   -1,273;    0,955
1070,279;   60,136;   -1,364;   -0,500
1070,822;  102,318;   -2,000;   -0,318
1071,364;  177,227;   -0,364;    1,318
1071,907;  102,773;   -0,727;    3,227
1072,450;   34,500;    0,000;   -0,045
1072,992;   65,409;   -0,273;    3,136
1073,535;   95,318;    2,091;    2,136
1074,077;   61,318;   -0,727;    2,045
1074,619;   53,409;   -1,364;    0,591
1075,161;   76,500;   -1,091;    1,500
1075,704;  143,318;    1,545;    1,227
1076,246;   77,318;   -0,182;    0,682
1076,788;   43,227;   -0,364;    1,773
1077,330;   44,318;    1,273;    2,136
1077,872;   64,227;    0,909;    0,955
1078,414;  157,500;    2,727;    0,773
1078,956;   82,500;    1,273;   -0,227
1079,498;  151,955;    1,636;    0,318
1080,040;   80,864;    1,909;   -1,318
1080,581;   58,773;    1,636;   -0,318
1081,123;   34,864;    0,091;   -0,773
1081,665;   37,955;   -1,182;   -0,955
1082,206;  136,682;    1,364;   -0,500
1082,748;   87,864;    0,727;    2,045
1083,289;   47,045;   -2,000;    1,318
1083,831;   42,136;   -0,545;    0,227
1084,372;   65,773;    0,000;    0,591
1084,913;   65,318;    1,091;    0,864
1085,455;   46,409;   -1,909;   -2,045
1085,996;   35,682;   -2,273;    0,136
1086,537;   42,227;   -0,091;    0,864
1087,078;   57,045;   -0,909;   -2,136
1087,619;   87,409;   -1,273;    0,227
1088,160;   67,318;    0,000;    1,318
1088,701;   56,500;   -1,091;    0,682
1089,242;   49,136;    1,364;   -2,227
1089,783;   69,955;   -0,273;    1,409
1090,324;   55,864;    0,455;    0,682
1090,865;   39,591;    2,727;   -0,409
1091,405;   29,773;    0,727;    2,227
1091,946;   52,500;    0,182;   -0,955
1092,487;   29,500;    0,818;   -1,409
1093,027;   82,409;   -1,364;   -1,500
1093,568;   45,500;   -0,364;    1,227
1094,108;   61,864;    0,273;    1,773
1094,649;   45,864;   -1,182;    0,136
1095,189;   36,500;   -0,636;   -0,682
1095,729;   32,136;   -0,091;    0,955
1096,269;   27,500;    0,727;   -0,955
1096,810;   98,864;   -1,364;    0,500
1097,350;   68,500;    1,364;   -0,773
1097,890;   48,500;    0,364;    1,227
1098,430;  139,773;    2,364;    2,864
1098,970;   98,136;    2,182;    1,682
1099,510;   43,409;    0,545;   -2,318
1100,050;   31,500;    1,000;   -1,591
1100,589;   45,136;   -0,727;   -0,318
1101,129;   63,500;    0,818;   -0,955
1101,669;  102,682;    1,727;    2,136
1102,209;   68,864;   -0,091;    2,227
1102,748;   48,136;    0,000;    0,955
1103,288;   53,864;    1,273;   -1,227
1103,827;   47,045;    3,091;   -2,227
1104,367;   32,227;   -0,091;   -2,409
1104,906;   33,955;    1,364;   -1,136
1105,445;   53,045;    0,636;   -1,136
1105,985;   37,955;   -0,727;    1,500
1106,524;   44,045;   -1,727;   -0,682
1107,063;   41,955;   -2,727;    1,409
1107,602;   31,682;   -1,909;   -1,500
1108,141;   22,864;   -1,909;    1,500
1108,680;   54,045;   -3,455;   -0,591
1109,219;   41,955;   -0,909;   -0,500
1109,758;   39,045;    0,455;    0,682
1110,297;   36,045;    1,000;   -0,682
1110,836;   24,136;   -0,727;    0,955
1111,375;   27,955;   -2,545;    0,409
1111,913;   53,773;   -1,000;    0,773
1112,452;   42,864;   -0,273;    0,136
1112,991;   24,682;    1,091;    1,955
1113,529;   25,591;   -0,818;   -0,045
1114,068;   35,500;   -0,273;    2,955
1114,606;   20,591;   -0,364;   -0,955
1115,144;   47,591;   -1,273;    1,045
1115,683;   34,136;   -0,727;    0,318
1116,221;   51,500;   -0,455;   -0,864
1116,759;   29,409;    0,636;   -0,864
1117,297;   58,682;    0,000;    1,864
1117,836;   32,955;   -2,182;   -1,227
1118,374;   30,409;    0,182;   -0,682
1118,912;   38,045;    0,909;    2,682
1119,450;   31,136;    1,000;    0,864
1119,988;   30,045;    1,545;    2,136
1120,525;  173,227;    5,091;    3,318
1121,063;   75,318;    1,182;    1,864
1121,601;   31,045;   -0,909;   -1,227
1122,139;   25,773;   -0,727;   -2,045
1122,676;   69,864;   -0,727;    2,773
1123,214;   59,227;   -1,182;    4,409
1123,751;   26,045;    1,727;    2,227
1124,289;   39,955;   -0,091;   -0,409
1124,826;   24,500;    1,727;    0,227
1125,364;   13,227;    1,727;   -0,955
1125,901;   66,045;    1,182;    1,227
1126,438;   57,864;    0,818;    0,955
1126,975;   13,773;   -0,727;   -0,773
1127,513;   21,773;    0,273;    2,136
1128,050;   14,864;    1,636;   -0,682
1128,587;   27,591;    2,000;   -0,227
1129,124;   40,409;    0,091;    1,318
1129,661;   20,591;    0,273;    0,227
1130,198;   53,500;    1,636;    0,773
1130,734;   34,136;    0,182;    1,409
1131,271;   10,955;   -0,909;    0,864
1131,808;   38,227;    2,909;    3,045
1132,345;   20,136;    1,545;    0,318
1132,881;    6,864;   -1,545;   -1,864
1133,418;   23,955;    0,727;   -1,136
1133,954;   16,955;    2,455;   -2,682
1134,491;   29,045;    1,364;   -0,773
1135,027;   17,227;    2,364;    0,864
1135,564;   27,682;    0,273;    2,955
1136,100;   24,227;    0,364;    2,136
1136,636;   13,864;   -1,273;   -1,045
1137,172;   19,318;    0,000;   -1,045
1137,708;   11,682;   -1,364;   -1,045
1138,245;   11,227;    1,273;   -1,227
1138,781;    7,500;    1,091;   -3,318
1139,317;   14,955;    1,273;   -1,409
1139,852;   19,955;    3,091;    0,136
1140,388;   26,864;   -1,182;   -0,409
1140,924;   17,227;   -1,091;   -2,227
1141,460;    8,318;   -1,636;    0,136
1141,996;    4,409;   -1,364;    2,682
1142,531;    5,773;    1,364;    3,318
1143,067;   38,773;    1,182;    1,045
1143,602;   50,500;   -0,091;   -0,318
1144,138;   19,045;   -2,636;    1,045
1144,673;    9,591;   -1,455;    1,409
1145,209;   13,045;   -1,909;   -0,318
1145,744;    4,773;   -0,727;    0,864
1146,279;   17,773;    1,818;   -0,136
1146,815;   11,318;    1,545;   -2,682
1147,350;   19,682;   -1,364;    0,045
1147,885;    9,591;   -0,818;   -1,318
1148,420;    9,682;   -2,273;    0,773
1148,955;    8,227;   -1,727;    1,864
1149,490;    8,136;   -0,909;   -1,591
1150,025;    4,318;    0,455;   -1,773
1150,560;   25,500;    1,091;   -0,955
1151,094;   16,045;    1,455;   -0,591
1151,629;   17,500;    1,636;    0,864
1152,164;    8,318;    1,364;    1,318
1152,698;    6,409;   -0,182;   -0,136
1153,233;    2,318;    0,091;   -0,682
1153,767;    4,773;   -3,000;   -2,318
1154,302;    9,136;   -1,455;    1,773
1154,836;   10,500;   -0,455;   -2,136
1155,371;   14,500;   -1,364;    3,682
1155,905;    8,591;   -0,636;    1,682
1156,439;    8,955;   -0,636;   -0,500
1156,973;   12,682;    0,364;    0,318
1157,507;    7,136;   -0,364;    0,682
1158,042;   10,227;   -0,727;    1,045
1158,576;   13,136;    0,182;    1,773
1159,110;   12,864;   -0,818;    2,409
1159,643;    9,955;    0,636;   -0,045
1160,177;    5,500;   -1,545;    1,500

