
Integration time [ms]:   0,040
Averaging Nr. [scans]: 11
Smoothing Nr. [pixels]: 0
Data measured with spectrometer [name]: 7318044SP
Wave   ;Sample   ;Dark     ;Reference
[nm]   ;[counts] ;[counts] ;[counts] 

186,757;   33,310;   31,551;    1,318
187,357;   65,652;   22,551;    0,955
187,958;   41,554;   15,460;   -1,591
188,558;   81,529;    8,915;   -1,227
189,159;   48,778;    6,733;   -4,500
189,759;   17,954;    7,278;   -3,591
190,360;   16,726;    2,824;   -2,136
190,960;   59,104;    2,915;   -4,136
191,560;   66,942;    3,189;   -6,591
192,161;  300,195;    4,372;   -3,500
192,761;  157,930;    4,010;   -3,227
193,361;   99,488;    1,556;   -3,773
193,962;  155,022;    2,010;   -2,682
194,562;   79,309;    1,189;   -3,955
195,162;  113,049;   -2,448;   -2,227
195,762;  263,891;   -3,176;   -0,045
196,362;  211,669;    1,370;   -2,500
196,963;   83,015;    2,006;   -0,864
197,563;  146,874;    1,551;   -0,955
198,163;   96,159;    0,096;   -0,682
198,763;  111,134;    1,733;   -0,500
199,363;  211,873;    3,096;   -0,500
199,963;  167,554;    0,369;    0,409
200,563;  143,064;    2,823;   -1,409
201,163;  120,429;    3,277;   -0,227
201,763;  201,430;    3,732;    0,318
202,363;  145,512;    1,459;    1,500
202,963;  243,083;    1,459;    1,045
203,563;  351,674;    0,277;    0,500
204,162;  205,600;    2,096;   -1,864
204,762;  187,804;    0,550;    0,591
205,362;  154,277;    3,004;    1,955
205,962;  245,629;    3,096;    1,955
206,562;  240,649;    1,823;    2,318
207,161;  211,304;   -0,087;    0,318
207,761;  363,946;    1,277;    2,409
208,361;  235,563;   -0,268;    1,409
208,960;  323,335;    0,459;    1,500
209,560;  381,658;    1,277;    1,591
210,160;  369,372;    0,550;    1,864
210,759;  329,672;    4,186;    1,227
211,359;  331,108;    1,459;    1,045
211,958;  566,862;    1,277;    2,045
212,558;  635,336;    1,732;    1,864
213,157;  479,459;    1,822;    1,500
213,757;  888,997;    3,822;   -0,227
214,356;  599,408;    1,277;   -0,409
214,956;  890,829;    3,095;    0,409
215,555;  536,268;    2,095;    2,136
216,154;  477,928;   -2,723;   -0,591
216,754;  482,783;    0,277;    0,773
217,353;  589,603;   -0,268;   -1,045
217,952;  449,128;   -0,178;    0,318
218,552;  676,564;    1,368;   -0,773
219,151;  555,093;    0,277;    0,955
219,750;  542,608;    0,004;   -0,227
220,349;  590,538;   -0,451;    1,045
220,948;  708,552;   -1,360;    1,136
221,548;  660,948;    0,913;    1,227
222,147;  758,792;   -0,087;   -0,409
222,746; 1035,335;   -0,451;   -0,955
223,345;  878,878;    0,731;    0,500
223,944;  863,842;   -0,451;    0,773
224,543;  984,719;    1,004;   -1,409
225,142; 1091,575;    0,094;    0,136
225,741;  998,779;   -0,814;    1,045
226,340;  990,347;   -0,451;   -0,955
226,939; 1360,465;   -0,996;   -0,136
227,538; 1185,405;   -0,360;   -0,773
228,137; 1371,589;   -0,814;    0,864
228,735; 1382,062;   -0,541;    1,227
229,334; 1181,099;   -0,905;   -0,227
229,933; 1541,656;    0,459;    0,591
230,532; 1637,605;    1,186;   -0,409
231,131; 1713,868;    1,732;    0,318
231,729; 1694,566;   -2,450;   -2,318
232,328; 1662,416;   -0,723;   -1,500
232,927; 1673,500;    1,004;   -0,500
233,525; 1715,020;    3,640;    0,045
234,124; 1881,944;    2,368;   -1,591
234,723; 1853,615;    0,913;   -1,045
235,321; 1931,931;    2,277;    0,136
235,920; 2059,457;    1,186;   -1,227
236,518; 2301,591;    3,459;    0,318
237,117; 2289,359;    0,004;   -0,227
237,715; 2385,329;    0,640;   -0,500
238,314; 2427,731;   -0,087;   -2,318
238,912; 2557,210;   -0,723;   -1,409
239,510; 2487,102;    0,459;   -1,227
240,109; 2645,763;    0,004;    3,773
240,707; 2606,556;   -0,996;    1,227
241,305; 2741,632;    0,550;    0,136
241,904; 2911,814;   -0,178;   -2,045
242,502; 2928,031;   -0,632;   -0,227
243,100; 2830,366;   -0,087;   -0,955
243,698; 2963,154;    0,732;    1,682
244,297; 3057,899;   -0,632;    0,682
244,895; 2991,968;   -0,269;   -2,318
245,493; 3220,668;    2,186;   -0,591
246,091; 3177,536;    1,368;   -1,318
246,689; 3115,736;    1,004;    0,591
247,287; 3197,185;    0,822;   -1,136
247,885; 3390,724;   -1,451;    1,227
248,483; 3418,816;    1,822;   -0,500
249,081; 3500,439;    0,185;    1,591
249,679; 3595,719;   -0,178;    1,682
250,277; 3715,035;   -1,723;    0,864
250,875; 3698,438;   -1,087;   -1,045
251,473; 3690,365;   -1,178;    0,500
252,071; 3823,907;    1,459;    1,045
252,669; 3892,933;   -1,814;    0,318
253,267; 4013,122;   -0,087;    0,773
253,864; 3909,821;   -0,360;    0,682
254,462; 3953,143;    1,640;    1,591
255,060; 3825,054;   -0,269;    1,318
255,658; 4004,115;    0,822;   -0,136
256,255; 4317,658;    0,186;   -2,045
256,853; 4246,815;   -0,269;    1,409
257,451; 4198,159;    0,822;    1,864
258,048; 4558,615;    1,822;    1,864
258,646; 4208,616;    1,731;   -1,045
259,243; 4337,633;   -0,087;    2,227
259,841; 4358,254;   -0,814;    0,318
260,438; 4243,045;   -0,087;    0,864
261,036; 4710,904;   -1,905;    1,409
261,633; 4648,805;   -0,087;    2,227
262,231; 4471,649;    2,731;   -0,045
262,828; 4543,761;   -0,905;    1,136
263,425; 4548,198;    0,913;   -0,591
264,023; 4714,963;    0,186;    0,045
264,620; 4399,017;   -0,360;   -0,318
265,217; 4644,824;   -2,087;    3,136
265,815; 4669,203;   -1,905;    2,136
266,412; 4609,423;    0,731;    0,136
267,009; 4596,450;   -1,451;    0,773
267,606; 4594,707;    0,822;   -0,955
268,203; 4483,218;   -0,269;   -0,591
268,801; 4670,248;    1,731;    0,591
269,398; 4869,147;   -0,360;    2,500
269,995; 4864,852;    0,277;    1,591
270,592; 4692,396;   -0,632;   -0,500
271,189; 4833,626;    0,186;    0,409
271,786; 4898,022;   -0,632;    1,227
272,383; 4896,049;   -1,087;    0,227
272,980; 4930,026;    0,277;    0,318
273,577; 5220,436;    0,004;    1,227
274,174; 4856,477;    0,822;    2,591
274,771; 4843,842;   -0,814;   -0,773
275,367; 5077,000;    2,277;    1,409
275,964; 5027,008;    0,731;   -0,500
276,561; 5058,423;    1,549;   -1,045
277,158; 5153,355;    0,095;   -1,773
277,755; 5292,712;    2,185;    0,409
278,351; 4791,726;   -0,451;   -1,500
278,948; 5035,161;   -0,815;    0,045
279,545; 4987,952;   -1,360;    2,318
280,141; 5542,415;   -1,723;   -2,045
280,738; 5347,970;   -0,451;   -0,136
281,334; 5399,965;   -1,633;    0,591
281,931; 4954,240;   -0,087;   -1,318
282,528; 5083,083;    0,822;   -0,500
283,124; 5621,507;   -1,087;   -0,500
283,721; 5461,950;   -0,451;    1,409
284,317; 5301,269;    0,185;    2,500
284,913; 5731,162;   -1,360;    0,591
285,510; 5936,343;    0,640;   -0,318
286,106; 5920,651;   -2,269;   -0,955
286,703; 5482,192;   -0,360;    1,955
287,299; 5636,618;   -1,451;   -0,591
287,895; 5787,677;    0,822;   -1,045
288,491; 6170,874;    0,186;    2,136
289,088; 6028,775;   -2,360;    2,409
289,684; 6050,933;   -1,723;    1,500
290,280; 6074,198;    0,368;    0,682
290,876; 6114,829;    1,822;    5,500
291,472; 6044,470;    1,276;    2,227
292,068; 6122,159;    1,367;    0,227
292,665; 5831,254;    2,095;    0,773
293,261; 5638,680;    0,276;    2,136
293,857; 5912,598;    2,913;    2,136
294,453; 5821,492;    3,550;    0,955
295,049; 5767,286;   -0,268;    1,955
295,644; 5804,016;    0,095;    0,136
296,240; 5688,125;   -0,905;   -0,136
296,836; 5779,623;   -0,995;    0,318
297,432; 6000,616;    1,096;   -0,500
298,028; 6072,210;    0,732;    0,773
298,624; 6281,658;    1,459;    1,864
299,220; 6419,437;    2,368;    0,591
299,815; 6148,899;    1,005;   -0,409
300,411; 6060,467;    0,914;    1,773
301,007; 6073,720;    1,368;    0,227
301,602; 6023,743;   -0,541;   -2,318
302,198; 6161,178;    0,732;   -0,773
302,794; 6401,286;    1,187;   -0,500
303,389; 6446,140;   -1,177;    1,045
303,985; 6505,969;    0,550;    1,409
304,580; 6519,759;    1,459;    1,591
305,176; 6474,443;   -3,086;    0,136
305,771; 6366,392;   -1,268;   -1,227
306,367; 6447,874;    4,095;    0,136
306,962; 6607,471;    0,641;    1,500
307,558; 6335,331;   -0,450;    0,136
308,153; 6256,243;    1,095;   -1,136
308,748; 6423,875;   -0,814;    1,682
309,344; 6498,262;   -0,632;   -1,318
309,939; 6603,271;   -1,905;   -1,318
310,534; 6739,403;   -0,086;   -1,682
311,130; 6605,541;    0,459;   -2,500
311,725; 6386,302;    1,004;   -0,500
312,320; 6714,319;    2,459;    0,045
312,915; 6642,112;    1,459;   -1,045
313,510; 6714,581;    1,550;   -0,500
314,105; 7038,010;    1,096;    1,409
314,700; 6521,134;   -3,086;   -1,045
315,295; 6288,578;   -0,904;    0,045
315,890; 5986,144;    1,277;    0,864
316,485; 6208,720;   -0,359;   -0,318
317,080; 6325,070;   -3,086;    1,591
317,675; 6698,573;    2,005;   -0,682
318,270; 6385,540;    5,550;    3,318
318,865; 6387,740;    3,278;    3,045
319,460; 6221,174;   -0,904;    0,591
320,055; 6380,610;   -0,541;   -1,227
320,650; 6144,678;   -1,995;   -0,591
321,244; 6182,790;   -0,177;   -1,409
321,839; 6897,352;   -1,541;   -0,227
322,434; 6778,409;   -1,086;   -1,591
323,029; 6537,108;    1,732;    1,591
323,623; 6410,875;    1,550;    0,773
324,218; 6306,692;    2,368;    1,409
324,812; 6229,722;    1,096;    1,591
325,407; 6098,446;   -0,814;    2,045
326,002; 6045,294;    0,277;   -0,409
326,596; 6271,281;    0,914;    1,318
327,191; 6388,660;    0,823;   -1,045
327,785; 6110,099;   -0,813;   -0,227
328,379; 6300,138;    1,368;    0,136
328,974; 6075,253;    0,914;   -3,955
329,568; 6336,819;    0,186;   -2,409
330,163; 6233,004;    2,096;    1,045
330,757; 6470,186;    2,459;    1,591
331,351; 5957,686;    0,459;    0,682
331,945; 6244,123;    0,914;    1,409
332,540; 5998,486;   -1,723;   -0,591
333,134; 6072,488;   -1,086;    0,773
333,728; 6179,189;    0,005;    0,318
334,322; 6433,654;   -1,177;   -0,864
334,916; 5894,533;    0,277;    0,955
335,510; 6183,929;   -0,450;   -0,136
336,105; 6400,387;   -1,086;    1,591
336,699; 6145,521;   -1,086;    0,591
337,293; 6111,819;   -1,723;    0,318
337,887; 6178,525;   -2,723;    1,955
338,481; 6260,801;    0,459;    0,591
339,074; 6451,734;   -0,359;    2,682
339,668; 6329,166;   -1,632;    1,227
340,262; 6649,403;    1,732;    3,227
340,856; 6158,051;    1,822;   -0,682
341,450; 5684,224;    1,004;    1,864
342,044; 6303,001;    1,459;    0,136
342,637; 6175,400;    0,913;   -2,136
343,231; 6098,753;   -2,360;    0,682
343,825; 6011,540;   -1,086;   -0,591
344,419; 6028,103;   -1,995;    0,500
345,012; 6092,748;    2,459;    4,045
345,606; 6009,199;    4,641;    1,591
346,199; 5854,282;   -1,813;   -0,227
346,793; 5601,805;    1,914;    2,045
347,386; 5708,171;   -0,813;   -1,136
347,980; 5664,233;   -0,268;   -0,045
348,573; 5593,868;    2,278;    0,409
349,167; 5446,995;    5,278;    4,773
349,760; 5736,891;    2,914;    2,682
350,354; 5648,422;   -0,813;    1,136
350,947; 5491,603;    1,096;    1,682
351,540; 5286,209;   -0,358;   -1,409
352,134; 5208,552;    1,096;    1,136
352,727; 5281,780;   -0,086;    1,136
353,320; 5179,575;    0,005;    0,591
353,913; 5037,488;   -1,995;    1,864
354,507; 5211,577;    0,823;   -1,227
355,100; 5256,779;    0,460;    0,864
355,693; 4857,918;    2,005;    2,409
356,286; 4815,570;    0,823;    2,773
356,879; 5046,400;   -0,722;    1,227
357,472; 4752,732;   -0,904;    1,500
358,065; 4952,913;   -0,722;    2,500
358,658; 4893,691;   -0,540;    2,318
359,251; 4611,018;   -1,631;   -0,591
359,844; 4341,060;   -1,904;   -1,136
360,437; 4540,081;   -2,995;    0,045
361,030; 4718,085;    1,369;   -0,682
361,623; 4420,245;    2,824;    0,318
362,215; 4473,266;   -0,086;    2,045
362,808; 4368,427;   -2,358;   -1,682
363,401; 4518,005;   -2,449;    0,136
363,994; 4432,238;   -0,631;   -1,500
364,586; 4341,526;    0,824;   -1,500
365,179; 4434,702;   -0,449;   -1,136
365,772; 4049,874;   -1,995;    2,045
366,364; 4263,723;    1,915;   -3,227
366,957; 4452,210;    2,279;   -0,045
367,549; 4411,002;    2,188;   -0,864
368,142; 4200,555;    1,825;   -1,500
368,734; 4344,505;    0,734;   -2,136
369,327; 4318,129;    1,643;   -0,500
369,919; 4258,352;   -1,538;    0,409
370,512; 4209,810;   -1,083;   -0,500
371,104; 4062,832;   -0,901;    1,591
371,696; 4230,743;    1,191;   -0,955
372,289; 4207,885;    0,373;    1,136
372,881; 4300,679;   -2,080;    1,318
373,473; 4221,036;   -2,170;    1,136
374,066; 4130,529;   -0,169;    0,500
374,658; 4035,657;    0,378;    1,136
375,250; 4252,582;    0,653;   -1,409
375,842; 4186,134;    0,473;   -0,045
376,434; 4074,973;   -0,435;   -0,409
377,026; 4474,622;    0,204;   -2,500
377,618; 4384,183;   -0,158;   -0,682
378,210; 4296,571;   -0,338;   -1,955
378,802; 4132,671;    0,754;   -0,591
379,394; 4238,392;    1,846;    0,682
379,986; 4578,545;    1,393;   -0,955
380,578; 4617,585;   -0,153;    0,773
381,170; 4227,541;   -0,972;    0,045
381,762; 4153,427;    0,755;    1,409
382,354; 4276,786;   -0,065;   -1,318
382,945; 4352,751;   -2,976;    0,318
383,537; 4477,866;   -2,705;   -1,955
384,129; 4504,777;   -2,160;   -1,136
384,721; 4601,880;   -0,252;    0,955
385,312; 4527,728;   -0,161;   -0,955
385,904; 4678,077;   -2,706;    1,591
386,496; 4180,343;   -0,979;    1,045
387,087; 4310,835;    1,022;    2,500
387,679; 4297,463;   -1,160;    0,045
388,270; 4420,343;    2,840;    2,045
388,862; 4454,526;    1,295;   -0,318
389,453; 4332,802;   -0,887;    1,045
390,045; 4558,323;   -0,705;   -2,682
390,636; 4515,162;    0,204;   -0,591
391,227; 4400,078;   -0,523;   -0,045
391,819; 4508,764;    0,204;    0,773
392,410; 4572,387;    1,022;    0,045
393,001; 4532,097;   -0,979;   -1,591
393,593; 4712,752;    1,930;   -0,045
394,184; 4616,060;    1,385;   -0,409
394,775; 4455,338;    1,839;    2,136
395,366; 4674,435;    1,385;    0,773
395,957; 4650,010;    0,113;    0,136
396,548; 4839,620;   -0,342;    2,682
397,139; 5095,542;   -2,433;    0,591
397,730; 4872,993;   -1,888;    0,955
398,321; 4925,731;   -1,252;    0,955
398,912; 4927,516;   -0,615;    0,136
399,503; 5048,850;   -3,524;   -1,409
400,094; 4647,396;    0,294;    1,682
400,685; 4529,011;   -0,433;    0,045
401,276; 4550,977;    0,930;   -0,955
401,867; 4776,898;   -0,888;    0,773
402,458; 4843,899;   -2,251;   -2,318
403,048; 4860,769;    1,112;    0,591
403,639; 4551,342;    0,840;    0,864
404,230; 4841,756;    2,476;    0,318
404,821; 4796,032;   -0,615;    0,045
405,411; 4868,904;    1,203;   -2,591
406,002; 4555,483;   -1,252;   -1,136
406,592; 4550,475;    2,294;    0,045
407,183; 4711,707;    0,566;   -1,500
407,774; 4633,468;    3,475;   -0,136
408,364; 4865,156;    0,930;    0,409
408,954; 4609,747;    0,384;    1,227
409,545; 4655,075;    1,021;    1,045
410,135; 4275,921;    1,293;    0,500
410,726; 4408,292;    1,838;    0,318
411,316; 4725,298;    0,111;    0,773
411,906; 4451,824;   -0,253;   -0,409
412,497; 4106,533;   -1,070;   -0,045
413,087; 4537,817;   -1,980;   -0,227
413,677; 4833,134;   -0,707;    3,864
414,267; 4702,639;    0,656;    1,409
414,857; 4660,164;   -2,980;    4,227
415,448; 4893,567;    0,839;    0,500
416,038; 4716,316;    0,020;   -0,591
416,628; 4645,735;   -0,889;    0,409
417,218; 4364,361;    0,565;    3,318
417,808; 4584,978;    0,202;   -0,409
418,398; 4816,892;    0,020;    2,682
418,988; 4788,685;    2,020;    0,591
419,578; 4946,727;   -0,707;    1,409
420,168; 5216,151;   -1,343;   -0,955
420,757; 4926,682;   -1,343;   -1,500
421,347; 4632,187;    0,111;   -0,227
421,937; 4760,630;    2,292;    1,409
422,527; 4786,117;    0,838;   -0,773
423,116; 4649,753;   -0,253;   -0,045
423,706; 4867,034;   -1,889;    0,318
424,296; 4800,980;    1,384;    0,682
424,885; 5155,253;   -0,071;   -3,045
425,475; 5354,430;    1,474;   -2,864
426,065; 5285,764;   -0,980;   -0,318
426,654; 5014,144;   -0,435;   -0,318
427,244; 5173,562;    0,020;    1,409
427,833; 4791,691;    1,383;   -0,500
428,423; 5031,323;   -0,526;    1,136
429,012; 5596,642;   -0,344;   -1,136
429,601; 5247,316;   -1,344;    0,136
430,191; 5388,912;    1,292;    4,318
430,780; 5085,626;   -0,344;   -0,409
431,369; 5118,843;    0,746;   -0,045
431,959; 5580,320;   -1,254;    0,500
432,548; 5381,743;   -1,163;   -0,045
433,137; 5420,521;   -1,254;   -1,318
433,726; 5828,324;    0,292;    0,500
434,315; 5427,406;   -0,526;    2,409
434,905; 5485,599;   -1,254;    1,409
435,494; 5474,721;    0,746;    0,955
436,083; 5769,935;   -0,981;   -0,955
436,672; 5663,713;    0,110;    0,500
437,261; 5403,554;    0,292;   -1,955
437,850; 5536,261;    1,383;    0,682
438,439; 5510,461;    3,291;    1,955
439,027; 5423,586;    3,655;    1,773
439,616; 5649,785;    2,927;    1,227
440,205; 5488,931;    0,200;   -2,136
440,794; 5476,602;    2,109;   -0,045
441,383; 5649,842;   -1,346;   -0,591
441,971; 5523,007;   -2,436;    0,591
442,560; 5386,223;    0,563;   -1,773
443,149; 5196,666;    0,379;   -1,318
443,737; 5354,659;   -0,074;   -2,318
444,326; 5537,168;    0,018;    0,318
444,915; 5576,466;   -1,982;    0,864
445,503; 5824,670;   -2,891;   -0,318
446,092; 5366,613;    0,382;    2,136
446,680; 5780,062;    0,382;    0,318
447,269; 5877,872;   -0,346;   -0,318
447,857; 5696,684;    0,018;   -1,773
448,445; 5796,578;    0,563;    1,318
449,034; 5988,441;   -1,528;   -1,136
449,622; 6052,058;   -1,073;    3,500
450,210; 5601,899;    2,017;    2,227
450,799; 5991,860;    0,290;   -0,591
451,387; 5912,009;    1,381;   -0,591
451,975; 5664,395;    2,654;    0,864
452,563; 5787,794;    3,472;    2,318
453,151; 5777,258;   -0,528;   -1,227
453,739; 5699,293;   -1,347;    0,136
454,328; 5646,237;    2,381;   -2,136
454,916; 5442,692;    2,562;   -0,136
455,504; 5573,812;    1,017;    1,227
456,092; 5700,077;    0,017;   -1,591
456,679; 5637,452;    1,472;    0,682
457,267; 5778,536;    4,017;    1,045
457,855; 5751,745;    1,017;    1,409
458,443; 5494,209;   -0,165;    1,682
459,031; 5720,214;    0,108;    2,409
459,619; 6030,703;   -1,801;    2,864
460,206; 6032,470;    0,835;    2,045
460,794; 6118,326;   -2,983;   -0,227
461,382; 6304,886;   -0,529;   -0,864
461,970; 6007,111;    1,198;    1,864
462,557; 6059,899;   -0,711;   -0,682
463,145; 6205,806;   -3,165;   -1,682
463,732; 6291,304;    2,016;   -1,045
464,320; 6169,793;   -0,075;   -3,045
464,907; 5976,936;    2,743;   -0,773
465,495; 5865,751;    0,743;   -1,227
466,082; 5990,782;   -1,984;   -0,045
466,670; 5868,981;   -2,529;    1,227
467,257; 6227,614;   -1,711;    2,045
467,844; 6390,290;   -0,075;    0,045
468,432; 6410,694;    0,834;    3,500
469,019; 6063,061;    0,925;   -1,773
469,606; 6404,242;    0,470;    3,682
470,193; 6286,370;   -1,439;    0,227
470,780; 5991,883;   -2,075;    0,864
471,368; 6247,119;   -1,257;   -0,773
471,955; 6084,649;    1,379;   -0,682
472,542; 5827,556;    0,652;   -1,136
473,129; 5998,242;   -0,166;    0,136
473,716; 5808,347;    1,470;    0,591
474,303; 5941,583;    0,652;   -0,864
474,890; 6129,282;   -1,439;   -0,500
475,477; 6212,836;   -1,621;    0,409
476,064; 6098,027;    1,106;   -1,591
476,650; 5990,417;    0,288;    0,318
477,237; 5887,326;   -0,258;    0,955
477,824; 6029,875;   -1,076;    0,864
478,411; 6020,495;   -1,894;   -0,318
478,997; 6162,887;    0,560;   -0,773
479,584; 6189,217;    1,196;   -0,409
480,171; 6774,803;   -0,440;   -0,773
480,757; 6520,600;    2,651;    0,773
481,344; 6706,924;    0,469;    0,409
481,931; 6263,673;    1,105;    1,045
482,517; 7019,848;   -1,258;    0,318
483,104; 7362,920;    1,106;    2,864
483,690; 7510,774;   -1,804;    0,045
484,276; 7656,755;   -0,895;    0,227
484,863; 7471,995;    2,469;    1,136
485,449; 7908,422;   -0,077;    0,318
486,035; 7886,463;   -1,986;   -0,136
486,622; 8235,488;   -0,895;    0,045
487,208; 8153,568;    1,378;    1,500
487,794; 8060,786;    0,741;    0,318
488,380; 8140,002;    0,105;   -1,409
488,967; 8160,916;   -1,168;   -0,409
489,553; 8231,327;   -1,895;   -1,409
490,139; 8398,993;    1,559;    0,773
490,725; 8023,265;    0,741;   -0,227
491,311; 7759,787;    3,287;    3,045
491,897; 7237,641;   -0,986;    1,500
492,483; 7217,608;    0,105;    1,227
493,069; 7296,452;    3,923;    0,864
493,655; 7126,306;    1,650;    0,682
494,241; 7078,738;    1,377;   -0,955
494,826; 7359,528;    0,287;   -1,045
495,412; 6908,734;    2,559;   -0,682
495,998; 7076,790;   -0,805;   -0,318
496,584; 7100,145;    0,377;    1,045
497,169; 7068,190;    1,014;   -0,682
497,755; 7052,227;    0,650;    1,227
498,341; 7545,664;    0,559;    0,318
498,926; 7197,434;    1,832;    1,955
499,512; 7295,906;    1,286;    2,955
500,097; 7318,626;    0,195;   -0,318
500,683; 7295,211;   -0,350;    2,136
501,268; 7574,471;   -0,169;   -0,955
501,854; 7404,407;   -0,169;    1,227
502,439; 7344,707;   -0,624;   -1,773
503,024; 7455,326;    0,195;    0,500
503,610; 7501,042;   -0,078;   -0,682
504,195; 7471,680;    0,558;    1,955
504,780; 7599,579;    2,922;    1,227
505,366; 7519,690;    3,013;    2,864
505,951; 7296,947;    0,740;    1,045
506,536; 7317,628;   -3,260;   -3,682
507,121; 7279,874;    0,285;   -0,318
507,706; 7714,546;    2,376;    1,045
508,291; 7947,565;    2,649;    1,136
508,876; 7521,117;   -0,988;    2,591
509,461; 7112,324;   -0,169;   -0,773
510,046; 7442,240;    0,194;    0,318
510,631; 7628,373;   -0,351;   -0,773
511,216; 7374,999;    2,467;   -0,500
511,801; 7727,003;   -0,442;    2,591
512,386; 7895,201;    0,740;    0,500
512,971; 7819,774;   -2,988;    0,955
513,555; 7498,374;   -0,897;   -1,500
514,140; 8109,450;   -0,442;   -3,136
514,725; 8067,197;   -0,715;   -1,136
515,309; 8167,399;   -0,533;    0,318
515,894; 7780,303;   -0,624;   -2,227
516,479; 8149,754;   -0,624;   -0,955
517,063; 7930,739;    0,376;    1,227
517,648; 8078,029;    1,012;   -1,136
518,232; 7679,146;   -0,261;   -1,409
518,817; 8017,448;   -0,079;    1,682
519,401; 8265,899;    2,194;    0,591
519,985; 7798,774;    1,103;    1,136
520,570; 7710,284;    0,830;   -1,955
521,154; 7950,000;    2,102;    0,591
521,738; 8126,482;   -2,352;    2,409
522,323; 8588,293;   -0,170;    1,682
522,907; 8307,968;    0,466;   -0,136
523,491; 8099,458;    0,557;    0,955
524,075; 8099,488;    2,284;    0,591
524,659; 8191,372;    1,466;    0,591
525,243; 7805,231;    1,739;    0,409
525,827; 7957,263;    0,648;   -0,045
526,411; 8593,099;   -1,989;   -0,136
526,995; 8770,617;   -0,352;    1,409
527,579; 8429,660;   -0,443;   -1,045
528,163; 8667,661;    0,375;   -1,500
528,747; 8621,662;    2,466;   -0,773
529,331; 8834,597;   -0,080;   -1,409
529,915; 8956,830;    1,738;    0,955
530,499; 8914,624;   -0,807;    1,227
531,082; 8708,151;   -0,534;    1,591
531,666; 8265,295;    1,374;    0,773
532,250; 8765,601;    1,284;    2,682
532,833; 8988,999;    0,920;    2,773
533,417; 8876,259;   -1,807;    0,864
534,001; 8804,205;    1,647;   -0,318
534,584; 9390,658;    0,374;    0,500
535,168; 9258,059;    0,465;    1,409
535,751; 9290,573;    0,647;    0,045
536,334; 8773,406;   -0,898;   -0,409
536,918; 9299,395;    0,011;    1,591
537,501; 9344,954;   -0,899;    1,318
538,085; 9343,007;   -0,444;    1,045
538,668; 9398,945;    0,829;    2,409
539,251; 9709,248;    1,829;    3,773
539,834; 9747,776;    0,101;    0,773
540,418; 9679,555;   -1,990;    4,318
541,001; 9716,406;   -0,990;    1,773
541,584; 9669,967;    2,101;    2,227
542,167; 9437,778;    1,374;    2,955
542,750; 9500,817;    1,919;   -0,773
543,333; 9128,819;    0,555;    2,136
543,916; 9756,705;    0,192;    2,500
544,499;10140,950;   -1,354;    0,227
545,082;10197,234;    1,374;    3,591
545,665;10298,588;    1,919;    1,500
546,248;10518,728;    1,010;   -0,318
546,830;10252,978;   -0,445;    1,955
547,413;10562,892;    1,010;   -0,773
547,996;11008,537;    0,555;    0,500
548,579;10806,652;    0,919;    0,955
549,161;10633,118;    1,828;    2,682
549,744;10398,689;   -0,809;    0,409
550,326;10801,561;   -0,809;   -1,136
550,909;10658,914;    2,737;    0,591
551,492;11008,854;   -0,263;    0,227
552,074;10799,244;   -0,173;   -1,318
552,657;11265,202;    2,373;    0,045
553,239;11101,382;   -0,173;   -0,773
553,821;11032,207;   -1,082;    1,045
554,404;10596,105;    1,282;    1,136
554,986;10902,520;    0,464;    1,045
555,568;11351,245;    1,191;   -0,955
556,151;10758,911;    1,191;   -0,227
556,733;10922,794;   -0,264;   -0,864
557,315;11254,384;    0,100;    0,500
557,897;11005,706;    0,554;   -0,500
558,479;11137,875;   -1,991;    1,318
559,061;11272,047;   -0,719;   -0,864
559,643;11532,646;   -0,264;    0,045
560,225;11781,438;    1,645;    2,864
560,807;11774,282;    0,918;    0,318
561,389;11407,056;    0,554;    2,318
561,971;11945,353;    0,463;    2,136
562,553;11789,780;   -1,628;    1,591
563,135;11898,860;   -0,537;    1,136
563,717;11592,218;    3,372;    1,136
564,298;12060,239;    3,645;   -0,045
564,880;11778,237;    0,645;   -1,409
565,462;11923,964;    0,645;    1,318
566,043;12836,417;   -0,446;    2,318
566,625;12406,072;    1,918;    1,227
567,207;12234,739;    1,099;    1,682
567,788;13021,828;   -1,264;    1,500
568,370;13623,433;    1,917;   -0,500
568,951;13358,947;    0,190;    0,227
569,533;13994,992;   -0,628;   -0,500
570,114;14322,820;   -0,446;    0,682
570,695;14656,735;   -0,174;   -1,318
571,277;14820,240;   -0,265;   -1,682
571,858;15356,359;    2,008;   -1,136
572,439;15968,757;    1,554;   -1,045
573,021;16029,346;    2,099;   -2,773
573,602;16354,859;   -1,265;    0,318
574,183;16999,958;   -2,083;    2,227
574,764;17012,080;   -1,629;    0,409
575,345;17290,695;    0,917;   -0,136
575,926;17722,794;   -0,356;    0,136
576,507;17707,059;    1,099;   -0,227
577,088;18523,217;    3,099;    1,682
577,669;18518,932;    0,735;    1,955
578,250;19035,049;    0,644;   -1,045
578,831;19419,032;   -1,356;   -2,227
579,412;19501,507;   -0,810;    0,955
579,993;20280,973;    1,008;    0,227
580,573;20547,524;   -0,629;   -0,955
581,154;19570,574;    0,735;   -0,591
581,735;20322,108;    0,644;    0,773
582,315;19846,381;   -0,629;    2,136
582,896;20072,353;   -0,174;    1,227
583,477;19695,091;    0,189;    1,227
584,057;19908,313;    0,553;    0,955
584,638;20137,882;    2,553;    2,318
585,218;20178,895;   -0,538;    2,682
585,799;20276,522;    0,281;   -0,227
586,379;20287,126;    0,372;    1,591
586,959;19433,006;    0,735;    0,318
587,540;18997,379;   -0,629;    2,227
588,120;18723,066;    1,007;   -0,045
588,700;18012,334;    2,553;    2,136
589,281;18348,203;    0,462;   -0,955
589,861;18264,571;    0,099;   -1,682
590,441;18095,075;    2,371;   -2,682
591,021;17311,446;   -0,265;   -2,591
591,601;17604,280;   -0,537;    0,500
592,181;17683,651;   -0,719;   -0,773
592,761;17128,750;    0,007;    1,409
593,341;17180,637;   -0,901;    0,045
593,921;17184,920;   -0,265;    1,591
594,501;17095,212;   -0,538;    1,318
595,081;16947,254;    0,917;   -0,318
595,661;17280,208;   -1,447;    0,955
596,240;17725,304;   -0,537;    0,136
596,820;17301,407;    0,372;    1,955
597,400;17321,470;    2,008;    0,773
597,980;17575,840;    2,008;    1,045
598,559;17630,252;    2,735;   -0,227
599,139;17464,050;   -0,174;   -1,227
599,718;17299,959;   -0,174;   -0,409
600,298;17549,458;    0,735;    0,682
600,877;17813,420;    2,917;    1,409
601,457;18044,069;    2,281;    1,136
602,036;18000,207;    0,190;    2,045
602,616;18089,040;    0,644;    1,682
603,195;18397,360;   -0,355;    3,500
603,774;17944,407;   -0,901;    2,045
604,354;17895,255;    0,826;   -0,500
604,933;17518,244;    0,463;    1,864
605,512;17630,902;    3,554;    0,591
606,091;17761,738;   -0,537;    3,773
606,671;18461,208;    0,281;    0,773
607,250;17673,444;    1,644;    3,136
607,829;17844,051;    2,372;    3,227
608,408;17731,660;    1,190;    2,591
608,987;16987,598;    1,281;    3,409
609,566;17176,280;   -1,265;   -2,500
610,145;17337,045;   -1,082;    0,682
610,723;17705,540;    4,372;    6,864
611,302;17066,764;   -0,446;    1,682
611,881;16649,434;    5,008;   11,227
612,460;17363,446;    1,645;    3,955
613,039;17776,567;   -0,082;    2,045
613,617;16685,820;    1,736;    4,773
614,196;16831,742;    1,099;    1,227
614,775;17155,944;    1,009;    2,409
615,353;17114,577;    0,736;    0,864
615,932;16953,407;    0,100;    2,409
616,510;17457,689;    0,554;    0,591
617,089;17099,691;    7,100;   17,591
617,667;16938,661;    2,372;    6,136
618,246;16790,907;   -1,537;    1,318
618,824;16951,536;   -3,355;   -0,955
619,402;16550,245;   -2,900;   -1,773
619,981;16989,395;   -0,173;   -1,045
620,559;16906,537;    0,009;    1,682
621,137;16546,493;   -0,718;    1,864
621,715;16482,625;   -1,173;   -0,682
622,293;16473,124;   -0,537;   -0,773
622,871;16911,111;   -0,718;    0,500
623,450;16620,809;    0,373;   -0,864
624,028;16543,762;    0,191;   -0,955
624,606;16184,808;   -1,718;    1,682
625,183;16510,679;   -1,536;   -1,136
625,761;16269,152;    1,009;    1,136
626,339;16545,055;    1,373;    2,591
626,917;16842,177;   -0,172;   -0,045
627,495;16879,055;   -0,354;    1,318
628,073;16419,902;   -0,263;    2,864
628,650;16189,524;    0,100;    2,136
629,228;16566,362;    0,373;    4,409
629,806;16060,760;    2,282;    1,136
630,383;16287,778;    1,464;   -0,318
630,961;16196,693;    2,555;   -0,955
631,539;15952,063;    2,464;    0,227
632,116;15448,875;   11,373;   15,409
632,694;15934,923;    2,555;    6,500
633,271;16119,266;    0,828;    2,682
633,848;16123,280;    1,828;    2,045
634,426;16111,064;   -1,081;    1,773
635,003;15424,342;    1,101;   -0,409
635,580;15626,143;    1,192;    3,682
636,158;16092,056;    3,737;    1,227
636,735;16092,472;    0,555;   -0,500
637,312;16167,709;   -0,809;   -0,682
637,889;16241,405;   -4,354;   -0,682
638,466;15881,800;   -3,990;   -0,409
639,043;15889,451;    2,101;   -1,136
639,620;16105,991;   -2,262;   -0,955
640,197;16363,740;    1,100;    1,682
640,774;16531,284;   -0,172;    1,136
641,351;16817,102;    0,737;    1,136
641,928;16426,010;   -0,627;    1,409
642,505;16124,009;    0,828;   -0,500
643,082;16236,553;   -1,718;    1,227
643,658;15422,279;   -0,718;    1,500
644,235;16023,460;    1,191;    2,500
644,812;16229,187;    1,918;    0,773
645,388;16011,004;   -0,991;    1,409
645,965;16057,275;   -0,809;    1,682
646,542;16134,365;   -1,445;   -0,227
647,118;16224,728;    1,009;   -0,955
647,695;16416,091;   -0,263;    1,136
648,271;16326,453;   -0,536;    0,500
648,848;16527,180;    0,736;    2,227
649,424;16490,179;    0,827;    1,318
650,000;16171,087;   -0,354;   -1,045
650,577;16079,722;   -0,627;   -0,955
651,153;16453,812;   -1,809;    0,955
651,729;17147,084;    1,191;    0,864
652,305;17236,628;    0,645;    2,773
652,881;20013,082;   -0,082;    1,136
653,458;24548,444;    1,100;    0,227
654,034;27032,625;    0,282;    1,591
654,610;27978,897;    0,554;    0,773
655,186;28974,078;    0,645;    3,045
655,762;28626,168;   -0,991;    0,409
656,338;28584,621;    0,100;    0,136
656,913;29377,893;   -0,082;    0,409
657,489;28745,710;    0,827;   -0,318
658,065;28789,346;   -0,173;   -1,591
658,641;29427,617;   -0,900;   -0,864
659,217;28840,435;   -0,991;    0,409
659,792;28368,252;    0,645;   -0,409
660,368;28619,796;   -2,173;   -0,682
660,944;28678,613;   -2,082;    1,227
661,519;25643,340;   -0,628;    0,409
662,095;21740,157;   -1,719;    0,591
662,670;18633,065;    1,281;   -0,136
663,246;17928,155;    1,009;   -0,409
663,821;17465,790;    0,281;    1,682
664,396;16970,698;    0,009;    1,864
664,972;17197,243;    0,009;   -0,500
665,547;17475,242;    1,372;    0,136
666,122;17484,241;   -1,082;    0,318
666,698;17736,422;   -0,173;    0,318
667,273;17080,784;   -0,173;    0,136
667,848;17731,511;    2,372;    1,500
668,423;17593,419;    2,190;    2,318
668,998;17949,509;    2,827;   -0,682
669,573;18397,780;   -3,264;   -1,500
670,148;18308,688;   -1,446;   -0,682
670,723;18043,142;   -1,810;    0,318
671,298;18430,868;    2,372;    1,045
671,873;18470,049;   -0,082;   -0,136
672,448;18399,503;    0,645;    0,136
673,023;18695,593;   -1,992;   -0,227
673,597;19000,864;    0,827;    2,318
674,172;18833,682;   -0,355;    0,318
674,747;18387,771;    0,372;   -1,045
675,321;18159,589;   -0,628;    3,318
675,896;17818,588;    0,645;    1,045
676,471;18620,132;    2,645;    1,591
677,045;18407,040;   -1,264;    0,682
677,620;18409,221;    0,190;    1,136
678,194;18732,493;   -2,628;    1,136
678,769;18407,765;   -1,083;   -0,318
679,343;18635,036;   -0,628;    1,773
679,917;18521,035;   -1,446;    1,955
680,492;18504,489;    0,826;    3,227
681,066;18658,124;    3,372;    0,409
681,640;18717,669;    1,463;   -0,318
682,214;19430,031;    0,735;    0,500
682,788;19006,121;   -1,356;   -0,773
683,363;18835,847;   -1,810;    1,682
683,937;18584,210;   -1,719;   -0,318
684,511;19214,027;    0,463;   -0,591
685,085;18976,481;   -1,356;    0,318
685,659;18742,025;   -2,538;    0,864
686,232;19002,297;   -0,356;   -0,318
686,806;18800,478;   -0,901;    0,409
687,380;19368,295;   -0,174;    0,591
687,954;19541,658;   -1,174;    1,136
688,528;19212,657;   -0,719;    1,955
689,101;19912,565;   -3,992;    1,045
689,675;19539,382;   -0,356;   -0,136
690,249;18992,836;   -0,719;    0,409
690,822;19342,198;    0,280;    0,318
691,396;19442,652;   -0,265;    1,227
691,969;18966,014;    1,280;    0,136
692,543;19432,195;   -0,447;   -1,955
693,116;19114,376;   -0,265;   -1,409
693,690;19031,830;    0,099;    0,500
694,263;19501,738;   -1,083;    2,955
694,836;19478,282;    1,371;    3,591
695,410;18377,554;   -0,265;    1,773
695,983;18725,280;    0,189;    0,591
696,556;18746,279;   -0,447;   -1,045
697,129;19055,187;   -0,356;    1,409
697,703;18797,005;   -1,629;    1,955
698,276;18827,185;    1,462;   -0,773
698,849;18687,184;    1,280;    1,409
699,422;18978,365;   -1,083;    0,591
699,995;18768,182;    0,007;    0,136
700,568;19152,636;   -0,629;    3,045
701,140;19177,180;   -2,811;    1,682
701,713;19010,543;   -0,174;    2,409
702,286;18807,815;   -0,538;    0,864
702,859;18630,632;   -0,902;   -0,591
703,432;18019,358;    0,825;    0,682
704,004;18413,357;    0,462;    0,318
704,577;18332,538;   -0,629;    0,136
705,150;18779,901;    0,189;    2,500
705,722;18644,536;   -0,356;   -3,227
706,295;18485,262;   -0,175;   -0,591
706,867;18363,807;   -0,175;    1,955
707,440;18570,897;   -1,720;   -0,409
708,012;18771,805;    0,462;    0,591
708,584;18662,077;    2,462;    0,227
709,157;18959,076;    1,825;   -0,591
709,729;18708,075;    2,280;    2,045
710,301;19416,437;    0,734;    0,045
710,874;19410,982;   -1,447;   -0,227
711,446;18451,344;    0,371;    0,864
712,018;18381,343;    0,098;    0,500
712,590;18210,433;   -1,993;    1,682
713,162;18622,614;    0,825;    1,318
713,734;18872,522;    1,825;   -2,045
714,306;18837,885;   -1,902;   -0,409
714,878;17722,157;    0,825;    0,864
715,450;18443,974;    0,643;    0,864
716,022;18719,700;    1,552;    1,318
716,593;18872,517;    0,189;    0,591
717,165;18797,698;   -3,175;   -1,227
717,737;18648,606;    0,280;    0,409
718,309;18373,514;    0,280;   -0,045
718,880;18307,695;   -0,539;   -1,409
719,452;18512,694;   -0,175;   -1,591
720,024;18253,602;    0,734;   -0,591
720,595;18748,692;   -2,902;    0,955
721,167;18407,419;    0,370;   -2,045
721,738;18000,599;   -0,812;   -1,045
722,309;18019,962;   -0,993;   -1,227
722,881;17870,416;   -1,357;    0,773
723,452;18404,142;   -2,630;    2,864
724,023;18612,323;   -0,721;    2,682
724,595;18449,413;    0,007;    0,682
725,166;18187,866;    0,007;   -0,409
725,737;17960,229;    1,734;    0,227
726,308;18074,591;   -0,266;    0,318
726,879;18381,863;   -1,630;    1,227
727,450;18257,135;    0,552;   -0,045
728,021;18261,407;    3,097;    0,682
728,592;18127,769;    0,734;    0,500
729,163;18471,586;    0,643;   -0,136
729,734;18446,404;    0,188;   -0,227
730,305;18778,675;    1,734;    0,136
730,876;19119,856;    0,188;    2,955
731,447;18882,855;    2,188;    2,682
732,017;19054,400;    1,097;    1,864
732,588;18653,490;    0,734;    1,227
733,159;18783,489;    0,643;   -1,045
733,729;18642,579;    0,006;    0,409
734,300;18113,578;    0,915;    0,864
734,870;18530,667;    3,461;    0,591
735,441;18996,303;    0,370;   -0,591
736,011;18838,756;    0,643;   -1,591
736,582;18830,119;   -0,812;    0,045
737,152;18286,482;   -1,721;   -2,045
737,722;18760,844;   -0,267;   -0,682
738,293;18539,662;   -1,358;    1,318
738,863;18440,206;    2,461;    2,318
739,433;18350,569;    5,279;    0,318
740,003;18901,477;   -0,994;   -0,682
740,573;18413,839;    2,097;   -1,591
741,143;18421,111;   -1,085;    0,318
741,713;19075,928;    1,188;   -0,500
742,283;18856,109;    0,915;    1,591
742,853;18708,835;    1,915;    1,591
743,423;18243,653;    1,733;    0,045
743,993;18294,015;   -0,358;    1,500
744,563;17782,105;    0,097;   -0,864
745,133;17802,468;   -0,812;   -0,864
745,702;18396,012;   -0,267;    1,773
746,272;17721,011;   -0,176;    0,591
746,842;17594,919;   -1,358;   -0,591
747,411;17974,828;   -0,267;   -0,318
747,981;18090,645;    0,097;    0,500
748,551;18188,916;    2,278;   -1,045
749,120;18059,461;    0,642;   -0,227
749,690;18355,369;   -0,631;    2,409
750,259;18655,459;    1,369;    2,955
750,828;18526,731;    1,551;   -1,955
751,398;18779,548;    1,278;   -0,045
751,967;18402,729;    2,187;    0,409
752,536;18534,637;   -0,813;   -0,227
753,105;18944,545;    0,096;    0,227
753,675;18654,180;    0,096;    1,773
754,244;18618,088;   -0,904;    3,591
754,813;18711,451;    0,551;    1,227
755,382;18326,177;    0,460;    0,955
755,951;18757,540;    1,551;    3,682
756,520;18436,448;   -0,085;    1,864
757,089;18888,356;    0,278;    0,500
757,658;18969,537;    1,733;    1,227
758,227;18973,718;    1,096;    0,318
758,795;19227,535;    1,187;    1,136
759,364;19470,261;   -0,086;   -0,591
759,933;18596,988;   -1,176;   -0,045
760,501;18201,441;    0,733;   -1,318
761,070;18579,167;   -2,813;   -1,409
761,639;19232,985;   -1,904;    1,318
762,207;18617,438;    1,551;   -0,955
762,776;18560,892;    0,369;    0,864
763,344;18505,709;   -0,995;    0,591
763,913;17690,253;   -0,722;    1,409
764,481;18424,980;    1,005;   -0,136
765,049;18296,524;   -1,358;    1,409
765,618;18153,523;   -0,086;    0,318
766,186;18263,340;    0,278;    0,136
766,754;18447,430;    0,005;    1,864
767,322;17603,247;   -1,995;    0,409
767,890;17591,156;   -0,722;   -1,773
768,459;18040,700;   -2,177;   -0,318
769,027;18149,426;    1,641;    3,409
769,595;17257,516;    3,278;    2,591
770,163;17612,515;    3,823;    2,955
770,730;17484,787;    0,732;   -0,136
771,298;17376,150;    0,187;   -1,409
771,866;17466,149;   -1,541;    4,955
772,434;17716,875;   -0,631;   -1,864
773,002;17904,328;    0,005;    0,682
773,569;17619,964;    0,914;    1,682
774,137;17452,690;   -0,268;   -0,045
774,705;18156,325;    0,278;   -0,136
775,272;17733,052;    0,641;    0,682
775,840;17551,505;   -0,177;    2,682
776,407;17131,868;    0,277;    1,955
776,975;16757,867;   -0,632;    0,318
777,542;17677,230;   -1,086;   -0,045
778,110;17562,410;   -1,268;   -0,045
778,677;17218,682;   -2,359;   -0,864
779,244;17018,590;    2,186;    1,045
779,812;17126,317;    1,823;    0,864
780,379;17005,134;    0,005;    1,136
780,946;17203,496;    1,005;   -0,773
781,513;17479,404;   -1,450;    0,318
782,080;16921,131;   -0,086;    2,864
782,647;17549,493;   -0,268;    3,045
783,214;17245,765;   -0,177;    3,864
783,781;16880,128;   -0,723;   -0,682
784,348;16784,854;   -0,632;    1,500
784,915;17160,580;   -3,177;    0,318
785,482;16945,216;    1,368;    2,591
786,049;17346,851;    0,186;   -0,591
786,615;17483,305;    0,277;   -0,955
787,182;17213,395;    0,186;   -0,682
787,749;16966,303;   -2,814;    1,409
788,315;16364,665;   -1,632;   -0,409
788,882;16656,301;    1,550;   -1,227
789,448;17283,482;    1,732;   -0,955
790,015;17291,935;    1,095;    3,227
790,581;16887,661;    1,459;    0,227
791,148;16765,751;    0,641;    1,045
791,714;16955,023;   -0,541;    3,136
792,280;16712,567;    0,186;    1,591
792,847;16415,657;    0,550;    2,500
793,413;16813,111;   -0,269;   -0,318
793,979;16439,110;    3,459;   -1,318
794,545;16567,745;    4,459;    2,682
795,111;16039,926;    2,186;    1,318
795,678;16203,198;    0,731;   -1,682
796,244;15933,742;    3,368;    0,136
796,810;16366,832;    1,731;    0,773
797,375;16145,559;    0,549;   -2,136
797,941;16106,012;   -0,541;    0,591
798,507;16229,557;   -0,451;   -0,955
799,073;15873,192;   -0,360;    0,591
799,639;15958,827;   -2,632;    3,136
800,205;15994,645;    0,095;    2,682
800,770;15623,189;    0,640;    1,773
801,336;15635,006;    1,368;   -0,955
801,901;15452,732;    4,549;    3,136
802,467;15963,004;   -0,542;    2,045
803,033;15342,730;   -0,087;    0,864
803,598;15496,002;    1,913;   -1,045
804,163;15604,729;    1,095;   -0,318
804,729;15531,364;   -0,178;    1,136
805,294;15795,090;    0,822;    2,227
805,859;15616,635;    0,731;   -0,409
806,425;15246,725;    1,186;    2,682
806,990;14968,178;    2,186;    4,318
807,555;15349,359;   -1,451;    2,591
808,120;15329,540;    0,822;   -0,409
808,685;15370,175;    0,185;   -2,500
809,250;14941,992;    0,004;   -0,500
809,815;15146,173;    1,913;    0,682
810,380;15586,445;   -0,269;    1,591
810,945;16056,535;   -1,087;    2,045
811,510;15396,807;    2,094;    1,591
812,075;15120,624;   -0,633;   -1,409
812,640;15181,441;    2,003;    1,409
813,204;15243,804;    0,822;   -0,227
813,769;15675,257;    2,094;   -0,045
814,334;15166,711;    0,458;    0,864
814,898;15249,255;    0,367;    0,591
815,463;15102,163;    1,276;   -0,773
816,027;15108,344;   -0,724;   -2,318
816,592;15243,252;    0,640;   -2,045
817,156;14818,069;    2,094;    1,136
817,721;14727,159;    4,276;    2,318
818,285;14731,522;    2,912;    1,500
818,849;15258,703;   -1,451;    1,682
819,414;15174,338;   -0,269;    2,955
819,978;14837,519;   -1,269;    1,773
820,542;15366,791;    2,003;    0,500
821,106;15166,790;   -0,815;    0,682
821,670;15233,243;   -0,815;    2,591
822,234;15009,060;   -0,270;    1,409
822,798;14542,878;    0,003;    0,500
823,362;14563,058;   -0,633;    4,227
823,926;14064,239;    0,094;    1,136
824,490;14212,147;   -0,997;   -0,682
825,054;14602,419;   -0,088;   -1,136
825,618;14332,509;   -1,542;   -1,500
826,181;14270,690;    0,458;   -1,318
826,745;14235,507;    1,367;   -1,045
827,309;14592,870;    1,185;    1,318
827,872;14117,323;    1,367;    0,955
828,436;14978,959;    1,185;   -0,773
828,999;15119,867;   -0,997;    1,227
829,563;14154,139;   -0,179;    1,136
830,126;14009,501;   -0,179;   -0,591
830,690;14059,227;   -1,997;    2,864
831,253;13637,226;   -0,543;    2,227
831,816;13789,680;   -1,906;    0,500
832,380;13777,406;    0,185;    0,864
832,943;13995,951;   -1,361;   -0,500
833,506;13540,950;    2,639;   -1,227
834,069;14292,403;    3,912;   -0,955
834,632;14394,857;    1,730;    1,318
835,195;14339,220;    1,003;    0,955
835,758;13690,400;   -0,997;    1,955
836,321;13551,854;    0,730;   -1,045
836,884;13670,307;   -0,725;   -0,955
837,447;13703,397;   -2,816;    1,773
838,010;13982,487;    0,366;    3,227
838,573;14219,850;   -1,179;    0,773
839,135;14245,758;   -1,361;   -0,955
839,698;13770,393;    1,275;    0,409
840,261;13384,938;    1,003;   -0,227
840,823;13267,482;   -0,543;    0,864
841,386;13508,300;   -0,452;   -2,409
841,948;13440,480;   -1,361;    1,773
842,511;13237,570;    0,912;    1,682
843,073;13362,660;    1,912;    0,227
843,636;13188,023;   -0,361;   -0,227
844,198;13137,658;    0,911;    0,591
844,760;13329,112;    1,093;    1,955
845,322;12994,474;    0,548;    1,136
845,885;13340,292;    0,730;    0,591
846,447;13733,745;   -1,998;    0,227
847,009;13457,835;    1,911;   -0,682
847,571;13681,198;    0,820;   -2,045
848,133;13734,833;   -1,089;   -1,864
848,695;13574,923;   -0,543;    1,409
849,257;13243,195;   -1,089;   -1,682
849,819;13465,376;   -0,998;   -0,409
850,381;13491,647;   -0,725;   -0,864
850,942;13757,374;    1,093;   -0,591
851,504;13656,827;    1,184;    0,227
852,066;13754,826;    1,275;   -1,591
852,628;13384,552;   -0,180;    1,955
853,189;12943,188;    1,638;    2,682
853,751;13090,732;   -0,907;    1,409
854,312;12917,549;   -0,453;   -1,682
854,874;13391,094;   -2,089;   -0,773
855,435;13823,820;   -0,907;   -1,682
855,997;13989,274;   -1,816;   -0,136
856,558;13365,546;    0,366;    1,773
857,119;13450,454;    0,820;    2,864
857,681;13166,907;    0,002;    0,318
858,242;13220,088;    1,911;   -2,136
858,803;13670,632;    0,456;   -0,773
859,364;14191,995;    0,184;   -4,773
859,925;13619,812;   -2,453;   -0,955
860,486;13484,084;   -0,453;   -0,955
861,047;13271,083;   -0,544;   -1,227
861,608;13143,900;   -1,089;   -0,773
862,169;13319,354;    0,638;   -0,045
862,730;13062,444;    0,456;    1,409
863,291;13277,806;   -0,635;   -0,500
863,852;13608,805;   -0,635;    1,955
864,412;13172,350;   -0,271;   -0,864
864,973;11935,622;   -0,089;    0,500
865,534;11839,530;   -1,726;    0,227
866,094;13135,801;    1,820;    0,227
866,655;12849,255;    1,274;    3,318
867,215;13134,799;    0,274;    0,136
867,776;13029,708;    0,547;   -0,136
868,336;13095,252;   -1,453;    0,136
868,897;12703,978;    2,638;    1,682
869,457;12494,432;    1,365;    0,318
870,017;12709,158;    0,547;   -1,227
870,578;13190,975;   -0,817;    0,773
871,138;12830,065;   -2,089;   -0,955
871,698;12447,882;   -0,817;   -1,318
872,258;12354,972;   -0,453;   -2,864
872,818;12722,244;    2,729;    0,045
873,378;12740,607;    0,638;    1,045
873,938;12317,788;    0,547;    0,500
874,498;12617,241;    0,274;   -1,955
875,058;12558,513;    2,183;    1,773
875,618;12419,785;    1,910;   -2,682
876,177;12375,693;    1,274;    0,136
876,737;12087,146;   -0,090;    1,955
877,297;12133,418;    0,183;    1,955
877,856;12177,235;   -0,362;    0,318
878,416;12101,325;    1,183;   -0,136
878,976;12301,597;   -1,817;    0,409
879,535;12463,414;    0,092;    3,136
880,095;12271,231;   -0,544;    0,045
880,654;12400,503;   -1,090;    1,318
881,213;12521,138;    2,456;    1,500
881,773;12192,683;    2,637;    2,682
882,332;12541,955;    3,365;    5,136
882,891;12437,408;    3,092;    2,136
883,451;12811,407;   -1,272;    1,682
884,010;12297,224;   -2,908;   -0,409
884,569;12398,678;   -0,999;   -0,045
885,128;12539,131;    2,819;   -1,864
885,687;12609,312;    4,455;    0,682
886,246;12414,584;    1,455;    2,136
886,805;12197,128;    2,455;    2,045
887,364;12400,582;   -0,999;   -0,500
887,922;12731,581;   -1,181;    0,045
888,481;12306,580;   -1,545;    0,591
889,040;12572,579;    1,183;    2,136
889,599;13140,487;    2,455;    1,409
890,157;13220,122;    1,455;    2,409
890,716;12897,122;   -0,090;    0,227
891,274;12720,939;    0,092;   -1,136
891,833;13134,756;    1,546;    0,864
892,391;13037,573;   -0,454;    0,500
892,950;13124,936;    1,819;   -0,773
893,508;13458,117;    0,455;   -0,409
894,067;12872,116;    0,637;    0,136
894,625;12794,296;   -0,636;   -1,500
895,183;13016,023;   -0,363;   -0,682
895,741;12956,840;    1,728;   -1,773
896,299;12826,203;   -0,545;   -2,409
896,858;12986,292;    0,819;   -1,591
897,416;13147,837;    2,728;   -1,318
897,974;12926,200;    1,819;    0,318
898,532;13123,017;    6,091;    2,682
899,089;13037,016;    2,091;   -0,682
899,647;13108,106;   -1,454;    1,318
900,205;12893,559;    1,182;    1,045
900,763;13064,831;   -0,454;    0,227
901,321;13092,194;    2,364;   -1,409
901,878;12579,193;   -1,000;   -0,773
902,436;12516,010;   -1,363;    1,318
902,994;12980,554;    4,728;    3,682
903,551;12455,281;    0,728;    0,409
904,109;12828,552;    0,182;   -1,409
904,666;12508,188;    2,455;    1,045
905,224;12348,187;    0,182;   -0,409
905,781;12151,640;    0,727;   -0,318
906,338;12222,276;   -1,363;    1,045
906,895;12212,729;    0,637;    2,045
907,453;12166,728;    1,727;    1,136
908,010;12207,454;   -0,909;    0,409
908,567;11915,453;    1,273;    0,591
909,124;11469,998;    0,364;   -1,500
909,681;11556,179;   -2,909;    0,682
910,238;11729,087;    0,636;   -1,318
910,795;12093,268;   -0,273;   -1,136
911,352;11760,904;   -2,909;   -2,682
911,909;11289,540;   -1,364;   -0,864
912,466;11791,813;   -3,182;    1,500
913,022;11353,904;   -1,636;    0,500
913,579;11691,995;   -0,909;    2,045
914,136;11478,086;    1,636;    0,955
914,692;11858,813;    0,091;   -1,227
915,249;11470,359;    1,455;    0,409
915,806;11674,177;    0,182;    1,955
916,362;11576,268;    1,909;    1,864
916,918;11171,995;    2,000;    1,045
917,475;11168,813;   -1,182;    0,955
918,031;11257,086;    3,364;   -0,045
918,587;10807,359;   -0,909;   -0,318
919,144;11118,268;   -2,273;    0,227
919,700;11395,359;    1,727;    0,773
920,256;11022,449;    0,727;    0,045
920,812;10755,995;   -0,727;   -1,045
921,368;10819,722;   -1,727;   -1,045
921,924;10532,268;    0,182;   -0,136
922,480;10192,449;   -0,545;    1,227
923,036;10805,995;    1,273;    1,955
923,592;10818,177;    0,455;    0,318
924,148;10808,268;    0,455;   -0,955
924,704;10228,722;   -1,364;   -0,409
925,259;10552,268;   -0,273;    0,591
925,815;10374,904;    1,455;    0,500
926,371; 9985,177;    2,909;    1,409
926,926; 9930,268;    2,091;    0,591
927,482; 9689,813;   -1,364;    0,773
928,037; 9631,359;    0,909;    2,045
928,593; 9980,631;    1,636;    1,045
929,148; 9899,359;   -1,818;   -1,500
929,704; 9500,540;   -1,455;   -0,500
930,259; 9735,540;    0,091;   -0,136
930,814; 8945,359;   -0,818;    1,955
931,369; 8746,904;    1,091;   -0,773
931,925; 8694,086;   -0,091;    0,136
932,480; 8662,359;   -2,818;   -2,591
933,035; 8626,540;    0,545;   -0,318
933,590; 8463,813;    0,364;   -1,773
934,145; 8219,722;   -1,364;   -0,318
934,700; 8593,813;    0,455;   -0,591
935,255; 8496,177;   -0,091;    0,045
935,809; 7864,813;    3,182;    0,864
936,364; 7074,995;   -0,455;   -0,136
936,919; 7128,995;    0,455;   -1,773
937,474; 7104,722;    1,455;    0,136
938,028; 6909,177;   -1,636;    1,136
938,583; 6452,268;    1,818;    4,682
939,138; 6815,540;    2,091;    2,136
939,692; 6333,904;    1,636;   -1,136
940,247; 6066,268;   -0,727;   -1,045
940,801; 5655,086;   -0,636;    0,227
941,355; 5625,086;   -0,364;    2,591
941,910; 5337,540;   -0,273;   -2,136
942,464; 5501,086;   -0,818;   -0,318
943,018; 5336,359;    1,000;   -0,227
943,572; 5327,904;    2,545;   -0,682
944,126; 4758,177;    0,091;   -0,409
944,681; 4704,177;    3,091;    0,227
945,235; 4767,631;    1,000;   -0,591
945,789; 4781,359;    0,364;   -1,864
946,342; 4901,813;    0,455;   -0,591
946,896; 4803,722;   -2,273;    0,955
947,450; 4620,268;    1,545;   -0,227
948,004; 4837,722;    1,727;   -0,045
948,558; 4961,995;    0,273;   -0,864
949,111; 4969,995;   -0,273;   -0,318
949,665; 5002,995;    1,636;   -0,682
950,219; 4947,813;   -0,091;   -1,045
950,772; 5178,722;   -1,909;    1,864
951,326; 5134,177;    0,545;   -0,955
951,879; 5426,540;    0,727;   -2,318
952,433; 5525,995;    0,000;    2,227
952,986; 5474,540;    2,909;    0,682
953,539; 5534,359;   -0,273;    0,591
954,093; 5523,449;    0,545;   -1,318
954,646; 5749,813;    0,909;    1,318
955,199; 5641,631;    0,000;   -0,500
955,752; 5532,086;   -0,455;    1,773
956,305; 5651,268;   -0,091;    2,955
956,858; 5965,086;    0,818;   -0,318
957,411; 6272,904;   -0,545;    2,136
957,964; 6179,540;    1,364;    2,136
958,517; 6313,904;   -1,545;    3,136
959,070; 6136,449;   -0,455;    1,955
959,623; 6160,086;    1,091;    1,500
960,176; 5956,631;    1,727;    2,045
960,728; 6012,359;   -2,727;    0,773
961,281; 6167,086;    0,545;    0,500
961,834; 6356,359;   -0,909;    0,864
962,386; 6277,540;    1,727;    1,045
962,939; 6214,086;    0,364;   -0,318
963,491; 6520,086;    0,455;    1,136
964,043; 6385,086;    1,182;    2,409
964,596; 6578,995;   -1,000;    2,227
965,148; 6434,995;   -1,000;    1,773
965,700; 6340,449;    1,091;   -0,227
966,253; 6558,449;   -0,636;    0,318
966,805; 6300,904;   -2,273;    0,773
967,357; 6475,177;    1,091;   -1,500
967,909; 6394,722;    0,455;   -1,227
968,461; 6684,268;    0,545;    3,136
969,013; 6587,631;   -0,182;   -0,864
969,565; 6712,268;   -0,455;   -1,136
970,117; 6419,359;   -0,364;    1,045
970,669; 6498,540;    0,182;   -0,136
971,220; 6480,722;   -0,455;   -1,500
971,772; 6291,904;   -0,636;   -0,318
972,324; 6422,904;    0,091;   -0,500
972,876; 6425,995;    0,818;   -0,045
973,427; 6562,904;    1,909;   -1,045
973,979; 6492,995;   -0,727;   -2,500
974,530; 6761,722;    1,818;    1,318
975,082; 6768,722;   -0,545;    1,682
975,633; 6522,359;    1,091;    1,682
976,184; 6643,268;    0,909;    0,773
976,736; 6304,177;    0,091;    0,227
977,287; 5949,177;   -0,909;   -0,500
977,838; 6279,177;    0,909;   -0,318
978,389; 6368,813;   -1,000;   -0,500
978,940; 6223,449;    0,545;   -0,409
979,491; 6266,813;    0,091;   -0,500
980,042; 6177,722;    0,182;    3,045
980,593; 6289,722;   -2,545;    0,227
981,144; 6216,177;    2,545;   -0,500
981,695; 6068,813;    1,455;    1,500
982,246; 6061,995;   -0,273;    1,045
982,797; 6450,359;   -1,727;    0,682
983,347; 6541,904;    0,364;    0,591
983,898; 6684,086;    3,091;    0,409
984,449; 6307,631;    2,182;    0,773
984,999; 6388,268;    1,455;   -1,136
985,550; 5947,268;    0,182;   -0,318
986,100; 6055,268;   -0,455;   -0,318
986,651; 6076,995;   -0,818;    0,045
987,201; 6015,722;   -1,000;   -0,591
987,751; 6119,904;    0,818;    2,864
988,302; 6025,722;    2,636;    1,500
988,852; 6127,086;    0,455;   -1,136
989,402; 5998,177;    0,091;    0,682
989,952; 5831,268;   -2,182;    0,864
990,502; 6099,904;   -0,091;    0,682
991,052; 6058,086;   -0,727;    0,045
991,602; 5820,359;   -2,909;    1,318
992,152; 5745,359;    0,455;    0,682
992,702; 5710,722;    1,364;   -0,045
993,252; 5535,904;   -3,000;   -0,500
993,802; 5551,449;   -0,273;    1,318
994,352; 5932,995;   -1,545;    1,136
994,901; 6140,904;   -0,182;    3,227
995,451; 5946,813;   -0,182;    0,318
996,000; 6032,359;    1,636;    0,318
996,550; 5581,449;    2,273;    0,227
997,100; 5543,177;    1,273;   -0,045
997,649; 5886,813;    2,182;    0,955
998,198; 5315,177;    1,727;   -1,500
998,748; 5492,540;    1,091;   -2,318
999,297; 5482,268;   -0,818;   -0,409
999,846; 5429,086;    1,000;   -0,773
1000,395; 5520,813;   -0,818;    0,500
1000,945; 5210,086;    1,818;   -0,773
1001,494; 5358,540;    2,364;    0,682
1002,043; 5408,904;    4,636;    0,864
1002,592; 5233,449;   -1,091;    1,955
1003,141; 5340,540;   -0,455;   -0,682
1003,690; 5085,359;    1,727;    0,500
1004,238; 5271,359;    1,455;   -0,045
1004,787; 4744,268;    1,364;    1,227
1005,336; 4846,813;    0,364;    0,682
1005,885; 5085,904;    1,364;   -2,773
1006,433; 5380,722;    0,545;    0,955
1006,982; 5174,086;    0,455;    1,682
1007,531; 5141,177;   -1,818;   -0,227
1008,079; 5139,722;   -2,273;    0,500
1008,627; 5288,449;   -1,455;    0,409
1009,176; 4855,086;    0,000;   -1,955
1009,724; 4921,631;    1,091;    0,864
1010,273; 4835,177;    1,273;    0,500
1010,821; 5052,268;    0,091;    1,409
1011,369; 4694,995;   -1,364;    1,318
1011,917; 4580,631;   -1,364;   -0,591
1012,465; 4890,722;    1,273;   -1,591
1013,013; 5060,904;    2,091;   -1,682
1013,561; 4783,177;    0,455;   -0,773
1014,109; 4751,904;   -1,909;    1,682
1014,657; 4603,631;    0,364;    0,591
1015,205; 4794,813;    1,636;   -0,955
1015,753; 4870,813;   -0,545;   -1,409
1016,301; 4853,631;   -2,636;    3,045
1016,848; 4812,449;   -1,273;    0,409
1017,396; 4814,813;    2,545;    0,045
1017,944; 4958,177;    1,182;    1,864
1018,491; 4672,904;    0,273;    1,409
1019,039; 4616,268;    0,455;    0,591
1019,586; 4641,359;   -1,364;    1,682
1020,134; 4772,449;    0,455;    1,500
1020,681; 4733,995;    0,182;   -1,136
1021,228; 4782,177;    2,909;   -2,227
1021,776; 4533,268;    1,182;   -1,136
1022,323; 4691,359;    0,455;    0,773
1022,870; 4588,449;   -1,000;   -0,045
1023,417; 4389,722;    2,636;    1,864
1023,964; 4627,904;    2,636;    1,227
1024,511; 4361,995;    1,000;    0,773
1025,058; 4095,904;    3,182;   -0,045
1025,605; 4150,268;   -2,273;    3,136
1026,152; 4298,631;    1,727;   -0,591
1026,699; 4005,995;    1,818;    1,318
1027,245; 4180,631;   -0,091;    0,318
1027,792; 4427,722;   -1,000;    1,409
1028,339; 4205,631;    2,364;   -0,045
1028,885; 4033,086;    1,000;   -0,227
1029,432; 3952,177;   -0,091;    0,227
1029,978; 3974,722;   -1,000;   -1,591
1030,525; 3867,177;    1,000;    0,409
1031,071; 4146,449;   -1,364;    1,136
1031,618; 4133,813;    0,364;    1,682
1032,164; 3929,722;   -0,091;    3,045
1032,710; 3951,904;    1,636;   -1,500
1033,256; 3864,631;   -0,636;   -0,136
1033,803; 3842,449;   -0,545;    1,500
1034,349; 3520,540;   -1,364;    0,136
1034,895; 3664,177;    0,000;   -0,318
1035,441; 3601,177;   -0,818;    0,318
1035,987; 3579,904;   -2,364;   -0,682
1036,533; 3527,995;   -1,455;   -0,955
1037,078; 3709,268;    1,455;    1,682
1037,624; 3520,904;    2,455;   -0,955
1038,170; 3560,904;    0,455;   -0,318
1038,716; 3424,086;    1,636;   -0,409
1039,261; 3323,177;   -2,273;   -0,773
1039,807; 3243,359;   -0,091;    3,409
1040,352; 3281,086;   -1,909;   -0,318
1040,898; 3314,449;   -1,545;   -0,682
1041,443; 3205,268;   -1,455;   -2,591
1041,989; 3159,449;    1,091;    1,591
1042,534; 3059,813;   -0,364;    2,591
1043,079; 3204,268;    2,909;    0,955
1043,625; 2962,359;    1,818;    0,500
1044,170; 2973,631;   -1,364;    1,045
1044,715; 3204,540;    2,455;    0,955
1045,260; 3020,449;    2,182;   -0,955
1045,805; 3070,449;    1,182;   -0,591
1046,350; 2996,268;    1,364;   -0,409
1046,895; 2912,359;    2,909;    1,591
1047,440; 2840,268;    5,364;    0,409
1047,985; 2762,722;    2,818;   -0,955
1048,530; 2659,086;    1,545;    1,227
1049,074; 2699,268;    0,000;    0,318
1049,619; 2690,631;   -1,364;    1,955
1050,164; 2477,995;    0,455;    0,227
1050,708; 2483,268;   -0,455;    0,045
1051,253; 2845,904;    1,273;   -2,227
1051,797; 2558,540;    0,818;   -1,318
1052,342; 2578,813;   -1,182;    1,045
1052,886; 2584,449;    0,364;   -1,409
1053,430; 2455,813;   -1,364;    0,136
1053,975; 2445,540;   -0,818;   -0,318
1054,519; 2419,449;   -0,727;    3,227
1055,063; 2422,904;    0,909;    1,318
1055,607; 2300,086;   -0,182;    0,227
1056,151; 2327,995;    2,909;    1,682
1056,695; 2234,177;    2,273;   -1,136
1057,239; 2295,268;   -1,727;   -0,682
1057,783; 2295,086;    0,818;   -1,500
1058,327; 2216,540;    0,000;    1,409
1058,871; 2449,813;   -0,545;    1,318
1059,415; 2170,813;   -0,818;   -0,045
1059,958; 2425,268;    1,455;    2,591
1060,502; 2135,540;   -1,000;   -0,773
1061,046; 2061,995;    0,364;   -0,955
1061,589; 2033,995;   -3,000;   -1,136
1062,133; 1894,177;   -1,273;    1,864
1062,676; 1820,722;    1,182;    0,864
1063,220; 1838,631;    1,091;    0,500
1063,763; 1859,177;    0,909;    1,136
1064,306; 1933,540;   -0,909;    1,864
1064,849; 1827,631;   -0,909;    0,591
1065,393; 1818,177;    2,000;   -1,500
1065,936; 1933,540;    0,182;   -0,409
1066,479; 1818,904;   -1,455;    1,318
1067,022; 1840,813;   -0,273;   -0,227
1067,565; 1736,904;   -0,091;   -1,318
1068,108; 1757,177;    0,727;   -0,591
1068,651; 1736,177;   -0,636;    1,409
1069,194; 1663,540;   -0,455;   -1,682
1069,736; 1664,995;   -1,273;    0,955
1070,279; 1653,086;   -1,364;   -0,500
1070,822; 1684,813;   -2,000;   -0,318
1071,364; 1770,540;   -0,364;    1,318
1071,907; 1601,813;   -0,727;    3,227
1072,450; 1491,904;    0,000;   -0,045
1072,992; 1496,086;   -0,273;    3,136
1073,535; 1636,722;    2,091;    2,136
1074,077; 1428,631;   -0,727;    2,045
1074,619; 1395,995;   -1,364;    0,591
1075,161; 1425,540;   -1,091;    1,500
1075,704; 1614,086;    1,545;    1,227
1076,246; 1407,086;   -0,182;    0,682
1076,788; 1339,995;   -0,364;    1,773
1077,330; 1418,449;    1,273;    2,136
1077,872; 1374,904;    0,909;    0,955
1078,414; 1594,813;    2,727;    0,773
1078,956; 1324,722;    1,273;   -0,227
1079,498; 1590,177;    1,636;    0,318
1080,040; 1302,540;    1,909;   -1,318
1080,581; 1240,359;    1,636;   -0,318
1081,123; 1164,540;    0,091;   -0,773
1081,665; 1209,722;   -1,182;   -0,955
1082,206; 1502,995;    1,364;   -0,500
1082,748; 1372,813;    0,727;    2,045
1083,289; 1255,359;   -2,000;    1,318
1083,831; 1170,813;   -0,545;    0,227
1084,372; 1202,722;    0,000;    0,591
1084,913; 1200,813;    1,091;    0,864
1085,455; 1172,449;   -1,909;   -2,045
1085,996; 1145,722;   -2,273;    0,136
1086,537; 1164,449;   -0,091;    0,864
1087,078; 1198,813;   -0,909;   -2,136
1087,619; 1247,722;   -1,273;    0,227
1088,160; 1143,177;    0,000;    1,318
1088,701; 1151,449;   -1,091;    0,682
1089,242; 1083,995;    1,364;   -2,227
1089,783; 1172,722;   -0,273;    1,409
1090,324; 1154,995;    0,455;    0,682
1090,865; 1036,540;    2,727;   -0,409
1091,405; 1013,086;    0,727;    2,227
1091,946; 1036,540;    0,182;   -0,955
1092,487;  967,268;    0,818;   -1,409
1093,027; 1125,268;   -1,364;   -1,500
1093,568;  978,449;   -0,364;    1,227
1094,108; 1085,177;    0,273;    1,773
1094,649; 1020,086;   -1,182;    0,136
1095,189;  959,540;   -0,636;   -0,682
1095,729;  905,268;   -0,091;    0,955
1096,269;  905,631;    0,727;   -0,955
1096,810; 1229,722;   -1,364;    0,500
1097,350; 1053,813;    1,364;   -0,773
1097,890;  962,268;    0,364;    1,227
1098,430; 1211,722;    2,364;    2,864
1098,970; 1089,086;    2,182;    1,682
1099,510;  959,813;    0,545;   -2,318
1100,050;  891,904;    1,000;   -1,591
1100,589;  855,086;   -0,727;   -0,318
1101,129;  968,904;    0,818;   -0,955
1101,669; 1120,995;    1,727;    2,136
1102,209;  954,904;   -0,091;    2,227
1102,748;  900,177;    0,000;    0,955
1103,288;  886,177;    1,273;   -1,227
1103,827;  929,177;    3,091;   -2,227
1104,367;  796,268;   -0,091;   -2,409
1104,906;  762,449;    1,364;   -1,136
1105,445;  836,268;    0,636;   -1,136
1105,985;  773,813;   -0,727;    1,500
1106,524;  832,995;   -1,727;   -0,682
1107,063;  807,086;   -2,727;    1,409
1107,602;  783,359;   -1,909;   -1,500
1108,141;  695,631;   -1,909;    1,500
1108,680;  800,904;   -3,455;   -0,591
1109,219;  741,086;   -0,909;   -0,500
1109,758;  747,904;    0,455;    0,682
1110,297;  721,540;    1,000;   -0,682
1110,836;  664,631;   -0,727;    0,955
1111,375;  842,995;   -2,545;    0,409
1111,913;  853,540;   -1,000;    0,773
1112,452;  796,540;   -0,273;    0,136
1112,991;  676,086;    1,091;    1,955
1113,529;  627,631;   -0,818;   -0,045
1114,068;  686,086;   -0,273;    2,955
1114,606;  596,086;   -0,364;   -0,955
1115,144;  756,086;   -1,273;    1,045
1115,683;  707,177;   -0,727;    0,318
1116,221;  754,540;   -0,455;   -0,864
1116,759;  658,449;    0,636;   -0,864
1117,297;  860,904;    0,000;    1,864
1117,836;  654,631;   -2,182;   -1,227
1118,374;  664,359;    0,182;   -0,682
1118,912;  601,813;    0,909;    2,682
1119,450;  591,540;    1,000;    0,864
1119,988;  655,359;    1,545;    2,136
1120,525; 1120,086;    5,091;    3,318
1121,063;  814,268;    1,182;    1,864
1121,601;  614,086;   -0,909;   -1,227
1122,139;  571,449;   -0,727;   -2,045
1122,676;  773,268;   -0,727;    2,773
1123,214;  697,359;   -1,182;    4,409
1123,751;  495,359;    1,727;    2,227
1124,289;  642,995;   -0,091;   -0,409
1124,826;  507,268;    1,727;    0,227
1125,364;  438,449;    1,727;   -0,955
1125,901;  623,177;    1,182;    1,227
1126,438;  754,995;    0,818;    0,955
1126,975;  473,813;   -0,727;   -0,773
1127,513;  550,268;    0,273;    2,136
1128,050;  443,995;    1,636;   -0,682
1128,587;  549,449;    2,000;   -0,227
1129,124;  587,904;    0,091;    1,318
1129,661;  451,268;    0,273;    0,227
1130,198;  625,813;    1,636;    0,773
1130,734;  575,631;    0,182;    1,409
1131,271;  415,540;   -0,909;    0,864
1131,808;  610,722;    2,909;    3,045
1132,345;  469,268;    1,545;    0,318
1132,881;  333,177;   -1,545;   -1,864
1133,418;  487,540;    0,727;   -1,136
1133,954;  424,449;    2,455;   -2,682
1134,491;  507,813;    1,364;   -0,773
1135,027;  395,722;    2,364;    0,864
1135,564;  496,631;    0,273;    2,955
1136,100;  474,359;    0,364;    2,136
1136,636;  352,813;   -1,273;   -1,045
1137,172;  465,904;    0,000;   -1,045
1137,708;  383,086;   -1,364;   -1,045
1138,245;  387,177;    1,273;   -1,227
1138,781;  334,813;    1,091;   -3,318
1139,317;  417,359;    1,273;   -1,409
1139,852;  388,086;    3,091;    0,136
1140,388;  531,904;   -1,182;   -0,409
1140,924;  398,449;   -1,091;   -2,227
1141,460;  331,722;   -1,636;    0,136
1141,996;  253,995;   -1,364;    2,682
1142,531;  306,268;    1,364;    3,318
1143,067;  568,449;    1,182;    1,045
1143,602;  637,995;   -0,091;   -0,318
1144,138;  457,722;   -2,636;    1,045
1144,673;  289,359;   -1,455;    1,409
1145,209;  378,722;   -1,909;   -0,318
1145,744;  290,995;   -0,727;    0,864
1146,279;  447,449;    1,818;   -0,136
1146,815;  331,268;    1,545;   -2,682
1147,350;  387,813;   -1,364;    0,045
1147,885;  278,995;   -0,818;   -1,318
1148,420;  283,813;   -2,273;    0,773
1148,955;  263,449;   -1,727;    1,864
1149,490;  299,995;   -0,909;   -1,591
1150,025;  296,268;    0,455;   -1,773
1150,560;  419,631;    1,091;   -0,955
1151,094;  376,086;    1,455;   -0,591
1151,629;  385,268;    1,636;    0,864
1152,164;  288,177;    1,364;    1,318
1152,698;  229,449;   -0,182;   -0,136
1153,233;  184,631;    0,091;   -0,682
1153,767;  256,449;   -3,000;   -2,318
1154,302;  300,540;   -1,455;    1,773
1154,836;  294,995;   -0,455;   -2,136
1155,371;  364,813;   -1,364;    3,682
1155,905;  307,631;   -0,636;    1,682
1156,439;  251,722;   -0,636;   -0,500
1156,973;  308,813;    0,364;    0,318
1157,507;  230,631;   -0,364;    0,682
1158,042;  272,449;   -0,727;    1,045
1158,576;  324,813;    0,182;    1,773
1159,110;  302,904;   -0,818;    2,409
1159,643;  276,177;    0,636;   -0,045
1160,177;  186,449;   -1,545;    1,500

