
Integration time [ms]:   0,040
Averaging Nr. [scans]: 11
Smoothing Nr. [pixels]: 0
Data measured with spectrometer [name]: 7318044SP
Wave   ;Sample   ;Dark     ;Reference
[nm]   ;[counts] ;[counts] ;[counts] 

186,757;   35,734;   31,551;    1,318
187,357;   33,661;   22,551;    0,955
187,958;   20,489;   15,460;   -1,591
188,558;   23,364;    8,915;   -1,227
189,159;   14,214;    6,733;   -4,500
189,759;   10,393;    7,278;   -3,591
190,360;    7,456;    2,824;   -2,136
190,960;   13,242;    2,915;   -4,136
191,560;   13,249;    3,189;   -6,591
192,161;   60,875;    4,372;   -3,500
192,761;   30,896;    4,010;   -3,227
193,361;   16,663;    1,556;   -3,773
193,962;   25,328;    2,010;   -2,682
194,562;    9,573;    1,189;   -3,955
195,162;    6,374;   -2,448;   -2,227
195,762;   35,809;   -3,176;   -0,045
196,362;   22,842;    1,370;   -2,500
196,963;    7,162;    2,006;   -0,864
197,563;   13,913;    1,551;   -0,955
198,163;    8,191;    0,096;   -0,682
198,763;    9,418;    1,733;   -0,500
199,363;   18,153;    3,096;   -0,500
199,963;   12,149;    0,369;    0,409
200,563;    8,367;    2,823;   -1,409
201,163;    6,776;    3,277;   -0,227
201,763;   11,762;    3,732;    0,318
202,363;    7,058;    1,459;    1,500
202,963;   11,558;    1,459;    1,045
203,563;   24,438;    0,277;    0,500
204,162;   14,449;    2,096;   -1,864
204,762;    9,203;    0,550;    0,591
205,362;    4,337;    3,004;    1,955
205,962;   11,773;    3,096;    1,955
206,562;   10,496;    1,823;    2,318
207,161;    7,687;   -0,087;    0,318
207,761;   32,951;    1,277;    2,409
208,361;   12,182;   -0,268;    1,409
208,960;   15,938;    0,459;    1,500
209,560;   12,302;    1,277;    1,591
210,160;   21,082;    0,550;    1,864
210,759;   14,601;    4,186;    1,227
211,359;   11,616;    1,459;    1,045
211,958;   51,272;    1,277;    2,045
212,558;   48,801;    1,732;    1,864
213,157;   21,473;    1,822;    1,500
213,757;   86,723;    3,822;   -0,227
214,356;   37,771;    1,277;   -0,409
214,956;   78,055;    3,095;    0,409
215,555;   27,282;    2,095;    2,136
216,154;   17,283;   -2,723;   -0,591
216,754;   15,187;    0,277;    0,773
217,353;   26,492;   -0,268;   -1,045
217,952;    7,975;   -0,178;    0,318
218,552;   36,887;    1,368;   -0,773
219,151;   17,648;    0,277;    0,955
219,750;   14,883;    0,004;   -0,227
220,349;   11,990;   -0,451;    1,045
220,948;   50,847;   -1,360;    1,136
221,548;   20,416;    0,913;    1,227
222,147;   30,585;   -0,087;   -0,409
222,746;   75,748;   -0,451;   -0,955
223,345;   44,761;    0,731;    0,500
223,944;   48,345;   -0,451;    0,773
224,543;   50,491;    1,004;   -1,409
225,142;   35,906;    0,094;    0,136
225,741;   46,727;   -0,814;    1,045
226,340;   38,923;   -0,451;   -0,955
226,939;   85,761;   -0,996;   -0,136
227,538;   39,810;   -0,360;   -0,773
228,137;   96,193;   -0,814;    0,864
228,735;   72,918;   -0,541;    1,227
229,334;   23,458;   -0,905;   -0,227
229,933;  107,192;    0,459;    0,591
230,532;  106,250;    1,186;   -0,409
231,131;  153,138;    1,732;    0,318
231,729;   87,633;   -2,450;   -2,318
232,328;   59,715;   -0,723;   -1,500
232,927;   71,212;    1,004;   -0,500
233,525;   65,146;    3,640;    0,045
234,124;   82,613;    2,368;   -1,591
234,723;   55,998;    0,913;   -1,045
235,321;   46,496;    2,277;    0,136
235,920;   63,272;    1,186;   -1,227
236,518;  149,860;    3,459;    0,318
237,117;   64,963;    0,004;   -0,227
237,715;   85,187;    0,640;   -0,500
238,314;  101,531;   -0,087;   -2,318
238,912;  171,623;   -0,723;   -1,409
239,510;  124,248;    0,459;   -1,227
240,109;  193,737;    0,004;    3,773
240,707;  169,840;   -0,996;    1,227
241,305;   83,497;    0,550;    0,136
241,904;  135,406;   -0,178;   -2,045
242,502;  223,868;   -0,632;   -0,227
243,100;  150,636;   -0,087;   -0,955
243,698;  101,496;    0,732;    1,682
244,297;  127,824;   -0,632;    0,682
244,895;  125,672;   -0,269;   -2,318
245,493;  241,062;    2,186;   -0,591
246,091;  246,959;    1,368;   -1,318
246,689;  193,048;    1,004;    0,591
247,287;  179,953;    0,822;   -1,136
247,885;  149,280;   -1,451;    1,227
248,483;  128,131;    1,822;   -0,500
249,081;  193,968;    0,185;    1,591
249,679;  213,230;   -0,178;    1,682
250,277;  133,534;   -1,723;    0,864
250,875;  220,729;   -1,087;   -1,045
251,473;  151,148;   -1,178;    0,500
252,071;  224,495;    1,459;    1,045
252,669;  161,436;   -1,814;    0,318
253,267;  124,438;   -0,087;    0,773
253,864;  166,953;   -0,360;    0,682
254,462;  271,090;    1,640;    1,591
255,060;  134,168;   -0,269;    1,318
255,658;  133,981;    0,822;   -0,136
256,255;  172,950;    0,186;   -2,045
256,853;  215,826;   -0,269;    1,409
257,451;  181,784;    0,822;    1,864
258,048;  486,498;    1,822;    1,864
258,646;  287,906;    1,731;   -1,045
259,243;  360,553;   -0,087;    2,227
259,841;  266,074;   -0,814;    0,318
260,438;  157,828;   -0,087;    0,864
261,036;  254,282;   -1,905;    1,409
261,633;  166,532;   -0,087;    2,227
262,231;  136,065;    2,731;   -0,045
262,828;  134,081;   -0,905;    1,136
263,425;  177,947;    0,913;   -0,591
264,023;  179,622;    0,186;    0,045
264,620;  295,082;   -0,360;   -0,318
265,217;  392,529;   -2,087;    3,136
265,815;  196,326;   -1,905;    2,136
266,412;  273,353;    0,731;    0,136
267,009;  285,418;   -1,451;    0,773
267,606;  350,633;    0,822;   -0,955
268,203;  214,476;   -0,269;   -0,591
268,801;  233,434;    1,731;    0,591
269,398;  174,289;   -0,360;    2,500
269,995;  288,990;    0,277;    1,591
270,592;  247,095;   -0,632;   -0,500
271,189;  176,109;    0,186;    0,409
271,786;  153,223;   -0,632;    1,227
272,383;  337,833;   -1,087;    0,227
272,980;  225,877;    0,277;    0,318
273,577;  193,880;    0,004;    1,227
274,174;  175,347;    0,822;    2,591
274,771;  291,981;   -0,814;   -0,773
275,367;  590,059;    2,277;    1,409
275,964;  418,639;    0,731;   -0,500
276,561;  255,717;    1,549;   -1,045
277,158;  174,685;    0,095;   -1,773
277,755;  380,695;    2,185;    0,409
278,351;  304,630;   -0,451;   -1,500
278,948;  346,691;   -0,815;    0,045
279,545;  305,478;   -1,360;    2,318
280,141;  437,773;   -1,723;   -2,045
280,738;  422,976;   -0,451;   -0,136
281,334;  251,289;   -1,633;    0,591
281,931;  263,015;   -0,087;   -1,318
282,528;  360,275;    0,822;   -0,500
283,124;  425,818;   -1,087;   -0,500
283,721;  413,913;   -0,451;    1,409
284,317;  295,929;    0,185;    2,500
284,913;  439,372;   -1,360;    0,591
285,510;  633,645;    0,640;   -0,318
286,106;  476,427;   -2,269;   -0,955
286,703;  324,046;   -0,360;    1,955
287,299;  275,892;   -1,451;   -0,591
287,895;  267,810;    0,822;   -1,045
288,491;  248,835;    0,186;    2,136
289,088;  352,768;   -2,360;    2,409
289,684;  393,618;   -1,723;    1,500
290,280;  519,219;    0,368;    0,682
290,876;  471,533;    1,822;    5,500
291,472;  394,868;    1,276;    2,227
292,068;  412,159;    1,367;    0,227
292,665;  301,347;    2,095;    0,773
293,261;  222,387;    0,276;    2,136
293,857;  387,487;    2,913;    2,136
294,453;  310,826;    3,550;    0,955
295,049;  504,405;   -0,268;    1,955
295,644;  355,117;    0,095;    0,136
296,240;  235,797;   -0,905;   -0,136
296,836;  340,373;   -0,995;    0,318
297,432;  454,597;    1,096;   -0,500
298,028;  482,963;    0,732;    0,773
298,624;  360,654;    1,459;    1,864
299,220;  340,356;    2,368;    0,591
299,815;  328,208;    1,005;   -0,409
300,411;  410,768;    0,914;    1,773
301,007;  510,500;    1,368;    0,227
301,602;  365,650;   -0,541;   -2,318
302,198;  472,927;    0,732;   -0,773
302,794;  338,437;    1,187;   -0,500
303,389;  291,718;   -1,177;    1,045
303,985;  328,907;    0,550;    1,409
304,580;  451,526;    1,459;    1,591
305,176;  369,222;   -3,086;    0,136
305,771;  264,429;   -1,268;   -1,227
306,367;  602,266;    4,095;    0,136
306,962;  397,105;    0,641;    1,500
307,558;  444,467;   -0,450;    0,136
308,153;  492,134;    1,095;   -1,136
308,748;  306,298;   -0,814;    1,682
309,344;  632,721;   -0,632;   -1,318
309,939;  645,970;   -1,905;   -1,318
310,534;  366,073;   -0,086;   -1,682
311,130;  336,939;    0,459;   -2,500
311,725;  306,052;    1,004;   -0,500
312,320;  357,018;    2,459;    0,045
312,915;  440,076;    1,459;   -1,045
313,510;  631,965;    1,550;   -0,500
314,105;  369,511;    1,096;    1,409
314,700;  248,442;   -3,086;   -1,045
315,295;  325,889;   -0,904;    0,045
315,890;  288,372;    1,277;    0,864
316,485;  381,785;   -0,359;   -0,318
317,080;  290,747;   -3,086;    1,591
317,675;  573,112;    2,005;   -0,682
318,270;  766,396;    5,550;    3,318
318,865;  662,120;    3,278;    3,045
319,460;  502,104;   -0,904;    0,591
320,055;  348,640;   -0,541;   -1,227
320,650;  352,989;   -1,995;   -0,591
321,244;  355,745;   -0,177;   -1,409
321,839;  369,996;   -1,541;   -0,227
322,434;  420,291;   -1,086;   -1,591
323,029;  354,046;    1,732;    1,591
323,623;  326,935;    1,550;    0,773
324,218;  494,118;    2,368;    1,409
324,812;  425,986;    1,096;    1,591
325,407;  429,013;   -0,814;    2,045
326,002;  550,745;    0,277;   -0,409
326,596;  493,706;    0,914;    1,318
327,191;  341,913;    0,823;   -1,045
327,785;  343,343;   -0,813;   -0,227
328,379;  348,550;    1,368;    0,136
328,974;  397,460;    0,914;   -3,955
329,568;  416,080;    0,186;   -2,409
330,163;  487,507;    2,096;    1,045
330,757;  332,701;    2,459;    1,591
331,351;  284,490;    0,459;    0,682
331,945;  277,980;    0,914;    1,409
332,540;  413,038;   -1,723;   -0,591
333,134;  404,797;   -1,086;    0,773
333,728;  404,583;    0,005;    0,318
334,322;  293,546;   -1,177;   -0,864
334,916;  290,826;    0,277;    0,955
335,510;  453,486;   -0,450;   -0,136
336,105;  439,004;   -1,086;    1,591
336,699;  339,592;   -1,086;    0,591
337,293;  376,547;   -1,723;    0,318
337,887;  318,565;   -2,723;    1,955
338,481;  451,946;    0,459;    0,591
339,074;  545,550;   -0,359;    2,682
339,668;  527,081;   -1,632;    1,227
340,262; 1040,255;    1,732;    3,227
340,856;  669,761;    1,822;   -0,682
341,450;  365,421;    1,004;    1,864
342,044;  414,819;    1,459;    0,136
342,637;  548,737;    0,913;   -2,136
343,231;  532,058;   -2,360;    0,682
343,825;  426,226;   -1,086;   -0,591
344,419;  400,996;   -1,995;    0,500
345,012;  899,882;    2,459;    4,045
345,606;  713,137;    4,641;    1,591
346,199;  412,194;   -1,813;   -0,227
346,793;  536,452;    1,914;    2,045
347,386;  342,618;   -0,813;   -1,136
347,980;  249,693;   -0,268;   -0,045
348,573;  356,103;    2,278;    0,409
349,167;  633,416;    5,278;    4,773
349,760;  511,605;    2,914;    2,682
350,354;  478,204;   -0,813;    1,136
350,947;  514,172;    1,096;    1,682
351,540;  396,349;   -0,358;   -1,409
352,134;  273,060;    1,096;    1,136
352,727;  295,315;   -0,086;    1,136
353,320;  315,620;    0,005;    0,591
353,913;  252,365;   -1,995;    1,864
354,507;  448,196;    0,823;   -1,227
355,100;  326,635;    0,460;    0,864
355,693;  721,261;    2,005;    2,409
356,286;  493,694;    0,823;    2,773
356,879;  350,428;   -0,722;    1,227
357,472;  349,165;   -0,904;    1,500
358,065;  390,938;   -0,722;    2,500
358,658;  255,971;   -0,540;    2,318
359,251;  228,613;   -1,631;   -0,591
359,844;  406,748;   -1,904;   -1,136
360,437;  475,457;   -2,995;    0,045
361,030;  315,703;    1,369;   -0,682
361,623;  330,357;    2,824;    0,318
362,215;  550,022;   -0,086;    2,045
362,808;  403,493;   -2,358;   -1,682
363,401;  326,516;   -2,449;    0,136
363,994;  548,582;   -0,631;   -1,500
364,586;  345,322;    0,824;   -1,500
365,179;  291,910;   -0,449;   -1,136
365,772;  159,276;   -1,995;    2,045
366,364;  315,938;    1,915;   -3,227
366,957;  372,176;    2,279;   -0,045
367,549;  309,508;    2,188;   -0,864
368,142;  326,712;    1,825;   -1,500
368,734;  291,031;    0,734;   -2,136
369,327;  223,070;    1,643;   -0,500
369,919;  259,889;   -1,538;    0,409
370,512;  286,395;   -1,083;   -0,500
371,104;  551,796;   -0,901;    1,591
371,696;  567,700;    1,191;   -0,955
372,289;  426,073;    0,373;    1,136
372,881;  370,309;   -2,080;    1,318
373,473;  266,055;   -2,170;    1,136
374,066;  359,944;   -0,169;    0,500
374,658;  332,958;    0,378;    1,136
375,250;  266,093;    0,653;   -1,409
375,842;  319,330;    0,473;   -0,045
376,434;  283,618;   -0,435;   -0,409
377,026;  266,983;    0,204;   -2,500
377,618;  320,834;   -0,158;   -0,682
378,210;  263,490;   -0,338;   -1,955
378,802;  253,601;    0,754;   -0,591
379,394;  634,244;    1,846;    0,682
379,986;  394,067;    1,393;   -0,955
380,578;  302,626;   -0,153;    0,773
381,170;  547,619;   -0,972;    0,045
381,762;  443,516;    0,755;    1,409
382,354;  397,740;   -0,065;   -1,318
382,945;  305,973;   -2,976;    0,318
383,537;  250,078;   -2,705;   -1,955
384,129;  240,975;   -2,160;   -1,136
384,721;  356,312;   -0,252;    0,955
385,312;  292,692;   -0,161;   -0,955
385,904;  380,063;   -2,706;    1,591
386,496;  312,789;   -0,979;    1,045
387,087;  455,259;    1,022;    2,500
387,679;  396,270;   -1,160;    0,045
388,270;  370,480;    2,840;    2,045
388,862;  342,434;    1,295;   -0,318
389,453;  328,861;   -0,887;    1,045
390,045;  331,133;   -0,705;   -2,682
390,636;  225,240;    0,204;   -0,591
391,227;  297,515;   -0,523;   -0,045
391,819;  273,561;    0,204;    0,773
392,410;  527,990;    1,022;    0,045
393,001;  334,002;   -0,979;   -1,591
393,593;  402,953;    1,930;   -0,045
394,184;  460,462;    1,385;   -0,409
394,775;  330,375;    1,839;    2,136
395,366;  252,276;    1,385;    0,773
395,957;  447,451;    0,113;    0,136
396,548;  332,612;   -0,342;    2,682
397,139;  453,503;   -2,433;    0,591
397,730;  368,906;   -1,888;    0,955
398,321;  378,153;   -1,252;    0,955
398,912;  316,358;   -0,615;    0,136
399,503;  311,808;   -3,524;   -1,409
400,094;  369,943;    0,294;    1,682
400,685;  356,780;   -0,433;    0,045
401,276;  303,031;    0,930;   -0,955
401,867;  282,446;   -0,888;    0,773
402,458;  242,024;   -2,251;   -2,318
403,048;  401,283;    1,112;    0,591
403,639;  339,653;    0,840;    0,864
404,230;  454,472;    2,476;    0,318
404,821;  510,990;   -0,615;    0,045
405,411;  410,222;    1,203;   -2,591
406,002;  319,017;   -1,252;   -1,136
406,592;  551,176;    2,294;    0,045
407,183;  408,994;    0,566;   -1,500
407,774;  385,413;    3,475;   -0,136
408,364;  336,842;    0,930;    0,409
408,954;  470,234;    0,384;    1,227
409,545;  465,226;    1,021;    1,045
410,135;  416,757;    1,293;    0,500
410,726;  363,895;    1,838;    0,318
411,316;  565,341;    0,111;    0,773
411,906;  377,493;   -0,253;   -0,409
412,497;  394,029;   -1,070;   -0,045
413,087;  338,218;   -1,980;   -0,227
413,677;  250,168;   -0,707;    3,864
414,267;  248,793;    0,656;    1,409
414,857;  228,445;   -2,980;    4,227
415,448;  236,142;    0,839;    0,500
416,038;  274,611;    0,020;   -0,591
416,628;  322,069;   -0,889;    0,409
417,218;  380,379;    0,565;    3,318
417,808;  544,850;    0,202;   -0,409
418,398;  402,217;    0,020;    2,682
418,988;  282,230;    2,020;    0,591
419,578;  388,184;   -0,707;    1,409
420,168;  320,135;   -1,343;   -0,955
420,757;  487,415;   -1,343;   -1,500
421,347;  370,563;    0,111;   -0,227
421,937;  326,646;    2,292;    1,409
422,527;  472,773;    0,838;   -0,773
423,116;  629,670;   -0,253;   -0,045
423,706;  319,614;   -1,889;    0,318
424,296;  267,426;    1,384;    0,682
424,885;  422,972;   -0,071;   -3,045
425,475;  386,649;    1,474;   -2,864
426,065;  262,826;   -0,980;   -0,318
426,654;  236,849;   -0,435;   -0,318
427,244;  543,388;    0,020;    1,409
427,833;  512,824;    1,383;   -0,500
428,423;  364,909;   -0,526;    1,136
429,012;  364,437;   -0,344;   -1,136
429,601;  508,567;   -1,344;    0,136
430,191;  378,588;    1,292;    4,318
430,780;  274,550;   -0,344;   -0,409
431,369;  491,207;    0,746;   -0,045
431,959;  359,857;   -1,254;    0,500
432,548;  289,230;   -1,163;   -0,045
433,137;  212,899;   -1,254;   -1,318
433,726;  306,511;    0,292;    0,500
434,315;  329,626;   -0,526;    2,409
434,905;  451,554;   -1,254;    1,409
435,494;  453,591;    0,746;    0,955
436,083;  299,706;   -0,981;   -0,955
436,672;  390,648;    0,110;    0,500
437,261;  336,434;    0,292;   -1,955
437,850;  601,497;    1,383;    0,682
438,439;  653,960;    3,291;    1,955
439,027;  782,346;    3,655;    1,773
439,616;  695,129;    2,927;    1,227
440,205;  440,621;    0,200;   -2,136
440,794;  373,233;    2,109;   -0,045
441,383;  291,028;   -1,346;   -0,591
441,971;  248,926;   -2,436;    0,591
442,560;  268,356;    0,563;   -1,773
443,149;  138,945;    0,379;   -1,318
443,737;  216,928;   -0,074;   -2,318
444,326;  253,273;    0,018;    0,318
444,915;  322,533;   -1,982;    0,864
445,503;  324,776;   -2,891;   -0,318
446,092;  610,980;    0,382;    2,136
446,680;  530,202;    0,382;    0,318
447,269;  429,953;   -0,346;   -0,318
447,857;  405,917;    0,018;   -1,773
448,445;  348,664;    0,563;    1,318
449,034;  273,740;   -1,528;   -1,136
449,622;  282,833;   -1,073;    3,500
450,210;  613,132;    2,017;    2,227
450,799;  513,243;    0,290;   -0,591
451,387;  453,265;    1,381;   -0,591
451,975;  435,326;    2,654;    0,864
452,563;  528,276;    3,472;    2,318
453,151;  308,537;   -0,528;   -1,227
453,739;  371,284;   -1,347;    0,136
454,328;  500,975;    2,381;   -2,136
454,916;  416,747;    2,562;   -0,136
455,504;  426,343;    1,017;    1,227
456,092;  296,036;    0,017;   -1,591
456,679;  249,134;    1,472;    0,682
457,267;  731,462;    4,017;    1,045
457,855;  357,675;    1,017;    1,409
458,443;  189,104;   -0,165;    1,682
459,031;  390,882;    0,108;    2,409
459,619;  344,300;   -1,801;    2,864
460,206;  222,144;    0,835;    2,045
460,794;  226,728;   -2,983;   -0,227
461,382;  286,811;   -0,529;   -0,864
461,970;  288,355;    1,198;    1,864
462,557;  193,350;   -0,711;   -0,682
463,145;  347,501;   -3,165;   -1,682
463,732;  619,861;    2,016;   -1,045
464,320;  345,109;   -0,075;   -3,045
464,907;  518,720;    2,743;   -0,773
465,495;  411,487;    0,743;   -1,227
466,082;  316,466;   -1,984;   -0,045
466,670;  341,658;   -2,529;    1,227
467,257;  213,504;   -1,711;    2,045
467,844;  338,256;   -0,075;    0,045
468,432;  304,177;    0,834;    3,500
469,019;  251,435;    0,925;   -1,773
469,606;  345,754;    0,470;    3,682
470,193;  379,124;   -1,439;    0,227
470,780;  335,680;   -2,075;    0,864
471,368;  241,185;   -1,257;   -0,773
471,955;  366,433;    1,379;   -0,682
472,542;  320,141;    0,652;   -1,136
473,129;  184,812;   -0,166;    0,136
473,716;  196,519;    1,470;    0,591
474,303;  237,252;    0,652;   -0,864
474,890;  235,745;   -1,439;   -0,500
475,477;  350,325;   -1,621;    0,409
476,064;  234,040;    1,106;   -1,591
476,650;  374,424;    0,288;    0,318
477,237;  273,424;   -0,258;    0,955
477,824;  245,805;   -1,076;    0,864
478,411;  149,158;   -1,894;   -0,318
478,997;  142,402;    0,560;   -0,773
479,584;   80,574;    1,196;   -0,409
480,171;  290,178;   -0,440;   -0,773
480,757;  362,252;    2,651;    0,773
481,344;  238,909;    0,469;    0,409
481,931;  125,130;    1,105;    1,045
482,517;  285,946;   -1,258;    0,318
483,104;  398,391;    1,106;    2,864
483,690;  246,490;   -1,804;    0,045
484,276;  220,824;   -0,895;    0,227
484,863;  492,698;    2,469;    1,136
485,449;  293,055;   -0,077;    0,318
486,035;  236,612;   -1,986;   -0,136
486,622;  358,010;   -0,895;    0,045
487,208;  247,774;    1,378;    1,500
487,794;  150,645;    0,741;    0,318
488,380;  147,849;    0,105;   -1,409
488,967;  158,773;   -1,168;   -0,409
489,553;  185,185;   -1,895;   -1,409
490,139;  286,281;    1,559;    0,773
490,725;  176,567;    0,741;   -0,227
491,311;  239,734;    3,287;    3,045
491,897;  207,015;   -0,986;    1,500
492,483;  200,038;    0,105;    1,227
493,069;  702,571;    3,923;    0,864
493,655;  372,078;    1,650;    0,682
494,241;  221,336;    1,377;   -0,955
494,826;  245,910;    0,287;   -1,045
495,412;  329,911;    2,559;   -0,682
495,998;  212,777;   -0,805;   -0,318
496,584;  292,652;    0,377;    1,045
497,169;  315,317;    1,014;   -0,682
497,755;  233,323;    0,650;    1,227
498,341;  417,587;    0,559;    0,318
498,926;  575,448;    1,832;    1,955
499,512;  250,028;    1,286;    2,955
500,097;  256,754;    0,195;   -0,318
500,683;  291,357;   -0,350;    2,136
501,268;  219,454;   -0,169;   -0,955
501,854;  248,123;   -0,169;    1,227
502,439;  237,199;   -0,624;   -1,773
503,024;  298,234;    0,195;    0,500
503,610;  336,591;   -0,078;   -0,682
504,195;  255,167;    0,558;    1,955
504,780;  382,011;    2,922;    1,227
505,366;  502,813;    3,013;    2,864
505,951;  405,175;    0,740;    1,045
506,536;  302,069;   -3,260;   -3,682
507,121;  388,219;    0,285;   -0,318
507,706;  311,318;    2,376;    1,045
508,291;  242,178;    2,649;    1,136
508,876;  247,784;   -0,988;    2,591
509,461;  331,999;   -0,169;   -0,773
510,046;  383,535;    0,194;    0,318
510,631;  386,579;   -0,351;   -0,773
511,216;  279,253;    2,467;   -0,500
511,801;  367,167;   -0,442;    2,591
512,386;  403,873;    0,740;    0,500
512,971;  416,586;   -2,988;    0,955
513,555;  474,624;   -0,897;   -1,500
514,140;  413,916;   -0,442;   -3,136
514,725;  549,276;   -0,715;   -1,136
515,309;  437,350;   -0,533;    0,318
515,894;  313,892;   -0,624;   -2,227
516,479;  356,919;   -0,624;   -0,955
517,063;  366,440;    0,376;    1,227
517,648;  304,360;    1,012;   -1,136
518,232;  280,313;   -0,261;   -1,409
518,817;  382,681;   -0,079;    1,682
519,401;  524,482;    2,194;    0,591
519,985;  473,642;    1,103;    1,136
520,570;  313,419;    0,830;   -1,955
521,154;  434,729;    2,102;    0,591
521,738;  622,260;   -2,352;    2,409
522,323;  432,895;   -0,170;    1,682
522,907;  426,978;    0,466;   -0,136
523,491;  325,168;    0,557;    0,955
524,075;  286,082;    2,284;    0,591
524,659;  497,218;    1,466;    0,591
525,243;  435,412;    1,739;    0,409
525,827;  371,629;    0,648;   -0,045
526,411;  371,764;   -1,989;   -0,136
526,995;  475,154;   -0,352;    1,409
527,579;  543,528;   -0,443;   -1,045
528,163;  470,936;    0,375;   -1,500
528,747;  570,740;    2,466;   -0,773
529,331;  505,091;   -0,080;   -1,409
529,915;  333,670;    1,738;    0,955
530,499;  436,941;   -0,807;    1,227
531,082;  597,340;   -0,534;    1,591
531,666;  671,917;    1,374;    0,773
532,250;  552,290;    1,284;    2,682
532,833;  652,811;    0,920;    2,773
533,417;  493,454;   -1,807;    0,864
534,001;  611,598;    1,647;   -0,318
534,584;  527,111;    0,374;    0,500
535,168;  347,741;    0,465;    1,409
535,751;  708,648;    0,647;    0,045
536,334;  451,672;   -0,898;   -0,409
536,918;  297,301;    0,011;    1,591
537,501;  305,431;   -0,899;    1,318
538,085;  354,359;   -0,444;    1,045
538,668;  437,727;    0,829;    2,409
539,251;  720,731;    1,829;    3,773
539,834;  431,721;    0,101;    0,773
540,418;  554,434;   -1,990;    4,318
541,001;  737,957;   -0,990;    1,773
541,584;  495,539;    2,101;    2,227
542,167;  605,082;    1,374;    2,955
542,750;  432,926;    1,919;   -0,773
543,333;  306,288;    0,555;    2,136
543,916;  528,865;    0,192;    2,500
544,499;  464,164;   -1,354;    0,227
545,082;  549,081;    1,374;    3,591
545,665;  457,969;    1,919;    1,500
546,248;  584,924;    1,010;   -0,318
546,830;  559,182;   -0,445;    1,955
547,413;  516,426;    1,010;   -0,773
547,996;  483,097;    0,555;    0,500
548,579;  436,506;    0,919;    0,955
549,161;  676,604;    1,828;    2,682
549,744;  556,650;   -0,809;    0,409
550,326;  406,383;   -0,809;   -1,136
550,909;  872,602;    2,737;    0,591
551,492;  529,094;   -0,263;    0,227
552,074;  656,443;   -0,173;   -1,318
552,657;  675,626;    2,373;    0,045
553,239;  544,458;   -0,173;   -0,773
553,821;  411,040;   -1,082;    1,045
554,404;  662,986;    1,282;    1,136
554,986;  773,292;    0,464;    1,045
555,568;  605,578;    1,191;   -0,955
556,151;  812,855;    1,191;   -0,227
556,733;  487,096;   -0,264;   -0,864
557,315;  511,093;    0,100;    0,500
557,897;  388,808;    0,554;   -0,500
558,479;  397,815;   -1,991;    1,318
559,061;  488,351;   -0,719;   -0,864
559,643;  541,039;   -0,264;    0,045
560,225;  584,040;    1,645;    2,864
560,807;  427,403;    0,918;    0,318
561,389;  407,145;    0,554;    2,318
561,971;  497,886;    0,463;    2,136
562,553;  416,536;   -1,628;    1,591
563,135;  513,256;   -0,537;    1,136
563,717;  902,616;    3,372;    1,136
564,298;  785,190;    3,645;   -0,045
564,880;  539,216;    0,645;   -1,409
565,462;  368,761;    0,645;    1,318
566,043;  500,399;   -0,446;    2,318
566,625;  813,306;    1,918;    1,227
567,207;  623,536;    1,099;    1,682
567,788;  482,096;   -1,264;    1,500
568,370;  483,799;    1,917;   -0,500
568,951;  479,750;    0,190;    0,227
569,533;  590,201;   -0,628;   -0,500
570,114;  601,061;   -0,446;    0,682
570,695;  629,258;   -0,174;   -1,318
571,277;  611,018;   -0,265;   -1,682
571,858;  822,992;    2,008;   -1,136
572,439;  656,319;    1,554;   -1,045
573,021;  692,828;    2,099;   -2,773
573,602;  807,157;   -1,265;    0,318
574,183;  749,737;   -2,083;    2,227
574,764;  696,455;   -1,629;    0,409
575,345;  903,121;    0,917;   -0,136
575,926;  723,144;   -0,356;    0,136
576,507;  807,154;    1,099;   -0,227
577,088;  764,608;    3,099;    1,682
577,669;  954,295;    0,735;    1,955
578,250; 1141,918;    0,644;   -1,045
578,831;  917,192;   -1,356;   -2,227
579,412;  900,845;   -0,810;    0,955
579,993;  878,488;    1,008;    0,227
580,573;  789,947;   -0,629;   -0,955
581,154;  926,844;    0,735;   -0,591
581,735;  938,928;    0,644;    0,773
582,315; 1096,200;   -0,629;    2,136
582,896;  895,364;   -0,174;    1,227
583,477;  726,611;    0,189;    1,227
584,057;  871,215;    0,553;    0,955
584,638;  995,761;    2,553;    2,318
585,218; 1235,755;   -0,538;    2,682
585,799; 1039,552;    0,281;   -0,227
586,379;  904,789;    0,372;    1,591
586,959;  862,829;    0,735;    0,318
587,540;  777,818;   -0,629;    2,227
588,120;  794,349;    1,007;   -0,045
588,700;  802,924;    2,553;    2,136
589,281;  986,490;    0,462;   -0,955
589,861;  831,053;    0,099;   -1,682
590,441;  692,132;    2,371;   -2,682
591,021;  791,304;   -0,265;   -2,591
591,601;  740,317;   -0,537;    0,500
592,181;  728,761;   -0,719;   -0,773
592,761;  623,307;    0,007;    1,409
593,341;  743,553;   -0,901;    0,045
593,921;  752,788;   -0,265;    1,591
594,501;  645,558;   -0,538;    1,318
595,081;  653,602;    0,917;   -0,318
595,661;  730,177;   -1,447;    0,955
596,240;  651,954;   -0,537;    0,136
596,820; 1083,539;    0,372;    1,955
597,400;  792,533;    2,008;    0,773
597,980;  690,206;    2,008;    1,045
598,559;  629,707;    2,735;   -0,227
599,139;  612,359;   -0,174;   -1,227
599,718;  609,541;   -0,174;   -0,409
600,298;  605,708;    0,735;    0,682
600,877; 1109,668;    2,917;    1,409
601,457;  802,527;    2,281;    1,136
602,036;  674,405;    0,190;    2,045
602,616;  728,567;    0,644;    1,682
603,195;  857,524;   -0,355;    3,500
603,774;  917,630;   -0,901;    2,045
604,354;  847,907;    0,826;   -0,500
604,933;  783,127;    0,463;    1,864
605,512;  887,006;    3,554;    0,591
606,091;  883,049;   -0,537;    3,773
606,671;  815,983;    0,281;    0,773
607,250;  995,261;    1,644;    3,136
607,829;  932,744;    2,372;    3,227
608,408;  765,679;    1,190;    2,591
608,987;  894,867;    1,281;    3,409
609,566;  711,907;   -1,265;   -2,500
610,145;  813,241;   -1,082;    0,682
610,723;  851,162;    4,372;    6,864
611,302;  762,297;   -0,446;    1,682
611,881; 1068,228;    5,008;   11,227
612,460;  754,963;    1,645;    3,955
613,039;  637,909;   -0,082;    2,045
613,617;  629,119;    1,736;    4,773
614,196;  642,509;    1,099;    1,227
614,775;  718,266;    1,009;    2,409
615,353;  777,508;    0,736;    0,864
615,932;  737,515;    0,100;    2,409
616,510;  719,082;    0,554;    0,591
617,089; 1245,341;    7,100;   17,591
617,667;  844,246;    2,372;    6,136
618,246;  584,668;   -1,537;    1,318
618,824;  667,042;   -3,355;   -0,955
619,402;  691,681;   -2,900;   -1,773
619,981;  761,645;   -0,173;   -1,045
620,559;  661,984;    0,009;    1,682
621,137;  690,272;   -0,718;    1,864
621,715;  588,284;   -1,173;   -0,682
622,293;  608,814;   -0,537;   -0,773
622,871;  618,184;   -0,718;    0,500
623,450;  562,757;    0,373;   -0,864
624,028;  770,255;    0,191;   -0,955
624,606;  735,498;   -1,718;    1,682
625,183;  534,459;   -1,536;   -1,136
625,761;  677,456;    1,009;    1,136
626,339;  978,784;    1,373;    2,591
626,917;  626,126;   -0,172;   -0,045
627,495;  567,681;   -0,354;    1,318
628,073;  695,914;   -0,263;    2,864
628,650;  716,342;    0,100;    2,136
629,228;  707,747;    0,373;    4,409
629,806;  519,984;    2,282;    1,136
630,383;  579,027;    1,464;   -0,318
630,961;  581,984;    2,555;   -0,955
631,539;  630,475;    2,464;    0,227
632,116; 1356,621;   11,373;   15,409
632,694;  952,033;    2,555;    6,500
633,271;  792,583;    0,828;    2,682
633,848;  895,621;    1,828;    2,045
634,426;  610,645;   -1,081;    1,773
635,003;  477,546;    1,101;   -0,409
635,580;  906,262;    1,192;    3,682
636,158;  774,611;    3,737;    1,227
636,735;  577,947;    0,555;   -0,500
637,312;  571,906;   -0,809;   -0,682
637,889;  578,722;   -4,354;   -0,682
638,466;  559,155;   -3,990;   -0,409
639,043;  608,077;    2,101;   -1,136
639,620;  525,255;   -2,262;   -0,955
640,197;  668,607;    1,100;    1,682
640,774;  479,705;   -0,172;    1,136
641,351;  554,712;    0,737;    1,136
641,928;  757,355;   -0,627;    1,409
642,505;  868,453;    0,828;   -0,500
643,082;  690,732;   -1,718;    1,227
643,658;  553,557;   -0,718;    1,500
644,235;  535,019;    1,191;    2,500
644,812;  732,844;    1,918;    0,773
645,388;  711,760;   -0,991;    1,409
645,965;  490,403;   -0,809;    1,682
646,542;  505,682;   -1,445;   -0,227
647,118;  893,871;    1,009;   -0,955
647,695;  678,150;   -0,263;    1,136
648,271;  491,612;   -0,536;    0,500
648,848;  662,891;    0,736;    2,227
649,424;  788,716;    0,827;    1,318
650,000;  605,905;   -0,354;   -1,045
650,577;  631,275;   -0,627;   -0,955
651,153;  628,828;   -1,809;    0,955
651,729;  581,653;    1,191;    0,864
652,305;  957,750;    0,645;    2,773
652,881;  920,394;   -0,082;    1,136
653,458; 1062,764;    1,100;    0,227
654,034; 1171,862;    0,282;    1,591
654,610; 1326,959;    0,554;    0,773
655,186; 1842,239;    0,645;    3,045
655,762; 1363,064;   -0,991;    0,409
656,338; 1330,525;    0,100;    0,136
656,913; 1427,896;   -0,082;    0,409
657,489; 1192,084;    0,827;   -0,318
658,065; 1305,273;   -0,173;   -1,591
658,641; 1349,553;   -0,900;   -0,864
659,217; 1253,469;   -0,991;    0,409
659,792; 1391,475;    0,645;   -0,409
660,368; 1206,573;   -2,173;   -0,682
660,944; 1230,125;   -2,082;    1,227
661,519; 1108,587;   -0,628;    0,409
662,095;  806,503;   -1,719;    0,591
662,670;  633,419;    1,281;   -0,136
663,246;  541,244;    1,009;   -0,409
663,821;  711,887;    0,281;    1,682
664,396;  655,803;    0,009;    1,864
664,972;  567,446;    0,009;   -0,500
665,547;  626,998;    1,372;    0,136
666,122;  612,096;   -1,082;    0,318
666,698;  808,739;   -0,173;    0,318
667,273;  574,019;   -0,173;    0,136
667,848;  614,480;    2,372;    1,500
668,423;  789,941;    2,190;    2,318
668,998;  626,766;    2,827;   -0,682
669,573;  588,137;   -3,264;   -1,500
670,148;  785,416;   -1,446;   -0,682
670,723;  558,696;   -1,810;    0,318
671,298;  855,339;    2,372;    1,045
671,873;  755,346;   -0,082;   -0,136
672,448;  740,898;    0,645;    0,136
673,023;  731,269;   -1,992;   -0,227
673,597;  837,548;    0,827;    2,318
674,172;  890,919;   -0,355;    0,318
674,747;  788,289;    0,372;   -1,045
675,321;  544,205;   -0,628;    3,318
675,896;  483,939;    0,645;    1,045
676,471;  713,855;    2,645;    1,591
677,045;  636,862;   -1,264;    0,682
677,620;  734,141;    0,190;    1,136
678,194;  563,693;   -2,628;    1,136
678,769;  636,700;   -1,083;   -0,318
679,343;  692,889;   -0,628;    1,773
679,917;  829,714;   -1,446;    1,955
680,492;  660,721;    0,826;    3,227
681,066;  703,091;    3,372;    0,409
681,640;  629,189;    1,463;   -0,318
682,214;  642,105;    0,735;    0,500
682,788;  645,384;   -1,356;   -0,773
683,363;  799,482;   -1,810;    1,682
683,937;  665,943;   -1,719;   -0,318
684,511;  693,223;    0,463;   -0,591
685,085;  705,503;   -1,356;    0,318
685,659;  614,964;   -2,538;    0,864
686,232;  861,880;   -0,356;   -0,318
686,806;  740,432;   -0,901;    0,409
687,380;  620,530;   -0,174;    0,591
687,954;  555,537;   -1,174;    1,136
688,528;  890,907;   -0,719;    1,955
689,101;  714,368;   -3,992;    1,045
689,675;  608,648;   -0,356;   -0,136
690,249;  859,473;   -0,719;    0,409
690,822;  854,934;    0,280;    0,318
691,396;  729,759;   -0,265;    1,227
691,969;  648,493;    1,280;    0,136
692,543;  545,228;   -0,447;   -1,955
693,116;  533,234;   -0,265;   -1,409
693,690;  621,605;    0,099;    0,500
694,263;  557,703;   -1,083;    2,955
694,836;  929,528;    1,371;    3,591
695,410;  816,443;   -0,265;    1,773
695,983;  835,632;    0,189;    0,591
696,556;  622,821;   -0,447;   -1,045
697,129;  529,009;   -0,356;    1,409
697,703;  765,834;   -1,629;    1,955
698,276;  645,750;    1,462;   -0,773
698,849;  816,757;    1,280;    1,409
699,422;  574,764;   -1,083;    0,591
699,995;  474,589;    0,007;    0,136
700,568;  616,778;   -0,629;    3,045
701,140;  631,784;   -2,811;    1,682
701,713;  804,609;   -0,174;    2,409
702,286;  693,525;   -0,538;    0,864
702,859;  776,078;   -0,902;   -0,591
703,432;  864,448;    0,825;    0,682
704,004;  735,091;    0,462;    0,318
704,577;  609,825;   -0,629;    0,136
705,150;  665,287;    0,189;    2,500
705,722;  724,566;   -0,356;   -3,227
706,295;  800,027;   -0,175;   -0,591
706,867;  664,489;   -0,175;    1,955
707,440;  760,223;   -1,720;   -0,409
708,012;  844,775;    0,462;    0,591
708,584;  747,509;    2,462;    0,227
709,157;  517,425;    1,825;   -0,591
709,729;  759,159;    2,280;    2,045
710,301;  607,530;    0,734;    0,045
710,874;  626,809;   -1,447;   -0,227
711,446;  513,816;    0,371;    0,864
712,018;  594,005;    0,098;    0,500
712,590;  542,284;   -1,993;    1,682
713,162;  831,564;    0,825;    1,318
713,734;  609,662;    1,825;   -2,045
714,306;  511,305;   -1,902;   -0,409
714,878;  579,584;    0,825;    0,864
715,450;  528,137;    0,643;    0,864
716,022;  545,689;    1,552;    1,318
716,593;  527,241;    0,189;    0,591
717,165;  581,702;   -3,175;   -1,227
717,737;  855,255;    0,280;    0,409
718,309;  614,080;    0,280;   -0,045
718,880;  538,723;   -0,539;   -1,409
719,452;  616,093;   -0,175;   -1,591
720,024;  714,100;    0,734;   -0,591
720,595;  604,743;   -2,902;    0,955
721,167;  583,841;    0,370;   -2,045
721,738;  717,848;   -0,812;   -1,045
722,309;  880,491;   -0,993;   -1,227
722,881;  593,589;   -1,357;    0,773
723,452;  675,414;   -2,630;    2,864
724,023;  689,057;   -0,721;    2,682
724,595;  756,882;    0,007;    0,682
725,166;  617,889;    0,007;   -0,409
725,737;  822,441;    1,734;    0,227
726,308;  608,539;   -0,266;    0,318
726,879;  515,546;   -1,630;    1,227
727,450;  689,371;    0,552;   -0,045
728,021;  615,468;    3,097;    0,682
728,592;  794,566;    0,734;    0,500
729,163;  886,209;    0,643;   -0,136
729,734;  867,489;    0,188;   -0,227
730,305;  712,859;    1,734;    0,136
730,876;  671,321;    0,188;    2,955
731,447; 1009,782;    2,188;    2,682
732,017;  910,789;    1,097;    1,864
732,588;  698,705;    0,734;    1,227
733,159;  971,439;    0,643;   -1,045
733,729;  688,809;    0,006;    0,409
734,300;  853,816;    0,915;    0,864
734,870;  666,914;    3,461;    0,591
735,441;  642,921;    0,370;   -0,591
736,011;  631,836;    0,643;   -1,591
736,582;  638,389;   -0,812;    0,045
737,152;  781,577;   -1,721;   -2,045
737,722;  747,039;   -0,267;   -0,682
738,293;  583,773;   -1,358;    1,318
738,863;  775,325;    2,461;    2,318
739,433; 1045,968;    5,279;    0,318
740,003;  746,793;   -0,994;   -0,682
740,573;  887,891;    2,097;   -1,591
741,143;  746,261;   -1,085;    0,318
741,713;  639,996;    1,188;   -0,500
742,283;  718,548;    0,915;    1,591
742,853;  649,100;    1,915;    1,591
743,423;  475,107;    1,733;    0,045
743,993;  594,659;   -0,358;    1,500
744,563;  645,757;    0,097;   -0,864
745,133;  678,218;   -0,812;   -0,864
745,702;  542,134;   -0,267;    1,773
746,272;  774,959;   -0,176;    0,591
746,842;  796,421;   -1,358;   -0,591
747,411;  570,791;   -0,267;   -0,318
747,981;  470,980;    0,097;    0,500
748,551;  463,259;    2,278;   -1,045
749,120;  675,721;    0,642;   -0,227
749,690;  615,546;   -0,631;    2,409
750,259;  722,461;    1,369;    2,955
750,828;  795,923;    1,551;   -1,955
751,398;  552,293;    1,278;   -0,045
751,967; 1038,027;    2,187;    0,409
752,536;  685,216;   -0,813;   -0,227
753,105;  795,223;    0,096;    0,227
753,675;  633,048;    0,096;    1,773
754,244;  649,055;   -0,904;    3,591
754,813;  684,152;    0,551;    1,227
755,382;  636,705;    0,460;    0,955
755,951;  772,893;    1,551;    3,682
756,520;  888,991;   -0,085;    1,864
757,089;  994,361;    0,278;    0,500
757,658;  723,550;    1,733;    1,227
758,227;  558,193;    1,096;    0,318
758,795;  608,018;    1,187;    1,136
759,364;  610,389;   -0,086;   -0,591
759,933;  544,395;   -1,176;   -0,045
760,501;  488,220;    0,733;   -1,318
761,070;  655,227;   -2,813;   -1,409
761,639;  614,234;   -1,904;    1,318
762,207;  748,150;    1,551;   -0,955
762,776;  777,611;    0,369;    0,864
763,344;  633,164;   -0,995;    0,591
763,913;  437,807;   -0,722;    1,409
764,481;  987,905;    1,005;   -0,136
765,049;  978,002;   -1,358;    1,409
765,618;  890,282;   -0,086;    0,318
766,186;  692,289;    0,278;    0,136
766,754;  737,659;    0,005;    1,864
767,322;  622,393;   -1,995;    0,409
767,890;  570,218;   -0,722;   -1,773
768,459;  575,225;   -2,177;   -0,318
769,027;  808,595;    1,641;    3,409
769,595;  622,330;    3,278;    2,591
770,163;  711,700;    3,823;    2,955
770,730;  692,161;    0,732;   -0,136
771,298;  670,350;    0,187;   -1,409
771,866;  598,175;   -1,541;    4,955
772,434;  633,000;   -0,631;   -1,864
773,002;  842,370;    0,005;    0,682
773,569;  707,832;    0,914;    1,682
774,137;  833,839;   -0,268;   -0,045
774,705;  613,118;    0,278;   -0,136
775,272;  581,398;    0,641;    0,682
775,840;  608,314;   -0,177;    2,682
776,407;  726,957;    0,277;    1,955
776,975;  596,691;   -0,632;    0,318
777,542;  536,334;   -1,086;   -0,045
778,110;  573,614;   -1,268;   -0,045
778,677;  454,893;   -2,359;   -0,864
779,244;  533,718;    2,186;    1,045
779,812;  686,270;    1,823;    0,864
780,379;  778,550;    0,005;    1,136
780,946;  635,830;    1,005;   -0,773
781,513;  548,564;   -1,450;    0,318
782,080;  521,298;   -0,086;    2,864
782,647;  547,032;   -0,268;    3,045
783,214;  524,402;   -0,177;    3,864
783,781;  744,954;   -0,723;   -0,682
784,348;  679,779;   -0,632;    1,500
784,915;  459,786;   -3,177;    0,318
785,482;  692,611;    1,368;    2,591
786,049;  615,800;    0,186;   -0,591
786,615;  491,261;    0,277;   -0,955
787,182;  456,086;    0,186;   -0,682
787,749;  428,639;   -2,814;    1,409
788,315;  678,191;   -1,632;   -0,409
788,882;  543,743;    1,550;   -1,227
789,448;  850,295;    1,732;   -0,955
790,015;  608,575;    1,095;    3,227
790,581;  798,945;    1,459;    0,227
791,148;  608,134;    0,641;    1,045
791,714;  493,777;   -0,541;    3,136
792,280;  501,875;    0,186;    1,591
792,847;  448,882;    0,550;    2,500
793,413;  539,343;   -0,269;   -0,318
793,979;  762,259;    3,459;   -1,318
794,545; 1041,084;    4,459;    2,682
795,111;  915,091;    2,186;    1,318
795,678;  763,461;    0,731;   -1,682
796,244;  921,650;    3,368;    0,136
796,810;  765,020;    1,731;    0,773
797,375;  766,845;    0,549;   -2,136
797,941;  434,216;   -0,541;    0,591
798,507;  447,586;   -0,451;   -0,955
799,073;  493,775;   -0,360;    0,591
799,639;  478,873;   -2,632;    3,136
800,205;  441,607;    0,095;    2,682
800,770;  479,523;    0,640;    1,773
801,336;  494,711;    1,368;   -0,955
801,901; 1094,264;    4,549;    3,136
802,467;  738,907;   -0,542;    2,045
803,033;  516,459;   -0,087;    0,864
803,598;  511,739;    1,913;   -1,045
804,163;  521,109;    1,095;   -0,318
804,729;  629,570;   -0,178;    1,136
805,294;  524,941;    0,822;    2,227
805,859;  457,766;    0,731;   -0,409
806,425;  855,227;    1,186;    2,682
806,990;  833,143;    2,186;    4,318
807,555;  573,513;   -1,451;    2,591
808,120;  735,884;    0,822;   -0,409
808,685;  534,527;    0,185;   -2,500
809,250;  439,898;    0,004;   -0,500
809,815;  421,813;    1,913;    0,682
810,380;  549,548;   -0,269;    1,591
810,945;  737,736;   -1,087;    2,045
811,510;  560,652;    2,094;    1,591
812,075;  629,295;   -0,633;   -1,409
812,640;  867,211;    2,003;    1,409
813,204;  611,036;    0,822;   -0,227
813,769;  753,043;    2,094;   -0,045
814,334;  750,686;    0,458;    0,864
814,898;  466,329;    0,367;    0,591
815,463;  581,973;    1,276;   -0,773
816,027;  523,707;   -0,724;   -2,318
816,592;  435,986;    0,640;   -2,045
817,156;  621,448;    2,094;    1,136
817,721;  743,727;    4,276;    2,318
818,285;  471,552;    2,912;    1,500
818,849;  532,013;   -1,451;    1,682
819,414;  459,566;   -0,269;    2,955
819,978;  406,936;   -1,269;    1,773
820,542;  705,579;    2,003;    0,500
821,106;  527,041;   -0,815;    0,682
821,670;  752,048;   -0,815;    2,591
822,234;  524,873;   -0,270;    1,409
822,798;  415,061;    0,003;    0,500
823,362;  654,704;   -0,633;    4,227
823,926;  503,257;    0,094;    1,136
824,490;  697,991;   -0,997;   -0,682
825,054;  560,998;   -0,088;   -1,136
825,618;  456,186;   -1,542;   -1,500
826,181;  523,648;    0,458;   -1,318
826,745;  630,473;    1,367;   -1,045
827,309;  844,661;    1,185;    1,318
827,872;  711,304;    1,367;    0,955
828,436;  592,493;    1,185;   -0,773
828,999;  485,045;   -0,997;    1,227
829,563;  464,143;   -0,179;    1,136
830,126;  440,332;   -0,179;   -0,591
830,690;  558,429;   -1,997;    2,864
831,253;  472,436;   -0,543;    2,227
831,816;  517,443;   -1,906;    0,500
832,380;  475,723;    0,185;    0,864
832,943;  450,275;   -1,361;   -0,500
833,506;  463,827;    2,639;   -1,227
834,069;  607,743;    3,912;   -0,955
834,632;  457,204;    1,730;    1,318
835,195;  500,938;    1,003;    0,955
835,758;  439,036;   -0,997;    1,955
836,321;  463,407;    0,730;   -1,045
836,884;  429,868;   -0,725;   -0,955
837,447;  368,420;   -2,816;    1,773
838,010;  556,245;    0,366;    3,227
838,573;  555,616;   -1,179;    0,773
839,135;  414,622;   -1,361;   -0,955
839,698;  491,538;    1,275;    0,409
840,261;  436,000;    1,003;   -0,227
840,823;  387,734;   -0,543;    0,864
841,386;  377,104;   -0,452;   -2,409
841,948;  681,293;   -1,361;    1,773
842,511;  466,209;    0,912;    1,682
843,073;  665,670;    1,912;    0,227
843,636;  420,313;   -0,361;   -0,227
844,198;  646,684;    0,911;    0,591
844,760;  598,054;    1,093;    1,955
845,322;  395,243;    0,548;    1,136
845,885;  534,977;    0,730;    0,591
846,447;  465,893;   -1,998;    0,227
847,009;  806,809;    1,911;   -0,682
847,571;  511,361;    0,820;   -2,045
848,133;  463,186;   -1,089;   -1,864
848,695;  332,102;   -0,543;    1,409
849,257;  414,563;   -1,089;   -1,682
849,819;  565,025;   -0,998;   -0,409
850,381;  426,759;   -0,725;   -0,864
850,942;  489,129;    1,093;   -0,591
851,504;  572,500;    1,184;    0,227
852,066;  426,597;    1,275;   -1,591
852,628;  469,513;   -0,180;    1,955
853,189;  370,520;    1,638;    2,682
853,751;  370,891;   -0,907;    1,409
854,312;  534,897;   -0,453;   -1,682
854,874;  661,541;   -2,089;   -0,773
855,435;  465,275;   -0,907;   -1,682
855,997;  507,645;   -1,816;   -0,136
856,558;  631,834;    0,366;    1,773
857,119;  535,113;    0,820;    2,864
857,681;  376,666;    0,002;    0,318
858,242;  649,127;    1,911;   -2,136
858,803;  601,406;    0,456;   -0,773
859,364;  471,231;    0,184;   -4,773
859,925;  558,602;   -2,453;   -0,955
860,486;  430,791;   -0,453;   -0,955
861,047;  376,252;   -0,544;   -1,227
861,608;  428,622;   -1,089;   -0,773
862,169;  287,993;    0,638;   -0,045
862,730;  427,000;    0,456;    1,409
863,291;  466,006;   -0,635;   -0,500
863,852;  443,831;   -0,635;    1,955
864,412;  443,202;   -0,271;   -0,864
864,973;  679,027;   -0,089;    0,500
865,534;  788,579;   -1,726;    0,227
866,094;  571,041;    1,820;    0,227
866,655;  698,593;    1,274;    3,318
867,215;  516,327;    0,274;    0,136
867,776;  367,425;    0,547;   -0,136
868,336;  463,613;   -1,453;    0,136
868,897;  842,984;    2,638;    1,682
869,457;  621,809;    1,365;    0,318
870,017;  409,543;    0,547;   -1,227
870,578;  397,731;   -0,817;    0,773
871,138;  496,011;   -2,089;   -0,955
871,698;  408,200;   -0,817;   -1,318
872,258;  528,934;   -0,453;   -2,864
872,818;  677,850;    2,729;    0,045
873,378;  493,675;    0,638;    1,045
873,938;  474,045;    0,547;    0,500
874,498;  377,779;    0,274;   -1,955
875,058;  486,331;    2,183;    1,773
875,618;  482,066;    1,910;   -2,682
876,177;  523,072;    1,274;    0,136
876,737;  357,352;   -0,090;    1,955
877,297;  722,268;    0,183;    1,955
877,856;  649,911;   -0,362;    0,318
878,416;  418,463;    1,183;   -0,136
878,976;  377,834;   -1,817;    0,409
879,535;  413,568;    0,092;    3,136
880,095;  402,120;   -0,544;    0,045
880,654;  347,218;   -1,090;    1,318
881,213;  650,861;    2,456;    1,500
881,773;  491,777;    2,637;    2,682
882,332;  967,056;    3,365;    5,136
882,891;  469,063;    3,092;    2,136
883,451;  459,161;   -1,272;    1,682
884,010;  429,804;   -2,908;   -0,409
884,569;  363,811;   -0,999;   -0,045
885,128;  541,000;    2,819;   -1,864
885,687;  781,097;    4,455;    0,682
886,246;  945,468;    1,455;    2,136
886,805;  751,020;    2,455;    2,045
887,364;  409,845;   -0,999;   -0,500
887,922;  337,943;   -1,181;    0,045
888,481;  545,495;   -1,545;    0,591
889,040;  612,865;    1,183;    2,136
889,599;  487,236;    2,455;    1,409
890,157;  483,970;    1,455;    2,409
890,716;  419,795;   -0,090;    0,227
891,274;  540,802;    0,092;   -1,136
891,833;  595,172;    1,546;    0,864
892,391;  489,452;   -0,454;    0,500
892,950;  578,550;    1,819;   -0,773
893,508;  387,829;    0,455;   -0,409
894,067;  318,836;    0,637;    0,136
894,625;  425,479;   -0,636;   -1,500
895,183;  384,486;   -0,363;   -0,682
895,741;  651,493;    1,728;   -1,773
896,299;  447,318;   -0,545;   -2,409
896,858;  393,961;    0,819;   -1,591
897,416;  528,240;    2,728;   -1,318
897,974;  450,065;    1,819;    0,318
898,532;  874,981;    6,091;    2,682
899,089;  594,170;    2,091;   -0,682
899,647;  490,359;   -1,454;    1,318
900,205;  483,729;    1,182;    1,045
900,763;  474,463;   -0,454;    0,227
901,321;  426,106;    2,364;   -1,409
901,878;  269,840;   -1,000;   -0,773
902,436;  357,938;   -1,363;    1,318
902,994; 1026,763;    4,728;    3,682
903,551;  604,679;    0,728;    0,409
904,109;  467,686;    0,182;   -1,409
904,666;  430,602;    2,455;    1,045
905,224;  323,427;    0,182;   -0,409
905,781;  497,070;    0,727;   -0,318
906,338;  427,168;   -1,363;    1,045
906,895;  326,538;    0,637;    2,045
907,453;  579,636;    1,727;    1,136
908,010;  440,370;   -0,909;    0,409
908,567;  438,922;    1,273;    0,591
909,124;  292,020;    0,364;   -1,500
909,681;  358,936;   -2,909;    0,682
910,238;  382,761;    0,636;   -1,318
910,795;  282,768;   -0,273;   -1,136
911,352;  309,495;   -2,909;   -2,682
911,909;  359,495;   -1,364;   -0,864
912,466;  347,859;   -3,182;    1,500
913,022;  460,404;   -1,636;    0,500
913,579;  525,131;   -0,909;    2,045
914,136;  414,222;    1,636;    0,955
914,692;  414,495;    0,091;   -1,227
915,249;  441,404;    1,455;    0,409
915,806;  508,586;    0,182;    1,955
916,362;  406,677;    1,909;    1,864
916,918;  391,313;    2,000;    1,045
917,475;  508,131;   -1,182;    0,955
918,031;  349,949;    3,364;   -0,045
918,587;  424,131;   -0,909;   -0,318
919,144;  342,131;   -2,273;    0,227
919,700;  266,677;    1,727;    0,773
920,256;  276,313;    0,727;    0,045
920,812;  346,859;   -0,727;   -1,045
921,368;  310,404;   -1,727;   -1,045
921,924;  334,586;    0,182;   -0,136
922,480;  420,495;   -0,545;    1,227
923,036;  421,586;    1,273;    1,955
923,592;  326,404;    0,455;    0,318
924,148;  335,495;    0,455;   -0,955
924,704;  466,131;   -1,364;   -0,409
925,259;  302,222;   -0,273;    0,591
925,815;  303,495;    1,455;    0,500
926,371;  283,677;    2,909;    1,409
926,926;  428,495;    2,091;    0,591
927,482;  405,040;   -1,364;    0,773
928,037;  341,495;    0,909;    2,045
928,593;  504,040;    1,636;    1,045
929,148;  302,586;   -1,818;   -1,500
929,704;  377,586;   -1,455;   -0,500
930,259;  307,586;    0,091;   -0,136
930,814;  470,949;   -0,818;    1,955
931,369;  408,222;    1,091;   -0,773
931,925;  261,768;   -0,091;    0,136
932,480;  354,495;   -2,818;   -2,591
933,035;  646,586;    0,545;   -0,318
933,590;  555,949;    0,364;   -1,773
934,145;  265,859;   -1,364;   -0,318
934,700;  180,768;    0,455;   -0,591
935,255;  239,404;   -0,091;    0,045
935,809;  515,949;    3,182;    0,864
936,364;  246,859;   -0,455;   -0,136
936,919;  239,677;    0,455;   -1,773
937,474;  181,859;    1,455;    0,136
938,028;  188,859;   -1,636;    1,136
938,583;  528,768;    1,818;    4,682
939,138;  262,404;    2,091;    2,136
939,692;  164,677;    1,636;   -1,136
940,247;  204,404;   -0,727;   -1,045
940,801;  234,677;   -0,636;    0,227
941,355;  172,313;   -0,364;    2,591
941,910;  123,768;   -0,273;   -2,136
942,464;  149,313;   -0,818;   -0,318
943,018;  316,222;    1,000;   -0,227
943,572;  206,495;    2,545;   -0,682
944,126;  262,677;    0,091;   -0,409
944,681;  177,222;    3,091;    0,227
945,235;  133,859;    1,000;   -0,591
945,789;  113,949;    0,364;   -1,864
946,342;  299,859;    0,455;   -0,591
946,896;  149,495;   -2,273;    0,955
947,450;  122,677;    1,545;   -0,227
948,004;  290,677;    1,727;   -0,045
948,558;  170,859;    0,273;   -0,864
949,111;  168,313;   -0,273;   -0,318
949,665;  288,222;    1,636;   -0,682
950,219;  270,949;   -0,091;   -1,045
950,772;  213,677;   -1,909;    1,864
951,326;  199,040;    0,545;   -0,955
951,879;  167,768;    0,727;   -2,318
952,433;  259,949;    0,000;    2,227
952,986;  151,313;    2,909;    0,682
953,539;  127,222;   -0,273;    0,591
954,093;   99,859;    0,545;   -1,318
954,646;  171,768;    0,909;    1,318
955,199;  120,040;    0,000;   -0,500
955,752;  285,313;   -0,455;    1,773
956,305;  177,949;   -0,091;    2,955
956,858;  206,586;    0,818;   -0,318
957,411;  236,586;   -0,545;    2,136
957,964;  193,495;    1,364;    2,136
958,517;  131,949;   -1,545;    3,136
959,070;  104,768;   -0,455;    1,955
959,623;  283,586;    1,091;    1,500
960,176;  249,495;    1,727;    2,045
960,728;  218,040;   -2,727;    0,773
961,281;  172,949;    0,545;    0,500
961,834;  132,040;   -0,909;    0,864
962,386;  140,313;    1,727;    1,045
962,939;  130,040;    0,364;   -0,318
963,491;  158,313;    0,455;    1,136
964,043;  118,495;    1,182;    2,409
964,596;  228,495;   -1,000;    2,227
965,148;  161,313;   -1,000;    1,773
965,700;  114,313;    1,091;   -0,227
966,253;  219,768;   -0,636;    0,318
966,805;  187,040;   -2,273;    0,773
967,357;  144,859;    1,091;   -1,500
967,909;  214,040;    0,455;   -1,227
968,461;  142,949;    0,545;    3,136
969,013;  115,495;   -0,182;   -0,864
969,565;  219,495;   -0,455;   -1,136
970,117;  366,859;   -0,364;    1,045
970,669;  222,586;    0,182;   -0,136
971,220;   94,949;   -0,455;   -1,500
971,772;  148,313;   -0,636;   -0,318
972,324;  202,768;    0,091;   -0,500
972,876;  133,949;    0,818;   -0,045
973,427;  208,495;    1,909;   -1,045
973,979;  260,949;   -0,727;   -2,500
974,530;  141,859;    1,818;    1,318
975,082;  184,677;   -0,545;    1,682
975,633;  144,313;    1,091;    1,682
976,184;  164,131;    0,909;    0,773
976,736;  162,586;    0,091;    0,227
977,287;  187,222;   -0,909;   -0,500
977,838;  154,949;    0,909;   -0,318
978,389;  152,495;   -1,000;   -0,500
978,940;   85,768;    0,545;   -0,409
979,491;   88,040;    0,091;   -0,500
980,042;  144,768;    0,182;    3,045
980,593;  156,040;   -2,545;    0,227
981,144;  201,949;    2,545;   -0,500
981,695;  211,859;    1,455;    1,500
982,246;  185,586;   -0,273;    1,045
982,797;  112,677;   -1,727;    0,682
983,347;  192,768;    0,364;    0,591
983,898;  326,495;    3,091;    0,409
984,449;  305,677;    2,182;    0,773
984,999;  199,768;    1,455;   -1,136
985,550;  167,677;    0,182;   -0,318
986,100;   99,949;   -0,455;   -0,318
986,651;   97,859;   -0,818;    0,045
987,201;  110,313;   -1,000;   -0,591
987,751;  120,495;    0,818;    2,864
988,302;  136,586;    2,636;    1,500
988,852;  172,768;    0,455;   -1,136
989,402;  203,949;    0,091;    0,682
989,952;  226,040;   -2,182;    0,864
990,502;  130,040;   -0,091;    0,682
991,052;   76,859;   -0,727;    0,045
991,602;  106,495;   -2,909;    1,318
992,152;  137,313;    0,455;    0,682
992,702;  160,040;    1,364;   -0,045
993,252;  119,586;   -3,000;   -0,500
993,802;  177,313;   -0,273;    1,318
994,352;  143,586;   -1,545;    1,136
994,901;   91,222;   -0,182;    3,227
995,451;   86,495;   -0,182;    0,318
996,000;  105,222;    1,636;    0,318
996,550;  120,040;    2,273;    0,227
997,100;  138,040;    1,273;   -0,045
997,649;  214,404;    2,182;    0,955
998,198;  115,131;    1,727;   -1,500
998,748;  170,677;    1,091;   -2,318
999,297;  141,495;   -0,818;   -0,409
999,846;  219,586;    1,000;   -0,773
1000,395;  156,404;   -0,818;    0,500
1000,945;  223,131;    1,818;   -0,773
1001,494;  220,677;    2,364;    0,682
1002,043;  225,949;    4,636;    0,864
1002,592;  117,859;   -1,091;    1,955
1003,141;  107,949;   -0,455;   -0,682
1003,690;  213,949;    1,727;    0,500
1004,238;  141,313;    1,455;   -0,045
1004,787;   93,859;    1,364;    1,227
1005,336;  186,949;    0,364;    0,682
1005,885;  151,677;    1,364;   -2,773
1006,433;  149,222;    0,545;    0,955
1006,982;  257,131;    0,455;    1,682
1007,531;  169,677;   -1,818;   -0,227
1008,079;  148,586;   -2,273;    0,500
1008,627;  114,040;   -1,455;    0,409
1009,176;  135,677;    0,000;   -1,955
1009,724;  104,859;    1,091;    0,864
1010,273;  188,495;    1,273;    0,500
1010,821;  115,131;    0,091;    1,409
1011,369;   97,768;   -1,364;    1,318
1011,917;  105,677;   -1,364;   -0,591
1012,465;  149,222;    1,273;   -1,591
1013,013;  137,313;    2,091;   -1,682
1013,561;  212,222;    0,455;   -0,773
1014,109;  269,131;   -1,909;    1,682
1014,657;  183,768;    0,364;    0,591
1015,205;  125,586;    1,636;   -0,955
1015,753;   97,768;   -0,545;   -1,409
1016,301;  139,859;   -2,636;    3,045
1016,848;  186,131;   -1,273;    0,409
1017,396;  171,131;    2,545;    0,045
1017,944;  167,768;    1,182;    1,864
1018,491;  127,949;    0,273;    1,409
1019,039;  302,404;    0,455;    0,591
1019,586;  164,040;   -1,364;    1,682
1020,134;  147,859;    0,455;    1,500
1020,681;  202,495;    0,182;   -1,136
1021,228;  155,222;    2,909;   -2,227
1021,776;  135,859;    1,182;   -1,136
1022,323;  272,222;    0,455;    0,773
1022,870;  201,677;   -1,000;   -0,045
1023,417;  232,859;    2,636;    1,864
1023,964;  139,949;    2,636;    1,227
1024,511;  118,768;    1,000;    0,773
1025,058;  157,586;    3,182;   -0,045
1025,605;  122,949;   -2,273;    3,136
1026,152;  248,222;    1,727;   -0,591
1026,699;  159,949;    1,818;    1,318
1027,245;  147,677;   -0,091;    0,318
1027,792;  108,495;   -1,000;    1,409
1028,339;  248,040;    2,364;   -0,045
1028,885;  163,495;    1,000;   -0,227
1029,432;  133,586;   -0,091;    0,227
1029,978;  185,949;   -1,000;   -1,591
1030,525;  194,040;    1,000;    0,409
1031,071;  121,131;   -1,364;    1,136
1031,618;  297,040;    0,364;    1,682
1032,164;  192,768;   -0,091;    3,045
1032,710;  211,404;    1,636;   -1,500
1033,256;  189,586;   -0,636;   -0,136
1033,803;  106,131;   -0,545;    1,500
1034,349;   41,677;   -1,364;    0,136
1034,895;   67,040;    0,000;   -0,318
1035,441;  101,949;   -0,818;    0,318
1035,987;  130,859;   -2,364;   -0,682
1036,533;  176,404;   -1,455;   -0,955
1037,078;  305,495;    1,455;    1,682
1037,624;  212,313;    2,455;   -0,955
1038,170;  125,495;    0,455;   -0,318
1038,716;  172,495;    1,636;   -0,409
1039,261;  105,313;   -2,273;   -0,773
1039,807;  117,040;   -0,091;    3,409
1040,352;  125,495;   -1,909;   -0,318
1040,898;  121,859;   -1,545;   -0,682
1041,443;   92,313;   -1,455;   -2,591
1041,989;  279,313;    1,091;    1,591
1042,534;  157,768;   -0,364;    2,591
1043,079;   84,768;    2,909;    0,955
1043,625;  142,495;    1,818;    0,500
1044,170;  144,768;   -1,364;    1,045
1044,715;  264,040;    2,455;    0,955
1045,260;  207,131;    2,182;   -0,955
1045,805;  116,131;    1,182;   -0,591
1046,350;  100,586;    1,364;   -0,409
1046,895;  205,404;    2,909;    1,591
1047,440;  190,313;    5,364;    0,409
1047,985;  123,586;    2,818;   -0,955
1048,530;  108,677;    1,545;    1,227
1049,074;  135,313;    0,000;    0,318
1049,619;  101,677;   -1,364;    1,955
1050,164;  101,949;    0,455;    0,227
1050,708;  160,404;   -0,455;    0,045
1051,253;  303,859;    1,273;   -2,227
1051,797;  180,131;    0,818;   -1,318
1052,342;   83,495;   -1,182;    1,045
1052,886;  129,222;    0,364;   -1,409
1053,430;   78,040;   -1,364;    0,136
1053,975;  138,677;   -0,818;   -0,318
1054,519;  134,040;   -0,727;    3,227
1055,063;  167,131;    0,909;    1,318
1055,607;  163,131;   -0,182;    0,227
1056,151;  162,768;    2,909;    1,682
1056,695;  113,949;    2,273;   -1,136
1057,239;  107,404;   -1,727;   -0,682
1057,783;  132,313;    0,818;   -1,500
1058,327;  176,949;    0,000;    1,409
1058,871;  265,313;   -0,545;    1,318
1059,415;  189,313;   -0,818;   -0,045
1059,958;  271,131;    1,455;    2,591
1060,502;  119,495;   -1,000;   -0,773
1061,046;   77,859;    0,364;   -0,955
1061,589;   75,495;   -3,000;   -1,136
1062,133;   61,586;   -1,273;    1,864
1062,676;   90,768;    1,182;    0,864
1063,220;  104,222;    1,091;    0,500
1063,763;  122,222;    0,909;    1,136
1064,306;  133,495;   -0,909;    1,864
1064,849;  132,586;   -0,909;    0,591
1065,393;  117,222;    2,000;   -1,500
1065,936;  116,495;    0,182;   -0,409
1066,479;   82,495;   -1,455;    1,318
1067,022;   96,949;   -0,273;   -0,227
1067,565;   82,768;   -0,091;   -1,318
1068,108;   66,040;    0,727;   -0,591
1068,651;   57,677;   -0,636;    1,409
1069,194;   62,495;   -0,455;   -1,682
1069,736;   70,222;   -1,273;    0,955
1070,279;   61,313;   -1,364;   -0,500
1070,822;  100,677;   -2,000;   -0,318
1071,364;  179,131;   -0,364;    1,318
1071,907;  101,768;   -0,727;    3,227
1072,450;   34,040;    0,000;   -0,045
1072,992;   69,040;   -0,273;    3,136
1073,535;  100,131;    2,091;    2,136
1074,077;   65,040;   -0,727;    2,045
1074,619;   54,040;   -1,364;    0,591
1075,161;   77,040;   -1,091;    1,500
1075,704;  148,859;    1,545;    1,227
1076,246;   77,677;   -0,182;    0,682
1076,788;   44,131;   -0,364;    1,773
1077,330;   49,313;    1,273;    2,136
1077,872;   68,131;    0,909;    0,955
1078,414;  162,222;    2,727;    0,773
1078,956;   82,677;    1,273;   -0,227
1079,498;  151,222;    1,636;    0,318
1080,040;   86,040;    1,909;   -1,318
1080,581;   60,222;    1,636;   -0,318
1081,123;   38,859;    0,091;   -0,773
1081,665;   41,677;   -1,182;   -0,955
1082,206;  138,768;    1,364;   -0,500
1082,748;   87,859;    0,727;    2,045
1083,289;   44,495;   -2,000;    1,318
1083,831;   43,404;   -0,545;    0,227
1084,372;   66,222;    0,000;    0,591
1084,913;   66,949;    1,091;    0,864
1085,455;   45,040;   -1,909;   -2,045
1085,996;   36,949;   -2,273;    0,136
1086,537;   44,495;   -0,091;    0,864
1087,078;   58,586;   -0,909;   -2,136
1087,619;   86,949;   -1,273;    0,227
1088,160;   66,586;    0,000;    1,318
1088,701;   60,222;   -1,091;    0,682
1089,242;   48,495;    1,364;   -2,227
1089,783;   73,404;   -0,273;    1,409
1090,324;   57,586;    0,455;    0,682
1090,865;   40,949;    2,727;   -0,409
1091,405;   31,222;    0,727;    2,227
1091,946;   52,404;    0,182;   -0,955
1092,487;   27,949;    0,818;   -1,409
1093,027;   78,859;   -1,364;   -1,500
1093,568;   49,859;   -0,364;    1,227
1094,108;   62,677;    0,273;    1,773
1094,649;   47,859;   -1,182;    0,136
1095,189;   34,040;   -0,636;   -0,682
1095,729;   31,495;   -0,091;    0,955
1096,269;   32,222;    0,727;   -0,955
1096,810;  102,768;   -1,364;    0,500
1097,350;   69,495;    1,364;   -0,773
1097,890;   49,949;    0,364;    1,227
1098,430;  144,404;    2,364;    2,864
1098,970;  100,677;    2,182;    1,682
1099,510;   44,586;    0,545;   -2,318
1100,050;   35,949;    1,000;   -1,591
1100,589;   43,768;   -0,727;   -0,318
1101,129;   64,404;    0,818;   -0,955
1101,669;  102,949;    1,727;    2,136
1102,209;   64,768;   -0,091;    2,227
1102,748;   48,677;    0,000;    0,955
1103,288;   56,859;    1,273;   -1,227
1103,827;   50,404;    3,091;   -2,227
1104,367;   30,586;   -0,091;   -2,409
1104,906;   33,677;    1,364;   -1,136
1105,445;   57,677;    0,636;   -1,136
1105,985;   43,859;   -0,727;    1,500
1106,524;   47,677;   -1,727;   -0,682
1107,063;   40,949;   -2,727;    1,409
1107,602;   29,949;   -1,909;   -1,500
1108,141;   26,222;   -1,909;    1,500
1108,680;   55,404;   -3,455;   -0,591
1109,219;   39,768;   -0,909;   -0,500
1109,758;   37,859;    0,455;    0,682
1110,297;   37,040;    1,000;   -0,682
1110,836;   24,768;   -0,727;    0,955
1111,375;   26,768;   -2,545;    0,409
1111,913;   56,586;   -1,000;    0,773
1112,452;   42,859;   -0,273;    0,136
1112,991;   23,586;    1,091;    1,955
1113,529;   23,222;   -0,818;   -0,045
1114,068;   34,859;   -0,273;    2,955
1114,606;   22,313;   -0,364;   -0,955
1115,144;   54,040;   -1,273;    1,045
1115,683;   39,495;   -0,727;    0,318
1116,221;   53,949;   -0,455;   -0,864
1116,759;   31,404;    0,636;   -0,864
1117,297;   60,495;    0,000;    1,864
1117,836;   33,222;   -2,182;   -1,227
1118,374;   34,586;    0,182;   -0,682
1118,912;   35,404;    0,909;    2,682
1119,450;   33,859;    1,000;    0,864
1119,988;   30,949;    1,545;    2,136
1120,525;  177,495;    5,091;    3,318
1121,063;   82,768;    1,182;    1,864
1121,601;   31,404;   -0,909;   -1,227
1122,139;   24,495;   -0,727;   -2,045
1122,676;   70,859;   -0,727;    2,773
1123,214;   59,677;   -1,182;    4,409
1123,751;   22,313;    1,727;    2,227
1124,289;   35,949;   -0,091;   -0,409
1124,826;   25,949;    1,727;    0,227
1125,364;   11,768;    1,727;   -0,955
1125,901;   64,313;    1,182;    1,227
1126,438;   58,859;    0,818;    0,955
1126,975;   17,222;   -0,727;   -0,773
1127,513;   22,495;    0,273;    2,136
1128,050;   15,404;    1,636;   -0,682
1128,587;   25,949;    2,000;   -0,227
1129,124;   35,495;    0,091;    1,318
1129,661;   13,404;    0,273;    0,227
1130,198;   48,949;    1,636;    0,773
1130,734;   31,768;    0,182;    1,409
1131,271;   10,586;   -0,909;    0,864
1131,808;   40,586;    2,909;    3,045
1132,345;   24,949;    1,545;    0,318
1132,881;    6,677;   -1,545;   -1,864
1133,418;   25,768;    0,727;   -1,136
1133,954;   16,677;    2,455;   -2,682
1134,491;   31,131;    1,364;   -0,773
1135,027;   14,313;    2,364;    0,864
1135,564;   26,949;    0,273;    2,955
1136,100;   23,131;    0,364;    2,136
1136,636;    9,586;   -1,273;   -1,045
1137,172;   19,859;    0,000;   -1,045
1137,708;   15,040;   -1,364;   -1,045
1138,245;   10,677;    1,273;   -1,227
1138,781;    9,859;    1,091;   -3,318
1139,317;   15,677;    1,273;   -1,409
1139,852;   20,131;    3,091;    0,136
1140,388;   28,131;   -1,182;   -0,409
1140,924;   14,313;   -1,091;   -2,227
1141,460;    7,404;   -1,636;    0,136
1141,996;    5,859;   -1,364;    2,682
1142,531;    7,949;    1,364;    3,318
1143,067;   37,404;    1,182;    1,045
1143,602;   54,131;   -0,091;   -0,318
1144,138;   23,313;   -2,636;    1,045
1144,673;    7,495;   -1,455;    1,409
1145,209;   11,404;   -1,909;   -0,318
1145,744;    5,131;   -0,727;    0,864
1146,279;   21,859;    1,818;   -0,136
1146,815;   13,586;    1,545;   -2,682
1147,350;   19,495;   -1,364;    0,045
1147,885;    6,677;   -0,818;   -1,318
1148,420;    8,040;   -2,273;    0,773
1148,955;    7,313;   -1,727;    1,864
1149,490;    5,677;   -0,909;   -1,591
1150,025;    3,404;    0,455;   -1,773
1150,560;   17,404;    1,091;   -0,955
1151,094;   13,677;    1,455;   -0,591
1151,629;   15,677;    1,636;    0,864
1152,164;    6,222;    1,364;    1,318
1152,698;    4,131;   -0,182;   -0,136
1153,233;    0,131;    0,091;   -0,682
1153,767;    7,495;   -3,000;   -2,318
1154,302;    6,404;   -1,455;    1,773
1154,836;    8,768;   -0,455;   -2,136
1155,371;   14,768;   -1,364;    3,682
1155,905;   10,495;   -0,636;    1,682
1156,439;    8,677;   -0,636;   -0,500
1156,973;   10,859;    0,364;    0,318
1157,507;    4,404;   -0,364;    0,682
1158,042;    8,495;   -0,727;    1,045
1158,576;   13,313;    0,182;    1,773
1159,110;   14,404;   -0,818;    2,409
1159,643;    9,222;    0,636;   -0,045
1160,177;    2,677;   -1,545;    1,500

