
Integration time [ms]:   0,040
Averaging Nr. [scans]: 11
Smoothing Nr. [pixels]: 0
Data measured with spectrometer [name]: 7318044SP
Wave   ;Sample   ;Dark     ;Reference
[nm]   ;[counts] ;[counts] ;[counts] 

186,757;   28,862;   31,551;    1,318
187,357;   22,219;   22,551;    0,955
187,958;   15,947;   15,460;   -1,591
188,558;   13,862;    8,915;   -1,227
189,159;    8,583;    6,733;   -4,500
189,759;    7,401;    7,278;   -3,591
190,360;    3,208;    2,824;   -2,136
190,960;    3,651;    2,915;   -4,136
191,560;    5,081;    3,189;   -6,591
192,161;    9,029;    4,372;   -3,500
192,761;    4,525;    4,010;   -3,227
193,361;    1,702;    1,556;   -3,773
193,962;    2,276;    2,010;   -2,682
194,562;   -1,568;    1,189;   -3,955
195,162;   -0,535;   -2,448;   -2,227
195,762;    1,480;   -3,176;   -0,045
196,362;    2,756;    1,370;   -2,500
196,963;    1,669;    2,006;   -0,864
197,563;    1,862;    1,551;   -0,955
198,163;    1,780;    0,096;   -0,682
198,763;    1,867;    1,733;   -0,500
199,363;    3,504;    3,096;   -0,500
199,963;    2,875;    0,369;    0,409
200,563;    3,879;    2,823;   -1,409
201,163;    1,065;    3,277;   -0,227
201,763;    2,427;    3,732;    0,318
202,363;    2,066;    1,459;    1,500
202,963;    3,615;    1,459;    1,045
203,563;    6,158;    0,277;    0,500
204,162;    3,432;    2,096;   -1,864
204,762;    2,079;    0,550;    0,591
205,362;    3,075;    3,004;    1,955
205,962;    2,701;    3,096;    1,955
206,562;    2,891;    1,823;    2,318
207,161;    2,446;   -0,087;    0,318
207,761;    4,709;    1,277;    2,409
208,361;    4,342;   -0,268;    1,409
208,960;    3,435;    0,459;    1,500
209,560;    1,353;    1,277;    1,591
210,160;    0,531;    0,550;    1,864
210,759;    2,892;    4,186;    1,227
211,359;   -0,643;    1,459;    1,045
211,958;    8,077;    1,277;    2,045
212,558;    9,258;    1,732;    1,864
213,157;    1,624;    1,822;    1,500
213,757;   12,994;    3,822;   -0,227
214,356;    5,718;    1,277;   -0,409
214,956;    9,438;    3,095;    0,409
215,555;    2,814;    2,095;    2,136
216,154;   -0,459;   -2,723;   -0,591
216,754;   -1,823;    0,277;    0,773
217,353;    0,717;   -0,268;   -1,045
217,952;    1,819;   -0,178;    0,318
218,552;    2,729;    1,368;   -0,773
219,151;    0,186;    0,277;    0,955
219,750;   -1,263;    0,004;   -0,227
220,349;   -0,452;   -0,451;    1,045
220,948;    5,461;   -1,360;    1,136
221,548;    1,909;    0,913;    1,227
222,147;    3,817;   -0,087;   -0,409
222,746;    3,642;   -0,451;   -0,955
223,345;    4,097;    0,731;    0,500
223,944;    4,093;   -0,451;    0,773
224,543;    3,998;    1,004;   -1,409
225,142;    0,830;    0,094;    0,136
225,741;    5,822;   -0,814;    1,045
226,340;    2,096;   -0,451;   -0,955
226,939;    6,544;   -0,996;   -0,136
227,538;    3,003;   -0,360;   -0,773
228,137;    6,541;   -0,814;    0,864
228,735;    1,632;   -0,541;    1,227
229,334;    0,268;   -0,905;   -0,227
229,933;    5,632;    0,459;    0,591
230,532;    3,811;    1,186;   -0,409
231,131;    9,809;    1,732;    0,318
231,729;    4,631;   -2,450;   -2,318
232,328;    1,812;   -0,723;   -1,500
232,927;    5,171;    1,004;   -0,500
233,525;    2,636;    3,640;    0,045
234,124;    5,720;    2,368;   -1,591
234,723;    0,722;    0,913;   -1,045
235,321;    0,453;    2,277;    0,136
235,920;   -0,823;    1,186;   -1,227
236,518;    9,181;    3,459;    0,318
237,117;    4,000;    0,004;   -0,227
237,715;    4,814;    0,640;   -0,500
238,314;    4,994;   -0,087;   -2,318
238,912;   10,266;   -0,723;   -1,409
239,510;    7,084;    0,459;   -1,227
240,109;   14,533;    0,004;    3,773
240,707;    9,807;   -0,996;    1,227
241,305;    2,172;    0,550;    0,136
241,904;    3,445;   -0,178;   -2,045
242,502;   15,991;   -0,632;   -0,227
243,100;    9,540;   -0,087;   -0,955
243,698;    5,718;    0,732;    1,682
244,297;    5,541;   -0,632;    0,682
244,895;    4,362;   -0,269;   -2,318
245,493;    8,819;    2,186;   -0,591
246,091;   15,181;    1,368;   -1,318
246,689;    8,636;    1,004;    0,591
247,287;    6,181;    0,822;   -1,136
247,885;    7,731;   -1,451;    1,227
248,483;    5,544;    1,822;   -0,500
249,081;    8,191;    0,185;    1,591
249,679;    7,008;   -0,178;    1,682
250,277;    2,457;   -1,723;    0,864
250,875;   10,450;   -1,087;   -1,045
251,473;    4,818;   -1,178;    0,500
252,071;    9,817;    1,459;    1,045
252,669;    4,547;   -1,814;    0,318
253,267;   -0,262;   -0,087;    0,773
253,864;    5,817;   -0,360;    0,682
254,462;   10,276;    1,640;    1,591
255,060;    3,820;   -0,269;    1,318
255,658;    3,638;    0,822;   -0,136
256,255;    5,181;    0,186;   -2,045
256,853;    9,095;   -0,269;    1,409
257,451;    4,818;    0,822;    1,864
258,048;   33,635;    1,822;    1,864
258,646;   13,912;    1,731;   -1,045
259,243;   18,368;   -0,087;    2,227
259,841;   10,275;   -0,814;    0,318
260,438;    3,550;   -0,087;    0,864
261,036;    7,541;   -1,905;    1,409
261,633;    5,911;   -0,087;    2,227
262,231;    5,546;    2,731;   -0,045
262,828;    1,903;   -0,905;    1,136
263,425;    1,817;    0,913;   -0,591
264,023;    5,002;    0,186;    0,045
264,620;   11,366;   -0,360;   -0,318
265,217;   13,366;   -2,087;    3,136
265,815;    5,463;   -1,905;    2,136
266,412;    8,457;    0,731;    0,136
267,009;    5,364;   -1,451;    0,773
267,606;   13,639;    0,822;   -0,955
268,203;    7,997;   -0,269;   -0,591
268,801;    4,820;    1,731;    0,591
269,398;    4,914;   -0,360;    2,500
269,995;    9,267;    0,277;    1,591
270,592;    5,723;   -0,632;   -0,500
271,189;    3,823;    0,186;    0,409
271,786;    0,181;   -0,632;    1,227
272,383;   10,814;   -1,087;    0,227
272,980;    5,728;    0,277;    0,318
273,577;    4,992;    0,004;    1,227
274,174;    4,630;    0,822;    2,591
274,771;    9,456;   -0,814;   -0,773
275,367;   46,537;    2,277;    1,409
275,964;   22,086;    0,731;   -0,500
276,561;    5,275;    1,549;   -1,045
277,158;    1,553;    0,095;   -1,773
277,755;   15,009;    2,185;    0,409
278,351;   10,366;   -0,451;   -1,500
278,948;   11,099;   -0,815;    0,045
279,545;    9,096;   -1,360;    2,318
280,141;   17,090;   -1,723;   -2,045
280,738;   18,819;   -0,451;   -0,136
281,334;    5,460;   -1,633;    0,591
281,931;    3,377;   -0,087;   -1,318
282,528;   12,739;    0,822;   -0,500
283,124;   15,912;   -1,087;   -0,500
283,721;   15,830;   -0,451;    1,409
284,317;    9,468;    0,185;    2,500
284,913;   16,376;   -1,360;    0,591
285,510;   17,013;    0,640;   -0,318
286,106;   17,191;   -2,269;   -0,955
286,703;   10,644;   -0,360;    1,955
287,299;    7,002;   -1,451;   -0,591
287,895;    6,275;    0,822;   -1,045
288,491;    4,550;    0,186;    2,136
289,088;    9,916;   -2,360;    2,409
289,684;    8,456;   -1,723;    1,500
290,280;   19,089;    0,368;    0,682
290,876;   14,820;    1,822;    5,500
291,472;   12,826;    1,276;    2,227
292,068;   13,737;    1,367;    0,227
292,665;    9,093;    2,095;    0,773
293,261;    6,096;    0,276;    2,136
293,857;   11,362;    2,913;    2,136
294,453;    6,268;    3,550;    0,955
295,049;   22,709;   -0,268;    1,955
295,644;   11,716;    0,095;    0,136
296,240;    4,257;   -0,905;   -0,136
296,836;    6,888;   -0,995;    0,318
297,432;    9,883;    1,096;   -0,500
298,028;   12,156;    0,732;    0,773
298,624;   10,525;    1,459;    1,864
299,220;    9,159;    2,368;    0,591
299,815;    5,799;    1,005;   -0,409
300,411;   12,254;    0,914;    1,773
301,007;   12,428;    1,368;    0,227
301,602;    6,797;   -0,541;   -2,318
302,198;   17,517;    0,732;   -0,773
302,794;   12,522;    1,187;   -0,500
303,389;    8,068;   -1,177;    1,045
303,985;    4,614;    0,550;    1,409
304,580;   23,612;    1,459;    1,591
305,176;   10,618;   -3,086;    0,136
305,771;    1,802;   -1,268;   -1,227
306,367;   40,349;    4,095;    0,136
306,962;   15,252;    0,641;    1,500
307,558;   17,434;   -0,450;    0,136
308,153;    9,527;    1,095;   -1,136
308,748;    5,162;   -0,814;    1,682
309,344;   25,986;   -0,632;   -1,318
309,939;   21,075;   -1,905;   -1,318
310,534;    6,985;   -0,086;   -1,682
311,130;    8,526;    0,459;   -2,500
311,725;    6,346;    1,004;   -0,500
312,320;   10,434;    2,459;    0,045
312,915;   14,167;    1,459;   -1,045
313,510;   27,529;    1,550;   -0,500
314,105;    6,611;    1,096;    1,409
314,700;    3,068;   -3,086;   -1,045
315,295;    8,885;   -0,904;    0,045
315,890;    2,979;    1,277;    0,864
316,485;   10,074;   -0,359;   -0,318
317,080;    4,161;   -3,086;    1,591
317,675;   32,343;    2,005;   -0,682
318,270;   61,336;    5,550;    3,318
318,865;   31,881;    3,278;    3,045
319,460;   19,434;   -0,904;    0,591
320,055;    8,333;   -0,541;   -1,227
320,650;    6,241;   -1,995;   -0,591
321,244;    8,698;   -0,177;   -1,409
321,839;    4,796;   -1,541;   -0,227
322,434;    7,889;   -1,086;   -1,591
323,029;    5,701;    1,732;    1,591
323,623;    4,708;    1,550;    0,773
324,218;   25,790;    2,368;    1,409
324,812;   14,613;    1,096;    1,591
325,407;   11,161;   -0,814;    2,045
326,002;   27,616;    0,277;   -0,409
326,596;   17,703;    0,914;    1,318
327,191;    9,524;    0,823;   -1,045
327,785;    8,794;   -0,813;   -0,227
328,379;    6,069;    1,368;    0,136
328,974;    6,069;    0,914;   -3,955
329,568;    7,704;    0,186;   -2,409
330,163;   17,611;    2,096;    1,045
330,757;    6,984;    2,459;    1,591
331,351;    2,618;    0,459;    0,682
331,945;    4,340;    0,914;    1,409
332,540;   11,436;   -1,723;   -0,591
333,134;    9,075;   -1,086;    0,773
333,728;    8,890;    0,005;    0,318
334,322;    4,523;   -1,177;   -0,864
334,916;    2,714;    0,277;    0,955
335,510;   13,435;   -0,450;   -0,136
336,105;   10,978;   -1,086;    1,591
336,699;    3,255;   -1,086;    0,591
337,293;    5,986;   -1,723;    0,318
337,887;    2,161;   -2,723;    1,955
338,481;   11,163;    0,459;    0,591
339,074;   22,714;   -0,359;    2,682
339,668;   17,076;   -1,632;    1,227
340,262;   86,348;    1,732;    3,227
340,856;   32,444;    1,822;   -0,682
341,450;    7,264;    1,004;    1,864
342,044;   12,077;    1,459;    0,136
342,637;   16,169;    0,913;   -2,136
343,231;    7,273;   -2,360;    0,682
343,825;    4,255;   -1,086;   -0,591
344,419;    6,705;   -1,995;    0,500
345,012;   58,339;    2,459;    4,045
345,606;   32,065;    4,641;    1,591
346,199;    9,516;   -1,813;   -0,227
346,793;   16,060;    1,914;    2,045
347,386;    5,613;   -0,813;   -1,136
347,980;    2,057;   -0,268;   -0,045
348,573;    6,053;    2,278;    0,409
349,167;   52,048;    5,278;    4,773
349,760;   19,776;    2,914;    2,682
350,354;   17,310;   -0,813;    1,136
350,947;   12,861;    1,096;    1,682
351,540;    9,315;   -0,358;   -1,409
352,134;    1,049;    1,096;    1,136
352,727;    4,874;   -0,086;    1,136
353,320;    5,959;    0,005;    0,591
353,913;    1,415;   -1,995;    1,864
354,507;    9,508;    0,823;   -1,227
355,100;    2,779;    0,460;    0,864
355,693;   52,133;    2,005;    2,409
356,286;   20,412;    0,823;    2,773
356,879;    9,413;   -0,722;    1,227
357,472;   11,323;   -0,904;    1,500
358,065;   13,319;   -0,722;    2,500
358,658;    4,322;   -0,540;    2,318
359,251;    2,686;   -1,631;   -0,591
359,844;    9,682;   -1,904;   -1,136
360,437;   14,779;   -2,995;    0,045
361,030;    7,595;    1,369;   -0,682
361,623;    5,497;    2,824;    0,318
362,215;   25,954;   -0,086;    2,045
362,808;    8,410;   -2,358;   -1,682
363,401;    3,950;   -2,449;    0,136
363,994;   24,675;   -0,631;   -1,500
364,586;    9,667;    0,824;   -1,500
365,179;    4,299;   -0,449;   -1,136
365,772;    2,044;   -1,995;    2,045
366,364;    8,120;    1,915;   -3,227
366,957;    7,744;    2,279;   -0,045
367,549;    6,287;    2,188;   -0,864
368,142;    5,099;    1,825;   -1,500
368,734;    3,813;    0,734;   -2,136
369,327;    2,081;    1,643;   -0,500
369,919;    4,527;   -1,538;    0,409
370,512;    4,879;   -1,083;   -0,500
371,104;   32,857;   -0,901;    1,591
371,696;   27,649;    1,191;   -0,955
372,289;   15,542;    0,373;    1,136
372,881;    9,422;   -2,080;    1,318
373,473;    3,853;   -2,170;    1,136
374,066;    3,808;   -0,169;    0,500
374,658;    5,750;    0,378;    1,136
375,250;    3,149;    0,653;   -1,409
375,842;    3,905;    0,473;   -0,045
376,434;    0,582;   -0,435;   -0,409
377,026;    1,242;    0,204;   -2,500
377,618;    4,086;   -0,158;   -0,682
378,210;    3,846;   -0,338;   -1,955
378,802;    3,442;    0,754;   -0,591
379,394;   30,863;    1,846;    0,682
379,986;   12,474;    1,393;   -0,955
380,578;    4,376;   -0,153;    0,773
381,170;   23,674;   -0,972;    0,045
381,762;   15,070;    0,755;    1,409
382,354;    6,844;   -0,065;   -1,318
382,945;    4,437;   -2,976;    0,318
383,537;    3,944;   -2,705;   -1,955
384,129;    4,440;   -2,160;   -1,136
384,721;    8,272;   -0,252;    0,955
385,312;    7,101;   -0,161;   -0,955
385,904;   12,366;   -2,706;    1,591
386,496;    6,357;   -0,979;    1,045
387,087;   25,069;    1,022;    2,500
387,679;   14,788;   -1,160;    0,045
388,270;    8,783;    2,840;    2,045
388,862;    7,696;    1,295;   -0,318
389,453;   10,330;   -0,887;    1,045
390,045;   11,057;   -0,705;   -2,682
390,636;    3,686;    0,204;   -0,591
391,227;    8,058;   -0,523;   -0,045
391,819;    6,063;    0,204;    0,773
392,410;   31,523;    1,022;    0,045
393,001;   10,723;   -0,979;   -1,591
393,593;   12,182;    1,930;   -0,045
394,184;   14,179;    1,385;   -0,409
394,775;    8,270;    1,839;    2,136
395,366;    2,988;    1,385;    0,773
395,957;    8,069;    0,113;    0,136
396,548;    6,531;   -0,342;    2,682
397,139;   13,339;   -2,433;    0,591
397,730;    6,260;   -1,888;    0,955
398,321;    8,811;   -1,252;    0,955
398,912;    6,541;   -0,615;    0,136
399,503;    5,540;   -3,524;   -1,409
400,094;    5,181;    0,294;    1,682
400,685;    5,811;   -0,433;    0,045
401,276;    8,172;    0,930;   -0,955
401,867;    4,632;   -0,888;    0,773
402,458;    4,535;   -2,251;   -2,318
403,048;    9,633;    1,112;    0,591
403,639;    5,534;    0,840;    0,864
404,230;   14,088;    2,476;    0,318
404,821;   18,995;   -0,615;    0,045
405,411;   12,272;    1,203;   -2,591
406,002;    5,816;   -1,252;   -1,136
406,592;   31,731;    2,294;    0,045
407,183;   18,467;    0,566;   -1,500
407,774;   14,554;    3,475;   -0,136
408,364;    6,007;    0,930;    0,409
408,954;   16,191;    0,384;    1,227
409,545;   16,827;    1,021;    1,045
410,135;   10,561;    1,293;    0,500
410,726;    5,756;    1,838;    0,318
411,316;   30,838;    0,111;    0,773
411,906;   11,298;   -0,253;   -0,409
412,497;   15,197;   -1,070;   -0,045
413,087;    8,562;   -1,980;   -0,227
413,677;    3,574;   -0,707;    3,864
414,267;    4,300;    0,656;    1,409
414,857;    2,665;   -2,980;    4,227
415,448;    3,109;    0,839;    0,500
416,038;    4,837;    0,020;   -0,591
416,628;    7,755;   -0,889;    0,409
417,218;    9,850;    0,565;    3,318
417,808;   28,397;    0,202;   -0,409
418,398;   17,124;    0,020;    2,682
418,988;    5,034;    2,020;    0,591
419,578;   20,576;   -0,707;    1,409
420,168;    8,753;   -1,343;   -0,955
420,757;   21,109;   -1,343;   -1,500
421,347;    8,313;    0,111;   -0,227
421,937;    9,585;    2,292;    1,409
422,527;   20,770;    0,838;   -0,773
423,116;   46,215;   -0,253;   -0,045
423,706;   14,036;   -1,889;    0,318
424,296;    8,036;    1,384;    0,682
424,885;   16,036;   -0,071;   -3,045
425,475;   15,040;    1,474;   -2,864
426,065;    4,948;   -0,980;   -0,318
426,654;    3,504;   -0,435;   -0,318
427,244;   30,586;    0,020;    1,409
427,833;   23,312;    1,383;   -0,500
428,423;   12,229;   -0,526;    1,136
429,012;   11,963;   -0,344;   -1,136
429,601;   22,148;   -1,344;    0,136
430,191;   13,051;    1,292;    4,318
430,780;    6,684;   -0,344;   -0,409
431,369;   24,421;    0,746;   -0,045
431,959;   12,696;   -1,254;    0,500
432,548;    7,787;   -1,163;   -0,045
433,137;    3,063;   -1,254;   -1,318
433,726;    8,788;    0,292;    0,500
434,315;   12,245;   -0,526;    2,409
434,905;   24,801;   -1,254;    1,409
435,494;   18,159;    0,746;    0,955
436,083;    8,062;   -0,981;   -0,955
436,672;   24,429;    0,110;    0,500
437,261;   17,798;    0,292;   -1,955
437,850;   38,613;    1,383;    0,682
438,439;   52,168;    3,291;    1,955
439,027;   78,625;    3,655;    1,773
439,616;   50,812;    2,927;    1,227
440,205;   16,989;    0,200;   -2,136
440,794;   15,540;    2,109;   -0,045
441,383;    9,092;   -1,346;   -0,591
441,971;   10,455;   -2,436;    0,591
442,560;   11,552;    0,563;   -1,773
443,149;    1,897;    0,379;   -1,318
443,737;    2,662;   -0,074;   -2,318
444,326;    4,825;    0,018;    0,318
444,915;   10,006;   -1,982;    0,864
445,503;   13,640;   -2,891;   -0,318
446,092;   80,551;    0,382;    2,136
446,680;   56,373;    0,382;    0,318
447,269;   21,011;   -0,346;   -0,318
447,857;   22,562;    0,018;   -1,773
448,445;   16,655;    0,563;    1,318
449,034;   12,108;   -1,528;   -1,136
449,622;   12,835;   -1,073;    3,500
450,210;   50,301;    2,017;    2,227
450,799;   33,303;    0,290;   -0,591
451,387;   34,941;    1,381;   -0,591
451,975;   33,393;    2,654;    0,864
452,563;   44,024;    3,472;    2,318
453,151;   18,759;   -0,528;   -1,227
453,739;   16,224;   -1,347;    0,136
454,328;   32,312;    2,381;   -2,136
454,916;   19,770;    2,562;   -0,136
455,504;   31,039;    1,017;    1,227
456,092;   13,036;    0,017;   -1,591
456,679;    9,855;    1,472;    0,682
457,267;   94,860;    4,017;    1,045
457,855;   33,499;    1,017;    1,409
458,443;    5,960;   -0,165;    1,682
459,031;   17,320;    0,108;    2,409
459,619;   16,680;   -1,801;    2,864
460,206;    6,682;    0,835;    2,045
460,794;    7,595;   -2,983;   -0,227
461,382;   12,330;   -0,529;   -0,864
461,970;   14,512;    1,198;    1,864
462,557;    8,511;   -0,711;   -0,682
463,145;   18,690;   -3,165;   -1,682
463,732;   71,153;    2,016;   -1,045
464,320;   27,432;   -0,075;   -3,045
464,907;   43,884;    2,743;   -0,773
465,495;   24,715;    0,743;   -1,227
466,082;   16,340;   -1,984;   -0,045
466,670;   20,523;   -2,529;    1,227
467,257;    8,344;   -1,711;    2,045
467,844;   18,528;   -0,075;    0,045
468,432;   15,711;    0,834;    3,500
469,019;   12,264;    0,925;   -1,773
469,606;   32,259;    0,470;    3,682
470,193;   29,996;   -1,439;    0,227
470,780;   21,534;   -2,075;    0,864
471,368;   12,266;   -1,257;   -0,773
471,955;   25,900;    1,379;   -0,682
472,542;   19,088;    0,652;   -1,136
473,129;    8,356;   -0,166;    0,136
473,716;    9,263;    1,470;    0,591
474,303;   12,809;    0,652;   -0,864
474,890;    9,367;   -1,439;   -0,500
475,477;   34,006;   -1,621;    0,409
476,064;   15,195;    1,106;   -1,591
476,650;   45,371;    0,288;    0,318
477,237;   21,371;   -0,258;    0,955
477,824;   15,827;   -1,076;    0,864
478,411;    8,917;   -1,894;   -0,318
478,997;    3,377;    0,560;   -0,773
479,584;    1,748;    1,196;   -0,409
480,171;   19,927;   -0,440;   -0,773
480,757;   26,570;    2,651;    0,773
481,344;   15,382;    0,469;    0,409
481,931;    3,675;    1,105;    1,045
482,517;   22,212;   -1,258;    0,318
483,104;   43,657;    1,106;    2,864
483,690;   16,203;   -1,804;    0,045
484,276;   13,573;   -0,895;    0,227
484,863;   61,024;    2,469;    1,136
485,449;   24,305;   -0,077;    0,318
486,035;   13,760;   -1,986;   -0,136
486,622;   27,664;   -0,895;    0,045
487,208;   14,758;    1,378;    1,500
487,794;    3,582;    0,741;    0,318
488,380;    4,765;    0,105;   -1,409
488,967;    3,139;   -1,168;   -0,409
489,553;    5,317;   -1,895;   -1,409
490,139;   16,226;    1,559;    0,773
490,725;    9,137;    0,741;   -0,227
491,311;   15,317;    3,287;    3,045
491,897;    9,954;   -0,986;    1,500
492,483;   14,775;    0,105;    1,227
493,069;  122,501;    3,923;    0,864
493,655;   47,506;    1,650;    0,682
494,241;   17,595;    1,377;   -0,955
494,826;   17,407;    0,287;   -1,045
495,412;   26,135;    2,559;   -0,682
495,998;   14,239;   -0,805;   -0,318
496,584;   22,326;    0,377;    1,045
497,169;   29,329;    1,014;   -0,682
497,755;   17,793;    0,650;    1,227
498,341;   40,238;    0,559;    0,318
498,926;   70,878;    1,832;    1,955
499,512;   18,444;    1,286;    2,955
500,097;   12,708;    0,195;   -0,318
500,683;   18,432;   -0,350;    2,136
501,268;   10,706;   -0,169;   -0,955
501,854;   17,709;   -0,169;    1,227
502,439;   15,625;   -0,624;   -1,773
503,024;   11,347;    0,195;    0,500
503,610;   16,164;   -0,078;   -0,682
504,195;   10,895;    0,558;    1,955
504,780;   36,343;    2,922;    1,227
505,366;   61,523;    3,013;    2,864
505,951;   34,995;    0,740;    1,045
506,536;   16,175;   -3,260;   -3,682
507,121;   25,445;    0,285;   -0,318
507,706;   20,173;    2,376;    1,045
508,291;    9,541;    2,649;    1,136
508,876;    7,100;   -0,988;    2,591
509,461;   11,731;   -0,169;   -0,773
510,046;   22,821;    0,194;    0,318
510,631;   26,999;   -0,351;   -0,773
511,216;   11,729;    2,467;   -0,500
511,801;   22,449;   -0,442;    2,591
512,386;   22,001;    0,740;    0,500
512,971;   21,553;   -2,988;    0,955
513,555;   22,457;   -0,897;   -1,500
514,140;   17,186;   -0,442;   -3,136
514,725;   48,740;   -0,715;   -1,136
515,309;   26,648;   -0,533;    0,318
515,894;   12,920;   -0,624;   -2,227
516,479;   19,922;   -0,624;   -0,955
517,063;   15,466;    0,376;    1,227
517,648;    9,103;    1,012;   -1,136
518,232;    6,570;   -0,261;   -1,409
518,817;   21,752;   -0,079;    1,682
519,401;   36,387;    2,194;    0,591
519,985;   32,567;    1,103;    1,136
520,570;   14,117;    0,830;   -1,955
521,154;   21,302;    2,102;    0,591
521,738;   41,128;   -2,352;    2,409
522,323;   19,846;   -0,170;    1,682
522,907;   18,854;    0,466;   -0,136
523,491;    7,764;    0,557;    0,955
524,075;    9,128;    2,284;    0,591
524,659;   35,306;    1,466;    0,591
525,243;   28,943;    1,739;    0,409
525,827;   18,492;    0,648;   -0,045
526,411;   21,306;   -1,989;   -0,136
526,995;   31,126;   -0,352;    1,409
527,579;   37,863;   -0,443;   -1,045
528,163;   26,594;    0,375;   -1,500
528,747;   32,048;    2,466;   -0,773
529,331;   23,865;   -0,080;   -1,409
529,915;   10,959;    1,738;    0,955
530,499;   18,140;   -0,807;    1,227
531,082;   50,317;   -0,534;    1,591
531,666;   76,965;    1,374;    0,773
532,250;   41,957;    1,284;    2,682
532,833;   47,873;    0,920;    2,773
533,417;   33,055;   -1,807;    0,864
534,001;   62,878;    1,647;   -0,318
534,584;   41,974;    0,374;    0,500
535,168;   15,519;    0,465;    1,409
535,751;   86,511;    0,647;    0,045
536,334;   38,240;   -0,898;   -0,409
536,918;   11,694;    0,011;    1,591
537,501;   12,243;   -0,899;    1,318
538,085;   14,245;   -0,444;    1,045
538,668;   33,154;    0,829;    2,409
539,251;   71,246;    1,829;    3,773
539,834;   23,608;    0,101;    0,773
540,418;   38,979;   -1,990;    4,318
541,001;   71,068;   -0,990;    1,773
541,584;   35,534;    2,101;    2,227
542,167;   47,253;    1,374;    2,955
542,750;   24,528;    1,919;   -0,773
543,333;    7,173;    0,555;    2,136
543,916;   35,258;    0,192;    2,500
544,499;   27,261;   -1,354;    0,227
545,082;   39,261;    1,374;    3,591
545,665;   24,896;    1,919;    1,500
546,248;   50,082;    1,010;   -0,318
546,830;   39,081;   -0,445;    1,955
547,413;   30,723;    1,010;   -0,773
547,996;   22,817;    0,555;    0,500
548,579;   16,912;    0,919;    0,955
549,161;   74,458;    1,828;    2,682
549,744;   38,281;   -0,809;    0,409
550,326;   13,827;   -0,809;   -1,136
550,909;   96,466;    2,737;    0,591
551,492;   38,189;   -0,263;    0,227
552,074;   50,287;   -0,173;   -1,318
552,657;   58,014;    2,373;    0,045
553,239;   35,561;   -0,173;   -0,773
553,821;   14,829;   -1,082;    1,045
554,404;   69,832;    1,282;    1,136
554,986;   73,653;    0,464;    1,045
555,568;   40,836;    1,191;   -0,955
556,151;   87,109;    1,191;   -0,227
556,733;   36,379;   -0,264;   -0,864
557,315;   51,660;    0,100;    0,500
557,897;   19,477;    0,554;   -0,500
558,479;   21,387;   -1,991;    1,318
559,061;   31,395;   -0,719;   -0,864
559,643;   36,755;   -0,264;    0,045
560,225;   40,564;    1,645;    2,864
560,807;   20,300;    0,918;    0,318
561,389;   16,938;    0,554;    2,318
561,971;   23,220;    0,463;    2,136
562,553;   12,759;   -1,628;    1,591
563,135;   23,940;   -0,537;    1,136
563,717;  121,576;    3,372;    1,136
564,298;  100,215;    3,645;   -0,045
564,880;   34,407;    0,645;   -1,409
565,462;   10,135;    0,645;    1,318
566,043;   19,126;   -0,446;    2,318
566,625;  106,762;    1,918;    1,227
567,207;   53,222;    1,099;    1,682
567,788;   18,132;   -1,264;    1,500
568,370;   19,229;    1,917;   -0,500
568,951;   21,225;    0,190;    0,227
569,533;   23,778;   -0,628;   -0,500
570,114;   22,583;   -0,446;    0,682
570,695;   34,684;   -0,174;   -1,318
571,277;   28,596;   -0,265;   -1,682
571,858;   55,321;    2,008;   -1,136
572,439;   24,590;    1,554;   -1,045
573,021;   15,877;    2,099;   -2,773
573,602;   38,873;   -1,265;    0,318
574,183;   36,786;   -2,083;    2,227
574,764;   23,694;   -1,629;    0,409
575,345;   29,515;    0,917;   -0,136
575,926;   21,509;   -0,356;    0,136
576,507;   31,782;    1,099;   -0,227
577,088;   25,873;    3,099;    1,682
577,669;   66,696;    0,735;    1,955
578,250;   88,422;    0,644;   -1,045
578,831;   45,794;   -1,356;   -2,227
579,412;   45,333;   -0,810;    0,955
579,993;   37,515;    1,008;    0,227
580,573;   16,516;   -0,629;   -0,955
581,154;   51,333;    0,735;   -0,591
581,735;   49,696;    0,644;    0,773
582,315;   98,696;   -0,629;    2,136
582,896;   40,149;   -0,174;    1,227
583,477;   16,427;    0,189;    1,227
584,057;   28,606;    0,553;    0,955
584,638;   58,697;    2,553;    2,318
585,218;   96,242;   -0,538;    2,682
585,799;   56,331;    0,281;   -0,227
586,379;   40,509;    0,372;    1,591
586,959;   42,331;    0,735;    0,318
587,540;   26,066;   -0,629;    2,227
588,120;   15,437;    1,007;   -0,045
588,700;   44,704;    2,553;    2,136
589,281;   78,061;    0,462;   -0,955
589,861;   50,517;    0,099;   -1,682
590,441;   19,425;    2,371;   -2,682
591,021;   23,879;   -0,265;   -2,591
591,601;   30,599;   -0,537;    0,500
592,181;   27,143;   -0,719;   -0,773
592,761;   10,342;    0,007;    1,409
593,341;   31,877;   -0,901;    0,045
593,921;   41,055;   -0,265;    1,591
594,501;   28,877;   -0,538;    1,318
595,081;   30,691;    0,917;   -0,318
595,661;   34,694;   -1,447;    0,955
596,240;   23,326;   -0,537;    0,136
596,820;  120,503;    0,372;    1,955
597,400;   53,875;    2,008;    0,773
597,980;   27,324;    2,008;    1,045
598,559;   19,601;    2,735;   -0,227
599,139;   15,421;   -0,174;   -1,227
599,718;   17,966;   -0,174;   -0,409
600,298;   15,601;    0,735;    0,682
600,877;  142,234;    2,917;    1,409
601,457;   57,229;    2,281;    1,136
602,036;   23,417;    0,190;    2,045
602,616;   32,506;    0,644;    1,682
603,195;   59,502;   -0,355;    3,500
603,774;   73,412;   -0,901;    2,045
604,354;   68,958;    0,826;   -0,500
604,933;   56,143;    0,463;    1,864
605,512;   58,231;    3,554;    0,591
606,091;   55,863;   -0,537;    3,773
606,671;   50,502;    0,281;    0,773
607,250;  100,048;    1,644;    3,136
607,829;   71,133;    2,372;    3,227
608,408;   47,136;    1,190;    2,591
608,987;   75,219;    1,281;    3,409
609,566;   23,148;   -1,265;   -2,500
610,145;   59,401;   -1,082;    0,682
610,723;   84,311;    4,372;    6,864
611,302;   55,853;   -0,446;    1,682
611,881;  145,673;    5,008;   11,227
612,460;   62,128;    1,645;    3,955
613,039;   26,123;   -0,082;    2,045
613,617;   27,134;    1,736;    4,773
614,196;   33,219;    1,099;    1,227
614,775;   38,941;    1,009;    2,409
615,353;   49,210;    0,736;    0,864
615,932;   60,757;    0,100;    2,409
616,510;   44,577;    0,554;    0,591
617,089;  206,394;    7,100;   17,591
617,667;   86,666;    2,372;    6,136
618,246;   35,117;   -1,537;    1,318
618,824;   39,937;   -3,355;   -0,955
619,402;   42,846;   -2,900;   -1,773
619,981;   53,661;   -0,173;   -1,045
620,559;   36,113;    0,009;    1,682
621,137;   36,751;   -0,718;    1,864
621,715;   25,388;   -1,173;   -0,682
622,293;   36,841;   -0,537;   -0,773
622,871;   28,115;   -0,718;    0,500
623,450;   30,291;    0,373;   -0,864
624,028;   70,658;    0,191;   -0,955
624,606;   50,746;   -1,718;    1,682
625,183;   25,288;   -1,536;   -1,136
625,761;   73,652;    1,009;    1,136
626,339;  122,111;    1,373;    2,591
626,917;   42,192;   -0,172;   -0,045
627,495;   23,738;   -0,354;    1,318
628,073;   47,825;   -0,263;    2,864
628,650;   63,831;    0,100;    2,136
629,228;   59,108;    0,373;    4,409
629,806;   26,650;    2,282;    1,136
630,383;   30,555;    1,464;   -0,318
630,961;   32,014;    2,555;   -0,955
631,539;   45,554;    2,464;    0,227
632,116;  307,832;   11,373;   15,409
632,694;  151,919;    2,555;    6,500
633,271;  102,729;    0,828;    2,682
633,848;  121,641;    1,828;    2,045
634,426;   52,999;   -1,081;    1,773
635,003;   23,626;    1,101;   -0,409
635,580;  121,352;    1,192;    3,682
636,158;   91,450;    3,737;    1,227
636,735;   51,274;    0,555;   -0,500
637,312;   40,915;   -0,809;   -0,682
637,889;   34,816;   -4,354;   -0,682
638,466;   29,260;   -3,990;   -0,409
639,043;   44,889;    2,101;   -1,136
639,620;   29,979;   -2,262;   -0,955
640,197;   53,913;    1,100;    1,682
640,774;   26,277;   -0,172;    1,136
641,351;   29,551;    0,737;    1,136
641,928;   89,551;   -0,627;    1,409
642,505;   99,188;    0,828;   -0,500
643,082;   52,371;   -1,718;    1,227
643,658;   39,099;   -0,718;    1,500
644,235;   28,463;    1,191;    2,500
644,812;   59,464;    1,918;    0,773
645,388;   62,101;   -0,991;    1,409
645,965;   33,738;   -0,809;    1,682
646,542;   35,011;   -1,445;   -0,227
647,118;  108,012;    1,009;   -0,955
647,695;   55,649;   -0,263;    1,136
648,271;   32,922;   -0,536;    0,500
648,848;   63,195;    0,736;    2,227
649,424;   87,832;    0,827;    1,318
650,000;   43,833;   -0,354;   -1,045
650,577;   47,743;   -0,627;   -0,955
651,153;   37,925;   -1,809;    0,955
651,729;   38,744;    1,191;    0,864
652,305;  148,472;    0,645;    2,773
652,881;   83,654;   -0,082;    1,136
653,458;   51,200;    1,100;    0,227
654,034;   36,292;    0,282;    1,591
654,610;   60,656;    0,554;    0,773
655,186;  191,566;    0,645;    3,045
655,762;   68,021;   -0,991;    0,409
656,338;   56,567;    0,100;    0,136
656,913;   64,477;   -0,082;    0,409
657,489;   36,659;    0,827;   -0,318
658,065;   54,660;   -0,173;   -1,591
658,641;   41,115;   -0,900;   -0,864
659,217;   35,207;   -0,991;    0,409
659,792;   97,753;    0,645;   -0,409
660,368;   56,208;   -2,173;   -0,682
660,944;   36,209;   -2,082;    1,227
661,519;   40,482;   -0,628;    0,409
662,095;   35,028;   -1,719;    0,591
662,670;   31,029;    1,281;   -0,136
663,246;   22,757;    1,009;   -0,409
663,821;   54,848;    0,281;    1,682
664,396;   42,758;    0,009;    1,864
664,972;   40,668;    0,009;   -0,500
665,547;   43,123;    1,372;    0,136
666,122;   44,487;   -1,082;    0,318
666,698;   87,124;   -0,173;    0,318
667,273;   42,216;   -0,173;    0,136
667,848;   46,580;    2,372;    1,500
668,423;   80,035;    2,190;    2,318
668,998;   45,854;    2,827;   -0,682
669,573;   37,491;   -3,264;   -1,500
670,148;   60,855;   -1,446;   -0,682
670,723;   26,310;   -1,810;    0,318
671,298;   90,038;    2,372;    1,045
671,873;   68,948;   -0,082;   -0,136
672,448;   67,130;    0,645;    0,136
673,023;   61,586;   -1,992;   -0,227
673,597;   75,041;    0,827;    2,318
674,172;   85,587;   -0,355;    0,318
674,747;   66,769;    0,372;   -1,045
675,321;   27,134;   -0,628;    3,318
675,896;   21,225;    0,645;    1,045
676,471;   79,862;    2,645;    1,591
677,045;   47,499;   -1,264;    0,682
677,620;   65,773;    0,190;    1,136
678,194;   30,955;   -2,628;    1,136
678,769;   58,774;   -1,083;   -0,318
679,343;   59,684;   -0,628;    1,773
679,917;   82,139;   -1,446;    1,955
680,492;   58,958;    0,826;    3,227
681,066;   54,140;    3,372;    0,409
681,640;   44,686;    1,463;   -0,318
682,214;   53,141;    0,735;    0,500
682,788;   52,506;   -1,356;   -0,773
683,363;   77,597;   -1,810;    1,682
683,937;   47,325;   -1,719;   -0,318
684,511;   52,508;    0,463;   -0,591
685,085;   49,417;   -1,356;    0,318
685,659;   35,963;   -2,538;    0,864
686,232;   92,691;   -0,356;   -0,318
686,806;   58,419;   -0,901;    0,409
687,380;   36,511;   -0,174;    0,591
687,954;   20,875;   -1,174;    1,136
688,528;   93,148;   -0,719;    1,955
689,101;   46,967;   -3,992;    1,045
689,675;   29,877;   -0,356;   -0,136
690,249;   82,059;   -0,719;    0,409
690,822;   75,242;    0,280;    0,318
691,396;   63,606;   -0,265;    1,227
691,969;   46,425;    1,280;    0,136
692,543;   25,516;   -0,447;   -1,955
693,116;   27,517;   -0,265;   -1,409
693,690;   39,245;    0,099;    0,500
694,263;   25,791;   -1,083;    2,955
694,836;  112,974;    1,371;    3,591
695,410;   80,247;   -0,265;    1,773
695,983;   97,702;    0,189;    0,591
696,556;   46,339;   -0,447;   -1,045
697,129;   20,431;   -0,356;    1,409
697,703;   85,886;   -1,629;    1,955
698,276;   50,614;    1,462;   -0,773
698,849;   89,523;    1,280;    1,409
699,422;   44,070;   -1,083;    0,591
699,995;   22,161;    0,007;    0,136
700,568;   33,616;   -0,629;    3,045
701,140;   37,981;   -2,811;    1,682
701,713;   75,527;   -0,174;    2,409
702,286;   51,345;   -0,538;    0,864
702,859;   75,346;   -0,902;   -0,591
703,432;  115,074;    0,825;    0,682
704,004;   74,620;    0,462;    0,318
704,577;   32,348;   -0,629;    0,136
705,150;   63,258;    0,189;    2,500
705,722;   72,349;   -0,356;   -3,227
706,295;   83,168;   -0,175;   -0,591
706,867;   58,896;   -0,175;    1,955
707,440;   68,533;   -1,720;   -0,409
708,012;   94,170;    0,462;    0,591
708,584;   96,625;    2,462;    0,227
709,157;   31,535;    1,825;   -0,591
709,729;   78,626;    2,280;    2,045
710,301;   45,263;    0,734;    0,045
710,874;   35,810;   -1,447;   -0,227
711,446;   16,447;    0,371;    0,864
712,018;   28,174;    0,098;    0,500
712,590;   28,993;   -1,993;    1,682
713,162;   65,812;    0,825;    1,318
713,734;   34,813;    1,825;   -2,045
714,306;   18,632;   -1,902;   -0,409
714,878;   34,269;    0,825;    0,864
715,450;   25,997;    0,643;    0,864
716,022;   23,815;    1,552;    1,318
716,593;   28,271;    0,189;    0,591
717,165;   36,998;   -3,175;   -1,227
717,737;   96,817;    0,280;    0,409
718,309;   47,182;    0,280;   -0,045
718,880;   32,546;   -0,539;   -1,409
719,452;   46,546;   -0,175;   -1,591
720,024;   63,820;    0,734;   -0,591
720,595;   54,911;   -2,902;    0,955
721,167;   41,548;    0,370;   -2,045
721,738;   67,731;   -0,812;   -1,045
722,309;  128,277;   -0,993;   -1,227
722,881;   50,550;   -1,357;    0,773
723,452;   49,278;   -2,630;    2,864
724,023;   51,824;   -0,721;    2,682
724,595;   63,007;    0,007;    0,682
725,166;   47,916;    0,007;   -0,409
725,737;   90,826;    1,734;    0,227
726,308;   46,372;   -0,266;    0,318
726,879;   25,100;   -1,630;    1,227
727,450;   39,283;    0,552;   -0,045
728,021;   46,738;    3,097;    0,682
728,592;   80,466;    0,734;    0,500
729,163;  100,739;    0,643;   -0,136
729,734;   90,012;    0,188;   -0,227
730,305;   72,468;    1,734;    0,136
730,876;   61,286;    0,188;    2,955
731,447;  132,651;    2,188;    2,682
732,017;  112,197;    1,097;    1,864
732,588;   56,561;    0,734;    1,227
733,159;  150,925;    0,643;   -1,045
733,729;   69,108;    0,006;    0,409
734,300;  111,290;    0,915;    0,864
734,870;   55,291;    3,461;    0,591
735,441;   57,655;    0,370;   -0,591
736,011;   58,656;    0,643;   -1,591
736,582;   43,111;   -0,812;    0,045
737,152;   79,748;   -1,721;   -2,045
737,722;   74,294;   -0,267;   -0,682
738,293;   37,931;   -1,358;    1,318
738,863;   86,204;    2,461;    2,318
739,433;  158,478;    5,279;    0,318
740,003;   73,206;   -0,994;   -0,682
740,573;  103,479;    2,097;   -1,591
741,143;   69,480;   -1,085;    0,318
741,713;   46,571;    1,188;   -0,500
742,283;   63,572;    0,915;    1,591
742,853;   59,573;    1,915;    1,591
743,423;   25,119;    1,733;    0,045
743,993;   49,756;   -0,358;    1,500
744,563;   64,756;    0,097;   -0,864
745,133;   62,757;   -0,812;   -0,864
745,702;   32,667;   -0,267;    1,773
746,272;   82,395;   -0,176;    0,591
746,842;   86,759;   -1,358;   -0,591
747,411;   42,123;   -0,267;   -0,318
747,981;   20,942;    0,097;    0,500
748,551;   19,033;    2,278;   -1,045
749,120;   55,034;    0,642;   -0,227
749,690;   43,762;   -0,631;    2,409
750,259;   68,854;    1,369;    2,955
750,828;   76,945;    1,551;   -1,955
751,398;   39,400;    1,278;   -0,045
751,967;  175,310;    2,187;    0,409
752,536;   86,674;   -0,813;   -0,227
753,105;   92,220;    0,096;    0,227
753,675;   51,767;    0,096;    1,773
754,244;   45,949;   -0,904;    3,591
754,813;   56,041;    0,551;    1,227
755,382;   43,950;    0,460;    0,955
755,951;   63,678;    1,551;    3,682
756,520;  112,406;   -0,085;    1,864
757,089;  120,043;    0,278;    0,500
757,658;   62,316;    1,733;    1,227
758,227;   28,135;    1,096;    0,318
758,795;   32,318;    1,187;    1,136
759,364;   32,773;   -0,086;   -0,591
759,933;   28,592;   -1,176;   -0,045
760,501;   20,411;    0,733;   -1,318
761,070;   50,320;   -2,813;   -1,409
761,639;   30,139;   -1,904;    1,318
762,207;   40,867;    1,551;   -0,955
762,776;   69,595;    0,369;    0,864
763,344;   41,777;   -0,995;    0,591
763,913;   15,687;   -0,722;    1,409
764,481;  133,324;    1,005;   -0,136
765,049;  121,507;   -1,358;    1,409
765,618;  112,053;   -0,086;    0,318
766,186;   62,417;    0,278;    0,136
766,754;   76,327;    0,005;    1,864
767,322;   39,145;   -1,995;    0,409
767,890;   40,237;   -0,722;   -1,773
768,459;   38,238;   -2,177;   -0,318
769,027;   86,511;    1,641;    3,409
769,595;   45,512;    3,278;    2,591
770,163;  115,058;    3,823;    2,955
770,730;   64,058;    0,732;   -0,136
771,298;   57,059;    0,187;   -1,409
771,866;   40,514;   -1,541;    4,955
772,434;   43,424;   -0,631;   -1,864
773,002;  103,515;    0,005;    0,682
773,569;   72,880;    0,914;    1,682
774,137;   80,699;   -0,268;   -0,045
774,705;   40,699;    0,278;   -0,136
775,272;   42,063;    0,641;    0,682
775,840;   40,155;   -0,177;    2,682
776,407;   64,610;    0,277;    1,955
776,975;   45,793;   -0,632;    0,318
777,542;   29,884;   -1,086;   -0,045
778,110;   33,521;   -1,268;   -0,045
778,677;   20,704;   -2,359;   -0,864
779,244;   36,432;    2,186;    1,045
779,812;   26,341;    1,823;    0,864
780,379;   69,796;    0,005;    1,136
780,946;   54,797;    1,005;   -0,773
781,513;   35,616;   -1,450;    0,318
782,080;   35,526;   -0,086;    2,864
782,647;   43,435;   -0,268;    3,045
783,214;   33,254;   -0,177;    3,864
783,781;   68,891;   -0,723;   -0,682
784,348;   71,801;   -0,632;    1,500
784,915;   25,256;   -3,177;    0,318
785,482;  100,711;    1,368;    2,591
786,049;   53,439;    0,186;   -0,591
786,615;   25,076;    0,277;   -0,955
787,182;   17,350;    0,186;   -0,682
787,749;   12,168;   -2,814;    1,409
788,315;   59,351;   -1,632;   -0,409
788,882;   33,352;    1,550;   -1,227
789,448;  124,261;    1,732;   -0,955
790,015;   55,262;    1,095;    3,227
790,581;   76,535;    1,459;    0,227
791,148;   47,900;    0,641;    1,045
791,714;   27,355;   -0,541;    3,136
792,280;   29,537;    0,186;    1,591
792,847;   18,992;    0,550;    2,500
793,413;   35,720;   -0,269;   -0,318
793,979;  100,812;    3,459;   -1,318
794,545;  186,994;    4,459;    2,682
795,111;  118,722;    2,186;    1,318
795,678;   83,177;    0,731;   -1,682
796,244;  132,633;    3,368;    0,136
796,810;   78,724;    1,731;    0,773
797,375;   68,452;    0,549;   -2,136
797,941;   23,362;   -0,541;    0,591
798,507;   20,999;   -0,451;   -0,955
799,073;   34,727;   -0,360;    0,591
799,639;   22,000;   -2,632;    3,136
800,205;   19,455;    0,095;    2,682
800,770;   29,819;    0,640;    1,773
801,336;   44,547;    1,368;   -0,955
801,901;  225,366;    4,549;    3,136
802,467;  110,276;   -0,542;    2,045
803,033;   46,549;   -0,087;    0,864
803,598;   38,914;    1,913;   -1,045
804,163;   39,460;    1,095;   -0,318
804,729;   55,733;   -0,178;    1,136
805,294;   35,825;    0,822;    2,227
805,859;   18,734;    0,731;   -0,409
806,425;  146,917;    1,186;    2,682
806,990;  119,281;    2,186;    4,318
807,555;   51,463;   -1,451;    2,591
808,120;   79,646;    0,822;   -0,409
808,685;   46,101;    0,185;   -2,500
809,250;   27,374;    0,004;   -0,500
809,815;   16,830;    1,913;    0,682
810,380;   37,558;   -0,269;    1,591
810,945;   93,104;   -1,087;    2,045
811,510;   46,559;    2,094;    1,591
812,075;   51,559;   -0,633;   -1,409
812,640;  119,560;    2,003;    1,409
813,204;   63,197;    0,822;   -0,227
813,769;   83,198;    2,094;   -0,045
814,334;   81,926;    0,458;    0,864
814,898;   35,654;    0,367;    0,591
815,463;   44,927;    1,276;   -0,773
816,027;   31,200;   -0,724;   -2,318
816,592;   19,928;    0,640;   -2,045
817,156;   65,565;    2,094;    1,136
817,721;   96,839;    4,276;    2,318
818,285;   39,930;    2,912;    1,500
818,849;   48,022;   -1,451;    1,682
819,414;   32,568;   -0,269;    2,955
819,978;   23,205;   -1,269;    1,773
820,542;   69,024;    2,003;    0,500
821,106;   35,570;   -0,815;    0,682
821,670;  106,116;   -0,815;    2,591
822,234;   45,662;   -0,270;    1,409
822,798;   26,844;    0,003;    0,500
823,362;   63,299;   -0,633;    4,227
823,926;   46,482;    0,094;    1,136
824,490;   80,210;   -0,997;   -0,682
825,054;   45,756;   -0,088;   -1,136
825,618;   27,029;   -1,542;   -1,500
826,181;   46,848;    0,458;   -1,318
826,745;   65,303;    1,367;   -1,045
827,309;  146,031;    1,185;    1,318
827,872;   92,396;    1,367;    0,955
828,436;   52,760;    1,185;   -0,773
828,999;   36,942;   -0,997;    1,227
829,563;   31,397;   -0,179;    1,136
830,126;   33,944;   -0,179;   -0,591
830,690;   63,853;   -1,997;    2,864
831,253;   36,672;   -0,543;    2,227
831,816;   48,673;   -1,906;    0,500
832,380;   37,855;    0,185;    0,864
832,943;   31,583;   -1,361;   -0,500
833,506;   23,947;    2,639;   -1,227
834,069;   73,403;    3,912;   -0,955
834,632;   36,130;    1,730;    1,318
835,195;   36,040;    1,003;    0,955
835,758;   29,586;   -0,997;    1,955
836,321;   44,951;    0,730;   -1,045
836,884;   37,315;   -0,725;   -0,955
837,447;   28,406;   -2,816;    1,773
838,010;   62,498;    0,366;    3,227
838,573;   47,771;   -1,179;    0,773
839,135;   22,136;   -1,361;   -0,955
839,698;   44,318;    1,275;    0,409
840,261;   29,046;    1,003;   -0,227
840,823;   26,501;   -0,543;    0,864
841,386;   27,047;   -0,452;   -2,409
841,948;   84,684;   -1,361;    1,773
842,511;   40,139;    0,912;    1,682
843,073;   64,504;    1,912;    0,227
843,636;   27,595;   -0,361;   -0,227
844,198;   60,596;    0,911;    0,591
844,760;   55,960;    1,093;    1,955
845,322;   17,233;    0,548;    1,136
845,885;   54,325;    0,730;    0,591
846,447;   41,598;   -1,998;    0,227
847,009;  129,054;    1,911;   -0,682
847,571;   52,236;    0,820;   -2,045
848,133;   33,509;   -1,089;   -1,864
848,695;   12,601;   -0,543;    1,409
849,257;   24,965;   -1,089;   -1,682
849,819;   48,784;   -0,998;   -0,409
850,381;   27,966;   -0,725;   -0,864
850,942;   25,694;    1,093;   -0,591
851,504;   50,422;    1,184;    0,227
852,066;   29,514;    1,275;   -1,591
852,628;   34,878;   -0,180;    1,955
853,189;   21,242;    1,638;    2,682
853,751;   23,516;   -0,907;    1,409
854,312;   30,425;   -0,453;   -1,682
854,874;   56,608;   -2,089;   -0,773
855,435;   35,881;   -0,907;   -1,682
855,997;   38,155;   -1,816;   -0,136
856,558;   64,883;    0,366;    1,773
857,119;   40,156;    0,820;    2,864
857,681;   20,338;    0,002;    0,318
858,242;   93,794;    1,911;   -2,136
858,803;   60,249;    0,456;   -0,773
859,364;   33,431;    0,184;   -4,773
859,925;   55,068;   -2,453;   -0,955
860,486;   30,432;   -0,453;   -0,955
861,047;   21,979;   -0,544;   -1,227
861,608;   31,161;   -1,089;   -0,773
862,169;    9,344;    0,638;   -0,045
862,730;   29,344;    0,456;    1,409
863,291;   35,981;   -0,635;   -0,500
863,852;   30,345;   -0,635;    1,955
864,412;   35,346;   -0,271;   -0,864
864,973;  107,529;   -0,089;    0,500
865,534;  100,347;   -1,726;    0,227
866,094;   58,348;    1,820;    0,227
866,655;  107,258;    1,274;    3,318
867,215;   52,258;    0,274;    0,136
867,776;   19,804;    0,547;   -0,136
868,336;   37,532;   -1,453;    0,136
868,897;  134,533;    2,638;    1,682
869,457;   74,534;    1,365;    0,318
870,017;   26,989;    0,547;   -1,227
870,578;   24,808;   -0,817;    0,773
871,138;   36,899;   -2,089;   -0,955
871,698;   29,718;   -0,817;   -1,318
872,258;   49,991;   -0,453;   -2,864
872,818;   72,174;    2,729;    0,045
873,378;   41,902;    0,638;    1,045
873,938;   40,811;    0,547;    0,500
874,498;   24,630;    0,274;   -1,955
875,058;   51,267;    2,183;    1,773
875,618;   46,086;    1,910;   -2,682
876,177;   55,178;    1,274;    0,136
876,737;   21,633;   -0,090;    1,955
877,297;  104,906;    0,183;    1,955
877,856;   75,452;   -0,362;    0,318
878,416;   28,362;    1,183;   -0,136
878,976;   21,817;   -1,817;    0,409
879,535;   27,091;    0,092;    3,136
880,095;   30,455;   -0,544;    0,045
880,654;   18,728;   -1,090;    1,318
881,213;   87,002;    2,456;    1,500
881,773;   44,366;    2,637;    2,682
882,332;  177,730;    3,365;    5,136
882,891;   60,822;    3,092;    2,136
883,451;   41,822;   -1,272;    1,682
884,010;   34,550;   -2,908;   -0,409
884,569;   21,187;   -0,999;   -0,045
885,128;   50,461;    2,819;   -1,864
885,687;  104,370;    4,455;    0,682
886,246;  157,371;    1,455;    2,136
886,805;  109,644;    2,455;    2,045
887,364;   35,827;   -0,999;   -0,500
887,922;   20,464;   -1,181;    0,045
888,481;   71,828;   -1,545;    0,591
889,040;   70,829;    1,183;    2,136
889,599;   45,011;    2,455;    1,409
890,157;   47,375;    1,455;    2,409
890,716;   24,649;   -0,090;    0,227
891,274;   49,740;    0,092;   -1,136
891,833;   65,832;    1,546;    0,864
892,391;   30,014;   -0,454;    0,500
892,950;   44,106;    1,819;   -0,773
893,508;   24,561;    0,455;   -0,409
894,067;   17,198;    0,637;    0,136
894,625;   23,199;   -0,636;   -1,500
895,183;   25,654;   -0,363;   -0,682
895,741;   85,200;    1,728;   -1,773
896,299;   43,019;   -0,545;   -2,409
896,858;   20,565;    0,819;   -1,591
897,416;   59,020;    2,728;   -1,318
897,974;   42,657;    1,819;    0,318
898,532;  175,021;    6,091;    2,682
899,089;   82,840;    2,091;   -0,682
899,647;   45,750;   -1,454;    1,318
900,205;   30,296;    1,182;    1,045
900,763;   38,297;   -0,454;    0,227
901,321;   36,843;    2,364;   -1,409
901,878;   11,843;   -1,000;   -0,773
902,436;   24,208;   -1,363;    1,318
902,994;  217,936;    4,728;    3,682
903,551;   79,118;    0,728;    0,409
904,109;   36,300;    0,182;   -1,409
904,666;   32,392;    2,455;    1,045
905,224;   18,756;    0,182;   -0,409
905,781;   47,121;    0,727;   -0,318
906,338;   35,394;   -1,363;    1,045
906,895;   18,395;    0,637;    2,045
907,453;   72,941;    1,727;    1,136
908,010;   44,850;   -0,909;    0,409
908,567;   48,487;    1,273;    0,591
909,124;   18,852;    0,364;   -1,500
909,681;   19,580;   -2,909;    0,682
910,238;   31,126;    0,636;   -1,318
910,795;   16,490;   -0,273;   -1,136
911,352;   12,126;   -2,909;   -2,682
911,909;   19,672;   -1,364;   -0,864
912,466;   21,490;   -3,182;    1,500
913,022;   48,581;   -1,636;    0,500
913,579;   71,035;   -0,909;    2,045
914,136;   39,126;    1,636;    0,955
914,692;   33,854;    0,091;   -1,227
915,249;   46,035;    1,455;    0,409
915,806;   53,944;    0,182;    1,955
916,362;   33,944;    1,909;    1,864
916,918;   37,035;    2,000;    1,045
917,475;   44,672;   -1,182;    0,955
918,031;   18,217;    3,364;   -0,045
918,587;   38,763;   -0,909;   -0,318
919,144;   26,399;   -2,273;    0,227
919,700;   13,399;    1,727;    0,773
920,256;   16,854;    0,727;    0,045
920,812;   24,944;   -0,727;   -1,045
921,368;   20,308;   -1,727;   -1,045
921,924;   23,035;    0,182;   -0,136
922,480;   37,035;   -0,545;    1,227
923,036;   42,763;    1,273;    1,955
923,592;   25,763;    0,455;    0,318
924,148;   22,854;    0,455;   -0,955
924,704;   37,672;   -1,364;   -0,409
925,259;   16,126;   -0,273;    0,591
925,815;   19,399;    1,455;    0,500
926,371;   17,035;    2,909;    1,409
926,926;   46,672;    2,091;    0,591
927,482;   35,126;   -1,364;    0,773
928,037;   26,399;    0,909;    2,045
928,593;   70,035;    1,636;    1,045
929,148;   29,672;   -1,818;   -1,500
929,704;   37,854;   -1,455;   -0,500
930,259;   27,763;    0,091;   -0,136
930,814;   54,944;   -0,818;    1,955
931,369;   41,854;    1,091;   -0,773
931,925;   17,399;   -0,091;    0,136
932,480;   30,308;   -2,818;   -2,591
933,035;  100,035;    0,545;   -0,318
933,590;   78,581;    0,364;   -1,773
934,145;   26,035;   -1,364;   -0,318
934,700;   12,217;    0,455;   -0,591
935,255;   18,854;   -0,091;    0,045
935,809;   94,035;    3,182;    0,864
936,364;   31,035;   -0,455;   -0,136
936,919;   17,672;    0,455;   -1,773
937,474;   12,217;    1,455;    0,136
938,028;   12,035;   -1,636;    1,136
938,583;  101,581;    1,818;    4,682
939,138;   37,944;    2,091;    2,136
939,692;   12,399;    1,636;   -1,136
940,247;   15,126;   -0,727;   -1,045
940,801;   15,399;   -0,636;    0,227
941,355;   10,035;   -0,364;    2,591
941,910;    7,035;   -0,273;   -2,136
942,464;    9,035;   -0,818;   -0,318
943,018;   27,763;    1,000;   -0,227
943,572;   17,035;    2,545;   -0,682
944,126;   31,217;    0,091;   -0,409
944,681;   18,217;    3,091;    0,227
945,235;    5,126;    1,000;   -0,591
945,789;    6,854;    0,364;   -1,864
946,342;   35,035;    0,455;   -0,591
946,896;   12,399;   -2,273;    0,955
947,450;    5,126;    1,545;   -0,227
948,004;   33,944;    1,727;   -0,045
948,558;   17,126;    0,273;   -0,864
949,111;   13,217;   -0,273;   -0,318
949,665;   28,490;    1,636;   -0,682
950,219;   29,672;   -0,091;   -1,045
950,772;   19,217;   -1,909;    1,864
951,326;   15,126;    0,545;   -0,955
951,879;   15,944;    0,727;   -2,318
952,433;   30,035;    0,000;    2,227
952,986;   16,035;    2,909;    0,682
953,539;    7,672;   -0,273;    0,591
954,093;    5,217;    0,545;   -1,318
954,646;   11,035;    0,909;    1,318
955,199;    4,217;    0,000;   -0,500
955,752;   42,217;   -0,455;    1,773
956,305;   20,217;   -0,091;    2,955
956,858;   23,672;    0,818;   -0,318
957,411;   25,672;   -0,545;    2,136
957,964;   22,763;    1,364;    2,136
958,517;   10,399;   -1,545;    3,136
959,070;    6,672;   -0,455;    1,955
959,623;   37,126;    1,091;    1,500
960,176;   28,672;    1,727;    2,045
960,728;   15,944;   -2,727;    0,773
961,281;   11,854;    0,545;    0,500
961,834;    7,399;   -0,909;    0,864
962,386;   11,944;    1,727;    1,045
962,939;    9,308;    0,364;   -0,318
963,491;   13,581;    0,455;    1,136
964,043;    8,490;    1,182;    2,409
964,596;   22,672;   -1,000;    2,227
965,148;   14,035;   -1,000;    1,773
965,700;    5,854;    1,091;   -0,227
966,253;   24,490;   -0,636;    0,318
966,805;   17,763;   -2,273;    0,773
967,357;   12,217;    1,091;   -1,500
967,909;   23,399;    0,455;   -1,227
968,461;   12,490;    0,545;    3,136
969,013;    7,944;   -0,182;   -0,864
969,565;   33,581;   -0,455;   -1,136
970,117;   54,854;   -0,364;    1,045
970,669;   28,217;    0,182;   -0,136
971,220;    7,672;   -0,455;   -1,500
971,772;   18,763;   -0,636;   -0,318
972,324;   22,399;    0,091;   -0,500
972,876;    9,854;    0,818;   -0,045
973,427;   20,581;    1,909;   -1,045
973,979;   30,399;   -0,727;   -2,500
974,530;   14,217;    1,818;    1,318
975,082;   27,490;   -0,545;    1,682
975,633;   19,763;    1,091;    1,682
976,184;   14,763;    0,909;    0,773
976,736;   13,490;    0,091;    0,227
977,287;   22,217;   -0,909;   -0,500
977,838;   13,490;    0,909;   -0,318
978,389;   10,126;   -1,000;   -0,500
978,940;    3,490;    0,545;   -0,409
979,491;    3,672;    0,091;   -0,500
980,042;   12,217;    0,182;    3,045
980,593;   14,399;   -2,545;    0,227
981,144;   23,035;    2,545;   -0,500
981,695;   19,035;    1,455;    1,500
982,246;   15,035;   -0,273;    1,045
982,797;    7,672;   -1,727;    0,682
983,347;   18,308;    0,364;    0,591
983,898;   51,944;    3,091;    0,409
984,449;   50,217;    2,182;    0,773
984,999;   23,763;    1,455;   -1,136
985,550;   17,672;    0,182;   -0,318
986,100;   10,581;   -0,455;   -0,318
986,651;    5,672;   -0,818;    0,045
987,201;    8,308;   -1,000;   -0,591
987,751;    7,399;    0,818;    2,864
988,302;    9,035;    2,636;    1,500
988,852;   18,308;    0,455;   -1,136
989,402;   22,944;    0,091;    0,682
989,952;   34,672;   -2,182;    0,864
990,502;   15,126;   -0,091;    0,682
991,052;    4,854;   -0,727;    0,045
991,602;   10,581;   -2,909;    1,318
992,152;   10,944;    0,455;    0,682
992,702;   16,308;    1,364;   -0,045
993,252;   11,035;   -3,000;   -0,500
993,802;   21,217;   -0,273;    1,318
994,352;   11,763;   -1,545;    1,136
994,901;    5,490;   -0,182;    3,227
995,451;    6,672;   -0,182;    0,318
996,000;    4,672;    1,636;    0,318
996,550;    7,399;    2,273;    0,227
997,100;    8,490;    1,273;   -0,045
997,649;   20,217;    2,182;    0,955
998,198;   10,854;    1,727;   -1,500
998,748;   17,854;    1,091;   -2,318
999,297;   13,854;   -0,818;   -0,409
999,846;   15,763;    1,000;   -0,773
1000,395;   10,217;   -0,818;    0,500
1000,945;   16,672;    1,818;   -0,773
1001,494;   22,944;    2,364;    0,682
1002,043;   30,399;    4,636;    0,864
1002,592;   12,035;   -1,091;    1,955
1003,141;    6,399;   -0,455;   -0,682
1003,690;   26,308;    1,727;    0,500
1004,238;   11,399;    1,455;   -0,045
1004,787;    7,126;    1,364;    1,227
1005,336;   20,581;    0,364;    0,682
1005,885;   15,217;    1,364;   -2,773
1006,433;   13,126;    0,545;    0,955
1006,982;   17,217;    0,455;    1,682
1007,531;   12,035;   -1,818;   -0,227
1008,079;   12,581;   -2,273;    0,500
1008,627;   10,854;   -1,455;    0,409
1009,176;   12,763;    0,000;   -1,955
1009,724;    6,490;    1,091;    0,864
1010,273;   18,035;    1,273;    0,500
1010,821;   10,672;    0,091;    1,409
1011,369;    5,944;   -1,364;    1,318
1011,917;    2,944;   -1,364;   -0,591
1012,465;   14,035;    1,273;   -1,591
1013,013;   10,581;    2,091;   -1,682
1013,561;   22,399;    0,455;   -0,773
1014,109;   30,217;   -1,909;    1,682
1014,657;   18,399;    0,364;    0,591
1015,205;    9,854;    1,636;   -0,955
1015,753;    7,035;   -0,545;   -1,409
1016,301;   12,308;   -2,636;    3,045
1016,848;   20,217;   -1,273;    0,409
1017,396;   15,944;    2,545;    0,045
1017,944;   13,854;    1,182;    1,864
1018,491;   10,308;    0,273;    1,409
1019,039;   26,399;    0,455;    0,591
1019,586;   12,581;   -1,364;    1,682
1020,134;   13,308;    0,455;    1,500
1020,681;   20,126;    0,182;   -1,136
1021,228;   13,854;    2,909;   -2,227
1021,776;    8,308;    1,182;   -1,136
1022,323;   35,581;    0,455;    0,773
1022,870;   18,854;   -1,000;   -0,045
1023,417;   20,944;    2,636;    1,864
1023,964;   10,672;    2,636;    1,227
1024,511;    9,217;    1,000;    0,773
1025,058;   14,581;    3,182;   -0,045
1025,605;    8,672;   -2,273;    3,136
1026,152;   33,217;    1,727;   -0,591
1026,699;   16,490;    1,818;    1,318
1027,245;   11,763;   -0,091;    0,318
1027,792;    6,399;   -1,000;    1,409
1028,339;   29,672;    2,364;   -0,045
1028,885;   13,490;    1,000;   -0,227
1029,432;   12,854;   -0,091;    0,227
1029,978;   14,581;   -1,000;   -1,591
1030,525;   22,581;    1,000;    0,409
1031,071;   12,217;   -1,364;    1,136
1031,618;   34,581;    0,364;    1,682
1032,164;   19,944;   -0,091;    3,045
1032,710;   23,581;    1,636;   -1,500
1033,256;   16,399;   -0,636;   -0,136
1033,803;    7,035;   -0,545;    1,500
1034,349;    0,763;   -1,364;    0,136
1034,895;    3,035;    0,000;   -0,318
1035,441;    8,217;   -0,818;    0,318
1035,987;   12,672;   -2,364;   -0,682
1036,533;   13,944;   -1,455;   -0,955
1037,078;   43,217;    1,455;    1,682
1037,624;   26,308;    2,455;   -0,955
1038,170;    9,944;    0,455;   -0,318
1038,716;   17,217;    1,636;   -0,409
1039,261;    7,854;   -2,273;   -0,773
1039,807;   11,854;   -0,091;    3,409
1040,352;   10,308;   -1,909;   -0,318
1040,898;    7,581;   -1,545;   -0,682
1041,443;    5,399;   -1,455;   -2,591
1041,989;   35,763;    1,091;    1,591
1042,534;   15,672;   -0,364;    2,591
1043,079;    6,217;    2,909;    0,955
1043,625;    9,217;    1,818;    0,500
1044,170;   10,581;   -1,364;    1,045
1044,715;   33,672;    2,455;    0,955
1045,260;   20,490;    2,182;   -0,955
1045,805;   10,308;    1,182;   -0,591
1046,350;    7,581;    1,364;   -0,409
1046,895;   26,399;    2,909;    1,591
1047,440;   18,308;    5,364;    0,409
1047,985;   10,490;    2,818;   -0,955
1048,530;   10,217;    1,545;    1,227
1049,074;    7,944;    0,000;    0,318
1049,619;    8,035;   -1,364;    1,955
1050,164;    6,763;    0,455;    0,227
1050,708;   16,308;   -0,455;    0,045
1051,253;   39,944;    1,273;   -2,227
1051,797;   17,308;    0,818;   -1,318
1052,342;    5,854;   -1,182;    1,045
1052,886;    9,126;    0,364;   -1,409
1053,430;    4,308;   -1,364;    0,136
1053,975;   11,763;   -0,818;   -0,318
1054,519;   10,581;   -0,727;    3,227
1055,063;   14,490;    0,909;    1,318
1055,607;   16,490;   -0,182;    0,227
1056,151;   14,944;    2,909;    1,682
1056,695;    7,672;    2,273;   -1,136
1057,239;    7,854;   -1,727;   -0,682
1057,783;    7,217;    0,818;   -1,500
1058,327;   19,944;    0,000;    1,409
1058,871;   37,581;   -0,545;    1,318
1059,415;   22,126;   -0,818;   -0,045
1059,958;   34,035;    1,455;    2,591
1060,502;   10,126;   -1,000;   -0,773
1061,046;    5,308;    0,364;   -0,955
1061,589;    4,308;   -3,000;   -1,136
1062,133;    3,217;   -1,273;    1,864
1062,676;    7,399;    1,182;    0,864
1063,220;    8,035;    1,091;    0,500
1063,763;   10,581;    0,909;    1,136
1064,306;   10,035;   -0,909;    1,864
1064,849;   10,490;   -0,909;    0,591
1065,393;    8,490;    2,000;   -1,500
1065,936;    7,854;    0,182;   -0,409
1066,479;    5,490;   -1,455;    1,318
1067,022;    8,308;   -0,273;   -0,227
1067,565;    5,581;   -0,091;   -1,318
1068,108;    2,854;    0,727;   -0,591
1068,651;    1,763;   -0,636;    1,409
1069,194;    3,490;   -0,455;   -1,682
1069,736;    4,126;   -1,273;    0,955
1070,279;    1,217;   -1,364;   -0,500
1070,822;    6,854;   -2,000;   -0,318
1071,364;   17,672;   -0,364;    1,318
1071,907;    9,399;   -0,727;    3,227
1072,450;   -0,692;    0,000;   -0,045
1072,992;    5,126;   -0,273;    3,136
1073,535;    7,490;    2,091;    2,136
1074,077;    4,126;   -0,727;    2,045
1074,619;    0,035;   -1,364;    0,591
1075,161;    5,126;   -1,091;    1,500
1075,704;   15,035;    1,545;    1,227
1076,246;    6,217;   -0,182;    0,682
1076,788;    1,035;   -0,364;    1,773
1077,330;    2,854;    1,273;    2,136
1077,872;    4,399;    0,909;    0,955
1078,414;   16,854;    2,727;    0,773
1078,956;    7,308;    1,273;   -0,227
1079,498;   16,763;    1,636;    0,318
1080,040;    6,763;    1,909;   -1,318
1080,581;    0,944;    1,636;   -0,318
1081,123;    2,126;    0,091;   -0,773
1081,665;    4,399;   -1,182;   -0,955
1082,206;   19,399;    1,364;   -0,500
1082,748;    7,308;    0,727;    2,045
1083,289;    3,217;   -2,000;    1,318
1083,831;   -1,146;   -0,545;    0,227
1084,372;    4,399;    0,000;    0,591
1084,913;    2,217;    1,091;    0,864
1085,455;    0,672;   -1,909;   -2,045
1085,996;    1,035;   -2,273;    0,136
1086,537;    1,763;   -0,091;    0,864
1087,078;    4,308;   -0,909;   -2,136
1087,619;    5,126;   -1,273;    0,227
1088,160;    4,399;    0,000;    1,318
1088,701;    3,763;   -1,091;    0,682
1089,242;    2,035;    1,364;   -2,227
1089,783;    4,217;   -0,273;    1,409
1090,324;    3,490;    0,455;    0,682
1090,865;    1,399;    2,727;   -0,409
1091,405;    0,763;    0,727;    2,227
1091,946;    5,490;    0,182;   -0,955
1092,487;    2,035;    0,818;   -1,409
1093,027;    7,763;   -1,364;   -1,500
1093,568;    4,126;   -0,364;    1,227
1094,108;    4,308;    0,273;    1,773
1094,649;    1,308;   -1,182;    0,136
1095,189;    1,035;   -0,636;   -0,682
1095,729;    0,944;   -0,091;    0,955
1096,269;    1,308;    0,727;   -0,955
1096,810;    8,308;   -1,364;    0,500
1097,350;    5,126;    1,364;   -0,773
1097,890;    3,581;    0,364;    1,227
1098,430;   19,399;    2,364;    2,864
1098,970;   11,308;    2,182;    1,682
1099,510;    2,581;    0,545;   -2,318
1100,050;    2,672;    1,000;   -1,591
1100,589;    4,217;   -0,727;   -0,318
1101,129;    5,763;    0,818;   -0,955
1101,669;   10,399;    1,727;    2,136
1102,209;    7,581;   -0,091;    2,227
1102,748;    4,854;    0,000;    0,955
1103,288;    4,035;    1,273;   -1,227
1103,827;    0,126;    3,091;   -2,227
1104,367;    2,581;   -0,091;   -2,409
1104,906;    2,399;    1,364;   -1,136
1105,445;    5,944;    0,636;   -1,136
1105,985;    1,399;   -0,727;    1,500
1106,524;    4,126;   -1,727;   -0,682
1107,063;    2,217;   -2,727;    1,409
1107,602;    1,944;   -1,909;   -1,500
1108,141;    0,490;   -1,909;    1,500
1108,680;    8,126;   -3,455;   -0,591
1109,219;    5,763;   -0,909;   -0,500
1109,758;    2,126;    0,455;    0,682
1110,297;   -0,510;    1,000;   -0,682
1110,836;    1,763;   -0,727;    0,955
1111,375;    1,035;   -2,545;    0,409
1111,913;    6,399;   -1,000;    0,773
1112,452;    3,581;   -0,273;    0,136
1112,991;    3,035;    1,091;    1,955
1113,529;    2,490;   -0,818;   -0,045
1114,068;    2,308;   -0,273;    2,955
1114,606;    2,035;   -0,364;   -0,955
1115,144;    4,672;   -1,273;    1,045
1115,683;    2,763;   -0,727;    0,318
1116,221;    2,490;   -0,455;   -0,864
1116,759;    1,035;    0,636;   -0,864
1117,297;    6,490;    0,000;    1,864
1117,836;    3,217;   -2,182;   -1,227
1118,374;    1,490;    0,182;   -0,682
1118,912;    0,490;    0,909;    2,682
1119,450;    2,944;    1,000;    0,864
1119,988;   -0,510;    1,545;    2,136
1120,525;   25,490;    5,091;    3,318
1121,063;   13,399;    1,182;    1,864
1121,601;    5,126;   -0,909;   -1,227
1122,139;   -0,692;   -0,727;   -2,045
1122,676;    4,672;   -0,727;    2,773
1123,214;    3,581;   -1,182;    4,409
1123,751;   -1,692;    1,727;    2,227
1124,289;    2,035;   -0,091;   -0,409
1124,826;    1,854;    1,727;    0,227
1125,364;   -1,146;    1,727;   -0,955
1125,901;    9,944;    1,182;    1,227
1126,438;    7,126;    0,818;    0,955
1126,975;    1,399;   -0,727;   -0,773
1127,513;    1,854;    0,273;    2,136
1128,050;    0,308;    1,636;   -0,682
1128,587;    2,944;    2,000;   -0,227
1129,124;    5,308;    0,091;    1,318
1129,661;    0,854;    0,273;    0,227
1130,198;    6,490;    1,636;    0,773
1130,734;    0,854;    0,182;    1,409
1131,271;    2,217;   -0,909;    0,864
1131,808;    2,490;    2,909;    3,045
1132,345;    0,217;    1,545;    0,318
1132,881;    0,490;   -1,545;   -1,864
1133,418;    2,854;    0,727;   -1,136
1133,954;    0,217;    2,455;   -2,682
1134,491;    0,672;    1,364;   -0,773
1135,027;    0,126;    2,364;    0,864
1135,564;    1,581;    0,273;    2,955
1136,100;    4,672;    0,364;    2,136
1136,636;    2,399;   -1,273;   -1,045
1137,172;    0,581;    0,000;   -1,045
1137,708;    3,217;   -1,364;   -1,045
1138,245;   -0,146;    1,273;   -1,227
1138,781;   -2,510;    1,091;   -3,318
1139,317;    0,763;    1,273;   -1,409
1139,852;    3,035;    3,091;    0,136
1140,388;    2,126;   -1,182;   -0,409
1140,924;    2,308;   -1,091;   -2,227
1141,460;    1,035;   -1,636;    0,136
1141,996;    0,944;   -1,364;    2,682
1142,531;    2,490;    1,364;    3,318
1143,067;    3,035;    1,182;    1,045
1143,602;    2,944;   -0,091;   -0,318
1144,138;    3,308;   -2,636;    1,045
1144,673;    3,308;   -1,455;    1,409
1145,209;    3,308;   -1,909;   -0,318
1145,744;   -1,328;   -0,727;    0,864
1146,279;    1,581;    1,818;   -0,136
1146,815;    1,763;    1,545;   -2,682
1147,350;    2,672;   -1,364;    0,045
1147,885;    0,763;   -0,818;   -1,318
1148,420;    1,944;   -2,273;    0,773
1148,955;    1,944;   -1,727;    1,864
1149,490;    1,490;   -0,909;   -1,591
1150,025;    0,126;    0,455;   -1,773
1150,560;    3,308;    1,091;   -0,955
1151,094;    3,126;    1,455;   -0,591
1151,629;    1,126;    1,636;    0,864
1152,164;    2,854;    1,364;    1,318
1152,698;   -1,874;   -0,182;   -0,136
1153,233;    2,217;    0,091;   -0,682
1153,767;    2,944;   -3,000;   -2,318
1154,302;    3,217;   -1,455;    1,773
1154,836;   -0,601;   -0,455;   -2,136
1155,371;    0,581;   -1,364;    3,682
1155,905;   -0,601;   -0,636;    1,682
1156,439;    2,672;   -0,636;   -0,500
1156,973;    1,126;    0,364;    0,318
1157,507;   -0,056;   -0,364;    0,682
1158,042;   -0,510;   -0,727;    1,045
1158,576;    1,217;    0,182;    1,773
1159,110;    0,217;   -0,818;    2,409
1159,643;    0,035;    0,636;   -0,045
1160,177;   -0,510;   -1,545;    1,500

