
Integration time [ms]:   0,040
Averaging Nr. [scans]: 11
Smoothing Nr. [pixels]: 0
Data measured with spectrometer [name]: 7318044SP
Wave   ;Sample   ;Dark     ;Reference
[nm]   ;[counts] ;[counts] ;[counts] 

186,757;   37,160;   31,551;    1,318
187,357;   30,725;   22,551;    0,955
187,958;   21,826;   15,460;   -1,591
188,558;   27,428;    8,915;   -1,227
189,159;   16,097;    6,733;   -4,500
189,759;   10,275;    7,278;   -3,591
190,360;   12,250;    2,824;   -2,136
190,960;   12,039;    2,915;   -4,136
191,560;   13,687;    3,189;   -6,591
192,161;   61,325;    4,372;   -3,500
192,761;   35,175;    4,010;   -3,227
193,361;   19,761;    1,556;   -3,773
193,962;   28,329;    2,010;   -2,682
194,562;    8,923;    1,189;   -3,955
195,162;    8,536;   -2,448;   -2,227
195,762;   35,603;   -3,176;   -0,045
196,362;   21,817;    1,370;   -2,500
196,963;    6,409;    2,006;   -0,864
197,563;   20,158;    1,551;   -0,955
198,163;    7,343;    0,096;   -0,682
198,763;   12,026;    1,733;   -0,500
199,363;   20,851;    3,096;   -0,500
199,963;   17,573;    0,369;    0,409
200,563;   12,063;    2,823;   -1,409
201,163;    8,652;    3,277;   -0,227
201,763;   13,003;    3,732;    0,318
202,363;    8,844;    1,459;    1,500
202,963;   16,070;    1,459;    1,045
203,563;   29,769;    0,277;    0,500
204,162;   13,689;    2,096;   -1,864
204,762;   11,077;    0,550;    0,591
205,362;    7,939;    3,004;    1,955
205,962;   14,195;    3,096;    1,955
206,562;   13,643;    1,823;    2,318
207,161;    7,923;   -0,087;    0,318
207,761;   36,826;    1,277;    2,409
208,361;   18,058;   -0,268;    1,409
208,960;   19,177;    0,459;    1,500
209,560;   15,721;    1,277;    1,591
210,160;   25,411;    0,550;    1,864
210,759;   16,567;    4,186;    1,227
211,359;   11,306;    1,459;    1,045
211,958;   58,328;    1,277;    2,045
212,558;   61,585;    1,732;    1,864
213,157;   32,074;    1,822;    1,500
213,757;  101,232;    3,822;   -0,227
214,356;   49,553;    1,277;   -0,409
214,956;   95,748;    3,095;    0,409
215,555;   37,063;    2,095;    2,136
216,154;   21,246;   -2,723;   -0,591
216,754;   24,331;    0,277;    0,773
217,353;   33,456;   -0,268;   -1,045
217,952;   10,755;   -0,178;    0,318
218,552;   45,121;    1,368;   -0,773
219,151;   24,518;    0,277;    0,955
219,750;   21,116;    0,004;   -0,227
220,349;   13,952;   -0,451;    1,045
220,948;   60,444;   -1,360;    1,136
221,548;   28,560;    0,913;    1,227
222,147;   38,002;   -0,087;   -0,409
222,746;   94,254;   -0,451;   -0,955
223,345;   54,995;    0,731;    0,500
223,944;   57,852;   -0,451;    0,773
224,543;   61,908;    1,004;   -1,409
225,142;   49,229;    0,094;    0,136
225,741;   58,961;   -0,814;    1,045
226,340;   58,066;   -0,451;   -0,955
226,939;  112,269;   -0,996;   -0,136
227,538;   59,135;   -0,360;   -0,773
228,137;  125,519;   -0,814;    0,864
228,735;   98,790;   -0,541;    1,227
229,334;   39,784;   -0,905;   -0,227
229,933;  141,155;    0,459;    0,591
230,532;  144,759;    1,186;   -0,409
231,131;  200,284;    1,732;    0,318
231,729;  123,323;   -2,450;   -2,318
232,328;   85,133;   -0,723;   -1,500
232,927;  100,540;    1,004;   -0,500
233,525;   88,199;    3,640;    0,045
234,124;  113,758;    2,368;   -1,591
234,723;   75,234;    0,913;   -1,045
235,321;   67,913;    2,277;    0,136
235,920;   97,144;    1,186;   -1,227
236,518;  197,186;    3,459;    0,318
237,117;  100,107;    0,004;   -0,227
237,715;  116,059;    0,640;   -0,500
238,314;  139,949;   -0,087;   -2,318
238,912;  231,314;   -0,723;   -1,409
239,510;  165,030;    0,459;   -1,227
240,109;  248,519;    0,004;    3,773
240,707;  214,805;   -0,996;    1,227
241,305;  111,733;    0,550;    0,136
241,904;  183,279;   -0,178;   -2,045
242,502;  273,651;   -0,632;   -0,227
243,100;  194,053;   -0,087;   -0,955
243,698;  138,642;    0,732;    1,682
244,297;  166,514;   -0,632;    0,682
244,895;  161,634;   -0,269;   -2,318
245,493;  290,842;    2,186;   -0,591
246,091;  303,194;    1,368;   -1,318
246,689;  246,010;    1,004;    0,591
247,287;  223,188;    0,822;   -1,136
247,885;  189,514;   -1,451;    1,227
248,483;  159,821;    1,822;   -0,500
249,081;  227,019;    0,185;    1,591
249,679;  257,463;   -0,178;    1,682
250,277;  159,859;   -1,723;    0,864
250,875;  260,965;   -1,087;   -1,045
251,473;  178,565;   -1,178;    0,500
252,071;  258,366;    1,459;    1,045
252,669;  192,761;   -1,814;    0,318
253,267;  153,397;   -0,087;    0,773
253,864;  203,461;   -0,360;    0,682
254,462;  312,233;    1,640;    1,591
255,060;  156,584;   -0,269;    1,318
255,658;  156,488;    0,822;   -0,136
256,255;  206,822;    0,186;   -2,045
256,853;  249,060;   -0,269;    1,409
257,451;  219,928;    0,822;    1,864
258,048;  546,096;    1,822;    1,864
258,646;  324,140;    1,731;   -1,045
259,243;  408,878;   -0,087;    2,227
259,841;  303,126;   -0,814;    0,318
260,438;  185,243;   -0,087;    0,864
261,036;  284,881;   -1,905;    1,409
261,633;  191,948;   -0,087;    2,227
262,231;  162,845;    2,731;   -0,045
262,828;  159,499;   -0,905;    1,136
263,425;  207,818;    0,913;   -0,591
264,023;  211,856;    0,186;    0,045
264,620;  330,771;   -0,360;   -0,318
265,217;  436,855;   -2,087;    3,136
265,815;  222,286;   -1,905;    2,136
266,412;  318,860;    0,731;    0,136
267,009;  325,380;   -1,451;    0,773
267,606;  390,776;    0,822;   -0,955
268,203;  241,893;   -0,269;   -0,591
268,801;  265,941;    1,731;    0,591
269,398;  204,614;   -0,360;    2,500
269,995;  324,590;    0,277;    1,591
270,592;  279,240;   -0,632;   -0,500
271,189;  199,797;    0,186;    0,409
271,786;  177,913;   -0,632;    1,227
272,383;  376,250;   -1,087;    0,227
272,980;  260,929;    0,277;    0,318
273,577;  219,389;    0,004;    1,227
274,174;  201,583;    0,822;    2,591
274,771;  324,034;   -0,814;   -0,773
275,367;  640,387;    2,277;    1,409
275,964;  462,784;    0,731;   -0,500
276,561;  289,587;    1,549;   -1,045
277,158;  211,191;    0,095;   -1,773
277,755;  417,746;    2,185;    0,409
278,351;  337,228;   -0,451;   -1,500
278,948;  381,742;   -0,815;    0,045
279,545;  340,257;   -1,360;    2,318
280,141;  481,826;   -1,723;   -2,045
280,738;  455,119;   -0,451;   -0,136
281,334;  281,887;   -1,633;    0,591
281,931;  293,974;   -0,087;   -1,318
282,528;  395,871;    0,822;   -0,500
283,124;  454,233;   -1,087;   -0,500
283,721;  446,691;   -0,451;    1,409
284,317;  326,160;    0,185;    2,500
284,913;  469,150;   -1,360;    0,591
285,510;  673,968;    0,640;   -0,318
286,106;  510,478;   -2,269;   -0,955
286,703;  353,733;   -0,360;    1,955
287,299;  300,126;   -1,451;   -0,591
287,895;  287,044;    0,822;   -1,045
288,491;  265,523;    0,186;    2,136
289,088;  370,546;   -2,360;    2,409
289,684;  421,488;   -1,723;    1,500
290,280;  555,545;    0,368;    0,682
290,876;  502,404;    1,822;    5,500
291,472;  412,191;    1,276;    2,227
292,068;  426,756;    1,367;    0,227
292,665;  328,763;    2,095;    0,773
293,261;  241,529;    0,276;    2,136
293,857;  406,449;    2,913;    2,136
294,453;  331,880;    3,550;    0,955
295,049;  520,007;   -0,268;    1,955
295,644;  373,899;    0,095;    0,136
296,240;  254,216;   -0,905;   -0,136
296,836;  360,339;   -0,995;    0,318
297,432;  475,110;    1,096;   -0,500
298,028;  501,930;    0,732;    0,773
298,624;  373,893;    1,459;    1,864
299,220;  354,777;    2,368;    0,591
299,815;  340,811;    1,005;   -0,409
300,411;  434,552;    0,914;    1,773
301,007;  534,013;    1,368;    0,227
301,602;  385,435;   -0,541;   -2,318
302,198;  501,077;    0,732;   -0,773
302,794;  360,314;    1,187;   -0,500
303,389;  304,231;   -1,177;    1,045
303,985;  345,420;    0,550;    1,409
304,580;  462,402;    1,459;    1,591
305,176;  380,370;   -3,086;    0,136
305,771;  270,577;   -1,268;   -1,227
306,367;  619,049;    4,095;    0,136
306,962;  408,980;    0,641;    1,500
307,558;  460,251;   -0,450;    0,136
308,153;  506,372;    1,095;   -1,136
308,748;  320,628;   -0,814;    1,682
309,344;  653,323;   -0,632;   -1,318
309,939;  657,936;   -1,905;   -1,318
310,534;  384,856;   -0,086;   -1,682
311,130;  357,451;    0,459;   -2,500
311,725;  321,200;    1,004;   -0,500
312,320;  370,712;    2,459;    0,045
312,915;  458,405;    1,459;   -1,045
313,510;  646,385;    1,550;   -0,500
314,105;  386,479;    1,096;    1,409
314,700;  262,773;   -3,086;   -1,045
315,295;  347,675;   -0,904;    0,045
315,890;  300,884;    1,277;    0,864
316,485;  396,387;   -0,359;   -0,318
317,080;  304,622;   -3,086;    1,591
317,675;  601,351;    2,005;   -0,682
318,270;  793,454;    5,550;    3,318
318,865;  679,088;    3,278;    3,045
319,460;  531,161;   -0,904;    0,591
320,055;  365,881;   -0,541;   -1,227
320,650;  368,322;   -1,995;   -0,591
321,244;  379,077;   -0,177;   -1,409
321,839;  392,144;   -1,541;   -0,227
322,434;  450,894;   -1,086;   -1,591
323,029;  371,469;    1,732;    1,591
323,623;  337,992;    1,550;    0,773
324,218;  513,177;    2,368;    1,409
324,812;  452,771;    1,096;    1,591
325,407;  457,888;   -0,814;    2,045
326,002;  567,620;    0,277;   -0,409
326,596;  505,946;    0,914;    1,318
327,191;  355,516;    0,823;   -1,045
327,785;  356,583;   -0,813;   -0,227
328,379;  366,608;    1,368;    0,136
328,974;  422,518;    0,914;   -3,955
329,568;  438,684;    0,186;   -2,409
330,163;  508,748;    2,096;    1,045
330,757;  352,303;    2,459;    1,591
331,351;  297,456;    0,459;    0,682
331,945;  289,947;    0,914;    1,409
332,540;  429,277;   -1,723;   -0,591
333,134;  414,489;   -1,086;    0,773
333,728;  409,640;    0,005;    0,318
334,322;  309,331;   -1,177;   -0,864
334,916;  301,154;    0,277;    0,955
335,510;  468,906;   -0,450;   -0,136
336,105;  454,152;   -1,086;    1,591
336,699;  348,740;   -1,086;    0,591
337,293;  385,966;   -1,723;    0,318
337,887;  322,622;   -2,723;    1,955
338,481;  462,003;    0,459;    0,591
339,074;  552,697;   -0,359;    2,682
339,668;  534,683;   -1,632;    1,227
340,262; 1061,947;    1,732;    3,227
340,856;  683,089;    1,822;   -0,682
341,450;  380,203;    1,004;    1,864
342,044;  428,057;    1,459;    0,136
342,637;  551,610;    0,913;   -2,136
343,231;  537,384;   -2,360;    0,682
343,825;  428,828;   -1,086;   -0,591
344,419;  405,963;   -1,995;    0,500
345,012;  902,213;    2,459;    4,045
345,606;  713,832;    4,641;    1,591
346,199;  418,617;   -1,813;   -0,227
346,793;  544,875;    1,914;    2,045
347,386;  351,131;   -0,813;   -1,136
347,980;  258,299;   -0,268;   -0,045
348,573;  361,528;    2,278;    0,409
349,167;  641,842;    5,278;    4,773
349,760;  512,576;    2,914;    2,682
350,354;  482,905;   -0,813;    1,136
350,947;  522,417;    1,096;    1,682
351,540;  397,685;   -0,358;   -1,409
352,134;  272,304;    1,096;    1,136
352,727;  302,740;   -0,086;    1,136
353,320;  323,954;    0,005;    0,591
353,913;  259,881;   -1,995;    1,864
354,507;  454,985;    0,823;   -1,227
355,100;  333,423;    0,460;    0,864
355,693;  732,233;    2,005;    2,409
356,286;  504,301;    0,823;    2,773
356,879;  356,217;   -0,722;    1,227
357,472;  358,772;   -0,904;    1,500
358,065;  403,092;   -0,722;    2,500
358,658;  259,306;   -0,540;    2,318
359,251;  233,129;   -1,631;   -0,591
359,844;  415,356;   -1,904;   -1,136
360,437;  479,155;   -2,995;    0,045
361,030;  325,128;    1,369;   -0,682
361,623;  335,875;    2,824;    0,318
362,215;  555,176;   -0,086;    2,045
362,808;  408,555;   -2,358;   -1,682
363,401;  337,671;   -2,449;    0,136
363,994;  549,192;   -0,631;   -1,500
364,586;  349,842;    0,824;   -1,500
365,179;  303,431;   -0,449;   -1,136
365,772;  171,703;   -1,995;    2,045
366,364;  329,095;    1,915;   -3,227
366,957;  381,518;    2,279;   -0,045
367,549;  323,032;    2,188;   -0,864
368,142;  340,511;    1,825;   -1,500
368,734;  296,287;    0,734;   -2,136
369,327;  225,963;    1,643;   -0,500
369,919;  269,783;   -1,538;    0,409
370,512;  289,202;   -1,083;   -0,500
371,104;  556,698;   -0,901;    1,591
371,696;  581,426;    1,191;   -0,955
372,289;  433,257;    0,373;    1,136
372,881;  378,408;   -2,080;    1,318
373,473;  269,705;   -2,170;    1,136
374,066;  366,422;   -0,169;    0,500
374,658;  341,540;    0,378;    1,136
375,250;  272,687;    0,653;   -1,409
375,842;  334,029;    0,473;   -0,045
376,434;  291,964;   -0,435;   -0,409
377,026;  274,617;    0,204;   -2,500
377,618;  330,572;   -0,158;   -0,682
378,210;  267,060;   -0,338;   -1,955
378,802;  266,816;    0,754;   -0,591
379,394;  654,103;    1,846;    0,682
379,986;  411,931;    1,393;   -0,955
380,578;  314,491;   -0,153;    0,773
381,170;  564,752;   -0,972;    0,045
381,762;  461,460;    0,755;    1,409
382,354;  412,129;   -0,065;   -1,318
382,945;  319,169;   -2,976;    0,318
383,537;  258,172;   -2,705;   -1,955
384,129;  245,696;   -2,160;   -1,136
384,721;  367,302;   -0,252;    0,955
385,312;  304,044;   -0,161;   -0,955
385,904;  394,781;   -2,706;    1,591
386,496;  320,781;   -0,979;    1,045
387,087;  465,072;    1,022;    2,500
387,679;  407,449;   -1,160;    0,045
388,270;  392,115;    2,840;    2,045
388,862;  357,250;    1,295;   -0,318
389,453;  341,677;   -0,887;    1,045
390,045;  345,676;   -0,705;   -2,682
390,636;  240,331;    0,204;   -0,591
391,227;  306,785;   -0,523;   -0,045
391,819;  288,285;    0,204;    0,773
392,410;  543,530;    1,022;    0,045
393,001;  352,903;   -0,979;   -1,591
393,593;  413,580;    1,930;   -0,045
394,184;  466,363;    1,385;   -0,409
394,775;  335,912;    1,839;    2,136
395,366;  259,724;    1,385;    0,773
395,957;  461,900;    0,113;    0,136
396,548;  348,242;   -0,342;    2,682
397,139;  471,863;   -2,433;    0,591
397,730;  382,899;   -1,888;    0,955
398,321;  396,236;   -1,252;    0,955
398,912;  326,622;   -0,615;    0,136
399,503;  324,254;   -3,524;   -1,409
400,094;  385,207;    0,294;    1,682
400,685;  371,863;   -0,433;    0,045
401,276;  312,932;    0,930;   -0,955
401,867;  294,438;   -0,888;    0,773
402,458;  252,199;   -2,251;   -2,318
403,048;  416,002;    1,112;    0,591
403,639;  356,555;    0,840;    0,864
404,230;  464,826;    2,476;    0,318
404,821;  531,618;   -0,615;    0,045
405,411;  429,303;    1,203;   -2,591
406,002;  338,281;   -1,252;   -1,136
406,592;  575,166;    2,294;    0,045
407,183;  415,982;    0,566;   -1,500
407,774;  398,583;    3,475;   -0,136
408,364;  355,012;    0,930;    0,409
408,954;  483,768;    0,384;    1,227
409,545;  485,487;    1,021;    1,045
410,135;  428,199;    1,293;    0,500
410,726;  381,515;    1,838;    0,318
411,316;  579,054;    0,111;    0,773
411,906;  397,296;   -0,253;   -0,409
412,497;  412,380;   -1,070;   -0,045
413,087;  353,023;   -1,980;   -0,227
413,677;  275,061;   -0,707;    3,864
414,267;  271,413;    0,656;    1,409
414,857;  245,702;   -2,980;    4,227
415,448;  254,583;    0,839;    0,500
416,038;  290,415;    0,020;   -0,591
416,628;  341,690;   -0,889;    0,409
417,218;  411,181;    0,565;    3,318
417,808;  573,833;    0,202;   -0,409
418,398;  426,928;    0,020;    2,682
418,988;  300,395;    2,020;    0,591
419,578;  410,077;   -0,707;    1,409
420,168;  355,574;   -1,343;   -0,955
420,757;  523,129;   -1,343;   -1,500
421,347;  399,817;    0,111;   -0,227
421,937;  361,537;    2,292;    1,409
422,527;  512,208;    0,838;   -0,773
423,116;  673,926;   -0,253;   -0,045
423,706;  353,596;   -1,889;    0,318
424,296;  301,318;    1,384;    0,682
424,885;  453,773;   -0,071;   -3,045
425,475;  424,449;    1,474;   -2,864
426,065;  292,990;   -0,980;   -0,318
426,654;  269,829;   -0,435;   -0,318
427,244;  590,097;    0,020;    1,409
427,833;  564,442;    1,383;   -0,500
428,423;  400,253;   -0,526;    1,136
429,012;  404,961;   -0,344;   -1,136
429,601;  547,545;   -1,344;    0,136
430,191;  421,931;    1,292;    4,318
430,780;  310,621;   -0,344;   -0,409
431,369;  546,457;    0,746;   -0,045
431,959;  408,926;   -1,254;    0,500
432,548;  324,571;   -1,163;   -0,045
433,137;  251,421;   -1,254;   -1,318
433,726;  353,215;    0,292;    0,500
434,315;  382,511;   -0,526;    2,409
434,905;  508,256;   -1,254;    1,409
435,494;  518,748;    0,746;    0,955
436,083;  351,137;   -0,981;   -0,955
436,672;  450,624;    0,110;    0,500
437,261;  386,773;    0,292;   -1,955
437,850;  683,836;    1,383;    0,682
438,439;  730,116;    3,291;    1,955
439,027;  853,046;    3,655;    1,773
439,616;  775,737;    2,927;    1,227
440,205;  511,594;    0,200;   -2,136
440,794;  436,387;    2,109;   -0,045
441,383;  347,543;   -1,346;   -0,591
441,971;  306,624;   -2,436;    0,591
442,560;  323,961;    0,563;   -1,773
443,149;  198,262;    0,379;   -1,318
443,737;  282,711;   -0,074;   -2,318
444,326;  311,969;    0,018;    0,318
444,915;  381,957;   -1,982;    0,864
445,503;  390,564;   -2,891;   -0,318
446,092;  693,313;    0,382;    2,136
446,680;  618,625;    0,382;    0,318
447,269;  512,649;   -0,346;   -0,318
447,857;  487,702;    0,018;   -1,773
448,445;  426,267;    0,563;    1,318
449,034;  352,797;   -1,528;   -1,136
449,622;  348,800;   -1,073;    3,500
450,210;  728,097;    2,017;    2,227
450,799;  624,843;    0,290;   -0,591
451,387;  549,501;    1,381;   -0,591
451,975;  529,927;    2,654;    0,864
452,563;  642,696;    3,472;    2,318
453,151;  392,410;   -0,528;   -1,227
453,739;  465,337;   -1,347;    0,136
454,328;  610,119;    2,381;   -2,136
454,916;  516,436;    2,562;   -0,136
455,504;  535,851;    1,017;    1,227
456,092;  384,453;    0,017;   -1,591
456,679;  330,460;    1,472;    0,682
457,267;  871,605;    4,017;    1,045
457,855;  455,091;    1,017;    1,409
458,443;  261,882;   -0,165;    1,682
459,031;  506,660;    0,108;    2,409
459,619;  450,170;   -1,801;    2,864
460,206;  311,740;    0,835;    2,045
460,794;  315,506;   -2,983;   -0,227
461,382;  387,587;   -0,529;   -0,864
461,970;  374,403;    1,198;    1,864
462,557;  276,763;   -0,711;   -0,682
463,145;  462,096;   -3,165;   -1,682
463,732;  767,091;    2,016;   -1,045
464,320;  461,701;   -0,075;   -3,045
464,907;  663,403;    2,743;   -0,773
465,495;  538,258;    0,743;   -1,227
466,082;  423,330;   -1,984;   -0,045
466,670;  448,614;   -2,529;    1,227
467,257;  306,731;   -1,711;    2,045
467,844;  461,938;   -0,075;    0,045
468,432;  428,768;    0,834;    3,500
469,019;  353,660;    0,925;   -1,773
469,606;  464,435;    0,470;    3,682
470,193;  502,257;   -1,439;    0,227
470,780;  453,724;   -2,075;    0,864
471,368;  350,410;   -1,257;   -0,773
471,955;  496,567;    1,379;   -0,682
472,542;  439,729;    0,652;   -1,136
473,129;  271,946;   -0,166;    0,136
473,716;  289,381;    1,470;    0,591
474,303;  344,750;    0,652;   -0,864
474,890;  350,786;   -1,439;   -0,500
475,477;  483,365;   -1,621;    0,409
476,064;  349,806;    1,106;   -1,591
476,650;  509,009;    0,288;    0,318
477,237;  404,100;   -0,258;    0,955
477,824;  375,663;   -1,076;    0,864
478,411;  244,016;   -1,894;   -0,318
478,997;  243,986;    0,560;   -0,773
479,584;  162,884;    1,196;   -0,409
480,171;  435,761;   -0,440;   -0,773
480,757;  523,561;    2,651;    0,773
481,344;  359,583;    0,469;    0,409
481,931;  229,163;    1,105;    1,045
482,517;  444,981;   -1,258;    0,318
483,104;  575,337;    1,106;    2,864
483,690;  406,345;   -1,804;    0,045
484,276;  375,769;   -0,895;    0,227
484,863;  702,007;    2,469;    1,136
485,449;  466,544;   -0,077;    0,318
486,035;  400,738;   -1,986;   -0,136
486,622;  553,409;   -0,895;    0,045
487,208;  426,445;    1,378;    1,500
487,794;  296,497;    0,741;    0,318
488,380;  284,427;    0,105;   -1,409
488,967;  311,986;   -1,168;   -0,409
489,553;  337,944;   -1,895;   -1,409
490,139;  468,403;    1,559;    0,773
490,725;  321,508;    0,741;   -0,227
491,311;  388,402;    3,287;    3,045
491,897;  331,229;   -0,986;    1,500
492,483;  325,978;    0,105;    1,227
493,069;  931,329;    3,923;    0,864
493,655;  536,108;    1,650;    0,682
494,241;  360,639;    1,377;   -0,955
494,826;  389,669;    0,287;   -1,045
495,412;  489,306;    2,559;   -0,682
495,998;  340,988;   -0,805;   -0,318
496,584;  428,954;    0,377;    1,045
497,169;  439,619;    1,014;   -0,682
497,755;  337,260;    0,650;    1,227
498,341;  573,525;    0,559;    0,318
498,926;  733,840;    1,832;    1,955
499,512;  356,052;    1,286;    2,955
500,097;  364,052;    0,195;   -0,318
500,683;  398,929;   -0,350;    2,136
501,268;  306,481;   -0,169;   -0,955
501,854;  340,330;   -0,169;    1,227
502,439;  310,587;   -0,624;   -1,773
503,024;  389,623;    0,195;    0,500
503,610;  425,707;   -0,078;   -0,682
504,195;  321,737;    0,558;    1,955
504,780;  457,764;    2,922;    1,227
505,366;  580,657;    3,013;    2,864
505,951;  474,653;    0,740;    1,045
506,536;  357,729;   -3,260;   -3,682
507,121;  436,334;    0,285;   -0,318
507,706;  363,160;    2,376;    1,045
508,291;  283,292;    2,649;    1,136
508,876;  287,894;   -0,988;    2,591
509,461;  369,565;   -0,169;   -0,773
510,046;  417,828;    0,194;    0,318
510,631;  420,419;   -0,351;   -0,773
511,216;  311,365;    2,467;   -0,500
511,801;  392,554;   -0,442;    2,591
512,386;  425,803;    0,740;    0,500
512,971;  432,696;   -2,988;    0,955
513,555;  494,099;   -0,897;   -1,500
514,140;  431,483;   -0,442;   -3,136
514,725;  561,204;   -0,715;   -1,136
515,309;  442,187;   -0,533;    0,318
515,894;  322,093;   -0,624;   -2,227
516,479;  363,483;   -0,624;   -0,955
517,063;  372,005;    0,376;    1,227
517,648;  310,743;    1,012;   -1,136
518,232;  275,784;   -0,261;   -1,409
518,817;  383,061;   -0,079;    1,682
519,401;  520,044;    2,194;    0,591
519,985;  478,841;    1,103;    1,136
520,570;  312,253;    0,830;   -1,955
521,154;  437,017;    2,102;    0,591
521,738;  626,547;   -2,352;    2,409
522,323;  436,274;   -0,170;    1,682
522,907;  416,447;    0,466;   -0,136
523,491;  321,000;    0,557;    0,955
524,075;  285,641;    2,284;    0,591
524,659;  492,506;    1,466;    0,591
525,243;  431,063;    1,739;    0,409
525,827;  369,825;    0,648;   -0,045
526,411;  364,415;   -1,989;   -0,136
526,995;  471,804;   -0,352;    1,409
527,579;  533,812;   -0,443;   -1,045
528,163;  462,674;    0,375;   -1,500
528,747;  565,842;    2,466;   -0,773
529,331;  491,921;   -0,080;   -1,409
529,915;  337,317;    1,738;    0,955
530,499;  426,043;   -0,807;    1,227
531,082;  591,261;   -0,534;    1,591
531,666;  665,381;    1,374;    0,773
532,250;  540,665;    1,284;    2,682
532,833;  647,094;    0,920;    2,773
533,417;  484,827;   -1,807;    0,864
534,001;  603,788;    1,647;   -0,318
534,584;  523,663;    0,374;    0,500
535,168;  342,658;    0,465;    1,409
535,751;  699,203;    0,647;    0,045
536,334;  441,772;   -0,898;   -0,409
536,918;  289,492;    0,011;    1,591
537,501;  300,530;   -0,899;    1,318
538,085;  348,367;   -0,444;    1,045
538,668;  430,189;    0,829;    2,409
539,251;  714,375;    1,829;    3,773
539,834;  419,001;    0,101;    0,773
540,418;  544,622;   -1,990;    4,318
541,001;  717,509;   -0,990;    1,773
541,584;  489,543;    2,101;    2,227
542,167;  601,270;    1,374;    2,955
542,750;  421,750;    1,919;   -0,773
543,333;  301,110;    0,555;    2,136
543,916;  521,961;    0,192;    2,500
544,499;  448,532;   -1,354;    0,227
545,082;  536,903;    1,374;    3,591
545,665;  440,973;    1,919;    1,500
546,248;  567,473;    1,010;   -0,318
546,830;  545,459;   -0,445;    1,955
547,413;  505,247;    1,010;   -0,773
547,996;  466,826;    0,555;    0,500
548,579;  428,871;    0,919;    0,955
549,161;  659,242;    1,828;    2,682
549,744;  547,559;   -0,809;    0,409
550,326;  393,837;   -0,809;   -1,136
550,909;  859,965;    2,737;    0,591
551,492;  511,639;   -0,263;    0,227
552,074;  635,896;   -0,173;   -1,318
552,657;  666,898;    2,373;    0,045
553,239;  534,093;   -0,173;   -0,773
553,821;  404,585;   -1,082;    1,045
554,404;  652,621;    1,282;    1,136
554,986;  757,017;    0,464;    1,045
555,568;  594,576;    1,191;   -0,955
556,151;  798,399;    1,191;   -0,227
556,733;  480,276;   -0,264;   -0,864
557,315;  501,544;    0,100;    0,500
557,897;  374,623;    0,554;   -0,500
558,479;  389,538;   -1,991;    1,318
559,061;  479,528;   -0,719;   -0,864
559,643;  528,308;   -0,264;    0,045
560,225;  574,492;    1,645;    2,864
560,807;  414,399;    0,918;    0,318
561,389;  394,323;    0,554;    2,318
561,971;  486,515;    0,463;    2,136
562,553;  405,440;   -1,628;    1,591
563,135;  493,161;   -0,537;    1,136
563,717;  878,793;    3,372;    1,136
564,298;  767,276;    3,645;   -0,045
564,880;  531,117;    0,645;   -1,409
565,462;  360,844;    0,645;    1,318
566,043;  488,666;   -0,446;    2,318
566,625;  803,845;    1,918;    1,227
567,207;  613,711;    1,099;    1,682
567,788;  463,907;   -1,264;    1,500
568,370;  468,427;    1,917;   -0,500
568,951;  467,652;    0,190;    0,227
569,533;  571,828;   -0,628;   -0,500
570,114;  584,418;   -0,446;    0,682
570,695;  618,431;   -0,174;   -1,318
571,277;  594,736;   -0,265;   -1,682
571,858;  814,256;    2,008;   -1,136
572,439;  639,402;    1,554;   -1,045
573,021;  683,454;    2,099;   -2,773
573,602;  797,055;   -1,265;    0,318
574,183;  740,271;   -2,083;    2,227
574,764;  676,626;   -1,629;    0,409
575,345;  890,928;    0,917;   -0,136
575,926;  709,134;   -0,356;    0,136
576,507;  786,962;    1,099;   -0,227
577,088;  745,234;    3,099;    1,682
577,669;  933,738;    0,735;    1,955
578,250; 1116,635;    0,644;   -1,045
578,831;  898,543;   -1,356;   -2,227
579,412;  883,743;   -0,810;    0,955
579,993;  853,659;    1,008;    0,227
580,573;  767,390;   -0,629;   -0,955
581,154;  912,560;    0,735;   -0,591
581,735;  924,553;    0,644;    0,773
582,315; 1064,280;   -0,629;    2,136
582,896;  860,444;   -0,174;    1,227
583,477;  711,417;    0,189;    1,227
584,057;  842,567;    0,553;    0,955
584,638;  966,113;    2,553;    2,318
585,218; 1218,652;   -0,538;    2,682
585,799; 1015,087;    0,281;   -0,227
586,379;  881,597;    0,372;    1,591
586,959;  855,182;    0,735;    0,318
587,540;  760,532;   -0,629;    2,227
588,120;  764,699;    1,007;   -0,045
588,700;  775,911;    2,553;    2,136
589,281;  963,661;    0,462;   -0,955
589,861;  819,223;    0,099;   -1,682
590,441;  677,029;    2,371;   -2,682
591,021;  776,111;   -0,265;   -2,591
591,601;  723,125;   -0,537;    0,500
592,181;  705,570;   -0,719;   -0,773
592,761;  600,021;    0,007;    1,409
593,341;  717,906;   -0,901;    0,045
593,921;  735,687;   -0,265;    1,591
594,501;  631,183;   -0,538;    1,318
595,081;  631,956;    0,917;   -0,318
595,661;  701,893;   -1,447;    0,955
596,240;  638,035;   -0,537;    0,136
596,820; 1070,439;    0,372;    1,955
597,400;  772,068;    2,008;    0,773
597,980;  664,105;    2,008;    1,045
598,559;  611,787;    2,735;   -0,227
599,139;  600,894;   -0,174;   -1,227
599,718;  598,439;   -0,174;   -0,409
600,298;  582,879;    0,735;    0,682
600,877; 1093,568;    2,917;    1,409
601,457;  783,336;    2,281;    1,136
602,036;  658,395;    0,190;    2,045
602,616;  712,648;    0,644;    1,682
603,195;  839,606;   -0,355;    3,500
603,774;  906,985;   -0,901;    2,045
604,354;  824,989;    0,826;   -0,500
604,933;  761,935;    0,463;    1,864
605,512;  860,724;    3,554;    0,591
606,091;  854,859;   -0,537;    3,773
606,671;  799,883;    0,281;    0,773
607,250;  986,071;    1,644;    3,136
607,829;  925,645;    2,372;    3,227
608,408;  761,035;    1,190;    2,591
608,987;  875,952;    1,281;    3,409
609,566;  685,714;   -1,265;   -2,500
610,145;  790,235;   -1,082;    0,682
610,723;  840,246;    4,372;    6,864
611,302;  746,746;   -0,446;    1,682
611,881; 1038,040;    5,008;   11,227
612,460;  742,684;    1,645;    3,955
613,039;  621,904;   -0,082;    2,045
613,617;  611,021;    1,736;    4,773
614,196;  628,048;    1,099;    1,227
614,775;  701,989;    1,009;    2,409
615,353;  762,049;    0,736;    0,864
615,932;  725,602;    0,100;    2,409
616,510;  705,986;    0,554;    0,591
617,089; 1223,518;    7,100;   17,591
617,667;  821,968;    2,372;    6,136
618,246;  580,846;   -1,537;    1,318
618,824;  656,128;   -3,355;   -0,955
619,402;  678,131;   -2,900;   -1,773
619,981;  742,005;   -0,173;   -1,045
620,559;  653,253;    0,009;    1,682
621,137;  665,905;   -0,718;    1,864
621,715;  573,371;   -1,173;   -0,682
622,293;  591,992;   -0,537;   -0,773
622,871;  600,453;   -0,718;    0,500
623,450;  537,119;    0,373;   -0,864
624,028;  753,615;    0,191;   -0,955
624,606;  711,314;   -1,718;    1,682
625,183;  519,639;   -1,536;   -1,136
625,761;  663,364;    1,009;    1,136
626,339;  971,508;    1,373;    2,591
626,917;  604,671;   -0,172;   -0,045
627,495;  550,953;   -0,354;    1,318
628,073;  673,732;   -0,263;    2,864
628,650;  694,795;    0,100;    2,136
629,228;  700,382;    0,373;    4,409
629,806;  508,164;    2,282;    1,136
630,383;  573,118;    1,464;   -0,318
630,961;  567,256;    2,555;   -0,955
631,539;  616,475;    2,464;    0,227
632,116; 1340,892;   11,373;   15,409
632,694;  940,396;    2,555;    6,500
633,271;  771,766;    0,828;    2,682
633,848;  881,712;    1,828;    2,045
634,426;  603,829;   -1,081;    1,773
635,003;  467,277;    1,101;   -0,409
635,580;  894,176;    1,192;    3,682
636,158;  757,613;    3,737;    1,227
636,735;  568,221;    0,555;   -0,500
637,312;  564,088;   -0,809;   -0,682
637,889;  562,360;   -4,354;   -0,682
638,466;  538,887;   -3,990;   -0,409
639,043;  596,992;    2,101;   -1,136
639,620;  512,080;   -2,262;   -0,955
640,197;  650,699;    1,100;    1,682
640,774;  463,706;   -0,172;    1,136
641,351;  538,167;    0,737;    1,136
641,928;  738,537;   -0,627;    1,409
642,505;  859,453;    0,828;   -0,500
643,082;  669,732;   -1,718;    1,227
643,658;  539,648;   -0,718;    1,500
644,235;  522,837;    1,191;    2,500
644,812;  713,207;    1,918;    0,773
645,388;  691,123;   -0,991;    1,409
645,965;  470,493;   -0,809;    1,682
646,542;  485,227;   -1,445;   -0,227
647,118;  886,961;    1,009;   -0,955
647,695;  663,513;   -0,263;    1,136
648,271;  470,338;   -0,536;    0,500
648,848;  648,345;    0,736;    2,227
649,424;  771,806;    0,827;    1,318
650,000;  593,176;   -0,354;   -1,045
650,577;  618,092;   -0,627;   -0,955
651,153;  620,644;   -1,809;    0,955
651,729;  571,378;    1,191;    0,864
652,305;  943,567;    0,645;    2,773
652,881;  901,210;   -0,082;    1,136
653,458; 1035,216;    1,100;    0,227
654,034; 1137,041;    0,282;    1,591
654,610; 1290,139;    0,554;    0,773
655,186; 1804,782;    0,645;    3,045
655,762; 1329,788;   -0,991;    0,409
656,338; 1310,704;    0,100;    0,136
656,913; 1397,347;   -0,082;    0,409
657,489; 1150,172;    0,827;   -0,318
658,065; 1263,815;   -0,173;   -1,591
658,641; 1301,458;   -0,900;   -0,864
659,217; 1211,283;   -0,991;    0,409
659,792; 1357,108;    0,645;   -0,409
660,368; 1167,842;   -2,173;   -0,682
660,944; 1200,212;   -2,082;    1,227
661,519; 1091,219;   -0,628;    0,409
662,095;  784,498;   -1,719;    0,591
662,670;  622,959;    1,281;   -0,136
663,246;  531,330;    1,009;   -0,409
663,821;  698,791;    0,281;    1,682
664,396;  651,343;    0,009;    1,864
664,972;  560,986;    0,009;   -0,500
665,547;  621,902;    1,372;    0,136
666,122;  592,636;   -1,082;    0,318
666,698;  786,188;   -0,173;    0,318
667,273;  554,740;   -0,173;    0,136
667,848;  596,383;    2,372;    1,500
668,423;  773,026;    2,190;    2,318
668,998;  619,942;    2,827;   -0,682
669,573;  578,676;   -3,264;   -1,500
670,148;  772,228;   -1,446;   -0,682
670,723;  545,598;   -1,810;    0,318
671,298;  839,787;    2,372;    1,045
671,873;  740,521;   -0,082;   -0,136
672,448;  727,346;    0,645;    0,136
673,023;  712,716;   -1,992;   -0,227
673,597;  815,723;    0,827;    2,318
674,172;  862,184;   -0,355;    0,318
674,747;  773,554;    0,372;   -1,045
675,321;  528,379;   -0,628;    3,318
675,896;  466,386;    0,645;    1,045
676,471;  694,029;    2,645;    1,591
677,045;  622,308;   -1,264;    0,682
677,620;  717,406;    0,190;    1,136
678,194;  549,594;   -2,628;    1,136
678,769;  620,237;   -1,083;   -0,318
679,343;  680,608;   -0,628;    1,773
679,917;  809,432;   -1,446;    1,955
680,492;  649,076;    0,826;    3,227
681,066;  683,991;    3,372;    0,409
681,640;  606,998;    1,463;   -0,318
682,214;  632,277;    0,735;    0,500
682,788;  631,920;   -1,356;   -0,773
683,363;  778,382;   -1,810;    1,682
683,937;  646,934;   -1,719;   -0,318
684,511;  682,668;    0,463;   -0,591
685,085;  690,493;   -1,356;    0,318
685,659;  592,227;   -2,538;    0,864
686,232;  854,233;   -0,356;   -0,318
686,806;  722,240;   -0,901;    0,409
687,380;  601,883;   -0,174;    0,591
687,954;  541,071;   -1,174;    1,136
688,528;  876,805;   -0,719;    1,955
689,101;  693,448;   -3,992;    1,045
689,675;  587,273;   -0,356;   -0,136
690,249;  838,916;   -0,719;    0,409
690,822;  835,287;    0,280;    0,318
691,396;  720,021;   -0,265;    1,227
691,969;  640,391;    1,280;    0,136
692,543;  531,216;   -0,447;   -1,955
693,116;  507,404;   -0,265;   -1,409
693,690;  602,593;    0,099;    0,500
694,263;  538,236;   -1,083;    2,955
694,836;  914,788;    1,371;    3,591
695,410;  789,613;   -0,265;    1,773
695,983;  810,801;    0,189;    0,591
696,556;  603,172;   -0,447;   -1,045
697,129;  519,087;   -0,356;    1,409
697,703;  753,367;   -1,629;    1,955
698,276;  633,919;    1,462;   -0,773
698,849;  795,289;    1,280;    1,409
699,422;  556,387;   -1,083;    0,591
699,995;  459,030;    0,007;    0,136
700,568;  600,036;   -0,629;    3,045
701,140;  624,589;   -2,811;    1,682
701,713;  799,868;   -0,174;    2,409
702,286;  682,966;   -0,538;    0,864
702,859;  771,427;   -0,902;   -0,591
703,432;  858,797;    0,825;    0,682
704,004;  725,440;    0,462;    0,318
704,577;  597,447;   -0,629;    0,136
705,150;  649,999;    0,189;    2,500
705,722;  709,278;   -0,356;   -3,227
706,295;  773,285;   -0,175;   -0,591
706,867;  650,474;   -0,175;    1,955
707,440;  739,571;   -1,720;   -0,409
708,012;  816,487;    0,462;    0,591
708,584;  734,766;    2,462;    0,227
709,157;  504,228;    1,825;   -0,591
709,729;  744,780;    2,280;    2,045
710,301;  594,059;    0,734;    0,045
710,874;  612,248;   -1,447;   -0,227
711,446;  497,709;    0,371;    0,864
712,018;  574,806;    0,098;    0,500
712,590;  516,268;   -1,993;    1,682
713,162;  805,456;    0,825;    1,318
713,734;  585,190;    1,825;   -2,045
714,306;  504,742;   -1,902;   -0,409
714,878;  563,567;    0,825;    0,864
715,450;  515,483;    0,643;    0,864
716,022;  528,217;    1,552;    1,318
716,593;  517,860;    0,189;    0,591
717,165;  572,139;   -3,175;   -1,227
717,737;  835,873;    0,280;    0,409
718,309;  604,880;    0,280;   -0,045
718,880;  519,886;   -0,539;   -1,409
719,452;  603,711;   -0,175;   -1,591
720,024;  706,354;    0,734;   -0,591
720,595;  591,816;   -2,902;    0,955
721,167;  579,368;    0,370;   -2,045
721,738;  707,374;   -0,812;   -1,045
722,309;  856,745;   -0,993;   -1,227
722,881;  577,388;   -1,357;    0,773
723,452;  662,122;   -2,630;    2,864
724,023;  680,583;   -0,721;    2,682
724,595;  746,226;    0,007;    0,682
725,166;  600,778;    0,007;   -0,409
725,737;  810,785;    1,734;    0,227
726,308;  593,882;   -0,266;    0,318
726,879;  500,344;   -1,630;    1,227
727,450;  681,168;    0,552;   -0,045
728,021;  609,357;    3,097;    0,682
728,592;  785,455;    0,734;    0,500
729,163;  872,643;    0,643;   -0,136
729,734;  841,104;    0,188;   -0,227
730,305;  694,656;    1,734;    0,136
730,876;  658,209;    0,188;    2,955
731,447;  991,033;    2,188;    2,682
732,017;  887,676;    1,097;    1,864
732,588;  678,319;    0,734;    1,227
733,159;  941,235;    0,643;   -1,045
733,729;  670,242;    0,006;    0,409
734,300;  836,067;    0,915;    0,864
734,870;  652,801;    3,461;    0,591
735,441;  634,716;    0,370;   -0,591
736,011;  621,541;    0,643;   -1,591
736,582;  629,003;   -0,812;    0,045
737,152;  758,009;   -1,721;   -2,045
737,722;  735,380;   -0,267;   -0,682
738,293;  571,659;   -1,358;    1,318
738,863;  756,393;    2,461;    2,318
739,433; 1035,581;    5,279;    0,318
740,003;  733,497;   -0,994;   -0,682
740,573;  865,595;    2,097;   -1,591
741,143;  720,874;   -1,085;    0,318
741,713;  630,426;    1,188;   -0,500
742,283;  703,160;    0,915;    1,591
742,853;  633,076;    1,915;    1,591
743,423;  458,719;    1,733;    0,045
743,993;  580,908;   -0,358;    1,500
744,563;  640,551;    0,097;   -0,864
745,133;  670,557;   -0,812;   -0,864
745,702;  529,109;   -0,267;    1,773
746,272;  757,207;   -0,176;    0,591
746,842;  774,850;   -1,358;   -0,591
747,411;  559,948;   -0,267;   -0,318
747,981;  457,227;    0,097;    0,500
748,551;  449,961;    2,278;   -1,045
749,120;  657,240;    0,642;   -0,227
749,690;  600,520;   -0,631;    2,409
750,259;  712,436;    1,369;    2,955
750,828;  779,806;    1,551;   -1,955
751,398;  543,358;    1,278;   -0,045
751,967; 1033,183;    2,187;    0,409
752,536;  670,735;   -0,813;   -0,227
753,105;  778,287;    0,096;    0,227
753,675;  617,930;    0,096;    1,773
754,244;  621,028;   -0,904;    3,591
754,813;  659,580;    0,551;    1,227
755,382;  619,859;    0,460;    0,955
755,951;  751,684;    1,551;    3,682
756,520;  869,964;   -0,085;    1,864
757,089;  973,970;    0,278;    0,500
757,658;  709,795;    1,733;    1,227
758,227;  537,256;    1,096;    0,318
758,795;  589,536;    1,187;    1,136
759,364;  599,724;   -0,086;   -0,591
759,933;  541,458;   -1,176;   -0,045
760,501;  473,374;    0,733;   -1,318
761,070;  643,381;   -2,813;   -1,409
761,639;  598,842;   -1,904;    1,318
762,207;  728,303;    1,551;   -0,955
762,776;  765,673;    0,369;    0,864
763,344;  625,135;   -0,995;    0,591
763,913;  421,778;   -0,722;    1,409
764,481;  965,148;    1,005;   -0,136
765,049;  963,609;   -1,358;    1,409
765,618;  879,343;   -0,086;    0,318
766,186;  675,986;    0,278;    0,136
766,754;  731,447;    0,005;    1,864
767,322;  613,999;   -1,995;    0,409
767,890;  560,188;   -0,722;   -1,773
768,459;  560,195;   -2,177;   -0,318
769,027;  791,656;    1,641;    3,409
769,595;  598,753;    3,278;    2,591
770,163;  697,942;    3,823;    2,955
770,730;  673,676;    0,732;   -0,136
771,298;  650,955;    0,187;   -1,409
771,866;  580,780;   -1,541;    4,955
772,434;  621,878;   -0,631;   -1,864
773,002;  827,248;    0,005;    0,682
773,569;  693,527;    0,914;    1,682
774,137;  815,898;   -0,268;   -0,045
774,705;  595,814;    0,278;   -0,136
775,272;  577,366;    0,641;    0,682
775,840;  590,009;   -0,177;    2,682
776,407;  709,106;    0,277;    1,955
776,975;  587,295;   -0,632;    0,318
777,542;  524,120;   -1,086;   -0,045
778,110;  552,854;   -1,268;   -0,045
778,677;  434,951;   -2,359;   -0,864
779,244;  517,958;    2,186;    1,045
779,812;  668,692;    1,823;    0,864
780,379;  769,698;    0,005;    1,136
780,946;  630,523;    1,005;   -0,773
781,513;  532,894;   -1,450;    0,318
782,080;  507,719;   -0,086;    2,864
782,647;  534,180;   -0,268;    3,045
783,214;  515,732;   -0,177;    3,864
783,781;  727,829;   -0,723;   -0,682
784,348;  671,018;   -0,632;    1,500
784,915;  449,843;   -3,177;    0,318
785,482;  686,940;    1,368;    2,591
786,049;  601,856;    0,186;   -0,591
786,615;  480,681;    0,277;   -0,955
787,182;  445,779;    0,186;   -0,682
787,749;  423,694;   -2,814;    1,409
788,315;  660,974;   -1,632;   -0,409
788,882;  532,980;    1,550;   -1,227
789,448;  830,351;    1,732;   -0,955
790,015;  587,267;    1,095;    3,227
790,581;  779,546;    1,459;    0,227
791,148;  595,734;    0,641;    1,045
791,714;  480,832;   -0,541;    3,136
792,280;  486,111;    0,186;    1,591
792,847;  428,391;    0,550;    2,500
793,413;  522,034;   -0,269;   -0,318
793,979;  741,677;    3,459;   -1,318
794,545; 1023,956;    4,459;    2,682
795,111;  906,054;    2,186;    1,318
795,678;  751,606;    0,731;   -1,682
796,244;  912,613;    3,368;    0,136
796,810;  756,438;    1,731;    0,773
797,375;  747,353;    0,549;   -2,136
797,941;  429,724;   -0,541;    0,591
798,507;  441,549;   -0,451;   -0,955
799,073;  481,555;   -0,360;    0,591
799,639;  466,289;   -2,632;    3,136
800,205;  429,387;    0,095;    2,682
800,770;  468,030;    0,640;    1,773
801,336;  483,400;    1,368;   -0,955
801,901; 1081,861;    4,549;    3,136
802,467;  732,050;   -0,542;    2,045
803,033;  514,602;   -0,087;    0,864
803,598;  505,245;    1,913;   -1,045
804,163;  506,706;    1,095;   -0,318
804,729;  613,076;   -0,178;    1,136
805,294;  508,083;    0,822;    2,227
805,859;  445,999;    0,731;   -0,409
806,425;  836,642;    1,186;    2,682
806,990;  820,649;    2,186;    4,318
807,555;  573,292;   -1,451;    2,591
808,120;  722,844;    0,822;   -0,409
808,685;  515,305;    0,185;   -2,500
809,250;  419,857;    0,004;   -0,500
809,815;  409,864;    1,913;    0,682
810,380;  536,325;   -0,269;    1,591
810,945;  720,150;   -1,087;    2,045
811,510;  543,975;    2,094;    1,591
812,075;  609,800;   -0,633;   -1,409
812,640;  855,352;    2,003;    1,409
813,204;  599,904;    0,822;   -0,227
813,769;  738,002;    2,094;   -0,045
814,334;  732,645;    0,458;    0,864
814,898;  461,378;    0,367;    0,591
815,463;  574,476;    1,276;   -0,773
816,027;  508,028;   -0,724;   -2,318
816,592;  424,126;    0,640;   -2,045
817,156;  605,860;    2,094;    1,136
817,721;  727,321;    4,276;    2,318
818,285;  455,600;    2,912;    1,500
818,849;  517,334;   -1,451;    1,682
819,414;  446,068;   -0,269;    2,955
819,978;  395,984;   -1,269;    1,773
820,542;  691,536;    2,003;    0,500
821,106;  517,634;   -0,815;    0,682
821,670;  731,368;   -0,815;    2,591
822,234;  503,283;   -0,270;    1,409
822,798;  402,927;    0,003;    0,500
823,362;  640,115;   -0,633;    4,227
823,926;  499,758;    0,094;    1,136
824,490;  685,856;   -0,997;   -0,682
825,054;  554,862;   -0,088;   -1,136
825,618;  442,778;   -1,542;   -1,500
826,181;  511,876;    0,458;   -1,318
826,745;  620,973;    1,367;   -1,045
827,309;  824,707;    1,185;    1,318
827,872;  695,896;    1,367;    0,955
828,436;  570,357;    1,185;   -0,773
828,999;  471,182;   -0,997;    1,227
829,563;  451,552;   -0,179;    1,136
830,126;  436,468;   -0,179;   -0,591
830,690;  550,202;   -1,997;    2,864
831,253;  455,936;   -0,543;    2,227
831,816;  514,942;   -1,906;    0,500
832,380;  474,222;    0,185;    0,864
832,943;  445,138;   -1,361;   -0,500
833,506;  455,508;    2,639;   -1,227
834,069;  601,333;    3,912;   -0,955
834,632;  441,521;    1,730;    1,318
835,195;  493,982;    1,003;    0,955
835,758;  437,171;   -0,997;    1,955
836,321;  443,814;    0,730;   -1,045
836,884;  416,003;   -0,725;   -0,955
837,447;  359,100;   -2,816;    1,773
838,010;  542,743;    0,366;    3,227
838,573;  551,023;   -1,179;    0,773
839,135;  399,120;   -1,361;   -0,955
839,698;  477,400;    1,275;    0,409
840,261;  428,043;    1,003;   -0,227
840,823;  381,049;   -0,543;    0,864
841,386;  367,238;   -0,452;   -2,409
841,948;  665,426;   -1,361;    1,773
842,511;  453,342;    0,912;    1,682
843,073;  655,894;    1,912;    0,227
843,636;  407,628;   -0,361;   -0,227
844,198;  627,817;    0,911;    0,591
844,760;  579,641;    1,093;    1,955
845,322;  380,194;    0,548;    1,136
845,885;  520,200;    0,730;    0,591
846,447;  453,116;   -1,998;    0,227
847,009;  795,759;    1,911;   -0,682
847,571;  505,038;    0,820;   -2,045
848,133;  450,682;   -1,089;   -1,864
848,695;  316,506;   -0,543;    1,409
849,257;  402,149;   -1,089;   -1,682
849,819;  550,247;   -0,998;   -0,409
850,381;  416,435;   -0,725;   -0,864
850,942;  479,442;    1,093;   -0,591
851,504;  562,176;    1,184;    0,227
852,066;  419,274;    1,275;   -1,591
852,628;  452,462;   -0,180;    1,955
853,189;  353,469;    1,638;    2,682
853,751;  358,566;   -0,907;    1,409
854,312;  523,664;   -0,453;   -1,682
854,874;  650,307;   -2,089;   -0,773
855,435;  457,405;   -0,907;   -1,682
855,997;  500,320;   -1,816;   -0,136
856,558;  618,600;    0,366;    1,773
857,119;  525,607;    0,820;    2,864
857,681;  367,522;    0,002;    0,318
858,242;  638,711;    1,911;   -2,136
858,803;  587,990;    0,456;   -0,773
859,364;  456,906;    0,184;   -4,773
859,925;  548,185;   -2,453;   -0,955
860,486;  420,101;   -0,453;   -0,955
861,047;  364,926;   -0,544;   -1,227
861,608;  419,205;   -1,089;   -0,773
862,169;  284,939;    0,638;   -0,045
862,730;  418,310;    0,456;    1,409
863,291;  458,771;   -0,635;   -0,500
863,852;  432,323;   -0,635;    1,955
864,412;  432,602;   -0,271;   -0,864
864,973;  674,700;   -0,089;    0,500
865,534;  770,888;   -1,726;    0,227
866,094;  555,622;    1,820;    0,227
866,655;  696,084;    1,274;    3,318
867,215;  507,636;    0,274;    0,136
867,776;  357,006;    0,547;   -0,136
868,336;  448,649;   -1,453;    0,136
868,897;  829,747;    2,638;    1,682
869,457;  613,935;    1,365;    0,318
870,017;  397,851;    0,547;   -1,227
870,578;  394,312;   -0,817;    0,773
871,138;  485,046;   -2,089;   -0,955
871,698;  402,871;   -0,817;   -1,318
872,258;  521,787;   -0,453;   -2,864
872,818;  666,703;    2,729;    0,045
873,378;  480,437;    0,638;    1,045
873,938;  462,261;    0,547;    0,500
874,498;  361,177;    0,274;   -1,955
875,058;  479,184;    2,183;    1,773
875,618;  472,190;    1,910;   -2,682
876,177;  504,288;    1,274;    0,136
876,737;  352,567;   -0,090;    1,955
877,297;  712,574;    0,183;    1,955
877,856;  639,763;   -0,362;    0,318
878,416;  406,133;    1,183;   -0,136
878,976;  357,958;   -1,817;    0,409
879,535;  404,055;    0,092;    3,136
880,095;  393,880;   -0,544;    0,045
880,654;  339,160;   -1,090;    1,318
881,213;  637,166;    2,456;    1,500
881,773;  477,264;    2,637;    2,682
882,332;  955,271;    3,365;    5,136
882,891;  462,641;    3,092;    2,136
883,451;  447,829;   -1,272;    1,682
884,010;  415,654;   -2,908;   -0,409
884,569;  350,570;   -0,999;   -0,045
885,128;  523,395;    2,819;   -1,864
885,687;  757,583;    4,455;    0,682
886,246;  932,590;    1,455;    2,136
886,805;  745,960;    2,455;    2,045
887,364;  399,240;   -0,999;   -0,500
887,922;  332,792;   -1,181;    0,045
888,481;  530,344;   -1,545;    0,591
889,040;  597,260;    1,183;    2,136
889,599;  472,539;    2,455;    1,409
890,157;  469,819;    1,455;    2,409
890,716;  410,007;   -0,090;    0,227
891,274;  523,196;    0,092;   -1,136
891,833;  588,293;    1,546;    0,864
892,391;  484,482;   -0,454;    0,500
892,950;  567,034;    1,819;   -0,773
893,508;  376,768;    0,455;   -0,409
894,067;  304,865;    0,637;    0,136
894,625;  410,145;   -0,636;   -1,500
895,183;  374,879;   -0,363;   -0,682
895,741;  638,340;    1,728;   -1,773
896,299;  434,347;   -0,545;   -2,409
896,858;  382,444;    0,819;   -1,591
897,416;  515,178;    2,728;   -1,318
897,974;  433,639;    1,819;    0,318
898,532;  859,191;    6,091;    2,682
899,089;  579,835;    2,091;   -0,682
899,647;  474,387;   -1,454;    1,318
900,205;  483,212;    1,182;    1,045
900,763;  472,036;   -0,454;    0,227
901,321;  419,043;    2,364;   -1,409
901,878;  265,868;   -1,000;   -0,773
902,436;  348,875;   -1,363;    1,318
902,994; 1004,790;    4,728;    3,682
903,551;  586,979;    0,728;    0,409
904,109;  460,167;    0,182;   -1,409
904,666;  429,447;    2,455;    1,045
905,224;  317,090;    0,182;   -0,409
905,781;  479,369;    0,727;   -0,318
906,338;  419,194;   -1,363;    1,045
906,895;  315,928;    0,637;    2,045
907,453;  569,480;    1,727;    1,136
908,010;  434,396;   -0,909;    0,409
908,567;  429,130;    1,273;    0,591
909,124;  282,500;    0,364;   -1,500
909,681;  341,598;   -2,909;    0,682
910,238;  371,059;    0,636;   -1,318
910,795;  279,157;   -0,273;   -1,136
911,352;  300,157;   -2,909;   -2,682
911,909;  346,520;   -1,364;   -0,864
912,466;  343,793;   -3,182;    1,500
913,022;  452,702;   -1,636;    0,500
913,579;  519,702;   -0,909;    2,045
914,136;  403,793;    1,636;    0,955
914,692;  395,520;    0,091;   -1,227
915,249;  426,520;    1,455;    0,409
915,806;  494,247;    0,182;    1,955
916,362;  394,520;    1,909;    1,864
916,918;  380,884;    2,000;    1,045
917,475;  496,429;   -1,182;    0,955
918,031;  347,884;    3,364;   -0,045
918,587;  417,793;   -0,909;   -0,318
919,144;  335,793;   -2,273;    0,227
919,700;  263,611;    1,727;    0,773
920,256;  277,429;    0,727;    0,045
920,812;  331,975;   -0,727;   -1,045
921,368;  302,157;   -1,727;   -1,045
921,924;  326,066;    0,182;   -0,136
922,480;  415,611;   -0,545;    1,227
923,036;  412,975;    1,273;    1,955
923,592;  317,702;    0,455;    0,318
924,148;  329,157;    0,455;   -0,955
924,704;  455,975;   -1,364;   -0,409
925,259;  294,975;   -0,273;    0,591
925,815;  297,793;    1,455;    0,500
926,371;  276,066;    2,909;    1,409
926,926;  419,429;    2,091;    0,591
927,482;  400,793;   -1,364;    0,773
928,037;  328,975;    0,909;    2,045
928,593;  496,429;    1,636;    1,045
929,148;  298,520;   -1,818;   -1,500
929,704;  370,157;   -1,455;   -0,500
930,259;  303,975;    0,091;   -0,136
930,814;  466,975;   -0,818;    1,955
931,369;  404,702;    1,091;   -0,773
931,925;  260,793;   -0,091;    0,136
932,480;  346,066;   -2,818;   -2,591
933,035;  631,520;    0,545;   -0,318
933,590;  542,975;    0,364;   -1,773
934,145;  255,793;   -1,364;   -0,318
934,700;  178,702;    0,455;   -0,591
935,255;  234,066;   -0,091;    0,045
935,809;  517,338;    3,182;    0,864
936,364;  244,338;   -0,455;   -0,136
936,919;  235,702;    0,455;   -1,773
937,474;  176,702;    1,455;    0,136
938,028;  188,429;   -1,636;    1,136
938,583;  527,429;    1,818;    4,682
939,138;  262,702;    2,091;    2,136
939,692;  159,247;    1,636;   -1,136
940,247;  201,157;   -0,727;   -1,045
940,801;  227,975;   -0,636;    0,227
941,355;  164,429;   -0,364;    2,591
941,910;  118,884;   -0,273;   -2,136
942,464;  144,884;   -0,818;   -0,318
943,018;  312,884;    1,000;   -0,227
943,572;  198,247;    2,545;   -0,682
944,126;  261,793;    0,091;   -0,409
944,681;  178,520;    3,091;    0,227
945,235;  132,338;    1,000;   -0,591
945,789;  111,157;    0,364;   -1,864
946,342;  295,157;    0,455;   -0,591
946,896;  148,793;   -2,273;    0,955
947,450;  122,157;    1,545;   -0,227
948,004;  288,975;    1,727;   -0,045
948,558;  173,157;    0,273;   -0,864
949,111;  171,520;   -0,273;   -0,318
949,665;  287,338;    1,636;   -0,682
950,219;  268,157;   -0,091;   -1,045
950,772;  208,793;   -1,909;    1,864
951,326;  194,429;    0,545;   -0,955
951,879;  159,611;    0,727;   -2,318
952,433;  251,429;    0,000;    2,227
952,986;  150,429;    2,909;    0,682
953,539;  128,066;   -0,273;    0,591
954,093;  100,429;    0,545;   -1,318
954,646;  171,066;    0,909;    1,318
955,199;  117,066;    0,000;   -0,500
955,752;  282,338;   -0,455;    1,773
956,305;  177,702;   -0,091;    2,955
956,858;  201,429;    0,818;   -0,318
957,411;  234,611;   -0,545;    2,136
957,964;  194,157;    1,364;    2,136
958,517;  135,338;   -1,545;    3,136
959,070;  103,975;   -0,455;    1,955
959,623;  281,611;    1,091;    1,500
960,176;  251,793;    1,727;    2,045
960,728;  211,702;   -2,727;    0,773
961,281;  171,429;    0,545;    0,500
961,834;  125,520;   -0,909;    0,864
962,386;  139,611;    1,727;    1,045
962,939;  119,520;    0,364;   -0,318
963,491;  152,066;    0,455;    1,136
964,043;  114,157;    1,182;    2,409
964,596;  219,702;   -1,000;    2,227
965,148;  158,338;   -1,000;    1,773
965,700;  112,066;    1,091;   -0,227
966,253;  214,247;   -0,636;    0,318
966,805;  180,066;   -2,273;    0,773
967,357;  143,066;    1,091;   -1,500
967,909;  213,702;    0,455;   -1,227
968,461;  142,611;    0,545;    3,136
969,013;  112,066;   -0,182;   -0,864
969,565;  216,975;   -0,455;   -1,136
970,117;  361,702;   -0,364;    1,045
970,669;  219,338;    0,182;   -0,136
971,220;   94,157;   -0,455;   -1,500
971,772;  145,520;   -0,636;   -0,318
972,324;  202,338;    0,091;   -0,500
972,876;  133,793;    0,818;   -0,045
973,427;  210,066;    1,909;   -1,045
973,979;  262,520;   -0,727;   -2,500
974,530;  142,702;    1,818;    1,318
975,082;  175,338;   -0,545;    1,682
975,633;  145,702;    1,091;    1,682
976,184;  162,975;    0,909;    0,773
976,736;  161,611;    0,091;    0,227
977,287;  185,611;   -0,909;   -0,500
977,838;  155,611;    0,909;   -0,318
978,389;  152,611;   -1,000;   -0,500
978,940;   81,247;    0,545;   -0,409
979,491;   82,066;    0,091;   -0,500
980,042;  138,702;    0,182;    3,045
980,593;  150,702;   -2,545;    0,227
981,144;  194,884;    2,545;   -0,500
981,695;  208,611;    1,455;    1,500
982,246;  185,611;   -0,273;    1,045
982,797;  109,611;   -1,727;    0,682
983,347;  188,520;    0,364;    0,591
983,898;  324,520;    3,091;    0,409
984,449;  301,338;    2,182;    0,773
984,999;  198,611;    1,455;   -1,136
985,550;  170,520;    0,182;   -0,318
986,100;   94,884;   -0,455;   -0,318
986,651;   93,066;   -0,818;    0,045
987,201;  105,157;   -1,000;   -0,591
987,751;  111,338;    0,818;    2,864
988,302;  134,429;    2,636;    1,500
988,852;  172,247;    0,455;   -1,136
989,402;  199,066;    0,091;    0,682
989,952;  222,793;   -2,182;    0,864
990,502;  125,066;   -0,091;    0,682
991,052;   69,702;   -0,727;    0,045
991,602;  105,611;   -2,909;    1,318
992,152;  129,611;    0,455;    0,682
992,702;  156,884;    1,364;   -0,045
993,252;  118,793;   -3,000;   -0,500
993,802;  178,247;   -0,273;    1,318
994,352;  143,975;   -1,545;    1,136
994,901;   89,338;   -0,182;    3,227
995,451;   86,702;   -0,182;    0,318
996,000;  106,793;    1,636;    0,318
996,550;  115,429;    2,273;    0,227
997,100;  133,702;    1,273;   -0,045
997,649;  212,520;    2,182;    0,955
998,198;  117,066;    1,727;   -1,500
998,748;  167,429;    1,091;   -2,318
999,297;  137,702;   -0,818;   -0,409
999,846;  205,247;    1,000;   -0,773
1000,395;  156,066;   -0,818;    0,500
1000,945;  223,429;    1,818;   -0,773
1001,494;  221,247;    2,364;    0,682
1002,043;  219,975;    4,636;    0,864
1002,592;  121,611;   -1,091;    1,955
1003,141;  102,520;   -0,455;   -0,682
1003,690;  212,884;    1,727;    0,500
1004,238;  138,247;    1,455;   -0,045
1004,787;   90,066;    1,364;    1,227
1005,336;  186,157;    0,364;    0,682
1005,885;  155,793;    1,364;   -2,773
1006,433;  146,884;    0,545;    0,955
1006,982;  248,429;    0,455;    1,682
1007,531;  163,793;   -1,818;   -0,227
1008,079;  149,157;   -2,273;    0,500
1008,627;  114,793;   -1,455;    0,409
1009,176;  136,793;    0,000;   -1,955
1009,724;   99,975;    1,091;    0,864
1010,273;  186,157;    1,273;    0,500
1010,821;  112,520;    0,091;    1,409
1011,369;   94,793;   -1,364;    1,318
1011,917;  102,520;   -1,364;   -0,591
1012,465;  143,338;    1,273;   -1,591
1013,013;  133,793;    2,091;   -1,682
1013,561;  204,884;    0,455;   -0,773
1014,109;  258,611;   -1,909;    1,682
1014,657;  183,884;    0,364;    0,591
1015,205;  121,338;    1,636;   -0,955
1015,753;   99,429;   -0,545;   -1,409
1016,301;  137,429;   -2,636;    3,045
1016,848;  184,429;   -1,273;    0,409
1017,396;  169,884;    2,545;    0,045
1017,944;  163,884;    1,182;    1,864
1018,491;  127,884;    0,273;    1,409
1019,039;  299,520;    0,455;    0,591
1019,586;  160,157;   -1,364;    1,682
1020,134;  147,884;    0,455;    1,500
1020,681;  200,520;    0,182;   -1,136
1021,228;  151,247;    2,909;   -2,227
1021,776;  131,429;    1,182;   -1,136
1022,323;  271,520;    0,455;    0,773
1022,870;  199,520;   -1,000;   -0,045
1023,417;  230,157;    2,636;    1,864
1023,964;  138,066;    2,636;    1,227
1024,511;  121,247;    1,000;    0,773
1025,058;  159,066;    3,182;   -0,045
1025,605;  124,247;   -2,273;    3,136
1026,152;  247,247;    1,727;   -0,591
1026,699;  153,975;    1,818;    1,318
1027,245;  143,884;   -0,091;    0,318
1027,792;  102,611;   -1,000;    1,409
1028,339;  248,520;    2,364;   -0,045
1028,885;  156,975;    1,000;   -0,227
1029,432;  133,520;   -0,091;    0,227
1029,978;  186,520;   -1,000;   -1,591
1030,525;  199,520;    1,000;    0,409
1031,071;  119,066;   -1,364;    1,136
1031,618;  288,157;    0,364;    1,682
1032,164;  183,793;   -0,091;    3,045
1032,710;  204,520;    1,636;   -1,500
1033,256;  184,702;   -0,636;   -0,136
1033,803;  103,520;   -0,545;    1,500
1034,349;   38,429;   -1,364;    0,136
1034,895;   61,702;    0,000;   -0,318
1035,441;  103,520;   -0,818;    0,318
1035,987;  129,520;   -2,364;   -0,682
1036,533;  166,520;   -1,455;   -0,955
1037,078;  295,611;    1,455;    1,682
1037,624;  204,884;    2,455;   -0,955
1038,170;  121,611;    0,455;   -0,318
1038,716;  172,702;    1,636;   -0,409
1039,261;  101,975;   -2,273;   -0,773
1039,807;  114,702;   -0,091;    3,409
1040,352;  121,247;   -1,909;   -0,318
1040,898;  115,611;   -1,545;   -0,682
1041,443;   86,611;   -1,455;   -2,591
1041,989;  278,884;    1,091;    1,591
1042,534;  150,975;   -0,364;    2,591
1043,079;   81,338;    2,909;    0,955
1043,625;  138,157;    1,818;    0,500
1044,170;  145,975;   -1,364;    1,045
1044,715;  264,611;    2,455;    0,955
1045,260;  199,793;    2,182;   -0,955
1045,805;  110,066;    1,182;   -0,591
1046,350;   98,247;    1,364;   -0,409
1046,895;  208,429;    2,909;    1,591
1047,440;  190,793;    5,364;    0,409
1047,985;  120,247;    2,818;   -0,955
1048,530;  105,247;    1,545;    1,227
1049,074;  136,429;    0,000;    0,318
1049,619;  105,520;   -1,364;    1,955
1050,164;  104,429;    0,455;    0,227
1050,708;  164,793;   -0,455;    0,045
1051,253;  299,793;    1,273;   -2,227
1051,797;  174,793;    0,818;   -1,318
1052,342;   86,793;   -1,182;    1,045
1052,886;  130,429;    0,364;   -1,409
1053,430;   77,520;   -1,364;    0,136
1053,975;  140,884;   -0,818;   -0,318
1054,519;  133,520;   -0,727;    3,227
1055,063;  167,247;    0,909;    1,318
1055,607;  159,975;   -0,182;    0,227
1056,151;  158,338;    2,909;    1,682
1056,695;  109,520;    2,273;   -1,136
1057,239;  103,975;   -1,727;   -0,682
1057,783;  131,884;    0,818;   -1,500
1058,327;  181,611;    0,000;    1,409
1058,871;  269,702;   -0,545;    1,318
1059,415;  190,884;   -0,818;   -0,045
1059,958;  266,338;    1,455;    2,591
1060,502;  114,884;   -1,000;   -0,773
1061,046;   76,702;    0,364;   -0,955
1061,589;   75,975;   -3,000;   -1,136
1062,133;   58,611;   -1,273;    1,864
1062,676;   84,611;    1,182;    0,864
1063,220;  105,157;    1,091;    0,500
1063,763;  119,247;    0,909;    1,136
1064,306;  129,520;   -0,909;    1,864
1064,849;  136,793;   -0,909;    0,591
1065,393;  117,884;    2,000;   -1,500
1065,936;  113,793;    0,182;   -0,409
1066,479;   78,066;   -1,455;    1,318
1067,022;   92,611;   -0,273;   -0,227
1067,565;   78,066;   -0,091;   -1,318
1068,108;   67,338;    0,727;   -0,591
1068,651;   58,157;   -0,636;    1,409
1069,194;   59,884;   -0,455;   -1,682
1069,736;   68,702;   -1,273;    0,955
1070,279;   59,066;   -1,364;   -0,500
1070,822;  100,884;   -2,000;   -0,318
1071,364;  173,884;   -0,364;    1,318
1071,907;  101,247;   -0,727;    3,227
1072,450;   33,338;    0,000;   -0,045
1072,992;   62,066;   -0,273;    3,136
1073,535;   96,157;    2,091;    2,136
1074,077;   62,157;   -0,727;    2,045
1074,619;   54,338;   -1,364;    0,591
1075,161;   75,975;   -1,091;    1,500
1075,704;  143,247;    1,545;    1,227
1076,246;   77,611;   -0,182;    0,682
1076,788;   44,702;   -0,364;    1,773
1077,330;   45,066;    1,273;    2,136
1077,872;   67,066;    0,909;    0,955
1078,414;  156,338;    2,727;    0,773
1078,956;   82,066;    1,273;   -0,227
1079,498;  148,338;    1,636;    0,318
1080,040;   82,884;    1,909;   -1,318
1080,581;   61,702;    1,636;   -0,318
1081,123;   35,520;    0,091;   -0,773
1081,665;   39,247;   -1,182;   -0,955
1082,206;  136,338;    1,364;   -0,500
1082,748;   84,793;    0,727;    2,045
1083,289;   47,247;   -2,000;    1,318
1083,831;   42,702;   -0,545;    0,227
1084,372;   66,793;    0,000;    0,591
1084,913;   62,793;    1,091;    0,864
1085,455;   42,611;   -1,909;   -2,045
1085,996;   30,338;   -2,273;    0,136
1086,537;   43,338;   -0,091;    0,864
1087,078;   55,429;   -0,909;   -2,136
1087,619;   83,702;   -1,273;    0,227
1088,160;   68,157;    0,000;    1,318
1088,701;   56,975;   -1,091;    0,682
1089,242;   47,338;    1,364;   -2,227
1089,783;   70,702;   -0,273;    1,409
1090,324;   60,157;    0,455;    0,682
1090,865;   39,429;    2,727;   -0,409
1091,405;   31,975;    0,727;    2,227
1091,946;   51,702;    0,182;   -0,955
1092,487;   29,975;    0,818;   -1,409
1093,027;   81,793;   -1,364;   -1,500
1093,568;   47,884;   -0,364;    1,227
1094,108;   60,429;    0,273;    1,773
1094,649;   48,338;   -1,182;    0,136
1095,189;   35,066;   -0,636;   -0,682
1095,729;   33,884;   -0,091;    0,955
1096,269;   28,611;    0,727;   -0,955
1096,810;   99,429;   -1,364;    0,500
1097,350;   71,520;    1,364;   -0,773
1097,890;   49,066;    0,364;    1,227
1098,430;  140,066;    2,364;    2,864
1098,970;   99,702;    2,182;    1,682
1099,510;   45,520;    0,545;   -2,318
1100,050;   37,975;    1,000;   -1,591
1100,589;   40,975;   -0,727;   -0,318
1101,129;   64,429;    0,818;   -0,955
1101,669;   99,429;    1,727;    2,136
1102,209;   66,520;   -0,091;    2,227
1102,748;   50,884;    0,000;    0,955
1103,288;   53,157;    1,273;   -1,227
1103,827;   47,702;    3,091;   -2,227
1104,367;   27,066;   -0,091;   -2,409
1104,906;   33,611;    1,364;   -1,136
1105,445;   52,884;    0,636;   -1,136
1105,985;   41,157;   -0,727;    1,500
1106,524;   45,611;   -1,727;   -0,682
1107,063;   40,520;   -2,727;    1,409
1107,602;   30,975;   -1,909;   -1,500
1108,141;   28,066;   -1,909;    1,500
1108,680;   54,338;   -3,455;   -0,591
1109,219;   38,247;   -0,909;   -0,500
1109,758;   37,975;    0,455;    0,682
1110,297;   36,066;    1,000;   -0,682
1110,836;   25,157;   -0,727;    0,955
1111,375;   28,429;   -2,545;    0,409
1111,913;   54,247;   -1,000;    0,773
1112,452;   43,247;   -0,273;    0,136
1112,991;   24,338;    1,091;    1,955
1113,529;   25,975;   -0,818;   -0,045
1114,068;   33,884;   -0,273;    2,955
1114,606;   24,429;   -0,364;   -0,955
1115,144;   49,975;   -1,273;    1,045
1115,683;   39,793;   -0,727;    0,318
1116,221;   52,338;   -0,455;   -0,864
1116,759;   29,520;    0,636;   -0,864
1117,297;   57,338;    0,000;    1,864
1117,836;   32,247;   -2,182;   -1,227
1118,374;   32,429;    0,182;   -0,682
1118,912;   33,975;    0,909;    2,682
1119,450;   33,611;    1,000;    0,864
1119,988;   28,429;    1,545;    2,136
1120,525;  177,975;    5,091;    3,318
1121,063;   80,793;    1,182;    1,864
1121,601;   33,338;   -0,909;   -1,227
1122,139;   26,520;   -0,727;   -2,045
1122,676;   72,429;   -0,727;    2,773
1123,214;   60,247;   -1,182;    4,409
1123,751;   23,429;    1,727;    2,227
1124,289;   36,793;   -0,091;   -0,409
1124,826;   24,429;    1,727;    0,227
1125,364;   13,247;    1,727;   -0,955
1125,901;   63,884;    1,182;    1,227
1126,438;   58,247;    0,818;    0,955
1126,975;   13,066;   -0,727;   -0,773
1127,513;   21,884;    0,273;    2,136
1128,050;   14,066;    1,636;   -0,682
1128,587;   23,884;    2,000;   -0,227
1129,124;   35,884;    0,091;    1,318
1129,661;   16,611;    0,273;    0,227
1130,198;   49,611;    1,636;    0,773
1130,734;   31,157;    0,182;    1,409
1131,271;   14,611;   -0,909;    0,864
1131,808;   42,793;    2,909;    3,045
1132,345;   22,520;    1,545;    0,318
1132,881;    6,247;   -1,545;   -1,864
1133,418;   24,793;    0,727;   -1,136
1133,954;   16,157;    2,455;   -2,682
1134,491;   27,338;    1,364;   -0,773
1135,027;   13,157;    2,364;    0,864
1135,564;   27,066;    0,273;    2,955
1136,100;   22,429;    0,364;    2,136
1136,636;   11,066;   -1,273;   -1,045
1137,172;   16,702;    0,000;   -1,045
1137,708;   10,975;   -1,364;   -1,045
1138,245;   12,157;    1,273;   -1,227
1138,781;    7,157;    1,091;   -3,318
1139,317;   15,793;    1,273;   -1,409
1139,852;   20,338;    3,091;    0,136
1140,388;   29,520;   -1,182;   -0,409
1140,924;   16,338;   -1,091;   -2,227
1141,460;   12,975;   -1,636;    0,136
1141,996;    6,157;   -1,364;    2,682
1142,531;    7,066;    1,364;    3,318
1143,067;   39,157;    1,182;    1,045
1143,602;   51,157;   -0,091;   -0,318
1144,138;   23,975;   -2,636;    1,045
1144,673;    9,975;   -1,455;    1,409
1145,209;   13,157;   -1,909;   -0,318
1145,744;    7,429;   -0,727;    0,864
1146,279;   21,702;    1,818;   -0,136
1146,815;   13,247;    1,545;   -2,682
1147,350;   22,247;   -1,364;    0,045
1147,885;    9,066;   -0,818;   -1,318
1148,420;    6,066;   -2,273;    0,773
1148,955;    7,702;   -1,727;    1,864
1149,490;    9,338;   -0,909;   -1,591
1150,025;    4,338;    0,455;   -1,773
1150,560;   20,520;    1,091;   -0,955
1151,094;   18,975;    1,455;   -0,591
1151,629;   14,066;    1,636;    0,864
1152,164;    7,611;    1,364;    1,318
1152,698;    8,520;   -0,182;   -0,136
1153,233;    2,338;    0,091;   -0,682
1153,767;    6,247;   -3,000;   -2,318
1154,302;   10,611;   -1,455;    1,773
1154,836;   11,884;   -0,455;   -2,136
1155,371;   14,338;   -1,364;    3,682
1155,905;    9,520;   -0,636;    1,682
1156,439;   10,884;   -0,636;   -0,500
1156,973;   10,338;    0,364;    0,318
1157,507;    5,520;   -0,364;    0,682
1158,042;    6,975;   -0,727;    1,045
1158,576;   13,702;    0,182;    1,773
1159,110;   10,975;   -0,818;    2,409
1159,643;    7,975;    0,636;   -0,045
1160,177;    6,611;   -1,545;    1,500

