
Integration time [ms]:   0,040
Averaging Nr. [scans]: 11
Smoothing Nr. [pixels]: 0
Data measured with spectrometer [name]: 7318044SP
Wave   ;Sample   ;Dark     ;Reference
[nm]   ;[counts] ;[counts] ;[counts] 

186,757;   33,769;   31,551;    1,318
187,357;   30,336;   22,551;    0,955
187,958;   21,164;   15,460;   -1,591
188,558;   24,219;    8,915;   -1,227
189,159;   15,435;    6,733;   -4,500
189,759;    7,886;    7,278;   -3,591
190,360;   10,864;    2,824;   -2,136
190,960;   11,474;    2,915;   -4,136
191,560;   16,310;    3,189;   -6,591
192,161;   60,415;    4,372;   -3,500
192,761;   33,186;    4,010;   -3,227
193,361;   19,865;    1,556;   -3,773
193,962;   28,153;    2,010;   -2,682
194,562;   12,549;    1,189;   -3,955
195,162;    9,426;   -2,448;   -2,227
195,762;   37,126;   -3,176;   -0,045
196,362;   21,157;    1,370;   -2,500
196,963;    8,930;    2,006;   -0,864
197,563;   15,312;    1,551;   -0,955
198,163;    6,223;    0,096;   -0,682
198,763;    7,452;    1,733;   -0,500
199,363;   18,822;    3,096;   -0,500
199,963;   14,270;    0,369;    0,409
200,563;   12,668;    2,823;   -1,409
201,163;    7,802;    3,277;   -0,227
201,763;   15,152;    3,732;    0,318
202,363;    9,447;    1,459;    1,500
202,963;   12,673;    1,459;    1,045
203,563;   27,099;    0,277;    0,500
204,162;   13,655;    2,096;   -1,864
204,762;   12,768;    0,550;    0,591
205,362;    9,541;    3,004;    1,955
205,962;   16,890;    3,096;    1,955
206,562;   10,791;    1,823;    2,318
207,161;    8,068;   -0,087;    0,318
207,761;   36,064;    1,277;    2,409
208,361;   15,388;   -0,268;    1,409
208,960;   17,870;    0,459;    1,500
209,560;   15,775;    1,277;    1,591
210,160;   24,830;    0,550;    1,864
210,759;   14,895;    4,186;    1,227
211,359;    7,178;    1,459;    1,045
211,958;   59,019;    1,277;    2,045
212,558;   58,277;    1,732;    1,864
213,157;   32,220;    1,822;    1,500
213,757;   99,557;    3,822;   -0,227
214,356;   45,426;    1,277;   -0,409
214,956;   96,622;    3,095;    0,409
215,555;   36,116;    2,095;    2,136
216,154;   21,480;   -2,723;   -0,591
216,754;   21,748;    0,277;    0,773
217,353;   29,601;   -0,268;   -1,045
217,952;   11,897;   -0,178;    0,318
218,552;   45,536;    1,368;   -0,773
219,151;   25,750;    0,277;    0,955
219,750;   21,256;    0,004;   -0,227
220,349;   16,912;   -0,451;    1,045
220,948;   61,949;   -1,360;    1,136
221,548;   31,702;    0,913;    1,227
222,147;   37,781;   -0,087;   -0,409
222,746;   95,577;   -0,451;   -0,955
223,345;   54,863;    0,731;    0,500
223,944;   56,267;   -0,451;    0,773
224,543;   62,051;    1,004;   -1,409
225,142;   50,278;    0,094;    0,136
225,741;   62,466;   -0,814;    1,045
226,340;   61,116;   -0,451;   -0,955
226,939;  111,321;   -0,996;   -0,136
227,538;   54,096;   -0,360;   -0,773
228,137;  133,209;   -0,814;    0,864
228,735;  103,206;   -0,541;    1,227
229,334;   40,110;   -0,905;   -0,227
229,933;  144,026;    0,459;    0,591
230,532;  147,176;    1,186;   -0,409
231,131;  199,975;    1,732;    0,318
231,729;  127,922;   -2,450;   -2,318
232,328;   85,822;   -0,723;   -1,500
232,927;  104,049;    1,004;   -0,500
233,525;   90,705;    3,640;    0,045
234,124;  117,721;    2,368;   -1,591
234,723;   74,106;    0,913;   -1,045
235,321;   65,237;    2,277;    0,136
235,920;   96,834;    1,186;   -1,227
236,518;  202,238;    3,459;    0,318
237,117;   98,068;    0,004;   -0,227
237,715;  114,930;    0,640;   -0,500
238,314;  141,548;   -0,087;   -2,318
238,912;  230,094;   -0,723;   -1,409
239,510;  167,538;    0,459;   -1,227
240,109;  242,756;    0,004;    3,773
240,707;  219,496;   -0,996;    1,227
241,305;  114,969;    0,550;    0,136
241,904;  180,424;   -0,178;   -2,045
242,502;  270,886;   -0,632;   -0,227
243,100;  192,288;   -0,087;   -0,955
243,698;  139,605;    0,732;    1,682
244,297;  170,294;   -0,632;    0,682
244,895;  164,596;   -0,269;   -2,318
245,493;  295,530;    2,186;   -0,591
246,091;  302,519;    1,368;   -1,318
246,689;  242,607;    1,004;    0,591
247,287;  220,876;    0,822;   -1,136
247,885;  187,838;   -1,451;    1,227
248,483;  164,873;    1,822;   -0,500
249,081;  231,614;    0,185;    1,591
249,679;  250,604;   -0,178;    1,682
250,277;  158,819;   -1,723;    0,864
250,875;  258,564;   -1,087;   -1,045
251,473;  182,435;   -1,178;    0,500
252,071;  260,236;    1,459;    1,045
252,669;  192,267;   -1,814;    0,318
253,267;  149,447;   -0,087;    0,773
253,864;  198,058;   -0,360;    0,682
254,462;  310,921;    1,640;    1,591
255,060;  158,544;   -0,269;    1,318
255,658;  156,085;    0,822;   -0,136
256,255;  208,056;    0,186;   -2,045
256,853;  249,565;   -0,269;    1,409
257,451;  216,707;    0,822;    1,864
258,048;  543,603;    1,822;    1,864
258,646;  322,464;    1,731;   -1,045
259,243;  397,201;   -0,087;    2,227
259,841;  297,996;   -0,814;    0,318
260,438;  183,203;   -0,087;    0,864
261,036;  281,752;   -1,905;    1,409
261,633;  188,545;   -0,087;    2,227
262,231;  156,714;    2,731;   -0,045
262,828;  159,825;   -0,905;    1,136
263,425;  201,052;    0,913;   -0,591
264,023;  204,908;    0,186;    0,045
264,620;  329,276;   -0,360;   -0,318
265,217;  427,088;   -2,087;    3,136
265,815;  220,427;   -1,905;    2,136
266,412;  317,002;    0,731;    0,136
267,009;  320,340;   -1,451;    0,773
267,606;  393,645;    0,822;   -0,955
268,203;  242,491;   -0,269;   -0,591
268,801;  265,356;    1,731;    0,591
269,398;  197,846;   -0,360;    2,500
269,995;  324,098;    0,277;    1,591
270,592;  275,656;   -0,632;   -0,500
271,189;  195,393;    0,186;    0,409
271,786;  173,783;   -0,632;    1,227
272,383;  371,848;   -1,087;    0,227
272,980;  259,708;    0,277;    0,318
273,577;  214,898;    0,004;    1,227
274,174;  197,636;    0,822;    2,591
274,771;  318,449;   -0,814;   -0,773
275,367;  632,350;    2,277;    1,409
275,964;  462,110;    0,731;   -0,500
276,561;  286,547;    1,549;   -1,045
277,158;  213,240;    0,095;   -1,773
277,755;  416,886;    2,185;    0,409
278,351;  333,097;   -0,451;   -1,500
278,948;  380,974;   -0,815;    0,045
279,545;  336,943;   -1,360;    2,318
280,141;  480,787;   -1,723;   -2,045
280,738;  455,716;   -0,451;   -0,136
281,334;  277,574;   -1,633;    0,591
281,931;  299,022;   -0,087;   -1,318
282,528;  395,101;    0,822;   -0,500
283,124;  450,375;   -1,087;   -0,500
283,721;  447,921;   -0,451;    1,409
284,317;  323,118;    0,185;    2,500
284,913;  474,835;   -1,360;    0,591
285,510;  681,016;    0,640;   -0,318
286,106;  515,436;   -2,269;   -0,955
286,703;  353,147;   -0,360;    1,955
287,299;  304,905;   -1,451;   -0,591
287,895;  281,914;    0,822;   -1,045
288,491;  258,937;    0,186;    2,136
289,088;  369,778;   -2,360;    2,409
289,684;  409,994;   -1,723;    1,500
290,280;  538,325;    0,368;    0,682
290,876;  492,637;    1,822;    5,500
291,472;  414,423;    1,276;    2,227
292,068;  424,805;    1,367;    0,227
292,665;  317,996;    2,095;    0,773
293,261;  237,852;    0,276;    2,136
293,857;  400,683;    2,913;    2,136
294,453;  324,114;    3,550;    0,955
295,049;  511,609;   -0,268;    1,955
295,644;  372,408;    0,095;    0,136
296,240;  246,999;   -0,905;   -0,136
296,836;  348,851;   -0,995;    0,318
297,432;  468,078;    1,096;   -0,500
298,028;  495,625;    0,732;    0,773
298,624;  371,313;    1,459;    1,864
299,220;  346,107;    2,368;    0,591
299,815;  334,049;    1,005;   -0,409
300,411;  424,336;    0,914;    1,773
301,007;  516,526;    1,368;    0,227
301,602;  372,674;   -0,541;   -2,318
302,198;  486,955;    0,732;   -0,773
302,794;  350,553;    1,187;   -0,500
303,389;  300,016;   -1,177;    1,045
303,985;  342,022;    0,550;    1,409
304,580;  460,641;    1,459;    1,591
305,176;  377,062;   -3,086;    0,136
305,771;  267,087;   -1,268;   -1,227
306,367;  613,922;    4,095;    0,136
306,962;  401,310;    0,641;    1,500
307,558;  456,945;   -0,450;    0,136
308,153;  503,520;    1,095;   -1,136
308,748;  315,049;   -0,814;    1,682
309,344;  649,105;   -0,632;   -1,318
309,939;  650,173;   -1,905;   -1,318
310,534;  374,276;   -0,086;   -1,682
311,130;  349,598;    0,459;   -2,500
311,725;  318,983;    1,004;   -0,500
312,320;  373,405;    2,459;    0,045
312,915;  458,096;    1,459;   -1,045
313,510;  638,077;    1,550;   -0,500
314,105;  377,900;    1,096;    1,409
314,700;  262,285;   -3,086;   -1,045
315,295;  338,369;   -0,904;    0,045
315,890;  292,123;    1,277;    0,864
316,485;  396,897;   -0,359;   -0,318
317,080;  302,042;   -3,086;    1,591
317,675;  587,044;    2,005;   -0,682
318,270;  782,059;    5,550;    3,318
318,865;  674,965;    3,278;    3,045
319,460;  527,491;   -0,904;    0,591
320,055;  366,213;   -0,541;   -1,227
320,650;  363,927;   -1,995;   -0,591
321,244;  368,136;   -0,177;   -1,409
321,839;  380,202;   -1,541;   -0,227
322,434;  435,678;   -1,086;   -1,591
323,029;  367,527;    1,732;    1,591
323,623;  338,594;    1,550;    0,773
324,218;  503,691;    2,368;    1,409
324,812;  439,556;    1,096;    1,591
325,407;  445,491;   -0,814;    2,045
326,002;  564,586;    0,277;   -0,409
326,596;  499,550;    0,914;    1,318
327,191;  352,028;    0,823;   -1,045
327,785;  350,550;   -0,813;   -0,227
328,379;  359,574;    1,368;    0,136
328,974;  411,302;    0,914;   -3,955
329,568;  430,832;    0,186;   -2,409
330,163;  499,170;    2,096;    1,045
330,757;  348,541;    2,459;    1,591
331,351;  292,785;    0,459;    0,682
331,945;  283,732;    0,914;    1,409
332,540;  418,788;   -1,723;   -0,591
333,134;  413,181;   -1,086;    0,773
333,728;  417,605;    0,005;    0,318
334,322;  307,570;   -1,177;   -0,864
334,916;  296,573;    0,277;    0,955
335,510;  458,872;   -0,450;   -0,136
336,105;  449,573;   -1,086;    1,591
336,699;  343,159;   -1,086;    0,591
337,293;  379,385;   -1,723;    0,318
337,887;  323,952;   -2,723;    1,955
338,481;  454,604;    0,459;    0,591
339,074;  549,934;   -0,359;    2,682
339,668;  527,556;   -1,632;    1,227
340,262; 1053,912;    1,732;    3,227
340,856;  672,507;    1,822;   -0,682
341,450;  372,802;    1,004;    1,864
342,044;  422,658;    1,459;    0,136
342,637;  551,574;    0,913;   -2,136
343,231;  530,254;   -2,360;    0,682
343,825;  428,975;   -1,086;   -0,591
344,419;  402,021;   -1,995;    0,500
345,012;  899,362;    2,459;    4,045
345,606;  709,800;    4,641;    1,591
346,199;  410,858;   -1,813;   -0,227
346,793;  535,753;    1,914;    2,045
347,386;  343,734;   -0,813;   -1,136
347,980;  253,904;   -0,268;   -0,045
348,573;  358,407;    2,278;    0,409
349,167;  631,814;    5,278;    4,773
349,760;  507,456;    2,914;    2,682
350,354;  475,243;   -0,813;    1,136
350,947;  515,299;    1,096;    1,682
351,540;  392,840;   -0,358;   -1,409
352,134;  270,366;    1,096;    1,136
352,727;  294,346;   -0,086;    1,136
353,320;  311,835;    0,005;    0,591
353,913;  255,487;   -1,995;    1,864
354,507;  451,319;    0,823;   -1,227
355,100;  321,394;    0,460;    0,864
355,693;  723,752;    2,005;    2,409
356,286;  494,000;    0,823;    2,773
356,879;  349,825;   -0,722;    1,227
357,472;  350,288;   -0,904;    1,500
358,065;  395,973;   -0,722;    2,500
358,658;  255,913;   -0,540;    2,318
359,251;  225,100;   -1,631;   -0,591
359,844;  411,874;   -1,904;   -1,136
360,437;  481,398;   -2,995;    0,045
361,030;  318,554;    1,369;   -0,682
361,623;  330,575;    2,824;    0,318
362,215;  553,784;   -0,086;    2,045
362,808;  400,073;   -2,358;   -1,682
363,401;  325,554;   -2,449;    0,136
363,994;  549,075;   -0,631;   -1,500
364,586;  346,000;    0,824;   -1,500
365,179;  292,681;   -0,449;   -1,136
365,772;  163,585;   -1,995;    2,045
366,364;  316,254;    1,915;   -3,227
366,957;  374,588;    2,279;   -0,045
367,549;  320,012;    2,188;   -0,864
368,142;  328,220;    1,825;   -1,500
368,734;  290,272;    0,734;   -2,136
369,327;  228,222;    1,643;   -0,500
369,919;  270,408;   -1,538;    0,409
370,512;  295,102;   -1,083;   -0,500
371,104;  551,058;   -0,901;    1,591
371,696;  581,157;    1,191;   -0,955
372,289;  426,900;    0,373;    1,136
372,881;  375,514;   -2,080;    1,318
373,473;  266,453;   -2,170;    1,136
374,066;  366,999;   -0,169;    0,500
374,658;  342,586;    0,378;    1,136
375,250;  272,474;    0,653;   -1,409
375,842;  324,741;    0,473;   -0,045
376,434;  279,961;   -0,435;   -0,409
377,026;  271,176;    0,204;   -2,500
377,618;  328,603;   -0,158;   -0,682
378,210;  263,559;   -0,338;   -1,955
378,802;  257,962;    0,754;   -0,591
379,394;  641,984;    1,846;    0,682
379,986;  403,546;    1,393;   -0,955
380,578;  315,654;   -0,153;    0,773
381,170;  552,271;   -0,972;    0,045
381,762;  452,881;    0,755;    1,409
382,354;  405,719;   -0,065;   -1,318
382,945;  311,748;   -2,976;    0,318
383,537;  252,920;   -2,705;   -1,955
384,129;  242,706;   -2,160;   -1,136
384,721;  364,218;   -0,252;    0,955
385,312;  302,684;   -0,161;   -0,955
385,904;  389,150;   -2,706;    1,591
386,496;  321,880;   -0,979;    1,045
387,087;  463,993;    1,022;    2,500
387,679;  400,372;   -1,160;    0,045
388,270;  377,857;    2,840;    2,045
388,862;  348,446;    1,295;   -0,318
389,453;  335,874;   -0,887;    1,045
390,045;  349,782;   -0,705;   -2,682
390,636;  235,711;    0,204;   -0,591
391,227;  298,981;   -0,523;   -0,045
391,819;  280,753;    0,204;    0,773
392,410;  536,088;    1,022;    0,045
393,001;  348,910;   -0,979;   -1,591
393,593;  412,768;    1,930;   -0,045
394,184;  464,097;    1,385;   -0,409
394,775;  335,373;    1,839;    2,136
395,366;  252,915;    1,385;    0,773
395,957;  452,730;    0,113;    0,136
396,548;  333,707;   -0,342;    2,682
397,139;  466,512;   -2,433;    0,591
397,730;  373,181;   -1,888;    0,955
398,321;  387,971;   -1,252;    0,955
398,912;  324,266;   -0,615;    0,136
399,503;  313,171;   -3,524;   -1,409
400,094;  371,850;    0,294;    1,682
400,685;  362,598;   -0,433;    0,045
401,276;  306,759;    0,930;   -0,955
401,867;  291,354;   -0,888;    0,773
402,458;  251,389;   -2,251;   -2,318
403,048;  405,827;    1,112;    0,591
403,639;  352,564;    0,840;    0,864
404,230;  468,015;    2,476;    0,318
404,821;  524,443;   -0,615;    0,045
405,411;  425,582;    1,203;   -2,591
406,002;  335,197;   -1,252;   -1,136
406,592;  575,989;    2,294;    0,045
407,183;  423,167;    0,566;   -1,500
407,774;  395,860;    3,475;   -0,136
408,364;  350,835;    0,930;    0,409
408,954;  472,136;    0,384;    1,227
409,545;  482,219;    1,021;    1,045
410,135;  428,201;    1,293;    0,500
410,726;  377,423;    1,838;    0,318
411,316;  575,238;    0,111;    0,773
411,906;  396,296;   -0,253;   -0,409
412,497;  410,837;   -1,070;   -0,045
413,087;  344,207;   -1,980;   -0,227
413,677;  271,242;   -0,707;    3,864
414,267;  264,231;    0,656;    1,409
414,857;  237,974;   -2,980;    4,227
415,448;  253,948;    0,839;    0,500
416,038;  287,235;    0,020;   -0,591
416,628;  337,962;   -0,889;    0,409
417,218;  405,997;    0,565;    3,318
417,808;  566,468;    0,202;   -0,409
418,398;  428,562;    0,020;    2,682
418,988;  307,301;    2,020;    0,591
419,578;  413,803;   -0,707;    1,409
420,168;  345,210;   -1,343;   -0,955
420,757;  512,949;   -1,343;   -1,500
421,347;  394,450;    0,111;   -0,227
421,937;  359,625;    2,292;    1,409
422,527;  509,477;    0,838;   -0,773
423,116;  667,106;   -0,253;   -0,045
423,706;  345,775;   -1,889;    0,318
424,296;  295,224;    1,384;    0,682
424,885;  454,770;   -0,071;   -3,045
425,475;  422,355;    1,474;   -2,864
426,065;  294,987;   -0,980;   -0,318
426,654;  269,004;   -0,435;   -0,318
427,244;  583,457;    0,020;    1,409
427,833;  558,075;    1,383;   -0,500
428,423;  397,611;   -0,526;    1,136
429,012;  400,863;   -0,344;   -1,136
429,601;  549,264;   -1,344;    0,136
430,191;  431,197;    1,292;    4,318
430,780;  310,343;   -0,344;   -0,409
431,369;  537,813;    0,746;   -0,045
431,959;  405,917;   -1,254;    0,500
432,548;  324,835;   -1,163;   -0,045
433,137;  248,412;   -1,254;   -1,318
433,726;  353,298;    0,292;    0,500
434,315;  381,411;   -0,526;    2,409
434,905;  505,516;   -1,254;    1,409
435,494;  512,920;    0,746;    0,955
436,083;  348,310;   -0,981;   -0,955
436,672;  448,705;    0,110;    0,500
437,261;  386,852;    0,292;   -1,955
437,850;  687,916;    1,383;    0,682
438,439;  737,012;    3,291;    1,955
439,027;  851,305;    3,655;    1,773
439,616;  779,813;    2,927;    1,227
440,205;  514,217;    0,200;   -2,136
440,794;  439,644;    2,109;   -0,045
441,383;  348,163;   -1,346;   -0,591
441,971;  305,516;   -2,436;    0,591
442,560;  332,580;    0,563;   -1,773
443,149;  198,953;    0,379;   -1,318
443,737;  284,234;   -0,074;   -2,318
444,326;  315,588;    0,018;    0,318
444,915;  386,030;   -1,982;    0,864
445,503;  392,365;   -2,891;   -0,318
446,092;  700,022;    0,382;    2,136
446,680;  627,425;    0,382;    0,318
447,269;  526,902;   -0,346;   -0,318
447,857;  496,772;    0,018;   -1,773
448,445;  442,519;    0,563;    1,318
449,034;  362,686;   -1,528;   -1,136
449,622;  361,052;   -1,073;    3,500
450,210;  740,073;    2,017;    2,227
450,799;  631,364;    0,290;   -0,591
451,387;  555,841;    1,381;   -0,591
451,975;  543,085;    2,654;    0,864
452,563;  654,128;    3,472;    2,318
453,151;  406,658;   -0,528;   -1,227
453,739;  469,673;   -1,347;    0,136
454,328;  624,820;    2,381;   -2,136
454,916;  525,227;    2,562;   -0,136
455,504;  542,370;    1,017;    1,227
456,092;  392,246;    0,017;   -1,591
456,679;  335,162;    1,472;    0,682
457,267;  877,396;    4,017;    1,045
457,855;  459,518;    1,017;    1,409
458,443;  264,580;   -0,165;    1,682
459,031;  517,450;    0,108;    2,409
459,619;  455,052;   -1,801;    2,864
460,206;  316,712;    0,835;    2,045
460,794;  322,295;   -2,983;   -0,227
461,382;  397,011;   -0,529;   -0,864
461,970;  386,554;    1,198;    1,864
462,557;  285,914;   -0,711;   -0,682
463,145;  472,884;   -3,165;   -1,682
463,732;  780,150;    2,016;   -1,045
464,320;  477,395;   -0,075;   -3,045
464,907;  672,007;    2,743;   -0,773
465,495;  556,040;    0,743;   -1,227
466,082;  440,752;   -1,984;   -0,045
466,670;  461,944;   -2,529;    1,227
467,257;  312,424;   -1,711;    2,045
467,844;  466,812;   -0,075;    0,045
468,432;  431,733;    0,834;    3,500
469,019;  361,623;    0,925;   -1,773
469,606;  469,490;    0,470;    3,682
470,193;  522,765;   -1,439;    0,227
470,780;  469,233;   -2,075;    0,864
471,368;  364,099;   -1,257;   -0,773
471,955;  501,440;    1,379;   -0,682
472,542;  447,417;    0,652;   -1,136
473,129;  284,091;   -0,166;    0,136
473,716;  304,344;    1,470;    0,591
474,303;  350,895;    0,652;   -0,864
474,890;  360,291;   -1,439;   -0,500
475,477;  495,052;   -1,621;    0,409
476,064;  356,127;    1,106;   -1,591
476,650;  518,423;    0,288;    0,318
477,237;  415,423;   -0,258;    0,955
477,824;  384,167;   -1,076;    0,864
478,411;  253,793;   -1,894;   -0,318
478,997;  253,944;    0,560;   -0,773
479,584;  170,112;    1,196;   -0,409
480,171;  448,535;   -0,440;   -0,773
480,757;  542,516;    2,651;    0,773
481,344;  373,085;    0,469;    0,409
481,931;  237,659;    1,105;    1,045
482,517;  457,207;   -1,258;    0,318
483,104;  593,202;    1,106;    2,864
483,690;  421,755;   -1,804;    0,045
484,276;  383,632;   -0,895;    0,227
484,863;  724,689;    2,469;    1,136
485,449;  479,224;   -0,077;    0,318
486,035;  407,599;   -1,986;   -0,136
486,622;  573,817;   -0,895;    0,045
487,208;  433,126;    1,378;    1,500
487,794;  299,176;    0,741;    0,318
488,380;  301,924;    0,105;   -1,409
488,967;  331,844;   -1,168;   -0,409
489,553;  354,803;   -1,895;   -1,409
490,139;  480,444;    1,559;    0,773
490,725;  329,366;    0,741;   -0,227
491,311;  400,079;    3,287;    3,045
491,897;  340,996;   -0,986;    1,500
492,483;  330,109;    0,105;    1,227
493,069;  948,188;    3,923;    0,864
493,655;  544,602;    1,650;    0,682
494,241;  361,952;    1,377;   -0,955
494,826;  395,346;    0,287;   -1,045
495,412;  495,438;    2,559;   -0,682
495,998;  340,935;   -0,805;   -0,318
496,584;  432,811;    0,377;    1,045
497,169;  445,111;    1,014;   -0,682
497,755;  343,204;    0,650;    1,227
498,341;  575,290;    0,559;    0,318
498,926;  739,422;    1,832;    1,955
499,512;  361,720;    1,286;    2,955
500,097;  368,086;    0,195;   -0,318
500,683;  396,600;   -0,350;    2,136
501,268;  314,970;   -0,169;   -0,955
501,854;  339,455;   -0,169;    1,227
502,439;  311,346;   -0,624;   -1,773
503,024;  382,747;    0,195;    0,500
503,610;  427,922;   -0,078;   -0,682
504,195;  320,316;    0,558;    1,955
504,780;  453,798;    2,922;    1,227
505,366;  576,419;    3,013;    2,864
505,951;  469,501;    0,740;    1,045
506,536;  356,214;   -3,260;   -3,682
507,121;  436,820;    0,285;   -0,318
507,706;  356,646;    2,376;    1,045
508,291;  281,868;    2,649;    1,136
508,876;  286,012;   -0,988;    2,591
509,461;  362,321;   -0,169;   -0,773
510,046;  418,493;    0,194;    0,318
510,631;  418,994;   -0,351;   -0,773
511,216;  302,757;    2,467;   -0,500
511,801;  386,493;   -0,442;    2,591
512,386;  416,105;    0,740;    0,500
512,971;  428,996;   -2,988;    0,955
513,555;  488,219;   -0,897;   -1,500
514,140;  425,965;   -0,442;   -3,136
514,725;  563,320;   -0,715;   -1,136
515,309;  441,305;   -0,533;    0,318
515,894;  314,756;   -0,624;   -2,227
516,479;  354,691;   -0,624;   -0,955
517,063;  362,576;    0,376;    1,227
517,648;  305,587;    1,012;   -1,136
518,232;  280,170;   -0,261;   -1,409
518,817;  378,538;   -0,079;    1,682
519,401;  516,067;    2,194;    0,591
519,985;  471,137;    1,103;    1,136
520,570;  309,276;    0,830;   -1,955
521,154;  426,312;    2,102;    0,591
521,738;  614,112;   -2,352;    2,409
522,323;  425,205;   -0,170;    1,682
522,907;  410,285;    0,466;   -0,136
523,491;  313,020;    0,557;    0,955
524,075;  277,934;    2,284;    0,591
524,659;  483,526;    1,466;    0,591
525,243;  419,720;    1,739;    0,409
525,827;  357,935;    0,648;   -0,045
526,411;  358,072;   -1,989;   -0,136
526,995;  459,097;   -0,352;    1,409
527,579;  520,103;   -0,443;   -1,045
528,163;  447,236;    0,375;   -1,500
528,747;  548,496;    2,466;   -0,773
529,331;  481,211;   -0,080;   -1,409
529,915;  323,697;    1,738;    0,955
530,499;  418,151;   -0,807;    1,227
531,082;  581,734;   -0,534;    1,591
531,666;  652,487;    1,374;    0,773
532,250;  531,773;    1,284;    2,682
532,833;  635,564;    0,920;    2,773
533,417;  471,661;   -1,807;    0,864
534,001;  592,075;    1,647;   -0,318
534,584;  508,494;    0,374;    0,500
535,168;  329,125;    0,465;    1,409
535,751;  684,854;    0,647;    0,045
536,334;  430,696;   -0,898;   -0,409
536,918;  273,689;    0,011;    1,591
537,501;  290,998;   -0,899;    1,318
538,085;  336,016;   -0,444;    1,045
538,668;  416,293;    0,829;    2,409
539,251;  696,661;    1,829;    3,773
539,834;  410,196;    0,101;    0,773
540,418;  533,997;   -1,990;    4,318
541,001;  709,339;   -0,990;    1,773
541,584;  473,188;    2,101;    2,227
542,167;  593,554;    1,374;    2,955
542,750;  414,397;    1,919;   -0,773
543,333;  291,664;    0,555;    2,136
543,916;  512,607;    0,192;    2,500
544,499;  446,814;   -1,354;    0,227
545,082;  523,003;    1,374;    3,591
545,665;  430,710;    1,919;    1,500
546,248;  559,937;    1,010;   -0,318
546,830;  535,650;   -0,445;    1,955
547,413;  496,618;    1,010;   -0,773
547,996;  453,560;    0,555;    0,500
548,579;  419,331;    0,919;    0,955
549,161;  655,793;    1,828;    2,682
549,744;  531,745;   -0,809;    0,409
550,326;  383,841;   -0,809;   -1,136
550,909;  846,695;    2,737;    0,591
551,492;  497,917;   -0,263;    0,227
552,074;  626,808;   -0,173;   -1,318
552,657;  648,446;    2,373;    0,045
553,239;  521,368;   -0,173;   -0,773
553,821;  387,134;   -1,082;    1,045
554,404;  640,079;    1,282;    1,136
554,986;  744,474;    0,464;    1,045
555,568;  585,214;    1,191;   -0,955
556,151;  786,946;    1,191;   -0,227
556,733;  470,097;   -0,264;   -0,864
557,315;  492,635;    0,100;    0,500
557,897;  369,442;    0,554;   -0,500
558,479;  371,721;   -1,991;    1,318
559,061;  465,617;   -0,719;   -0,864
559,643;  518,580;   -0,264;    0,045
560,225;  553,494;    1,645;    2,864
560,807;  400,853;    0,918;    0,318
561,389;  387,504;    0,554;    2,318
561,971;  475,330;    0,463;    2,136
562,553;  395,621;   -1,628;    1,591
563,135;  478,705;   -0,537;    1,136
563,717;  863,701;    3,372;    1,136
564,298;  753,183;    3,645;   -0,045
564,880;  519,203;    0,645;   -1,409
565,462;  346,658;    0,645;    1,318
566,043;  482,572;   -0,446;    2,318
566,625;  793,570;    1,918;    1,227
567,207;  602,617;    1,099;    1,682
567,788;  457,993;   -1,264;    1,500
568,370;  460,967;    1,917;   -0,500
568,951;  455,284;    0,190;    0,227
569,533;  560,822;   -0,628;   -0,500
570,114;  572,051;   -0,446;    0,682
570,695;  604,244;   -0,174;   -1,318
571,277;  579,730;   -0,265;   -1,682
571,858;  789,705;    2,008;   -1,136
572,439;  621,215;    1,554;   -1,045
573,021;  661,718;    2,099;   -2,773
573,602;  777,775;   -1,265;    0,318
574,183;  727,808;   -2,083;    2,227
574,764;  661,799;   -1,629;    0,409
575,345;  857,374;    0,917;   -0,136
575,926;  683,763;   -0,356;    0,136
576,507;  772,591;    1,099;   -0,227
577,088;  725,863;    3,099;    1,682
577,669;  910,548;    0,735;    1,955
578,250; 1093,990;    0,644;   -1,045
578,831;  879,078;   -1,356;   -2,227
579,412;  865,461;   -0,810;    0,955
579,993;  835,559;    1,008;    0,227
580,573;  738,562;   -0,629;   -0,955
581,154;  883,097;    0,735;   -0,591
581,735;  897,817;    0,644;    0,773
582,315; 1050,999;   -0,629;    2,136
582,896;  844,072;   -0,174;    1,227
583,477;  684,317;    0,189;    1,227
584,057;  821,013;    0,553;    0,955
584,638;  942,104;    2,553;    2,318
585,218; 1193,098;   -0,538;    2,682
585,799;  991,351;    0,281;   -0,227
586,379;  850,772;    0,372;    1,591
586,959;  823,083;    0,735;    0,318
587,540;  736,522;   -0,629;    2,227
588,120;  744,596;    1,007;   -0,045
588,700;  761,991;    2,553;    2,136
589,281;  943,652;    0,462;   -0,955
589,861;  801,032;    0,099;   -1,682
590,441;  656,748;    2,371;   -2,682
591,021;  750,738;   -0,265;   -2,591
591,601;  708,027;   -0,537;    0,500
592,181;  686,290;   -0,719;   -0,773
592,761;  589,919;    0,007;    1,409
593,341;  709,261;   -0,901;    0,045
593,921;  716,680;   -0,265;    1,591
594,501;  611,447;   -0,538;    1,318
595,081;  615,312;    0,917;   -0,318
595,661;  688,249;   -1,447;    0,955
596,240;  622,664;   -0,537;    0,136
596,820; 1047,343;    0,372;    1,955
597,400;  753,333;    2,008;    0,773
597,980;  647,008;    2,008;    1,045
598,559;  589,689;    2,735;   -0,227
599,139;  576,613;   -0,174;   -1,227
599,718;  581,613;   -0,174;   -0,409
600,298;  565,235;    0,735;    0,682
600,877; 1077,107;    2,917;    1,409
601,457;  767,240;    2,281;    1,136
602,036;  639,752;    0,190;    2,045
602,616;  694,551;    0,644;    1,682
603,195;  816,783;   -0,355;    3,500
603,774;  881,525;   -0,901;    2,045
604,354;  811,983;    0,826;   -0,500
604,933;  747,110;    0,463;    1,864
605,512;  838,627;    3,554;    0,591
606,091;  841,763;   -0,537;    3,773
606,671;  778,878;    0,281;    0,773
607,250;  960,519;    1,644;    3,136
607,829;  899,096;    2,372;    3,227
608,408;  740,394;    1,190;    2,591
608,987;  864,131;    1,281;    3,409
609,566;  672,070;   -1,265;   -2,500
610,145;  778,322;   -1,082;    0,682
610,723;  818,788;    4,372;    6,864
611,302;  729,107;   -0,446;    1,682
611,881; 1028,219;    5,008;   11,227
612,460;  718,681;    1,645;    3,955
613,039;  602,266;   -0,082;    2,045
613,617;  597,380;    1,736;    4,773
614,196;  604,136;    1,099;    1,227
614,775;  676,623;    1,009;    2,409
615,353;  741,230;    0,736;    0,864
615,932;  709,692;    0,100;    2,409
616,510;  686,984;    0,554;    0,591
617,089; 1209,699;    7,100;   17,591
617,667;  803,149;    2,372;    6,136
618,246;  559,937;   -1,537;    1,318
618,824;  636,037;   -3,355;   -0,955
619,402;  655,221;   -2,900;   -1,773
619,981;  720,369;   -0,173;   -1,045
620,559;  629,981;    0,009;    1,682
621,137;  651,087;   -0,718;    1,864
621,715;  554,007;   -1,173;   -0,682
622,293;  575,265;   -0,537;   -0,773
622,871;  586,362;   -0,718;    0,500
623,450;  535,211;    0,373;   -0,864
624,028;  731,889;    0,191;   -0,955
624,606;  691,224;   -1,718;    1,682
625,183;  505,914;   -1,536;   -1,136
625,761;  654,457;    1,009;    1,136
626,339;  946,782;    1,373;    2,591
626,917;  583,675;   -0,172;   -0,045
627,495;  535,957;   -0,354;    1,318
628,073;  665,736;   -0,263;    2,864
628,650;  683,616;    0,100;    2,136
629,228;  681,656;    0,373;    4,409
629,806;  494,167;    2,282;    1,136
630,383;  546,576;    1,464;   -0,318
630,961;  552,077;    2,555;   -0,955
631,539;  599,752;    2,464;    0,227
632,116; 1320,804;   11,373;   15,409
632,694;  923,582;    2,555;    6,500
633,271;  756,681;    0,828;    2,682
633,848;  864,626;    1,828;    2,045
634,426;  582,381;   -1,081;    1,773
635,003;  441,104;    1,101;   -0,409
635,580;  870,821;    1,192;    3,682
636,158;  738,257;    3,737;    1,227
636,735;  551,863;    0,555;   -0,500
637,312;  538,093;   -0,809;   -0,682
637,889;  546,367;   -4,354;   -0,682
638,466;  523,715;   -3,990;   -0,409
639,043;  574,549;    2,101;   -1,136
639,620;  494,091;   -2,262;   -0,955
640,197;  631,704;    1,100;    1,682
640,774;  446,165;   -0,172;    1,136
641,351;  519,990;    0,737;    1,136
641,928;  726,088;   -0,627;    1,409
642,505;  847,367;    0,828;   -0,500
643,082;  658,282;   -1,718;    1,227
643,658;  526,016;   -0,718;    1,500
644,235;  504,205;    1,191;    2,500
644,812;  696,484;    1,918;    0,773
645,388;  673,854;   -0,991;    1,409
645,965;  456,951;   -0,809;    1,682
646,542;  476,231;   -1,445;   -0,227
647,118;  868,783;    1,009;   -0,955
647,695;  640,698;   -0,263;    1,136
648,271;  461,432;   -0,536;    0,500
648,848;  629,620;    0,736;    2,227
649,424;  760,718;    0,827;    1,318
650,000;  580,179;   -0,354;   -1,045
650,577;  605,822;   -0,627;   -0,955
651,153;  603,737;   -1,809;    0,955
651,729;  555,289;    1,191;    0,864
652,305;  930,841;    0,645;    2,773
652,881;  884,393;   -0,082;    1,136
653,458; 1031,309;    1,100;    0,227
654,034; 1123,770;    0,282;    1,591
654,610; 1259,140;    0,554;    0,773
655,186; 1770,874;    0,645;    3,045
655,762; 1290,426;   -0,991;    0,409
656,338; 1265,705;    0,100;    0,136
656,913; 1351,075;   -0,082;    0,409
657,489; 1123,354;    0,827;   -0,318
658,065; 1231,543;   -0,173;   -1,591
658,641; 1261,640;   -0,900;   -0,864
659,217; 1178,010;   -0,991;    0,409
659,792; 1336,744;    0,645;   -0,409
660,368; 1131,569;   -2,173;   -0,682
660,944; 1159,666;   -2,082;    1,227
661,519; 1061,855;   -0,628;    0,409
662,095;  767,952;   -1,719;    0,591
662,670;  604,959;    1,281;   -0,136
663,246;  516,056;    1,009;   -0,409
663,821;  682,335;    0,281;    1,682
664,396;  626,978;    0,009;    1,864
664,972;  538,257;    0,009;   -0,500
665,547;  598,173;    1,372;    0,136
666,122;  574,634;   -1,082;    0,318
666,698;  768,913;   -0,173;    0,318
667,273;  546,829;   -0,173;    0,136
667,848;  586,745;    2,372;    1,500
668,423;  753,206;    2,190;    2,318
668,998;  596,848;    2,827;   -0,682
669,573;  558,310;   -3,264;   -1,500
670,148;  757,498;   -1,446;   -0,682
670,723;  524,413;   -1,810;    0,318
671,298;  814,784;    2,372;    1,045
671,873;  718,881;   -0,082;   -0,136
672,448;  713,888;    0,645;    0,136
673,023;  701,349;   -1,992;   -0,227
673,597;  796,264;    0,827;    2,318
674,172;  849,543;   -0,355;    0,318
674,747;  755,277;    0,372;   -1,045
675,321;  510,102;   -0,628;    3,318
675,896;  458,290;    0,645;    1,045
676,471;  684,933;    2,645;    1,591
677,045;  604,849;   -1,264;    0,682
677,620;  700,855;    0,190;    1,136
678,194;  529,498;   -2,628;    1,136
678,769;  604,868;   -1,083;   -0,318
679,343;  663,875;   -0,628;    1,773
679,917;  787,700;   -1,446;    1,955
680,492;  634,797;    0,826;    3,227
681,066;  673,076;    3,372;    0,409
681,640;  594,446;    1,463;   -0,318
682,214;  617,362;    0,735;    0,500
682,788;  614,096;   -1,356;   -0,773
683,363;  769,466;   -1,810;    1,682
683,937;  636,109;   -1,719;   -0,318
684,511;  663,297;    0,463;   -0,591
685,085;  677,758;   -1,356;    0,318
685,659;  585,947;   -2,538;    0,864
686,232;  839,499;   -0,356;   -0,318
686,806;  704,960;   -0,901;    0,409
687,380;  581,875;   -0,174;    0,591
687,954;  522,882;   -1,174;    1,136
688,528;  856,434;   -0,719;    1,955
689,101;  672,986;   -3,992;    1,045
689,675;  568,629;   -0,356;   -0,136
690,249;  826,090;   -0,719;    0,409
690,822;  816,278;    0,280;    0,318
691,396;  700,375;   -0,265;    1,227
691,969;  618,473;    1,280;    0,136
692,543;  507,207;   -0,447;   -1,955
693,116;  495,759;   -0,265;   -1,409
693,690;  585,129;    0,099;    0,500
694,263;  523,681;   -1,083;    2,955
694,836;  898,051;    1,371;    3,591
695,410;  779,694;   -0,265;    1,773
695,983;  794,337;    0,189;    0,591
696,556;  590,889;   -0,447;   -1,045
697,129;  498,531;   -0,356;    1,409
697,703;  737,811;   -1,629;    1,955
698,276;  621,181;    1,462;   -0,773
698,849;  781,551;    1,280;    1,409
699,422;  543,194;   -1,083;    0,591
699,995;  441,928;    0,007;    0,136
700,568;  586,571;   -0,629;    3,045
701,140;  608,486;   -2,811;    1,682
701,713;  769,765;   -0,174;    2,409
702,286;  665,954;   -0,538;    0,864
702,859;  740,051;   -0,902;   -0,591
703,432;  836,876;    0,825;    0,682
704,004;  703,701;    0,462;    0,318
704,577;  586,343;   -0,629;    0,136
705,150;  635,168;    0,189;    2,500
705,722;  693,993;   -0,356;   -3,227
706,295;  761,272;   -0,175;   -0,591
706,867;  635,279;   -0,175;    1,955
707,440;  728,194;   -1,720;   -0,409
708,012;  802,383;    0,462;    0,591
708,584;  718,207;    2,462;    0,227
709,157;  488,850;    1,825;   -0,591
709,729;  725,584;    2,280;    2,045
710,301;  573,045;    0,734;    0,045
710,874;  584,324;   -1,447;   -0,227
711,446;  484,149;    0,371;    0,864
712,018;  557,792;    0,098;    0,500
712,590;  508,071;   -1,993;    1,682
713,162;  791,168;    0,825;    1,318
713,734;  575,175;    1,825;   -2,045
714,306;  484,727;   -1,902;   -0,409
714,878;  551,552;    0,825;    0,864
715,450;  496,831;    0,643;    0,864
716,022;  509,383;    1,552;    1,318
716,593;  499,480;    0,189;    0,591
717,165;  554,123;   -3,175;   -1,227
717,737;  815,857;    0,280;    0,409
718,309;  588,863;    0,280;   -0,045
718,880;  515,415;   -0,539;   -1,409
719,452;  590,331;   -0,175;   -1,591
720,024;  686,156;    0,734;   -0,591
720,595;  571,799;   -2,902;    0,955
721,167;  564,714;    0,370;   -2,045
721,738;  692,539;   -0,812;   -1,045
722,309;  838,364;   -0,993;   -1,227
722,881;  563,552;   -1,357;    0,773
723,452;  643,831;   -2,630;    2,864
724,023;  652,565;   -0,721;    2,682
724,595;  724,208;    0,007;    0,682
725,166;  593,305;    0,007;   -0,409
725,737;  792,039;    1,734;    0,227
726,308;  580,318;   -0,266;    0,318
726,879;  486,143;   -1,630;    1,227
727,450;  666,968;    0,552;   -0,045
728,021;  592,247;    3,097;    0,682
728,592;  763,344;    0,734;    0,500
729,163;  846,715;    0,643;   -0,136
729,734;  829,357;    0,188;   -0,227
730,305;  690,728;    1,734;    0,136
730,876;  652,552;    0,188;    2,955
731,447;  979,650;    2,188;    2,682
732,017;  864,838;    1,097;    1,864
732,588;  659,390;    0,734;    1,227
733,159;  924,578;    0,643;   -1,045
733,729;  656,676;    0,006;    0,409
734,300;  820,682;    0,915;    0,864
734,870;  631,143;    3,461;    0,591
735,441;  614,695;    0,370;   -0,591
736,011;  604,247;    0,643;   -1,591
736,582;  611,345;   -0,812;    0,045
737,152;  747,533;   -1,721;   -2,045
737,722;  710,721;   -0,267;   -0,682
738,293;  556,092;   -1,358;    1,318
738,863;  743,189;    2,461;    2,318
739,433; 1012,832;    5,279;    0,318
740,003;  713,475;   -0,994;   -0,682
740,573;  851,027;    2,097;   -1,591
741,143;  711,761;   -1,085;    0,318
741,713;  608,313;    1,188;   -0,500
742,283;  681,228;    0,915;    1,591
742,853;  627,053;    1,915;    1,591
743,423;  447,150;    1,733;    0,045
743,993;  562,884;   -0,358;    1,500
744,563;  614,891;    0,097;   -0,864
745,133;  645,806;   -0,812;   -0,864
745,702;  517,722;   -0,267;    1,773
746,272;  740,910;   -0,176;    0,591
746,842;  757,462;   -1,358;   -0,591
747,411;  551,741;   -0,267;   -0,318
747,981;  443,293;    0,097;    0,500
748,551;  439,391;    2,278;   -1,045
749,120;  643,125;    0,642;   -0,227
749,690;  591,404;   -0,631;    2,409
750,259;  701,138;    1,369;    2,955
750,828;  761,962;    1,551;   -1,955
751,398;  528,332;    1,278;   -0,045
751,967; 1014,339;    2,187;    0,409
752,536;  653,982;   -0,813;   -0,227
753,105;  769,716;    0,096;    0,227
753,675;  604,722;    0,096;    1,773
754,244;  610,001;   -0,904;    3,591
754,813;  647,008;    0,551;    1,227
755,382;  607,742;    0,460;    0,955
755,951;  738,839;    1,551;    3,682
756,520;  853,118;   -0,085;    1,864
757,089;  957,307;    0,278;    0,500
757,658;  687,768;    1,733;    1,227
758,227;  518,774;    1,096;    0,318
758,795;  579,508;    1,187;    1,136
759,364;  579,333;   -0,086;   -0,591
759,933;  528,339;   -1,176;   -0,045
760,501;  461,982;    0,733;   -1,318
761,070;  631,625;   -2,813;   -1,409
761,639;  577,450;   -1,904;    1,318
762,207;  716,274;    1,551;   -0,955
762,776;  764,917;    0,369;    0,864
763,344;  613,742;   -0,995;    0,591
763,913;  413,567;   -0,722;    1,409
764,481;  942,391;    1,005;   -0,136
765,049;  949,125;   -1,358;    1,409
765,618;  856,223;   -0,086;    0,318
766,186;  657,865;    0,278;    0,136
766,754;  712,872;    0,005;    1,864
767,322;  597,060;   -1,995;    0,409
767,890;  548,794;   -0,722;   -1,773
768,459;  547,437;   -2,177;   -0,318
769,027;  769,353;    1,641;    3,409
769,595;  589,541;    3,278;    2,591
770,163;  683,366;    3,823;    2,955
770,730;  665,281;    0,732;   -0,136
771,298;  646,197;    0,187;   -1,409
771,866;  568,476;   -1,541;    4,955
772,434;  599,664;   -0,631;   -1,864
773,002;  804,853;    0,005;    0,682
773,569;  672,132;    0,914;    1,682
774,137;  791,502;   -0,268;   -0,045
774,705;  574,691;    0,278;   -0,136
775,272;  556,788;    0,641;    0,682
775,840;  575,522;   -0,177;    2,682
776,407;  693,528;    0,277;    1,955
776,975;  572,262;   -0,632;    0,318
777,542;  501,541;   -1,086;   -0,045
778,110;  538,911;   -1,268;   -0,045
778,677;  423,463;   -2,359;   -0,864
779,244;  499,834;    2,186;    1,045
779,812;  656,749;    1,823;    0,864
780,379;  747,574;    0,005;    1,136
780,946;  616,308;    1,005;   -0,773
781,513;  510,496;   -1,450;    0,318
782,080;  492,866;   -0,086;    2,864
782,647;  520,054;   -0,268;    3,045
783,214;  497,788;   -0,177;    3,864
783,781;  712,522;   -0,723;   -0,682
784,348;  658,074;   -0,632;    1,500
784,915;  431,444;   -3,177;    0,318
785,482;  661,633;    1,368;    2,591
786,049;  588,821;    0,186;   -0,591
786,615;  469,555;    0,277;   -0,955
787,182;  431,016;    0,186;   -0,682
787,749;  401,568;   -2,814;    1,409
788,315;  647,392;   -1,632;   -0,409
788,882;  519,217;    1,550;   -1,227
789,448;  807,678;    1,732;   -0,955
790,015;  576,866;    1,095;    3,227
790,581;  765,418;    1,459;    0,227
791,148;  584,061;    0,641;    1,045
791,714;  464,522;   -0,541;    3,136
792,280;  477,529;    0,186;    1,591
792,847;  418,354;    0,550;    2,500
793,413;  507,906;   -0,269;   -0,318
793,979;  726,185;    3,459;   -1,318
794,545; 1009,191;    4,459;    2,682
795,111;  886,471;    2,186;    1,318
795,678;  735,204;    0,731;   -1,682
796,244;  892,847;    3,368;    0,136
796,810;  741,217;    1,731;    0,773
797,375;  737,678;    0,549;   -2,136
797,941;  416,594;   -0,541;    0,591
798,507;  425,873;   -0,451;   -0,955
799,073;  465,880;   -0,360;    0,591
799,639;  454,886;   -2,632;    3,136
800,205;  409,257;    0,095;    2,682
800,770;  454,627;    0,640;    1,773
801,336;  467,270;    1,368;   -0,955
801,901; 1064,458;    4,549;    3,136
802,467;  715,737;   -0,542;    2,045
803,033;  500,289;   -0,087;    0,864
803,598;  493,841;    1,913;   -1,045
804,163;  500,120;    1,095;   -0,318
804,729;  600,309;   -0,178;    1,136
805,294;  497,861;    0,822;    2,227
805,859;  434,322;    0,731;   -0,409
806,425;  826,692;    1,186;    2,682
806,990;  799,426;    2,186;    4,318
807,555;  548,887;   -1,451;    2,591
808,120;  706,166;    0,822;   -0,409
808,685;  503,809;    0,185;   -2,500
809,250;  415,815;    0,004;   -0,500
809,815;  396,095;    1,913;    0,682
810,380;  529,919;   -0,269;    1,591
810,945;  703,835;   -1,087;    2,045
811,510;  532,841;    2,094;    1,591
812,075;  604,030;   -0,633;   -1,409
812,640;  837,673;    2,003;    1,409
813,204;  586,406;    0,822;   -0,227
813,769;  726,958;    2,094;   -0,045
814,334;  715,056;    0,458;    0,864
814,898;  441,699;    0,367;    0,591
815,463;  558,887;    1,276;   -0,773
816,027;  495,530;   -0,724;   -2,318
816,592;  413,718;    0,640;   -2,045
817,156;  599,997;    2,094;    1,136
817,721;  716,368;    4,276;    2,318
818,285;  447,283;    2,912;    1,500
818,849;  507,290;   -1,451;    1,682
819,414;  436,569;   -0,269;    2,955
819,978;  384,848;   -1,269;    1,773
820,542;  673,855;    2,003;    0,500
821,106;  503,861;   -0,815;    0,682
821,670;  730,868;   -0,815;    2,591
822,234;  498,783;   -0,270;    1,409
822,798;  394,517;    0,003;    0,500
823,362;  623,887;   -0,633;    4,227
823,926;  478,530;    0,094;    1,136
824,490;  672,173;   -0,997;   -0,682
825,054;  541,998;   -0,088;   -1,136
825,618;  433,004;   -1,542;   -1,500
826,181;  494,920;    0,458;   -1,318
826,745;  600,290;    1,367;   -1,045
827,309;  807,024;    1,185;    1,318
827,872;  677,758;    1,367;    0,955
828,436;  561,764;    1,185;   -0,773
828,999;  458,043;   -0,997;    1,227
829,563;  438,504;   -0,179;    1,136
830,126;  422,875;   -0,179;   -0,591
830,690;  537,427;   -1,997;    2,864
831,253;  451,433;   -0,543;    2,227
831,816;  497,349;   -1,906;    0,500
832,380;  454,810;    0,185;    0,864
832,943;  425,453;   -1,361;   -0,500
833,506;  438,459;    2,639;   -1,227
834,069;  589,466;    3,912;   -0,955
834,632;  429,290;    1,730;    1,318
835,195;  483,842;    1,003;    0,955
835,758;  420,394;   -0,997;    1,955
836,321;  435,401;    0,730;   -1,045
836,884;  399,771;   -0,725;   -0,955
837,447;  348,323;   -2,816;    1,773
838,010;  536,784;    0,366;    3,227
838,573;  533,336;   -1,179;    0,773
839,135;  389,888;   -1,361;   -0,955
839,698;  468,258;    1,275;    0,409
840,261;  408,992;    1,003;   -0,227
840,823;  368,998;   -0,543;    0,864
841,386;  354,550;   -0,452;   -2,409
841,948;  656,284;   -1,361;    1,773
842,511;  445,745;    0,912;    1,682
843,073;  640,570;    1,912;    0,227
843,636;  398,758;   -0,361;   -0,227
844,198;  613,947;    0,911;    0,591
844,760;  573,317;    1,093;    1,955
845,322;  375,505;    0,548;    1,136
845,885;  517,148;    0,730;    0,591
846,447;  449,336;   -1,998;    0,227
847,009;  783,161;    1,911;   -0,682
847,571;  495,804;    0,820;   -2,045
848,133;  444,720;   -1,089;   -1,864
848,695;  305,453;   -0,543;    1,409
849,257;  387,824;   -1,089;   -1,682
849,819;  541,285;   -0,998;   -0,409
850,381;  410,564;   -0,725;   -0,864
850,942;  474,934;    1,093;   -0,591
851,504;  549,395;    1,184;    0,227
852,066;  400,402;    1,275;   -1,591
852,628;  441,317;   -0,180;    1,955
853,189;  347,687;    1,638;    2,682
853,751;  354,694;   -0,907;    1,409
854,312;  507,973;   -0,453;   -1,682
854,874;  640,070;   -2,089;   -0,773
855,435;  452,622;   -0,907;   -1,682
855,997;  479,902;   -1,816;   -0,136
856,558;  601,999;    0,366;    1,773
857,119;  524,733;    0,820;    2,864
857,681;  361,194;    0,002;    0,318
858,242;  630,564;    1,911;   -2,136
858,803;  577,662;    0,456;   -0,773
859,364;  446,032;    0,184;   -4,773
859,925;  534,038;   -2,453;   -0,955
860,486;  411,408;   -0,453;   -0,955
861,047;  359,688;   -0,544;   -1,227
861,608;  407,240;   -1,089;   -0,773
862,169;  271,064;    0,638;   -0,045
862,730;  398,344;    0,456;    1,409
863,291;  443,623;   -0,635;   -0,500
863,852;  418,720;   -0,635;    1,955
864,412;  423,636;   -0,271;   -0,864
864,973;  662,824;   -0,089;    0,500
865,534;  766,740;   -1,726;    0,227
866,094;  547,110;    1,820;    0,227
866,655;  687,389;    1,274;    3,318
867,215;  494,123;    0,274;    0,136
867,776;  346,220;    0,547;   -0,136
868,336;  442,227;   -1,453;    0,136
868,897;  809,233;    2,638;    1,682
869,457;  598,513;    1,365;    0,318
870,017;  392,701;    0,547;   -1,227
870,578;  374,708;   -0,817;    0,773
871,138;  472,441;   -2,089;   -0,955
871,698;  390,539;   -0,817;   -1,318
872,258;  504,273;   -0,453;   -2,864
872,818;  651,825;    2,729;    0,045
873,378;  469,467;    0,638;    1,045
873,938;  455,019;    0,547;    0,500
874,498;  364,208;    0,274;   -1,955
875,058;  467,760;    2,183;    1,773
875,618;  462,130;    1,910;   -2,682
876,177;  497,045;    1,274;    0,136
876,737;  335,688;   -0,090;    1,955
877,297;  693,604;    0,183;    1,955
877,856;  625,156;   -0,362;    0,318
878,416;  397,617;    1,183;   -0,136
878,976;  351,896;   -1,817;    0,409
879,535;  398,721;    0,092;    3,136
880,095;  378,909;   -0,544;    0,045
880,654;  333,552;   -1,090;    1,318
881,213;  627,468;    2,456;    1,500
881,773;  469,929;    2,637;    2,682
882,332;  931,844;    3,365;    5,136
882,891;  452,760;    3,092;    2,136
883,451;  439,585;   -1,272;    1,682
884,010;  406,409;   -2,908;   -0,409
884,569;  343,143;   -0,999;   -0,045
885,128;  515,513;    2,819;   -1,864
885,687;  747,974;    4,455;    0,682
886,246;  915,072;    1,455;    2,136
886,805;  723,897;    2,455;    2,045
887,364;  389,176;   -0,999;   -0,500
887,922;  321,273;   -1,181;    0,045
888,481;  519,734;   -1,545;    0,591
889,040;  576,468;    1,183;    2,136
889,599;  458,838;    2,455;    1,409
890,157;  459,208;    1,455;    2,409
890,716;  397,579;   -0,090;    0,227
891,274;  520,312;    0,092;   -1,136
891,833;  573,137;    1,546;    0,864
892,391;  474,053;   -0,454;    0,500
892,950;  552,968;    1,819;   -0,773
893,508;  368,793;    0,455;   -0,409
894,067;  297,163;    0,637;    0,136
894,625;  398,260;   -0,636;   -1,500
895,183;  359,267;   -0,363;   -0,682
895,741;  623,546;    1,728;   -1,773
896,299;  423,280;   -0,545;   -2,409
896,858;  373,741;    0,819;   -1,591
897,416;  505,657;    2,728;   -1,318
897,974;  432,391;    1,819;    0,318
898,532;  857,306;    6,091;    2,682
899,089;  567,040;    2,091;   -0,682
899,647;  471,137;   -1,454;    1,318
900,205;  467,598;    1,182;    1,045
900,763;  454,696;   -0,454;    0,227
901,321;  409,793;    2,364;   -1,409
901,878;  258,072;   -1,000;   -0,773
902,436;  343,261;   -1,363;    1,318
902,994;  997,904;    4,728;    3,682
903,551;  581,365;    0,728;    0,409
904,109;  450,462;    0,182;   -1,409
904,666;  409,287;    2,455;    1,045
905,224;  301,839;    0,182;   -0,409
905,781;  470,027;    0,727;   -0,318
906,338;  409,034;   -1,363;    1,045
906,895;  314,040;    0,637;    2,045
907,453;  567,683;    1,727;    1,136
908,010;  428,235;   -0,909;    0,409
908,567;  418,605;    1,273;    0,591
909,124;  275,612;    0,364;   -1,500
909,681;  341,346;   -2,909;    0,682
910,238;  367,988;    0,636;   -1,318
910,795;  270,722;   -0,273;   -1,136
911,352;  290,086;   -2,909;   -2,682
911,909;  329,995;   -1,364;   -0,864
912,466;  337,268;   -3,182;    1,500
913,022;  443,086;   -1,636;    0,500
913,579;  510,177;   -0,909;    2,045
914,136;  402,631;    1,636;    0,955
914,692;  395,540;    0,091;   -1,227
915,249;  427,177;    1,455;    0,409
915,806;  483,540;    0,182;    1,955
916,362;  390,722;    1,909;    1,864
916,918;  373,904;    2,000;    1,045
917,475;  484,449;   -1,182;    0,955
918,031;  332,268;    3,364;   -0,045
918,587;  405,359;   -0,909;   -0,318
919,144;  326,177;   -2,273;    0,227
919,700;  255,086;    1,727;    0,773
920,256;  269,995;    0,727;    0,045
920,812;  326,086;   -0,727;   -1,045
921,368;  290,904;   -1,727;   -1,045
921,924;  320,359;    0,182;   -0,136
922,480;  406,268;   -0,545;    1,227
923,036;  406,722;    1,273;    1,955
923,592;  313,177;    0,455;    0,318
924,148;  332,177;    0,455;   -0,955
924,704;  457,540;   -1,364;   -0,409
925,259;  287,540;   -0,273;    0,591
925,815;  293,177;    1,455;    0,500
926,371;  272,904;    2,909;    1,409
926,926;  414,359;    2,091;    0,591
927,482;  390,177;   -1,364;    0,773
928,037;  326,540;    0,909;    2,045
928,593;  486,449;    1,636;    1,045
929,148;  289,540;   -1,818;   -1,500
929,704;  360,177;   -1,455;   -0,500
930,259;  294,449;    0,091;   -0,136
930,814;  449,813;   -0,818;    1,955
931,369;  395,268;    1,091;   -0,773
931,925;  249,631;   -0,091;    0,136
932,480;  337,631;   -2,818;   -2,591
933,035;  629,631;    0,545;   -0,318
933,590;  538,359;    0,364;   -1,773
934,145;  253,177;   -1,364;   -0,318
934,700;  171,359;    0,455;   -0,591
935,255;  227,995;   -0,091;    0,045
935,809;  500,813;    3,182;    0,864
936,364;  234,359;   -0,455;   -0,136
936,919;  227,995;    0,455;   -1,773
937,474;  174,268;    1,455;    0,136
938,028;  179,086;   -1,636;    1,136
938,583;  511,631;    1,818;    4,682
939,138;  255,995;    2,091;    2,136
939,692;  154,813;    1,636;   -1,136
940,247;  200,086;   -0,727;   -1,045
940,801;  228,813;   -0,636;    0,227
941,355;  162,813;   -0,364;    2,591
941,910;  122,268;   -0,273;   -2,136
942,464;  142,904;   -0,818;   -0,318
943,018;  302,813;    1,000;   -0,227
943,572;  194,268;    2,545;   -0,682
944,126;  252,086;    0,091;   -0,409
944,681;  168,995;    3,091;    0,227
945,235;  125,995;    1,000;   -0,591
945,789;  109,086;    0,364;   -1,864
946,342;  290,813;    0,455;   -0,591
946,896;  142,995;   -2,273;    0,955
947,450;  117,904;    1,545;   -0,227
948,004;  284,540;    1,727;   -0,045
948,558;  167,904;    0,273;   -0,864
949,111;  157,813;   -0,273;   -0,318
949,665;  280,540;    1,636;   -0,682
950,219;  257,722;   -0,091;   -1,045
950,772;  198,268;   -1,909;    1,864
951,326;  188,722;    0,545;   -0,955
951,879;  157,268;    0,727;   -2,318
952,433;  245,177;    0,000;    2,227
952,986;  139,722;    2,909;    0,682
953,539;  122,359;   -0,273;    0,591
954,093;   95,177;    0,545;   -1,318
954,646;  166,086;    0,909;    1,318
955,199;  114,995;    0,000;   -0,500
955,752;  273,813;   -0,455;    1,773
956,305;  170,813;   -0,091;    2,955
956,858;  196,631;    0,818;   -0,318
957,411;  228,631;   -0,545;    2,136
957,964;  185,813;    1,364;    2,136
958,517;  125,449;   -1,545;    3,136
959,070;   99,086;   -0,455;    1,955
959,623;  271,268;    1,091;    1,500
960,176;  246,086;    1,727;    2,045
960,728;  206,268;   -2,727;    0,773
961,281;  170,540;    0,545;    0,500
961,834;  126,086;   -0,909;    0,864
962,386;  138,995;    1,727;    1,045
962,939;  121,995;    0,364;   -0,318
963,491;  150,995;    0,455;    1,136
964,043;  109,449;    1,182;    2,409
964,596;  210,540;   -1,000;    2,227
965,148;  151,177;   -1,000;    1,773
965,700;  106,086;    1,091;   -0,227
966,253;  213,086;   -0,636;    0,318
966,805;  179,540;   -2,273;    0,773
967,357;  139,449;    1,091;   -1,500
967,909;  206,631;    0,455;   -1,227
968,461;  142,086;    0,545;    3,136
969,013;  111,268;   -0,182;   -0,864
969,565;  213,177;   -0,455;   -1,136
970,117;  352,086;   -0,364;    1,045
970,669;  211,359;    0,182;   -0,136
971,220;   88,904;   -0,455;   -1,500
971,772;  143,449;   -0,636;   -0,318
972,324;  196,449;    0,091;   -0,500
972,876;  128,722;    0,818;   -0,045
973,427;  198,540;    1,909;   -1,045
973,979;  252,268;   -0,727;   -2,500
974,530;  132,631;    1,818;    1,318
975,082;  176,359;   -0,545;    1,682
975,633;  141,904;    1,091;    1,682
976,184;  158,904;    0,909;    0,773
976,736;  157,086;    0,091;    0,227
977,287;  179,813;   -0,909;   -0,500
977,838;  143,268;    0,909;   -0,318
978,389;  143,904;   -1,000;   -0,500
978,940;   79,449;    0,545;   -0,409
979,491;   79,904;    0,091;   -0,500
980,042;  136,722;    0,182;    3,045
980,593;  147,086;   -2,545;    0,227
981,144;  192,813;    2,545;   -0,500
981,695;  203,086;    1,455;    1,500
982,246;  178,722;   -0,273;    1,045
982,797;  103,904;   -1,727;    0,682
983,347;  187,177;    0,364;    0,591
983,898;  315,268;    3,091;    0,409
984,449;  295,631;    2,182;    0,773
984,999;  192,086;    1,455;   -1,136
985,550;  165,631;    0,182;   -0,318
986,100;   93,904;   -0,455;   -0,318
986,651;   90,904;   -0,818;    0,045
987,201;  104,449;   -1,000;   -0,591
987,751;  109,086;    0,818;    2,864
988,302;  131,268;    2,636;    1,500
988,852;  171,359;    0,455;   -1,136
989,402;  196,086;    0,091;    0,682
989,952;  218,631;   -2,182;    0,864
990,502;  123,086;   -0,091;    0,682
991,052;   70,631;   -0,727;    0,045
991,602;  105,722;   -2,909;    1,318
992,152;  129,086;    0,455;    0,682
992,702;  150,086;    1,364;   -0,045
993,252;  115,359;   -3,000;   -0,500
993,802;  171,268;   -0,273;    1,318
994,352;  140,995;   -1,545;    1,136
994,901;   88,268;   -0,182;    3,227
995,451;   82,177;   -0,182;    0,318
996,000;   97,813;    1,636;    0,318
996,550;  112,722;    2,273;    0,227
997,100;  131,086;    1,273;   -0,045
997,649;  211,449;    2,182;    0,955
998,198;  114,722;    1,727;   -1,500
998,748;  166,722;    1,091;   -2,318
999,297;  134,540;   -0,818;   -0,409
999,846;  210,904;    1,000;   -0,773
1000,395;  150,359;   -0,818;    0,500
1000,945;  217,359;    1,818;   -0,773
1001,494;  216,177;    2,364;    0,682
1002,043;  219,631;    4,636;    0,864
1002,592;  118,995;   -1,091;    1,955
1003,141;  101,449;   -0,455;   -0,682
1003,690;  210,813;    1,727;    0,500
1004,238;  134,631;    1,455;   -0,045
1004,787;   89,177;    1,364;    1,227
1005,336;  183,086;    0,364;    0,682
1005,885;  146,359;    1,364;   -2,773
1006,433;  143,722;    0,545;    0,955
1006,982;  242,631;    0,455;    1,682
1007,531;  159,722;   -1,818;   -0,227
1008,079;  140,268;   -2,273;    0,500
1008,627;  108,722;   -1,455;    0,409
1009,176;  127,540;    0,000;   -1,955
1009,724;   98,268;    1,091;    0,864
1010,273;  184,086;    1,273;    0,500
1010,821;  111,359;    0,091;    1,409
1011,369;   90,086;   -1,364;    1,318
1011,917;   98,995;   -1,364;   -0,591
1012,465;  141,813;    1,273;   -1,591
1013,013;  129,904;    2,091;   -1,682
1013,561;  196,540;    0,455;   -0,773
1014,109;  254,540;   -1,909;    1,682
1014,657;  173,722;    0,364;    0,591
1015,205;  119,540;    1,636;   -0,955
1015,753;   91,631;   -0,545;   -1,409
1016,301;  137,177;   -2,636;    3,045
1016,848;  183,449;   -1,273;    0,409
1017,396;  171,177;    2,545;    0,045
1017,944;  164,995;    1,182;    1,864
1018,491;  123,631;    0,273;    1,409
1019,039;  290,722;    0,455;    0,591
1019,586;  152,540;   -1,364;    1,682
1020,134;  146,540;    0,455;    1,500
1020,681;  200,722;    0,182;   -1,136
1021,228;  146,359;    2,909;   -2,227
1021,776;  126,722;    1,182;   -1,136
1022,323;  263,722;    0,455;    0,773
1022,870;  195,359;   -1,000;   -0,045
1023,417;  223,904;    2,636;    1,864
1023,964;  138,086;    2,636;    1,227
1024,511;  117,177;    1,000;    0,773
1025,058;  149,813;    3,182;   -0,045
1025,605;  121,540;   -2,273;    3,136
1026,152;  236,631;    1,727;   -0,591
1026,699;  149,086;    1,818;    1,318
1027,245;  139,359;   -0,091;    0,318
1027,792;  102,631;   -1,000;    1,409
1028,339;  244,268;    2,364;   -0,045
1028,885;  156,449;    1,000;   -0,227
1029,432;  128,359;   -0,091;    0,227
1029,978;  181,177;   -1,000;   -1,591
1030,525;  188,904;    1,000;    0,409
1031,071;  112,177;   -1,364;    1,136
1031,618;  277,904;    0,364;    1,682
1032,164;  179,086;   -0,091;    3,045
1032,710;  203,631;    1,636;   -1,500
1033,256;  179,540;   -0,636;   -0,136
1033,803;  100,449;   -0,545;    1,500
1034,349;   37,359;   -1,364;    0,136
1034,895;   59,177;    0,000;   -0,318
1035,441;  100,995;   -0,818;    0,318
1035,987;  127,631;   -2,364;   -0,682
1036,533;  164,904;   -1,455;   -0,955
1037,078;  296,813;    1,455;    1,682
1037,624;  201,449;    2,455;   -0,955
1038,170;  118,086;    0,455;   -0,318
1038,716;  165,359;    1,636;   -0,409
1039,261;  104,995;   -2,273;   -0,773
1039,807;  111,631;   -0,091;    3,409
1040,352;  117,268;   -1,909;   -0,318
1040,898;  114,995;   -1,545;   -0,682
1041,443;   85,359;   -1,455;   -2,591
1041,989;  274,631;    1,091;    1,591
1042,534;  152,177;   -0,364;    2,591
1043,079;   78,813;    2,909;    0,955
1043,625;  136,177;    1,818;    0,500
1044,170;  140,995;   -1,364;    1,045
1044,715;  259,177;    2,455;    0,955
1045,260;  199,359;    2,182;   -0,955
1045,805;  110,449;    1,182;   -0,591
1046,350;   95,540;    1,364;   -0,409
1046,895;  206,086;    2,909;    1,591
1047,440;  187,177;    5,364;    0,409
1047,985;  116,540;    2,818;   -0,955
1048,530;  100,904;    1,545;    1,227
1049,074;  128,813;    0,000;    0,318
1049,619;  100,995;   -1,364;    1,955
1050,164;   95,722;    0,455;    0,227
1050,708;  153,813;   -0,455;    0,045
1051,253;  289,540;    1,273;   -2,227
1051,797;  167,995;    0,818;   -1,318
1052,342;   81,086;   -1,182;    1,045
1052,886;  128,813;    0,364;   -1,409
1053,430;   77,086;   -1,364;    0,136
1053,975;  133,631;   -0,818;   -0,318
1054,519;  123,449;   -0,727;    3,227
1055,063;  156,813;    0,909;    1,318
1055,607;  156,268;   -0,182;    0,227
1056,151;  152,631;    2,909;    1,682
1056,695;  107,086;    2,273;   -1,136
1057,239;  103,995;   -1,727;   -0,682
1057,783;  130,268;    0,818;   -1,500
1058,327;  172,813;    0,000;    1,409
1058,871;  261,086;   -0,545;    1,318
1059,415;  186,631;   -0,818;   -0,045
1059,958;  267,449;    1,455;    2,591
1060,502;  117,540;   -1,000;   -0,773
1061,046;   71,449;    0,364;   -0,955
1061,589;   70,722;   -3,000;   -1,136
1062,133;   58,995;   -1,273;    1,864
1062,676;   86,359;    1,182;    0,864
1063,220;  102,177;    1,091;    0,500
1063,763;  117,359;    0,909;    1,136
1064,306;  125,813;   -0,909;    1,864
1064,849;  131,177;   -0,909;    0,591
1065,393;  113,086;    2,000;   -1,500
1065,936;  112,722;    0,182;   -0,409
1066,479;   79,722;   -1,455;    1,318
1067,022;   91,359;   -0,273;   -0,227
1067,565;   75,904;   -0,091;   -1,318
1068,108;   64,631;    0,727;   -0,591
1068,651;   56,631;   -0,636;    1,409
1069,194;   60,177;   -0,455;   -1,682
1069,736;   67,177;   -1,273;    0,955
1070,279;   58,813;   -1,364;   -0,500
1070,822;  100,449;   -2,000;   -0,318
1071,364;  172,904;   -0,364;    1,318
1071,907;  101,722;   -0,727;    3,227
1072,450;   31,722;    0,000;   -0,045
1072,992;   63,904;   -0,273;    3,136
1073,535;   95,449;    2,091;    2,136
1074,077;   61,449;   -0,727;    2,045
1074,619;   52,722;   -1,364;    0,591
1075,161;   74,904;   -1,091;    1,500
1075,704;  141,177;    1,545;    1,227
1076,246;   78,540;   -0,182;    0,682
1076,788;   47,540;   -0,364;    1,773
1077,330;   41,813;    1,273;    2,136
1077,872;   64,813;    0,909;    0,955
1078,414;  152,904;    2,727;    0,773
1078,956;   79,722;    1,273;   -0,227
1079,498;  141,540;    1,636;    0,318
1080,040;   78,995;    1,909;   -1,318
1080,581;   60,722;    1,636;   -0,318
1081,123;   31,995;    0,091;   -0,773
1081,665;   40,722;   -1,182;   -0,955
1082,206;  135,177;    1,364;   -0,500
1082,748;   84,177;    0,727;    2,045
1083,289;   45,359;   -2,000;    1,318
1083,831;   41,359;   -0,545;    0,227
1084,372;   65,359;    0,000;    0,591
1084,913;   62,177;    1,091;    0,864
1085,455;   44,268;   -1,909;   -2,045
1085,996;   32,813;   -2,273;    0,136
1086,537;   42,995;   -0,091;    0,864
1087,078;   56,086;   -0,909;   -2,136
1087,619;   83,631;   -1,273;    0,227
1088,160;   65,631;    0,000;    1,318
1088,701;   57,813;   -1,091;    0,682
1089,242;   47,904;    1,364;   -2,227
1089,783;   68,813;   -0,273;    1,409
1090,324;   56,177;    0,455;    0,682
1090,865;   40,631;    2,727;   -0,409
1091,405;   26,268;    0,727;    2,227
1091,946;   50,722;    0,182;   -0,955
1092,487;   29,904;    0,818;   -1,409
1093,027;   81,540;   -1,364;   -1,500
1093,568;   46,813;   -0,364;    1,227
1094,108;   56,540;    0,273;    1,773
1094,649;   46,995;   -1,182;    0,136
1095,189;   34,813;   -0,636;   -0,682
1095,729;   32,813;   -0,091;    0,955
1096,269;   26,995;    0,727;   -0,955
1096,810;   96,722;   -1,364;    0,500
1097,350;   69,086;    1,364;   -0,773
1097,890;   50,540;    0,364;    1,227
1098,430;  138,631;    2,364;    2,864
1098,970;   99,540;    2,182;    1,682
1099,510;   43,540;    0,545;   -2,318
1100,050;   37,086;    1,000;   -1,591
1100,589;   43,813;   -0,727;   -0,318
1101,129;   63,359;    0,818;   -0,955
1101,669;  100,995;    1,727;    2,136
1102,209;   67,449;   -0,091;    2,227
1102,748;   47,268;    0,000;    0,955
1103,288;   49,995;    1,273;   -1,227
1103,827;   46,722;    3,091;   -2,227
1104,367;   32,359;   -0,091;   -2,409
1104,906;   34,449;    1,364;   -1,136
1105,445;   54,177;    0,636;   -1,136
1105,985;   40,449;   -0,727;    1,500
1106,524;   47,631;   -1,727;   -0,682
1107,063;   41,995;   -2,727;    1,409
1107,602;   28,995;   -1,909;   -1,500
1108,141;   26,449;   -1,909;    1,500
1108,680;   54,086;   -3,455;   -0,591
1109,219;   37,813;   -0,909;   -0,500
1109,758;   36,540;    0,455;    0,682
1110,297;   35,540;    1,000;   -0,682
1110,836;   25,449;   -0,727;    0,955
1111,375;   30,904;   -2,545;    0,409
1111,913;   52,995;   -1,000;    0,773
1112,452;   41,904;   -0,273;    0,136
1112,991;   25,086;    1,091;    1,955
1113,529;   23,813;   -0,818;   -0,045
1114,068;   29,449;   -0,273;    2,955
1114,606;   20,540;   -0,364;   -0,955
1115,144;   47,631;   -1,273;    1,045
1115,683;   39,904;   -0,727;    0,318
1116,221;   50,904;   -0,455;   -0,864
1116,759;   29,904;    0,636;   -0,864
1117,297;   58,722;    0,000;    1,864
1117,836;   31,813;   -2,182;   -1,227
1118,374;   30,995;    0,182;   -0,682
1118,912;   33,904;    0,909;    2,682
1119,450;   28,904;    1,000;    0,864
1119,988;   29,177;    1,545;    2,136
1120,525;  178,540;    5,091;    3,318
1121,063;   80,449;    1,182;    1,864
1121,601;   29,359;   -0,909;   -1,227
1122,139;   22,631;   -0,727;   -2,045
1122,676;   70,177;   -0,727;    2,773
1123,214;   58,177;   -1,182;    4,409
1123,751;   23,813;    1,727;    2,227
1124,289;   35,449;   -0,091;   -0,409
1124,826;   24,813;    1,727;    0,227
1125,364;   11,540;    1,727;   -0,955
1125,901;   63,177;    1,182;    1,227
1126,438;   56,449;    0,818;    0,955
1126,975;   12,722;   -0,727;   -0,773
1127,513;   21,449;    0,273;    2,136
1128,050;   12,722;    1,636;   -0,682
1128,587;   24,722;    2,000;   -0,227
1129,124;   35,359;    0,091;    1,318
1129,661;   16,540;    0,273;    0,227
1130,198;   50,268;    1,636;    0,773
1130,734;   34,813;    0,182;    1,409
1131,271;   10,904;   -0,909;    0,864
1131,808;   41,177;    2,909;    3,045
1132,345;   22,631;    1,545;    0,318
1132,881;    7,540;   -1,545;   -1,864
1133,418;   24,631;    0,727;   -1,136
1133,954;   16,359;    2,455;   -2,682
1134,491;   29,631;    1,364;   -0,773
1135,027;   17,177;    2,364;    0,864
1135,564;   27,631;    0,273;    2,955
1136,100;   25,449;    0,364;    2,136
1136,636;   10,813;   -1,273;   -1,045
1137,172;   17,359;    0,000;   -1,045
1137,708;   10,177;   -1,364;   -1,045
1138,245;   11,177;    1,273;   -1,227
1138,781;    8,995;    1,091;   -3,318
1139,317;   15,904;    1,273;   -1,409
1139,852;   19,631;    3,091;    0,136
1140,388;   29,268;   -1,182;   -0,409
1140,924;   14,995;   -1,091;   -2,227
1141,460;    7,540;   -1,636;    0,136
1141,996;    3,904;   -1,364;    2,682
1142,531;    7,177;    1,364;    3,318
1143,067;   36,268;    1,182;    1,045
1143,602;   47,631;   -0,091;   -0,318
1144,138;   20,540;   -2,636;    1,045
1144,673;    7,268;   -1,455;    1,409
1145,209;   14,086;   -1,909;   -0,318
1145,744;    5,449;   -0,727;    0,864
1146,279;   23,177;    1,818;   -0,136
1146,815;   13,086;    1,545;   -2,682
1147,350;   20,631;   -1,364;    0,045
1147,885;    8,813;   -0,818;   -1,318
1148,420;    9,268;   -2,273;    0,773
1148,955;    7,177;   -1,727;    1,864
1149,490;    4,086;   -0,909;   -1,591
1150,025;    4,086;    0,455;   -1,773
1150,560;   22,904;    1,091;   -0,955
1151,094;   13,995;    1,455;   -0,591
1151,629;   14,995;    1,636;    0,864
1152,164;    7,086;    1,364;    1,318
1152,698;    5,086;   -0,182;   -0,136
1153,233;    5,449;    0,091;   -0,682
1153,767;    5,449;   -3,000;   -2,318
1154,302;    7,995;   -1,455;    1,773
1154,836;   10,540;   -0,455;   -2,136
1155,371;   14,631;   -1,364;    3,682
1155,905;    7,813;   -0,636;    1,682
1156,439;    8,904;   -0,636;   -0,500
1156,973;   11,268;    0,364;    0,318
1157,507;    5,631;   -0,364;    0,682
1158,042;    8,268;   -0,727;    1,045
1158,576;   12,268;    0,182;    1,773
1159,110;   12,722;   -0,818;    2,409
1159,643;    8,268;    0,636;   -0,045
1160,177;    5,904;   -1,545;    1,500

