
Integration time [ms]:   0,040
Averaging Nr. [scans]: 11
Smoothing Nr. [pixels]: 0
Data measured with spectrometer [name]: 7318044SP
Wave   ;Sample   ;Dark     ;Reference
[nm]   ;[counts] ;[counts] ;[counts] 

186,757;   38,069;   31,551;    1,318
187,357;   34,542;   22,551;    0,955
187,958;   19,371;   15,460;   -1,591
188,558;   25,609;    8,915;   -1,227
189,159;   16,187;    6,733;   -4,500
189,759;   10,729;    7,278;   -3,591
190,360;    9,976;    2,824;   -2,136
190,960;   15,855;    2,915;   -4,136
191,560;   12,865;    3,189;   -6,591
192,161;   58,226;    4,372;   -3,500
192,761;   33,801;    4,010;   -3,227
193,361;   20,842;    1,556;   -3,773
193,962;   31,320;    2,010;   -2,682
194,562;   12,100;    1,189;   -3,955
195,162;    8,896;   -2,448;   -2,227
195,762;   34,692;   -3,176;   -0,045
196,362;   20,634;    1,370;   -2,500
196,963;    7,408;    2,006;   -0,864
197,563;   16,884;    1,551;   -0,955
198,163;    5,161;    0,096;   -0,682
198,763;    9,389;    1,733;   -0,500
199,363;   18,669;    3,096;   -0,500
199,963;    9,573;    0,369;    0,409
200,563;   10,336;    2,823;   -1,409
201,163;   10,653;    3,277;   -0,227
201,763;   12,185;    3,732;    0,318
202,363;    8,208;    1,459;    1,500
202,963;   12,344;    1,459;    1,045
203,563;   23,679;    0,277;    0,500
204,162;   14,144;    2,096;   -1,864
204,762;    7,987;    0,550;    0,591
205,362;    6,759;    3,004;    1,955
205,962;   12,287;    3,096;    1,955
206,562;   11,099;    1,823;    2,318
207,161;    9,470;   -0,087;    0,318
207,761;   30,100;    1,277;    2,409
208,361;   13,059;   -0,268;    1,409
208,960;   17,542;    0,459;    1,500
209,560;   12,995;    1,277;    1,591
210,160;   20,230;    0,550;    1,864
210,759;   14,295;    4,186;    1,227
211,359;    9,581;    1,459;    1,045
211,958;   49,875;    1,277;    2,045
212,558;   50,313;    1,732;    1,864
213,157;   21,257;    1,822;    1,500
213,757;   83,324;    3,822;   -0,227
214,356;   33,828;    1,277;   -0,409
214,956;   80,931;    3,095;    0,409
215,555;   33,429;    2,095;    2,136
216,154;   18,339;   -2,723;   -0,591
216,754;   18,424;    0,277;    0,773
217,353;   25,276;   -0,268;   -1,045
217,952;    9,939;   -0,178;    0,318
218,552;   36,396;    1,368;   -0,773
219,151;   22,975;    0,277;    0,955
219,750;   15,482;    0,004;   -0,227
220,349;   12,863;   -0,451;    1,045
220,948;   50,264;   -1,360;    1,136
221,548;   22,835;    0,913;    1,227
222,147;   28,731;   -0,087;   -0,409
222,746;   74,166;   -0,451;   -0,955
223,345;   45,088;    0,731;    0,500
223,944;   46,309;   -0,451;    0,773
224,543;   47,092;    1,004;   -1,409
225,142;   37,050;    0,094;    0,136
225,741;   48,145;   -0,814;    1,045
226,340;   44,068;   -0,451;   -0,955
226,939;   83,998;   -0,996;   -0,136
227,538;   40,956;   -0,360;   -0,773
228,137;   94,612;   -0,814;    0,864
228,735;   76,246;   -0,541;    1,227
229,334;   25,695;   -0,905;   -0,227
229,933;  111,702;    0,459;    0,591
230,532;  110,034;    1,186;   -0,409
231,131;  150,286;    1,732;    0,318
231,729;   87,507;   -2,450;   -2,318
232,328;   56,862;   -0,723;   -1,500
232,927;   70,996;    1,004;   -0,500
233,525;   61,746;    3,640;    0,045
234,124;   84,215;    2,368;   -1,591
234,723;   53,236;    0,913;   -1,045
235,321;   45,278;    2,277;    0,136
235,920;   63,055;    1,186;   -1,227
236,518;  148,734;    3,459;    0,318
237,117;   69,473;    0,004;   -0,227
237,715;   86,879;    0,640;   -0,500
238,314;  100,860;   -0,087;   -2,318
238,912;  170,225;   -0,723;   -1,409
239,510;  120,668;    0,459;   -1,227
240,109;  185,339;    0,004;    3,773
240,707;  164,261;   -0,996;    1,227
241,305;   80,735;    0,550;    0,136
241,904;  135,553;   -0,178;   -2,045
242,502;  218,470;   -0,632;   -0,227
243,100;  152,783;   -0,087;   -0,955
243,698;  101,461;    0,732;    1,682
244,297;  128,062;   -0,632;    0,682
244,895;  127,000;   -0,269;   -2,318
245,493;  239,663;    2,186;   -0,591
246,091;  253,651;    1,368;   -1,318
246,689;  197,739;    1,004;    0,591
247,287;  182,554;    0,822;   -1,136
247,885;  148,880;   -1,451;    1,227
248,483;  134,186;    1,822;   -0,500
249,081;  196,385;    0,185;    1,591
249,679;  216,466;   -0,178;    1,682
250,277;  133,407;   -1,723;    0,864
250,875;  223,331;   -1,087;   -1,045
251,473;  147,749;   -1,178;    0,500
252,071;  226,732;    1,459;    1,045
252,669;  167,036;   -1,814;    0,318
253,267;  122,946;   -0,087;    0,773
253,864;  166,281;   -0,360;    0,682
254,462;  272,418;    1,640;    1,591
255,060;  133,404;   -0,269;    1,318
255,658;  132,945;    0,822;   -0,136
256,255;  173,915;    0,186;   -2,045
256,853;  207,244;   -0,269;    1,409
257,451;  180,384;    0,822;    1,864
258,048;  487,826;    1,822;    1,864
258,646;  288,324;    1,731;   -1,045
259,243;  356,880;   -0,087;    2,227
259,841;  263,583;   -0,814;    0,318
260,438;  158,064;   -0,087;    0,864
261,036;  247,792;   -1,905;    1,409
261,633;  159,496;   -0,087;    2,227
262,231;  132,211;    2,731;   -0,045
262,828;  136,046;   -0,905;    1,136
263,425;  172,184;    0,913;   -0,591
264,023;  175,950;    0,186;    0,045
264,620;  293,955;   -0,360;   -0,318
265,217;  391,766;   -2,087;    3,136
265,815;  197,198;   -1,905;    2,136
266,412;  282,044;    0,731;    0,136
267,009;  289,018;   -1,451;    0,773
267,606;  345,960;    0,822;   -0,955
268,203;  213,168;   -0,269;   -0,591
268,801;  229,034;    1,731;    0,591
269,398;  171,526;   -0,360;    2,500
269,995;  283,501;    0,277;    1,591
270,592;  240,332;   -0,632;   -0,500
271,189;  167,981;    0,186;    0,409
271,786;  150,278;   -0,632;    1,227
272,383;  330,343;   -1,087;    0,227
272,980;  227,295;    0,277;    0,318
273,577;  188,573;    0,004;    1,227
274,174;  171,130;    0,822;    2,591
274,771;  282,127;   -0,814;   -0,773
275,367;  590,934;    2,277;    1,409
275,964;  422,059;    0,731;   -0,500
276,561;  255,862;    1,549;   -1,045
277,158;  179,739;    0,095;   -1,773
277,755;  377,294;    2,185;    0,409
278,351;  296,503;   -0,451;   -1,500
278,948;  351,654;   -0,815;    0,045
279,545;  304,259;   -1,360;    2,318
280,141;  435,465;   -1,723;   -2,045
280,738;  417,849;   -0,451;   -0,136
281,334;  251,162;   -1,633;    0,591
281,931;  264,341;   -0,087;   -1,318
282,528;  357,055;    0,822;   -0,500
283,124;  414,781;   -1,087;   -0,500
283,721;  411,875;   -0,451;    1,409
284,317;  291,527;    0,185;    2,500
284,913;  433,607;   -1,360;    0,591
285,510;  634,334;    0,640;   -0,318
286,106;  480,662;   -2,269;   -0,955
286,703;  324,918;   -0,360;    1,955
287,299;  274,674;   -1,451;   -0,591
287,895;  263,865;    0,822;   -1,045
288,491;  244,162;    0,186;    2,136
289,088;  341,458;   -2,360;    2,409
289,684;  385,672;   -1,723;    1,500
290,280;  513,275;    0,368;    0,682
290,876;  467,588;    1,822;    5,500
291,472;  389,831;    1,276;    2,227
292,068;  400,940;    1,367;    0,227
292,665;  304,583;    2,095;    0,773
293,261;  221,259;    0,276;    2,136
293,857;  381,633;    2,913;    2,136
294,453;  308,972;    3,550;    0,955
295,049;  499,644;   -0,268;    1,955
295,644;  359,537;    0,095;    0,136
296,240;  237,218;   -0,905;   -0,136
296,836;  334,249;   -0,995;    0,318
297,432;  445,111;    1,096;   -0,500
298,028;  479,204;    0,732;    0,773
298,624;  354,076;    1,459;    1,864
299,220;  333,869;    2,368;    0,591
299,815;  327,266;    1,005;   -0,409
300,411;  410,463;    0,914;    1,773
301,007;  499,650;    1,368;    0,227
301,602;  355,254;   -0,541;   -2,318
302,198;  473,351;    0,732;   -0,773
302,794;  337,496;    1,187;   -0,500
303,389;  283,322;   -1,177;    1,045
303,985;  325,966;    0,550;    1,409
304,580;  444,039;    1,459;    1,591
305,176;  362,371;   -3,086;    0,136
305,771;  256,941;   -1,268;   -1,227
306,367;  595,868;    4,095;    0,136
306,962;  393,072;    0,641;    1,500
307,558;  438,343;   -0,450;    0,136
308,153;  484,464;    1,095;   -1,136
308,748;  308,356;   -0,814;    1,682
309,344;  629,415;   -0,632;   -1,318
309,939;  631,210;   -1,905;   -1,318
310,534;  355,949;   -0,086;   -1,682
311,130;  333,361;    0,459;   -2,500
311,725;  299,564;    1,004;   -0,500
312,320;  348,258;    2,459;    0,045
312,915;  437,588;    1,459;   -1,045
313,510;  625,932;    1,550;   -0,500
314,105;  360,297;    1,096;    1,409
314,700;  249,592;   -3,086;   -1,045
315,295;  330,766;   -0,904;    0,045
315,890;  281,249;    1,277;    0,864
316,485;  380,388;   -0,359;   -0,318
317,080;  286,987;   -3,086;    1,591
317,675;  571,443;    2,005;   -0,682
318,270;  757,909;    5,550;    3,318
318,865;  650,452;    3,278;    3,045
319,460;  504,980;   -0,904;    0,591
320,055;  345,973;   -0,541;   -1,227
320,650;  354,776;   -1,995;   -0,591
321,244;  360,259;   -0,177;   -1,409
321,839;  361,600;   -1,541;   -0,227
322,434;  418,440;   -1,086;   -1,591
323,029;  350,015;    1,732;    1,591
323,623;  316,266;    1,550;    0,773
324,218;  487,814;    2,368;    1,409
324,812;  426,317;    1,096;    1,591
325,407;  422,889;   -0,814;    2,045
326,002;  543,076;    0,277;   -0,409
326,596;  482,674;    0,914;    1,318
327,191;  336,426;    0,823;   -1,045
327,785;  334,765;   -0,813;   -0,227
328,379;  339,427;    1,368;    0,136
328,974;  394,973;    0,914;   -3,955
329,568;  410,775;    0,186;   -2,409
330,163;  486,021;    2,096;    1,045
330,757;  330,213;    2,459;    1,591
331,351;  282,821;    0,459;    0,682
331,945;  279,584;    0,914;    1,409
332,540;  414,824;   -1,723;   -0,591
333,134;  403,672;   -1,086;    0,773
333,728;  402,005;    0,005;    0,318
334,322;  294,695;   -1,177;   -0,864
334,916;  291,974;    0,277;    0,955
335,510;  450,271;   -0,450;   -0,136
336,105;  440,517;   -1,086;    1,591
336,699;  334,923;   -1,086;    0,591
337,293;  371,422;   -1,723;    0,318
337,887;  315,623;   -2,723;    1,955
338,481;  453,640;    0,459;    0,591
339,074;  539,880;   -0,359;    2,682
339,668;  522,502;   -1,632;    1,227
340,262; 1039,039;    1,732;    3,227
340,856;  667,091;    1,822;   -0,682
341,450;  363,750;    1,004;    1,864
342,044;  413,331;    1,459;    0,136
342,637;  538,612;    0,913;   -2,136
343,231;  520,568;   -2,360;    0,682
343,825;  419,556;   -1,086;   -0,591
344,419;  395,964;   -1,995;    0,500
345,012;  893,850;    2,459;    4,045
345,606;  703,924;    4,641;    1,591
346,199;  402,526;   -1,813;   -0,227
346,793;  528,875;    1,914;    2,045
347,386;  339,586;   -0,813;   -1,136
347,980;  250,117;   -0,268;   -0,045
348,573;  342,164;    2,278;    0,409
349,167;  623,478;    5,278;    4,773
349,760;  506,212;    2,914;    2,682
350,354;  475,904;   -0,813;    1,136
350,947;  516,780;    1,096;    1,682
351,540;  388,957;   -0,358;   -1,409
352,134;  261,849;    1,096;    1,136
352,727;  285,467;   -0,086;    1,136
353,320;  310,318;    0,005;    0,591
353,913;  250,880;   -1,995;    1,864
354,507;  445,985;    0,823;   -1,227
355,100;  325,150;    0,460;    0,864
355,693;  718,778;    2,005;    2,409
356,286;  489,028;    0,823;    2,773
356,879;  347,217;   -0,722;    1,227
357,472;  345,771;   -0,904;    1,500
358,065;  387,273;   -0,722;    2,500
358,658;  249,033;   -0,540;    2,318
359,251;  223,402;   -1,631;   -0,591
359,844;  406,356;   -1,904;   -1,136
360,437;  474,518;   -2,995;    0,045
361,030;  319,492;    1,369;   -0,682
361,623;  326,602;    2,824;    0,318
362,215;  542,629;   -0,086;    2,045
362,808;  393,736;   -2,358;   -1,682
363,401;  321,034;   -2,449;    0,136
363,994;  536,100;   -0,631;   -1,500
364,586;  338,113;    0,824;   -1,500
365,179;  288,884;   -0,449;   -1,136
365,772;  157,339;   -1,995;    2,045
366,364;  312,094;    1,915;   -3,227
366,957;  365,425;    2,279;   -0,045
367,549;  311,575;    2,188;   -0,864
368,142;  326,235;    1,825;   -1,500
368,734;  287,011;    0,734;   -2,136
369,327;  219,505;    1,643;   -0,500
369,919;  261,688;   -1,538;    0,409
370,512;  285,196;   -1,083;   -0,500
371,104;  546,691;   -0,901;    1,591
371,696;  566,145;    1,191;   -0,955
372,289;  416,429;    0,373;    1,136
372,881;  364,488;   -2,080;    1,318
373,473;  259,874;   -2,170;    1,136
374,066;  354,861;   -0,169;    0,500
374,658;  325,793;    0,378;    1,136
375,250;  264,755;    0,653;   -1,409
375,842;  314,639;    0,473;   -0,045
376,434;  274,571;   -0,435;   -0,409
377,026;  262,310;    0,204;   -2,500
377,618;  313,353;   -0,158;   -0,682
378,210;  258,382;   -0,338;   -1,955
378,802;  251,408;    0,754;   -0,591
379,394;  630,329;    1,846;    0,682
379,986;  393,156;    1,393;   -0,955
380,578;  302,989;   -0,153;    0,773
381,170;  545,432;   -0,972;    0,045
381,762;  439,779;    0,755;    1,409
382,354;  391,905;   -0,065;   -1,318
382,945;  303,222;   -2,976;    0,318
383,537;  248,318;   -2,705;   -1,955
384,129;  239,754;   -2,160;   -1,136
384,721;  349,452;   -0,252;    0,955
385,312;  289,830;   -0,161;   -0,955
385,904;  378,113;   -2,706;    1,591
386,496;  313,021;   -0,979;    1,045
387,087;  444,493;    1,022;    2,500
387,679;  388,325;   -1,160;    0,045
388,270;  368,081;    2,840;    2,045
388,862;  336,943;    1,295;   -0,318
389,453;  329,098;   -0,887;    1,045
390,045;  334,915;   -0,705;   -2,682
390,636;  229,478;    0,204;   -0,591
391,227;  293,933;   -0,523;   -0,045
391,819;  269,524;    0,204;    0,773
392,410;  525,315;    1,022;    0,045
393,001;  334,325;   -0,979;   -1,591
393,593;  399,457;    1,930;   -0,045
394,184;  447,603;    1,385;   -0,409
394,775;  329,607;    1,839;    2,136
395,366;  239,873;    1,385;    0,773
395,957;  434,685;    0,113;    0,136
396,548;  326,391;   -0,342;    2,682
397,139;  455,102;   -2,433;    0,591
397,730;  369,321;   -1,888;    0,955
398,321;  374,204;   -1,252;    0,955
398,912;  309,681;   -0,615;    0,136
399,503;  307,222;   -3,524;   -1,409
400,094;  363,357;    0,294;    1,682
400,685;  351,285;   -0,433;    0,045
401,276;  298,172;    0,930;   -0,955
401,867;  274,860;   -0,888;    0,773
402,458;  237,257;   -2,251;   -2,318
403,048;  394,697;    1,112;    0,591
403,639;  336,614;    0,840;    0,864
404,230;  447,794;    2,476;    0,318
404,821;  508,858;   -0,615;    0,045
405,411;  408,544;    1,203;   -2,591
406,002;  314,430;   -1,252;   -1,136
406,592;  554,498;    2,294;    0,045
407,183;  399,406;    0,566;   -1,500
407,774;  379,279;    3,475;   -0,136
408,364;  334,708;    0,930;    0,409
408,954;  460,010;    0,384;    1,227
409,545;  464,002;    1,021;    1,045
410,135;  416,622;    1,293;    0,500
410,726;  360,394;    1,838;    0,318
411,316;  556,024;    0,111;    0,773
411,906;  374,175;   -0,253;   -0,409
412,497;  389,894;   -1,070;   -0,045
413,087;  329,992;   -1,980;   -0,227
413,677;  252,759;   -0,707;    3,864
414,267;  242,474;    0,656;    1,409
414,857;  221,399;   -2,980;    4,227
415,448;  233,370;    0,839;    0,500
416,038;  271,021;    0,020;   -0,591
416,628;  322,205;   -0,889;    0,409
417,218;  384,424;    0,565;    3,318
417,808;  539,894;    0,202;   -0,409
418,398;  399,989;    0,020;    2,682
418,988;  280,092;    2,020;    0,591
419,578;  384,865;   -0,707;    1,409
420,168;  316,544;   -1,343;   -0,955
420,757;  483,917;   -1,343;   -1,500
421,347;  364,879;    0,111;   -0,227
421,937;  323,962;    2,292;    1,409
422,527;  473,906;    0,838;   -0,773
423,116;  624,532;   -0,253;   -0,045
423,706;  313,112;   -1,889;    0,318
424,296;  264,470;    1,384;    0,682
424,885;  413,016;   -0,071;   -3,045
425,475;  385,692;    1,474;   -2,864
426,065;  258,324;   -0,980;   -0,318
426,654;  237,891;   -0,435;   -0,318
427,244;  540,977;    0,020;    1,409
427,833;  509,776;    1,383;   -0,500
428,423;  365,588;   -0,526;    1,136
429,012;  359,478;   -0,344;   -1,136
429,601;  502,790;   -1,344;    0,136
430,191;  378,175;    1,292;    4,318
430,780;  265,592;   -0,344;   -0,409
431,369;  481,701;    0,746;   -0,045
431,959;  356,625;   -1,254;    0,500
432,548;  279,452;   -1,163;   -0,045
433,137;  210,484;   -1,254;   -1,318
433,726;  303,642;    0,292;    0,500
434,315;  328,847;   -0,526;    2,409
434,905;  445,774;   -1,254;    1,409
435,494;  446,266;    0,746;    0,955
436,083;  298,655;   -0,981;   -0,955
436,672;  394,505;    0,110;    0,500
437,261;  332,200;    0,292;   -1,955
437,850;  610,081;    1,383;    0,682
438,439;  656,180;    3,291;    1,955
439,027;  772,292;    3,655;    1,773
439,616;  694,256;    2,927;    1,227
440,205;  443,658;    0,200;   -2,136
440,794;  375,178;    2,109;   -0,045
441,383;  291,517;   -1,346;   -0,591
441,971;  251,325;   -2,436;    0,591
442,560;  268,663;    0,563;   -1,773
443,149;  140,786;    0,379;   -1,318
443,737;  215,505;   -0,074;   -2,318
444,326;  251,853;    0,018;    0,318
444,915;  310,840;   -1,982;    0,864
445,503;  315,992;   -2,891;   -0,318
446,092;  602,923;    0,382;    2,136
446,680;  524,782;    0,382;    0,318
447,269;  428,169;   -0,346;   -0,318
447,857;  403,041;    0,018;   -1,773
448,445;  344,151;    0,563;    1,318
449,034;  280,136;   -1,528;   -1,136
449,622;  280,593;   -1,073;    3,500
450,210;  614,436;    2,017;    2,227
450,799;  516,819;    0,290;   -0,591
451,387;  461,386;    1,381;   -0,591
451,975;  443,811;    2,654;    0,864
452,563;  529,035;    3,472;    2,318
453,151;  313,749;   -0,528;   -1,227
453,739;  371,768;   -1,347;    0,136
454,328;  494,823;    2,381;   -2,136
454,916;  410,957;    2,562;   -0,136
455,504;  432,009;    1,017;    1,227
456,092;  300,157;    0,017;   -1,591
456,679;  250,255;    1,472;    0,682
457,267;  733,854;    4,017;    1,045
457,855;  362,704;    1,017;    1,409
458,443;  190,132;   -0,165;    1,682
459,031;  388,000;    0,108;    2,409
459,619;  340,783;   -1,801;    2,864
460,206;  223,353;    0,835;    2,045
460,794;  230,483;   -2,983;   -0,227
461,382;  285,110;   -0,529;   -0,864
461,970;  282,654;    1,198;    1,864
462,557;  192,467;   -0,711;   -0,682
463,145;  341,619;   -3,165;   -1,682
463,732;  616,977;    2,016;   -1,045
464,320;  358,043;   -0,075;   -3,045
464,907;  525,472;    2,743;   -0,773
465,495;  412,782;    0,743;   -1,227
466,082;  316,490;   -1,984;   -0,045
466,670;  343,319;   -2,529;    1,227
467,257;  216,255;   -1,711;    2,045
467,844;  342,917;   -0,075;    0,045
468,432;  312,565;    0,834;    3,500
469,019;  256,639;    0,925;   -1,773
469,606;  350,322;    0,470;    3,682
470,193;  384,327;   -1,439;    0,227
470,780;  334,976;   -2,075;    0,864
471,368;  248,298;   -1,257;   -0,773
471,955;  367,092;    1,379;   -0,682
472,542;  320,890;    0,652;   -1,136
473,129;  186,107;   -0,166;    0,136
473,716;  193,542;    1,470;    0,591
474,303;  230,911;    0,652;   -0,864
474,890;  236,856;   -1,439;   -0,500
475,477;  349,890;   -1,621;    0,409
476,064;  241,514;    1,106;   -1,591
476,650;  377,989;    0,288;    0,318
477,237;  275,807;   -0,258;    0,955
477,824;  254,915;   -1,076;    0,864
478,411;  152,359;   -1,894;   -0,318
478,997;  142,876;    0,560;   -0,773
479,584;   86,319;    1,196;   -0,409
480,171;  297,650;   -0,440;   -0,773
480,757;  370,178;    2,651;    0,773
481,344;  240,019;    0,469;    0,409
481,931;  129,690;    1,105;    1,045
482,517;  294,144;   -1,258;    0,318
483,104;  403,500;    1,106;    2,864
483,690;  251,508;   -1,804;    0,045
484,276;  226,659;   -0,895;    0,227
484,863;  496,533;    2,469;    1,136
485,449;  302,344;   -0,077;    0,318
486,035;  243,446;   -1,986;   -0,136
486,622;  369,572;   -0,895;    0,045
487,208;  263,245;    1,378;    1,500
487,794;  158,751;    0,741;    0,318
488,380;  153,409;    0,105;   -1,409
488,967;  172,060;   -1,168;   -0,409
489,553;  192,381;   -1,895;   -1,409
490,139;  299,476;    1,559;    0,773
490,725;  185,763;    0,741;   -0,227
491,311;  244,476;    3,287;    3,045
491,897;  205,120;   -0,986;    1,500
492,483;  202,233;    0,105;    1,227
493,069;  715,312;    3,923;    0,864
493,655;  381,818;    1,650;    0,682
494,241;  229,349;    1,377;   -0,955
494,826;  252,924;    0,287;   -1,045
495,412;  340,470;    2,559;   -0,682
495,998;  214,880;   -0,805;   -0,318
496,584;  302,755;    0,377;    1,045
497,169;  320,602;    1,014;   -0,682
497,755;  236,971;    0,650;    1,227
498,341;  428,054;    0,559;    0,318
498,926;  585,732;    1,832;    1,955
499,512;  248,127;    1,286;    2,955
500,097;  264,309;    0,195;   -0,318
500,683;  297,186;   -0,350;    2,136
501,268;  224,010;   -0,169;   -0,955
501,854;  250,587;   -0,169;    1,227
502,439;  236,753;   -0,624;   -1,773
503,024;  303,517;    0,195;    0,500
503,610;  337,418;   -0,078;   -0,682
504,195;  256,722;    0,558;    1,955
504,780;  381,930;    2,922;    1,227
505,366;  502,914;    3,013;    2,864
505,951;  404,274;    0,740;    1,045
506,536;  300,713;   -3,260;   -3,682
507,121;  379,591;    0,285;   -0,318
507,706;  312,781;    2,376;    1,045
508,291;  244,913;    2,649;    1,136
508,876;  253,607;   -0,988;    2,591
509,461;  329,733;   -0,169;   -0,773
510,046;  381,814;    0,194;    0,318
510,631;  386,859;   -0,351;   -0,773
511,216;  283,896;    2,467;   -0,500
511,801;  367,539;   -0,442;    2,591
512,386;  397,516;    0,740;    0,500
512,971;  409,227;   -2,988;    0,955
513,555;  476,994;   -0,897;   -1,500
514,140;  408,650;   -0,442;   -3,136
514,725;  545,553;   -0,715;   -1,136
515,309;  432,355;   -0,533;    0,318
515,894;  310,261;   -0,624;   -2,227
516,479;  350,833;   -0,624;   -0,955
517,063;  359,445;    0,376;    1,227
517,648;  300,820;    1,012;   -1,136
518,232;  274,861;   -0,261;   -1,409
518,817;  376,229;   -0,079;    1,682
519,401;  515,849;    2,194;    0,591
519,985;  469,100;    1,103;    1,136
520,570;  306,877;    0,830;   -1,955
521,154;  430,459;    2,102;    0,591
521,738;  626,898;   -2,352;    2,409
522,323;  431,897;   -0,170;    1,682
522,907;  416,343;    0,466;   -0,136
523,491;  317,351;    0,557;    0,955
524,075;  283,719;    2,284;    0,591
524,659;  488,675;    1,466;    0,591
525,243;  424,050;    1,739;    0,409
525,827;  365,176;    0,648;   -0,045
526,411;  365,493;   -1,989;   -0,136
526,995;  467,610;   -0,352;    1,409
527,579;  531,891;   -0,443;   -1,045
528,163;  459,299;    0,375;   -1,500
528,747;  565,649;    2,466;   -0,773
529,331;  497,000;   -0,080;   -1,409
529,915;  335,759;    1,738;    0,955
530,499;  420,577;   -0,807;    1,227
531,082;  589,249;   -0,534;    1,591
531,666;  668,188;    1,374;    0,773
532,250;  543,017;    1,284;    2,682
532,833;  646,901;    0,920;    2,773
533,417;  476,089;   -1,807;    0,864
534,001;  600,868;    1,647;   -0,318
534,584;  522,016;    0,374;    0,500
535,168;  347,193;    0,465;    1,409
535,751;  704,373;    0,647;    0,045
536,334;  447,488;   -0,898;   -0,409
536,918;  283,572;    0,011;    1,591
537,501;  301,519;   -0,899;    1,318
538,085;  350,083;   -0,444;    1,045
538,668;  429,996;    0,829;    2,409
539,251;  707,365;    1,829;    3,773
539,834;  418,717;    0,101;    0,773
540,418;  547,612;   -1,990;    4,318
541,001;  725,862;   -0,990;    1,773
541,584;  491,351;    2,101;    2,227
542,167;  604,169;    1,374;    2,955
542,750;  426,558;    1,919;   -0,773
543,333;  303,191;    0,555;    2,136
543,916;  535,951;    0,192;    2,500
544,499;  463,613;   -1,354;    0,227
545,082;  543,257;    1,374;    3,591
545,665;  444,327;    1,919;    1,500
546,248;  571,373;    1,010;   -0,318
546,830;  551,813;   -0,445;    1,955
547,413;  511,329;    1,010;   -0,773
547,996;  477,090;    0,555;    0,500
548,579;  431,680;    0,919;    0,955
549,161;  665,142;    1,828;    2,682
549,744;  558,914;   -0,809;    0,409
550,326;  404,465;   -0,809;   -1,136
550,909;  870,138;    2,737;    0,591
551,492;  515,994;   -0,263;    0,227
552,074;  642,524;   -0,173;   -1,318
552,657;  675,617;    2,373;    0,045
553,239;  538,994;   -0,173;   -0,773
553,821;  403,395;   -1,082;    1,045
554,404;  660,340;    1,282;    1,136
554,986;  763,464;    0,464;    1,045
555,568;  592,477;    1,191;   -0,955
556,151;  808,027;    1,191;   -0,227
556,733;  488,086;   -0,264;   -0,864
557,315;  501,082;    0,100;    0,500
557,897;  376,161;    0,554;   -0,500
558,479;  389,985;   -1,991;    1,318
559,061;  481,611;   -0,719;   -0,864
559,643;  521,664;   -0,264;    0,045
560,225;  573,848;    1,645;    2,864
560,807;  416,300;    0,918;    0,318
561,389;  398,770;    0,554;    2,318
561,971;  494,690;    0,463;    2,136
562,553;  412,433;   -1,628;    1,591
563,135;  499,517;   -0,537;    1,136
563,717;  890,786;    3,372;    1,136
564,298;  782,814;    3,645;   -0,045
564,880;  537,474;    0,645;   -1,409
565,462;  365,838;    0,645;    1,318
566,043;  496,023;   -0,446;    2,318
566,625;  811,838;    1,918;    1,227
567,207;  620,977;    1,099;    1,682
567,788;  472,173;   -1,264;    1,500
568,370;  470,966;    1,917;   -0,500
568,951;  474,736;    0,190;    0,227
569,533;  578,004;   -0,628;   -0,500
570,114;  591,593;   -0,446;    0,682
570,695;  627,334;   -0,174;   -1,318
571,277;  613,367;   -0,265;   -1,682
571,858;  811,432;    2,008;   -1,136
572,439;  643,396;    1,554;   -1,045
573,021;  683,812;    2,099;   -2,773
573,602;  788,141;   -1,265;    0,318
574,183;  741,175;   -2,083;    2,227
574,764;  682,347;   -1,629;    0,409
575,345;  887,741;    0,917;   -0,136
575,926;  708,219;   -0,356;    0,136
576,507;  796,138;    1,099;   -0,227
577,088;  751,501;    3,099;    1,682
577,669;  933,096;    0,735;    1,955
578,250; 1111,902;    0,644;   -1,045
578,831;  898,083;   -1,356;   -2,227
579,412;  889,828;   -0,810;    0,955
579,993;  865,199;    1,008;    0,227
580,573;  774,475;   -0,629;   -0,955
581,154;  916,282;    0,735;   -0,591
581,735;  929,547;    0,644;    0,773
582,315; 1083,547;   -0,629;    2,136
582,896;  878,257;   -0,174;    1,227
583,477;  714,412;    0,189;    1,227
584,057;  850,380;    0,553;    0,955
584,638;  969,926;    2,553;    2,318
585,218; 1218,283;   -0,538;    2,682
585,799; 1019,808;    0,281;   -0,227
586,379;  878,228;    0,372;    1,591
586,959;  853,631;    0,735;    0,318
587,540;  756,073;   -0,629;    2,227
588,120;  777,058;    1,007;   -0,045
588,700;  783,997;    2,553;    2,136
589,281;  961,382;    0,462;   -0,955
589,861;  820,309;    0,099;   -1,682
590,441;  678,115;    2,371;   -2,682
591,021;  779,469;   -0,265;   -2,591
591,601;  725,119;   -0,537;    0,500
592,181;  709,200;   -0,719;   -0,773
592,761;  600,743;    0,007;    1,409
593,341;  729,355;   -0,901;    0,045
593,921;  743,227;   -0,265;    1,591
594,501;  634,814;   -0,538;    1,318
595,081;  638,950;    0,917;   -0,318
595,661;  712,342;   -1,447;    0,955
596,240;  635,847;   -0,537;    0,136
596,820; 1072,888;    0,372;    1,955
597,400;  779,153;    2,008;    0,773
597,980;  674,827;    2,008;    1,045
598,559;  625,327;    2,735;   -0,227
599,139;  600,798;   -0,174;   -1,227
599,718;  597,161;   -0,174;   -0,409
600,298;  587,419;    0,735;    0,682
600,877; 1101,198;    2,917;    1,409
601,457;  787,148;    2,281;    1,136
602,036;  660,753;    0,190;    2,045
602,616;  714,824;    0,644;    1,682
603,195;  840,691;   -0,355;    3,500
603,774;  908,706;   -0,901;    2,045
604,354;  832,529;    0,826;   -0,500
604,933;  763,293;    0,463;    1,864
605,512;  865,536;    3,554;    0,591
606,091;  864,762;   -0,537;    3,773
606,671;  805,423;    0,281;    0,773
607,250;  984,973;    1,644;    3,136
607,829;  918,366;    2,372;    3,227
608,408;  755,483;    1,190;    2,591
608,987;  878,400;    1,281;    3,409
609,566;  695,345;   -1,265;   -2,500
610,145;  795,319;   -1,082;    0,682
610,723;  835,148;    4,372;    6,864
611,302;  755,830;   -0,446;    1,682
611,881; 1051,942;    5,008;   11,227
612,460;  747,131;    1,645;    3,955
613,039;  628,624;   -0,082;    2,045
613,617;  616,651;    1,736;    4,773
614,196;  638,223;    1,099;    1,227
614,775;  700,345;    1,009;    2,409
615,353;  765,860;    0,736;    0,864
615,932;  723,685;    0,100;    2,409
616,510;  704,888;    0,554;    0,591
617,089; 1245,602;    7,100;   17,591
617,667;  834,870;    2,372;    6,136
618,246;  581,020;   -1,537;    1,318
618,824;  657,757;   -3,355;   -0,955
619,402;  679,942;   -2,900;   -1,773
619,981;  739,816;   -0,173;   -1,045
620,559;  649,700;    0,009;    1,682
621,137;  671,988;   -0,718;    1,864
621,715;  573,181;   -1,173;   -0,682
622,293;  600,439;   -0,537;   -0,773
622,871;  611,082;   -0,718;    0,500
623,450;  548,565;    0,373;   -0,864
624,028;  757,153;    0,191;   -0,955
624,606;  711,579;   -1,718;    1,682
625,183;  518,449;   -1,536;   -1,136
625,761;  667,628;    1,009;    1,136
626,339;  976,046;    1,373;    2,591
626,917;  612,845;   -0,172;   -0,045
627,495;  553,944;   -0,354;    1,318
628,073;  681,269;   -0,263;    2,864
628,650;  700,332;    0,100;    2,136
629,228;  696,919;    0,373;    4,409
629,806;  504,974;    2,282;    1,136
630,383;  563,746;    1,464;   -0,318
630,961;  565,611;    2,555;   -0,955
631,539;  618,285;    2,464;    0,227
632,116; 1349,884;   11,373;   15,409
632,694;  952,115;    2,555;    6,500
633,271;  780,575;    0,828;    2,682
633,848;  887,158;    1,828;    2,045
634,426;  607,183;   -1,081;    1,773
635,003;  476,813;    1,101;   -0,409
635,580;  899,893;    1,192;    3,682
636,158;  761,149;    3,737;    1,227
636,735;  571,667;    0,555;   -0,500
637,312;  561,898;   -0,809;   -0,682
637,889;  569,078;   -4,354;   -0,682
638,466;  545,150;   -3,990;   -0,409
639,043;  594,982;    2,101;   -1,136
639,620;  510,887;   -2,262;   -0,955
640,197;  641,963;    1,100;    1,682
640,774;  466,061;   -0,172;    1,136
641,351;  542,704;    0,737;    1,136
641,928;  745,165;   -0,627;    1,409
642,505;  868,353;    0,828;   -0,500
643,082;  673,269;   -1,718;    1,227
643,658;  540,912;   -0,718;    1,500
644,235;  523,192;    1,191;    2,500
644,812;  729,289;    1,918;    0,773
645,388;  702,114;   -0,991;    1,409
645,965;  480,121;   -0,809;    1,682
646,542;  488,400;   -1,445;   -0,227
647,118;  885,498;    1,009;   -0,955
647,695;  668,959;   -0,263;    1,136
648,271;  478,148;   -0,536;    0,500
648,848;  651,791;    0,736;    2,227
649,424;  781,161;    0,827;    1,318
650,000;  593,441;   -0,354;   -1,045
650,577;  627,084;   -0,627;   -0,955
651,153;  627,545;   -1,809;    0,955
651,729;  564,643;    1,191;    0,864
652,305;  949,740;    0,645;    2,773
652,881;  908,565;   -0,082;    1,136
653,458; 1042,572;    1,100;    0,227
654,034; 1149,215;    0,282;    1,591
654,610; 1300,404;    0,554;    0,773
655,186; 1804,138;    0,645;    3,045
655,762; 1336,599;   -0,991;    0,409
656,338; 1309,424;    0,100;    0,136
656,913; 1395,885;   -0,082;    0,409
657,489; 1156,073;    0,827;   -0,318
658,065; 1282,171;   -0,173;   -1,591
658,641; 1311,996;   -0,900;   -0,864
659,217; 1226,366;   -0,991;    0,409
659,792; 1371,191;    0,645;   -0,409
660,368; 1180,471;   -2,173;   -0,682
660,944; 1198,932;   -2,082;    1,227
661,519; 1084,211;   -0,628;    0,409
662,095;  790,673;   -1,719;    0,591
662,670;  620,679;    1,281;   -0,136
663,246;  530,413;    1,009;   -0,409
663,821;  707,875;    0,281;    1,682
664,396;  658,790;    0,009;    1,864
664,972;  565,615;    0,009;   -0,500
665,547;  622,258;    1,372;    0,136
666,122;  595,538;   -1,082;    0,318
666,698;  794,454;   -0,173;    0,318
667,273;  561,279;   -0,173;    0,136
667,848;  605,013;    2,372;    1,500
668,423;  780,110;    2,190;    2,318
668,998;  617,481;    2,827;   -0,682
669,573;  575,396;   -3,264;   -1,500
670,148;  770,221;   -1,446;   -0,682
670,723;  540,864;   -1,810;    0,318
671,298;  840,689;    2,372;    1,045
671,873;  740,787;   -0,082;   -0,136
672,448;  729,612;    0,645;    0,136
673,023;  719,800;   -1,992;   -0,227
673,597;  820,989;    0,827;    2,318
674,172;  872,086;   -0,355;    0,318
674,747;  776,002;    0,372;   -1,045
675,321;  531,463;   -0,628;    3,318
675,896;  469,834;    0,645;    1,045
676,471;  698,386;    2,645;    1,591
677,045;  624,575;   -1,264;    0,682
677,620;  723,672;    0,190;    1,136
678,194;  543,043;   -2,628;    1,136
678,769;  624,958;   -1,083;   -0,318
679,343;  680,874;   -0,628;    1,773
679,917;  795,790;   -1,446;    1,955
680,492;  650,888;    0,826;    3,227
681,066;  696,894;    3,372;    0,409
681,640;  612,083;    1,463;   -0,318
682,214;  631,817;    0,735;    0,500
682,788;  634,187;   -1,356;   -0,773
683,363;  787,012;   -1,810;    1,682
683,937;  661,201;   -1,719;   -0,318
684,511;  689,026;    0,463;   -0,591
685,085;  703,396;   -1,356;    0,318
685,659;  599,857;   -2,538;    0,864
686,232;  852,500;   -0,356;   -0,318
686,806;  723,598;   -0,901;    0,409
687,380;  604,332;   -0,174;    0,591
687,954;  539,611;   -1,174;    1,136
688,528;  874,436;   -0,719;    1,955
689,101;  693,716;   -3,992;    1,045
689,675;  587,722;   -0,356;   -0,136
690,249;  852,365;   -0,719;    0,409
690,822;  845,008;    0,280;    0,318
691,396;  725,652;   -0,265;    1,227
691,969;  638,295;    1,280;    0,136
692,543;  534,029;   -0,447;   -1,955
693,116;  517,490;   -0,265;   -1,409
693,690;  610,133;    0,099;    0,500
694,263;  545,776;   -1,083;    2,955
694,836;  913,601;    1,371;    3,591
695,410;  798,608;   -0,265;    1,773
695,983;  816,705;    0,189;    0,591
696,556;  605,894;   -0,447;   -1,045
697,129;  518,537;   -0,356;    1,409
697,703;  754,998;   -1,629;    1,955
698,276;  633,823;    1,462;   -0,773
698,849;  806,466;    1,280;    1,409
699,422;  560,291;   -1,083;    0,591
699,995;  465,752;    0,007;    0,136
700,568;  607,395;   -0,629;    3,045
701,140;  633,129;   -2,811;    1,682
701,713;  799,045;   -0,174;    2,409
702,286;  692,416;   -0,538;    0,864
702,859;  767,240;   -0,902;   -0,591
703,432;  854,065;    0,825;    0,682
704,004;  736,708;    0,462;    0,318
704,577;  602,351;   -0,629;    0,136
705,150;  653,176;    0,189;    2,500
705,722;  718,910;   -0,356;   -3,227
706,295;  781,372;   -0,175;   -0,591
706,867;  656,197;   -0,175;    1,955
707,440;  750,931;   -1,720;   -0,409
708,012;  828,392;    0,462;    0,591
708,584;  738,489;    2,462;    0,227
709,157;  508,860;    1,825;   -0,591
709,729;  753,503;    2,280;    2,045
710,301;  602,419;    0,734;    0,045
710,874;  614,334;   -1,447;   -0,227
711,446;  499,614;    0,371;    0,864
712,018;  574,893;    0,098;    0,500
712,590;  518,082;   -1,993;    1,682
713,162;  815,634;    0,825;    1,318
713,734;  597,368;    1,825;   -2,045
714,306;  507,284;   -1,902;   -0,409
714,878;  565,472;    0,825;    0,864
715,450;  522,479;    0,643;    0,864
716,022;  526,759;    1,552;    1,318
716,593;  517,311;    0,189;    0,591
717,165;  578,863;   -3,175;   -1,227
717,737;  840,415;    0,280;    0,409
718,309;  603,513;    0,280;   -0,045
718,880;  525,883;   -0,539;   -1,409
719,452;  603,344;   -0,175;   -1,591
720,024;  705,351;    0,734;   -0,591
720,595;  593,176;   -2,902;    0,955
721,167;  578,455;    0,370;   -2,045
721,738;  709,917;   -0,812;   -1,045
722,309;  856,378;   -0,993;   -1,227
722,881;  579,930;   -1,357;    0,773
723,452;  664,210;   -2,630;    2,864
724,023;  680,307;   -0,721;    2,682
724,595;  750,405;    0,007;    0,682
725,166;  611,321;    0,007;   -0,409
725,737;  818,873;    1,734;    0,227
726,308;  592,607;   -0,266;    0,318
726,879;  505,977;   -1,630;    1,227
727,450;  686,620;    0,552;   -0,045
728,021;  617,081;    3,097;    0,682
728,592;  790,997;    0,734;    0,500
729,163;  879,095;    0,643;   -0,136
729,734;  856,192;    0,188;   -0,227
730,305;  707,199;    1,734;    0,136
730,876;  664,570;    0,188;    2,955
731,447;  993,940;    2,188;    2,682
732,017;  891,128;    1,097;    1,864
732,588;  678,317;    0,734;    1,227
733,159;  957,233;    0,643;   -1,045
733,729;  680,694;    0,006;    0,409
734,300;  844,701;    0,915;    0,864
734,870;  645,253;    3,461;    0,591
735,441;  627,441;    0,370;   -0,591
736,011;  619,539;    0,643;   -1,591
736,582;  634,182;   -0,812;    0,045
737,152;  765,734;   -1,721;   -2,045
737,722;  732,377;   -0,267;   -0,682
738,293;  573,475;   -1,358;    1,318
738,863;  765,936;    2,461;    2,318
739,433; 1037,034;    5,279;    0,318
740,003;  737,313;   -0,994;   -0,682
740,573;  880,502;    2,097;   -1,591
741,143;  733,145;   -1,085;    0,318
741,713;  631,334;    1,188;   -0,500
742,283;  715,795;    0,915;    1,591
742,853;  636,256;    1,915;    1,591
743,423;  462,808;    1,733;    0,045
743,993;  582,815;   -0,358;    1,500
744,563;  636,458;    0,097;   -0,864
745,133;  670,737;   -0,812;   -0,864
745,702;  531,653;   -0,267;    1,773
746,272;  755,296;   -0,176;    0,591
746,842;  784,485;   -1,358;   -0,591
747,411;  565,310;   -0,267;   -0,318
747,981;  458,226;    0,097;    0,500
748,551;  453,141;    2,278;   -1,045
749,120;  659,057;    0,642;   -0,227
749,690;  602,337;   -0,631;    2,409
750,259;  717,162;    1,369;    2,955
750,828;  774,441;    1,551;   -1,955
751,398;  543,266;    1,278;   -0,045
751,967; 1033,273;    2,187;    0,409
752,536;  671,007;   -0,813;   -0,227
753,105;  787,013;    0,096;    0,227
753,675;  624,656;    0,096;    1,773
754,244;  626,936;   -0,904;    3,591
754,813;  662,488;    0,551;    1,227
755,382;  624,222;    0,460;    0,955
755,951;  766,047;    1,551;    3,682
756,520;  872,872;   -0,085;    1,864
757,089;  973,515;    0,278;    0,500
757,658;  708,249;    1,733;    1,227
758,227;  538,528;    1,096;    0,318
758,795;  592,717;    1,187;    1,136
759,364;  599,269;   -0,086;   -0,591
759,933;  539,276;   -1,176;   -0,045
760,501;  475,646;    0,733;   -1,318
761,070;  649,016;   -2,813;   -1,409
761,639;  603,660;   -1,904;    1,318
762,207;  735,030;    1,551;   -0,955
762,776;  776,764;    0,369;    0,864
763,344;  625,589;   -0,995;    0,591
763,913;  427,595;   -0,722;    1,409
764,481;  966,148;    1,005;   -0,136
765,049;  972,063;   -1,358;    1,409
765,618;  884,616;   -0,086;    0,318
766,186;  684,622;    0,278;    0,136
766,754;  746,265;    0,005;    1,864
767,322;  618,999;   -1,995;    0,409
767,890;  562,097;   -0,722;   -1,773
768,459;  560,013;   -2,177;   -0,318
769,027;  794,474;    1,641;    3,409
769,595;  612,208;    3,278;    2,591
770,163;  706,669;    3,823;    2,955
770,730;  685,312;    0,732;   -0,136
771,298;  670,501;    0,187;   -1,409
771,866;  585,690;   -1,541;    4,955
772,434;  618,242;   -0,631;   -1,864
773,002;  828,612;    0,005;    0,682
773,569;  703,437;    0,914;    1,682
774,137;  823,353;   -0,268;   -0,045
774,705;  595,632;    0,278;   -0,136
775,272;  567,275;    0,641;    0,682
775,840;  594,009;   -0,177;    2,682
776,407;  718,107;    0,277;    1,955
776,975;  588,659;   -0,632;    0,318
777,542;  525,484;   -1,086;   -0,045
778,110;  566,582;   -1,268;   -0,045
778,677;  441,406;   -2,359;   -0,864
779,244;  522,777;    2,186;    1,045
779,812;  679,602;    1,823;    0,864
780,379;  764,699;    0,005;    1,136
780,946;  623,524;    1,005;   -0,773
781,513;  527,622;   -1,450;    0,318
782,080;  511,629;   -0,086;    2,864
782,647;  536,726;   -0,268;    3,045
783,214;  518,097;   -0,177;    3,864
783,781;  729,467;   -0,723;   -0,682
784,348;  663,746;   -0,632;    1,500
784,915;  442,208;   -3,177;    0,318
785,482;  686,396;    1,368;    2,591
786,049;  607,039;    0,186;   -0,591
786,615;  490,410;    0,277;   -0,955
787,182;  446,234;    0,186;   -0,682
787,749;  416,696;   -2,814;    1,409
788,315;  658,066;   -1,632;   -0,409
788,882;  534,618;    1,550;   -1,227
789,448;  844,625;    1,732;   -0,955
790,015;  600,177;    1,095;    3,227
790,581;  787,366;    1,459;    0,227
791,148;  601,100;    0,641;    1,045
791,714;  489,288;   -0,541;    3,136
792,280;  495,295;    0,186;    1,591
792,847;  438,574;    0,550;    2,500
793,413;  528,217;   -0,269;   -0,318
793,979;  746,679;    3,459;   -1,318
794,545; 1026,776;    4,459;    2,682
795,111;  910,510;    2,186;    1,318
795,678;  758,244;    0,731;   -1,682
796,244;  917,251;    3,368;    0,136
796,810;  761,712;    1,731;    0,773
797,375;  749,901;    0,549;   -2,136
797,941;  426,362;   -0,541;    0,591
798,507;  437,187;   -0,451;   -0,955
799,073;  481,194;   -0,360;    0,591
799,639;  475,200;   -2,632;    3,136
800,205;  437,207;    0,095;    2,682
800,770;  475,850;    0,640;    1,773
801,336;  492,584;    1,368;   -0,955
801,901; 1085,500;    4,549;    3,136
802,467;  728,598;   -0,542;    2,045
803,033;  506,150;   -0,087;    0,864
803,598;  506,884;    1,913;   -1,045
804,163;  512,800;    1,095;   -0,318
804,729;  615,625;   -0,178;    1,136
805,294;  509,086;    0,822;    2,227
805,859;  452,729;    0,731;   -0,409
806,425;  844,008;    1,186;    2,682
806,990;  827,379;    2,186;    4,318
807,555;  569,658;   -1,451;    2,591
808,120;  716,938;    0,822;   -0,409
808,685;  515,762;    0,185;   -2,500
809,250;  427,678;    0,004;   -0,500
809,815;  415,594;    1,913;    0,682
810,380;  543,783;   -0,269;    1,591
810,945;  719,880;   -1,087;    2,045
811,510;  552,251;    2,094;    1,591
812,075;  616,348;   -0,633;   -1,409
812,640;  855,900;    2,003;    1,409
813,204;  600,543;    0,822;   -0,227
813,769;  739,096;    2,094;   -0,045
814,334;  741,466;    0,458;    0,864
814,898;  462,927;    0,367;    0,591
815,463;  571,298;    1,276;   -0,773
816,027;  511,304;   -0,724;   -2,318
816,592;  427,220;    0,640;   -2,045
817,156;  612,954;    2,094;    1,136
817,721;  734,415;    4,276;    2,318
818,285;  460,786;    2,912;    1,500
818,849;  522,974;   -1,451;    1,682
819,414;  454,254;   -0,269;    2,955
819,978;  399,260;   -1,269;    1,773
820,542;  692,540;    2,003;    0,500
821,106;  518,637;   -0,815;    0,682
821,670;  737,462;   -0,815;    2,591
822,234;  511,378;   -0,270;    1,409
822,798;  411,749;    0,003;    0,500
823,362;  642,846;   -0,633;    4,227
823,926;  497,035;    0,094;    1,136
824,490;  691,860;   -0,997;   -0,682
825,054;  554,048;   -0,088;   -1,136
825,618;  451,055;   -1,542;   -1,500
826,181;  512,062;    0,458;   -1,318
826,745;  620,159;    1,367;   -1,045
827,309;  826,439;    1,185;    1,318
827,872;  698,354;    1,367;    0,955
828,436;  579,270;    1,185;   -0,773
828,999;  472,277;   -0,997;    1,227
829,563;  453,920;   -0,179;    1,136
830,126;  439,836;   -0,179;   -0,591
830,690;  548,024;   -1,997;    2,864
831,253;  465,122;   -0,543;    2,227
831,816;  513,583;   -1,906;    0,500
832,380;  471,317;    0,185;    0,864
832,943;  443,688;   -1,361;   -0,500
833,506;  458,422;    2,639;   -1,227
834,069;  604,247;    3,912;   -0,955
834,632;  446,071;    1,730;    1,318
835,195;  486,442;    1,003;    0,955
835,758;  426,267;   -0,997;    1,955
836,321;  449,001;    0,730;   -1,045
836,884;  417,007;   -0,725;   -0,955
837,447;  361,287;   -2,816;    1,773
838,010;  545,930;    0,366;    3,227
838,573;  546,846;   -1,179;    0,773
839,135;  404,580;   -1,361;   -0,955
839,698;  477,677;    1,275;    0,409
840,261;  425,320;    1,003;   -0,227
840,823;  380,236;   -0,543;    0,864
841,386;  363,061;   -0,452;   -2,409
841,948;  672,522;   -1,361;    1,773
842,511;  462,711;    0,912;    1,682
843,073;  660,718;    1,912;    0,227
843,636;  413,997;   -0,361;   -0,227
844,198;  633,640;    0,911;    0,591
844,760;  592,465;    1,093;    1,955
845,322;  389,017;    0,548;    1,136
845,885;  526,569;    0,730;    0,591
846,447;  464,122;   -1,998;    0,227
847,009;  802,765;    1,911;   -0,682
847,571;  507,499;    0,820;   -2,045
848,133;  458,233;   -1,089;   -1,864
848,695;  321,148;   -0,543;    1,409
849,257;  403,701;   -1,089;   -1,682
849,819;  556,162;   -0,998;   -0,409
850,381;  420,805;   -0,725;   -0,864
850,942;  487,630;    1,093;   -0,591
851,504;  573,091;    1,184;    0,227
852,066;  421,643;    1,275;   -1,591
852,628;  452,195;   -0,180;    1,955
853,189;  354,929;    1,638;    2,682
853,751;  363,300;   -0,907;    1,409
854,312;  525,306;   -0,453;   -1,682
854,874;  657,768;   -2,089;   -0,773
855,435;  463,320;   -0,907;   -1,682
855,997;  498,327;   -1,816;   -0,136
856,558;  627,242;    0,366;    1,773
857,119;  533,158;    0,820;    2,864
857,681;  377,983;    0,002;    0,318
858,242;  645,172;    1,911;   -2,136
858,803;  597,542;    0,456;   -0,773
859,364;  464,458;    0,184;   -4,773
859,925;  550,374;   -2,453;   -0,955
860,486;  426,289;   -0,453;   -0,955
861,047;  369,569;   -0,544;   -1,227
861,608;  420,394;   -1,089;   -0,773
862,169;  284,491;    0,638;   -0,045
862,730;  422,407;    0,456;    1,409
863,291;  455,778;   -0,635;   -0,500
863,852;  428,966;   -0,635;    1,955
864,412;  440,336;   -0,271;   -0,864
864,973;  672,252;   -0,089;    0,500
865,534;  779,350;   -1,726;    0,227
866,094;  560,902;    1,820;    0,227
866,655;  698,182;    1,274;    3,318
867,215;  502,825;    0,274;    0,136
867,776;  356,922;    0,547;   -0,136
868,336;  454,474;   -1,453;    0,136
868,897;  828,117;    2,638;    1,682
869,457;  616,215;    1,365;    0,318
870,017;  402,404;    0,547;   -1,227
870,578;  392,592;   -0,817;    0,773
871,138;  483,326;   -2,089;   -0,955
871,698;  403,878;   -0,817;   -1,318
872,258;  520,521;   -0,453;   -2,864
872,818;  667,801;    2,729;    0,045
873,378;  485,626;    0,638;    1,045
873,938;  461,814;    0,547;    0,500
874,498;  365,366;    0,274;   -1,955
875,058;  478,373;    2,183;    1,773
875,618;  475,198;    1,910;   -2,682
876,177;  517,659;    1,274;    0,136
876,737;  346,030;   -0,090;    1,955
877,297;  708,582;    0,183;    1,955
877,856;  637,316;   -0,362;    0,318
878,416;  408,959;    1,183;   -0,136
878,976;  372,784;   -1,817;    0,409
879,535;  409,609;    0,092;    3,136
880,095;  394,615;   -0,544;    0,045
880,654;  343,531;   -1,090;    1,318
881,213;  640,447;    2,456;    1,500
881,773;  483,545;    2,637;    2,682
882,332;  955,370;    3,365;    5,136
882,891;  458,194;    3,092;    2,136
883,451;  454,383;   -1,272;    1,682
884,010;  426,390;   -2,908;   -0,409
884,569;  357,669;   -0,999;   -0,045
885,128;  525,949;    2,819;   -1,864
885,687;  765,319;    4,455;    0,682
886,246;  933,053;    1,455;    2,136
886,805;  739,060;    2,455;    2,045
887,364;  400,248;   -0,999;   -0,500
887,922;  335,800;   -1,181;    0,045
888,481;  539,080;   -1,545;    0,591
889,040;  606,450;    1,183;    2,136
889,599;  481,002;    2,455;    1,409
890,157;  471,555;    1,455;    2,409
890,716;  410,470;   -0,090;    0,227
891,274;  532,295;    0,092;   -1,136
891,833;  595,938;    1,546;    0,864
892,391;  485,672;   -0,454;    0,500
892,950;  575,315;    1,819;   -0,773
893,508;  384,140;    0,455;   -0,409
894,067;  313,420;    0,637;    0,136
894,625;  413,336;   -0,636;   -1,500
895,183;  371,706;   -0,363;   -0,682
895,741;  634,076;    1,728;   -1,773
896,299;  441,083;   -0,545;   -2,409
896,858;  388,817;    0,819;   -1,591
897,416;  518,551;    2,728;   -1,318
897,974;  441,376;    1,819;    0,318
898,532;  863,837;    6,091;    2,682
899,089;  581,753;    2,091;   -0,682
899,647;  482,760;   -1,454;    1,318
900,205;  489,130;    1,182;    1,045
900,763;  474,046;   -0,454;    0,227
901,321;  422,780;    2,364;   -1,409
901,878;  267,968;   -1,000;   -0,773
902,436;  353,975;   -1,363;    1,318
902,994; 1020,164;    4,728;    3,682
903,551;  592,898;    0,728;    0,409
904,109;  458,359;    0,182;   -1,409
904,666;  423,547;    2,455;    1,045
905,224;  318,463;    0,182;   -0,409
905,781;  486,743;    0,727;   -0,318
906,338;  421,204;   -1,363;    1,045
906,895;  322,483;    0,637;    2,045
907,453;  575,945;    1,727;    1,136
908,010;  436,497;   -0,909;    0,409
908,567;  431,958;    1,273;    0,591
909,124;  285,965;    0,364;   -1,500
909,681;  350,062;   -2,909;    0,682
910,238;  375,796;    0,636;   -1,318
910,795;  284,894;   -0,273;   -1,136
911,352;  306,258;   -2,909;   -2,682
911,909;  345,803;   -1,364;   -0,864
912,466;  346,712;   -3,182;    1,500
913,022;  456,621;   -1,636;    0,500
913,579;  525,803;   -0,909;    2,045
914,136;  410,076;    1,636;    0,955
914,692;  406,530;    0,091;   -1,227
915,249;  437,348;    1,455;    0,409
915,806;  494,076;    0,182;    1,955
916,362;  396,712;    1,909;    1,864
916,918;  382,167;    2,000;    1,045
917,475;  499,439;   -1,182;    0,955
918,031;  348,803;    3,364;   -0,045
918,587;  421,348;   -0,909;   -0,318
919,144;  335,258;   -2,273;    0,227
919,700;  264,439;    1,727;    0,773
920,256;  270,348;    0,727;    0,045
920,812;  329,348;   -0,727;   -1,045
921,368;  299,258;   -1,727;   -1,045
921,924;  329,076;    0,182;   -0,136
922,480;  412,439;   -0,545;    1,227
923,036;  414,985;    1,273;    1,955
923,592;  320,439;    0,455;    0,318
924,148;  337,712;    0,455;   -0,955
924,704;  462,439;   -1,364;   -0,409
925,259;  296,439;   -0,273;    0,591
925,815;  301,621;    1,455;    0,500
926,371;  278,439;    2,909;    1,409
926,926;  420,621;    2,091;    0,591
927,482;  401,076;   -1,364;    0,773
928,037;  333,985;    0,909;    2,045
928,593;  497,712;    1,636;    1,045
929,148;  298,530;   -1,818;   -1,500
929,704;  369,621;   -1,455;   -0,500
930,259;  300,803;    0,091;   -0,136
930,814;  461,894;   -0,818;    1,955
931,369;  406,621;    1,091;   -0,773
931,925;  260,258;   -0,091;    0,136
932,480;  348,076;   -2,818;   -2,591
933,035;  643,803;    0,545;   -0,318
933,590;  547,621;    0,364;   -1,773
934,145;  263,076;   -1,364;   -0,318
934,700;  185,803;    0,455;   -0,591
935,255;  239,621;   -0,091;    0,045
935,809;  518,894;    3,182;    0,864
936,364;  243,530;   -0,455;   -0,136
936,919;  236,803;    0,455;   -1,773
937,474;  177,803;    1,455;    0,136
938,028;  196,439;   -1,636;    1,136
938,583;  524,076;    1,818;    4,682
939,138;  266,712;    2,091;    2,136
939,692;  166,985;    1,636;   -1,136
940,247;  207,530;   -0,727;   -1,045
940,801;  229,348;   -0,636;    0,227
941,355;  167,439;   -0,364;    2,591
941,910;  116,530;   -0,273;   -2,136
942,464;  148,712;   -0,818;   -0,318
943,018;  317,530;    1,000;   -0,227
943,572;  200,439;    2,545;   -0,682
944,126;  263,712;    0,091;   -0,409
944,681;  177,348;    3,091;    0,227
945,235;  133,076;    1,000;   -0,591
945,789;  112,894;    0,364;   -1,864
946,342;  296,076;    0,455;   -0,591
946,896;  147,803;   -2,273;    0,955
947,450;  122,985;    1,545;   -0,227
948,004;  290,076;    1,727;   -0,045
948,558;  176,076;    0,273;   -0,864
949,111;  171,894;   -0,273;   -0,318
949,665;  287,530;    1,636;   -0,682
950,219;  265,985;   -0,091;   -1,045
950,772;  207,621;   -1,909;    1,864
951,326;  195,076;    0,545;   -0,955
951,879;  161,439;    0,727;   -2,318
952,433;  248,803;    0,000;    2,227
952,986;  146,167;    2,909;    0,682
953,539;  123,439;   -0,273;    0,591
954,093;   98,894;    0,545;   -1,318
954,646;  167,621;    0,909;    1,318
955,199;  122,076;    0,000;   -0,500
955,752;  282,803;   -0,455;    1,773
956,305;  175,894;   -0,091;    2,955
956,858;  206,894;    0,818;   -0,318
957,411;  236,348;   -0,545;    2,136
957,964;  190,530;    1,364;    2,136
958,517;  133,621;   -1,545;    3,136
959,070;  106,076;   -0,455;    1,955
959,623;  283,712;    1,091;    1,500
960,176;  251,621;    1,727;    2,045
960,728;  212,076;   -2,727;    0,773
961,281;  176,439;    0,545;    0,500
961,834;  134,167;   -0,909;    0,864
962,386;  139,985;    1,727;    1,045
962,939;  121,621;    0,364;   -0,318
963,491;  153,439;    0,455;    1,136
964,043;  112,530;    1,182;    2,409
964,596;  220,348;   -1,000;    2,227
965,148;  162,439;   -1,000;    1,773
965,700;  111,712;    1,091;   -0,227
966,253;  214,530;   -0,636;    0,318
966,805;  180,803;   -2,273;    0,773
967,357;  140,348;    1,091;   -1,500
967,909;  209,348;    0,455;   -1,227
968,461;  142,985;    0,545;    3,136
969,013;  112,985;   -0,182;   -0,864
969,565;  217,167;   -0,455;   -1,136
970,117;  361,348;   -0,364;    1,045
970,669;  219,894;    0,182;   -0,136
971,220;   96,530;   -0,455;   -1,500
971,772;  147,439;   -0,636;   -0,318
972,324;  199,167;    0,091;   -0,500
972,876;  133,258;    0,818;   -0,045
973,427;  209,621;    1,909;   -1,045
973,979;  257,985;   -0,727;   -2,500
974,530;  142,803;    1,818;    1,318
975,082;  181,803;   -0,545;    1,682
975,633;  150,439;    1,091;    1,682
976,184;  164,348;    0,909;    0,773
976,736;  157,439;    0,091;    0,227
977,287;  185,258;   -0,909;   -0,500
977,838;  153,348;    0,909;   -0,318
978,389;  154,076;   -1,000;   -0,500
978,940;   82,439;    0,545;   -0,409
979,491;   80,348;    0,091;   -0,500
980,042;  135,803;    0,182;    3,045
980,593;  152,258;   -2,545;    0,227
981,144;  201,621;    2,545;   -0,500
981,695;  211,803;    1,455;    1,500
982,246;  179,894;   -0,273;    1,045
982,797;  106,076;   -1,727;    0,682
983,347;  188,258;    0,364;    0,591
983,898;  320,621;    3,091;    0,409
984,449;  302,258;    2,182;    0,773
984,999;  202,530;    1,455;   -1,136
985,550;  174,985;    0,182;   -0,318
986,100;  100,530;   -0,455;   -0,318
986,651;   92,621;   -0,818;    0,045
987,201;  109,712;   -1,000;   -0,591
987,751;  119,258;    0,818;    2,864
988,302;  134,076;    2,636;    1,500
988,852;  176,985;    0,455;   -1,136
989,402;  204,258;    0,091;    0,682
989,952;  227,621;   -2,182;    0,864
990,502;  124,803;   -0,091;    0,682
991,052;   71,348;   -0,727;    0,045
991,602;  101,530;   -2,909;    1,318
992,152;  129,894;    0,455;    0,682
992,702;  150,894;    1,364;   -0,045
993,252;  116,258;   -3,000;   -0,500
993,802;  175,258;   -0,273;    1,318
994,352;  145,712;   -1,545;    1,136
994,901;   88,348;   -0,182;    3,227
995,451;   85,803;   -0,182;    0,318
996,000;  105,167;    1,636;    0,318
996,550;  115,894;    2,273;    0,227
997,100;  135,076;    1,273;   -0,045
997,649;  216,076;    2,182;    0,955
998,198;  115,803;    1,727;   -1,500
998,748;  169,803;    1,091;   -2,318
999,297;  139,621;   -0,818;   -0,409
999,846;  209,894;    1,000;   -0,773
1000,395;  153,167;   -0,818;    0,500
1000,945;  224,348;    1,818;   -0,773
1001,494;  222,712;    2,364;    0,682
1002,043;  223,167;    4,636;    0,864
1002,592;  114,439;   -1,091;    1,955
1003,141;   99,530;   -0,455;   -0,682
1003,690;  211,894;    1,727;    0,500
1004,238;  136,894;    1,455;   -0,045
1004,787;   95,985;    1,364;    1,227
1005,336;  185,803;    0,364;    0,682
1005,885;  152,076;    1,364;   -2,773
1006,433;  145,894;    0,545;    0,955
1006,982;  245,258;    0,455;    1,682
1007,531;  167,894;   -1,818;   -0,227
1008,079;  149,258;   -2,273;    0,500
1008,627;  113,258;   -1,455;    0,409
1009,176;  132,439;    0,000;   -1,955
1009,724;   99,258;    1,091;    0,864
1010,273;  182,348;    1,273;    0,500
1010,821;  110,803;    0,091;    1,409
1011,369;   99,803;   -1,364;    1,318
1011,917;  101,985;   -1,364;   -0,591
1012,465;  144,167;    1,273;   -1,591
1013,013;  136,985;    2,091;   -1,682
1013,561;  204,621;    0,455;   -0,773
1014,109;  263,167;   -1,909;    1,682
1014,657;  181,985;    0,364;    0,591
1015,205;  121,894;    1,636;   -0,955
1015,753;   94,439;   -0,545;   -1,409
1016,301;  138,530;   -2,636;    3,045
1016,848;  185,439;   -1,273;    0,409
1017,396;  172,530;    2,545;    0,045
1017,944;  173,894;    1,182;    1,864
1018,491;  130,530;    0,273;    1,409
1019,039;  301,439;    0,455;    0,591
1019,586;  159,803;   -1,364;    1,682
1020,134;  145,712;    0,455;    1,500
1020,681;  195,803;    0,182;   -1,136
1021,228;  148,621;    2,909;   -2,227
1021,776;  133,076;    1,182;   -1,136
1022,323;  270,258;    0,455;    0,773
1022,870;  195,894;   -1,000;   -0,045
1023,417;  231,985;    2,636;    1,864
1023,964;  139,803;    2,636;    1,227
1024,511;  118,803;    1,000;    0,773
1025,058;  157,076;    3,182;   -0,045
1025,605;  122,258;   -2,273;    3,136
1026,152;  246,712;    1,727;   -0,591
1026,699;  157,985;    1,818;    1,318
1027,245;  144,803;   -0,091;    0,318
1027,792;  109,712;   -1,000;    1,409
1028,339;  247,894;    2,364;   -0,045
1028,885;  161,076;    1,000;   -0,227
1029,432;  134,894;   -0,091;    0,227
1029,978;  186,621;   -1,000;   -1,591
1030,525;  199,439;    1,000;    0,409
1031,071;  124,258;   -1,364;    1,136
1031,618;  287,530;    0,364;    1,682
1032,164;  186,076;   -0,091;    3,045
1032,710;  212,530;    1,636;   -1,500
1033,256;  188,621;   -0,636;   -0,136
1033,803;  103,894;   -0,545;    1,500
1034,349;   39,894;   -1,364;    0,136
1034,895;   62,894;    0,000;   -0,318
1035,441;  101,621;   -0,818;    0,318
1035,987;  129,348;   -2,364;   -0,682
1036,533;  168,803;   -1,455;   -0,955
1037,078;  297,985;    1,455;    1,682
1037,624;  209,258;    2,455;   -0,955
1038,170;  122,167;    0,455;   -0,318
1038,716;  171,439;    1,636;   -0,409
1039,261;  106,803;   -2,273;   -0,773
1039,807;  120,712;   -0,091;    3,409
1040,352;  122,348;   -1,909;   -0,318
1040,898;  115,530;   -1,545;   -0,682
1041,443;   86,258;   -1,455;   -2,591
1041,989;  273,803;    1,091;    1,591
1042,534;  152,894;   -0,364;    2,591
1043,079;   78,803;    2,909;    0,955
1043,625;  140,530;    1,818;    0,500
1044,170;  144,348;   -1,364;    1,045
1044,715;  265,621;    2,455;    0,955
1045,260;  202,530;    2,182;   -0,955
1045,805;  114,258;    1,182;   -0,591
1046,350;  101,258;    1,364;   -0,409
1046,895;  210,803;    2,909;    1,591
1047,440;  188,985;    5,364;    0,409
1047,985;  124,167;    2,818;   -0,955
1048,530;  108,803;    1,545;    1,227
1049,074;  132,258;    0,000;    0,318
1049,619;  103,803;   -1,364;    1,955
1050,164;  102,621;    0,455;    0,227
1050,708;  163,258;   -0,455;    0,045
1051,253;  300,076;    1,273;   -2,227
1051,797;  178,439;    0,818;   -1,318
1052,342;   85,167;   -1,182;    1,045
1052,886;  131,530;    0,364;   -1,409
1053,430;   80,985;   -1,364;    0,136
1053,975;  138,894;   -0,818;   -0,318
1054,519;  131,530;   -0,727;    3,227
1055,063;  164,712;    0,909;    1,318
1055,607;  160,076;   -0,182;    0,227
1056,151;  156,894;    2,909;    1,682
1056,695;  111,712;    2,273;   -1,136
1057,239;  107,894;   -1,727;   -0,682
1057,783;  133,076;    0,818;   -1,500
1058,327;  179,985;    0,000;    1,409
1058,871;  262,894;   -0,545;    1,318
1059,415;  192,258;   -0,818;   -0,045
1059,958;  266,258;    1,455;    2,591
1060,502;  117,712;   -1,000;   -0,773
1061,046;   80,167;    0,364;   -0,955
1061,589;   75,348;   -3,000;   -1,136
1062,133;   63,712;   -1,273;    1,864
1062,676;   88,803;    1,182;    0,864
1063,220;  102,894;    1,091;    0,500
1063,763;  124,439;    0,909;    1,136
1064,306;  126,985;   -0,909;    1,864
1064,849;  132,621;   -0,909;    0,591
1065,393;  118,621;    2,000;   -1,500
1065,936;  121,530;    0,182;   -0,409
1066,479;   81,712;   -1,455;    1,318
1067,022;   93,985;   -0,273;   -0,227
1067,565;   78,985;   -0,091;   -1,318
1068,108;   66,167;    0,727;   -0,591
1068,651;   55,803;   -0,636;    1,409
1069,194;   58,258;   -0,455;   -1,682
1069,736;   69,348;   -1,273;    0,955
1070,279;   59,167;   -1,364;   -0,500
1070,822;  104,167;   -2,000;   -0,318
1071,364;  174,258;   -0,364;    1,318
1071,907;   99,348;   -0,727;    3,227
1072,450;   32,985;    0,000;   -0,045
1072,992;   65,621;   -0,273;    3,136
1073,535;   97,712;    2,091;    2,136
1074,077;   63,712;   -0,727;    2,045
1074,619;   58,348;   -1,364;    0,591
1075,161;   78,985;   -1,091;    1,500
1075,704;  146,530;    1,545;    1,227
1076,246;   77,076;   -0,182;    0,682
1076,788;   46,894;   -0,364;    1,773
1077,330;   45,439;    1,273;    2,136
1077,872;   63,894;    0,909;    0,955
1078,414;  160,348;    2,727;    0,773
1078,956;   83,985;    1,273;   -0,227
1079,498;  148,803;    1,636;    0,318
1080,040;   78,803;    1,909;   -1,318
1080,581;   63,167;    1,636;   -0,318
1081,123;   36,712;    0,091;   -0,773
1081,665;   39,530;   -1,182;   -0,955
1082,206;  140,076;    1,364;   -0,500
1082,748;   89,985;    0,727;    2,045
1083,289;   49,348;   -2,000;    1,318
1083,831;   45,167;   -0,545;    0,227
1084,372;   66,076;    0,000;    0,591
1084,913;   61,894;    1,091;    0,864
1085,455;   44,621;   -1,909;   -2,045
1085,996;   37,258;   -2,273;    0,136
1086,537;   48,258;   -0,091;    0,864
1087,078;   56,439;   -0,909;   -2,136
1087,619;   87,348;   -1,273;    0,227
1088,160;   66,076;    0,000;    1,318
1088,701;   58,439;   -1,091;    0,682
1089,242;   51,530;    1,364;   -2,227
1089,783;   71,985;   -0,273;    1,409
1090,324;   59,348;    0,455;    0,682
1090,865;   39,167;    2,727;   -0,409
1091,405;   31,167;    0,727;    2,227
1091,946;   49,985;    0,182;   -0,955
1092,487;   25,167;    0,818;   -1,409
1093,027;   81,530;   -1,364;   -1,500
1093,568;   45,439;   -0,364;    1,227
1094,108;   58,530;    0,273;    1,773
1094,649;   46,985;   -1,182;    0,136
1095,189;   36,803;   -0,636;   -0,682
1095,729;   32,258;   -0,091;    0,955
1096,269;   33,439;    0,727;   -0,955
1096,810;  104,530;   -1,364;    0,500
1097,350;   71,712;    1,364;   -0,773
1097,890;   51,985;    0,364;    1,227
1098,430;  144,530;    2,364;    2,864
1098,970;  103,712;    2,182;    1,682
1099,510;   43,530;    0,545;   -2,318
1100,050;   36,985;    1,000;   -1,591
1100,589;   44,167;   -0,727;   -0,318
1101,129;   66,894;    0,818;   -0,955
1101,669;  106,530;    1,727;    2,136
1102,209;   62,803;   -0,091;    2,227
1102,748;   48,803;    0,000;    0,955
1103,288;   54,985;    1,273;   -1,227
1103,827;   47,076;    3,091;   -2,227
1104,367;   32,621;   -0,091;   -2,409
1104,906;   36,258;    1,364;   -1,136
1105,445;   58,712;    0,636;   -1,136
1105,985;   41,803;   -0,727;    1,500
1106,524;   48,712;   -1,727;   -0,682
1107,063;   43,803;   -2,727;    1,409
1107,602;   30,076;   -1,909;   -1,500
1108,141;   24,348;   -1,909;    1,500
1108,680;   56,985;   -3,455;   -0,591
1109,219;   43,258;   -0,909;   -0,500
1109,758;   37,985;    0,455;    0,682
1110,297;   36,167;    1,000;   -0,682
1110,836;   25,894;   -0,727;    0,955
1111,375;   30,167;   -2,545;    0,409
1111,913;   54,621;   -1,000;    0,773
1112,452;   42,439;   -0,273;    0,136
1112,991;   23,258;    1,091;    1,955
1113,529;   22,712;   -0,818;   -0,045
1114,068;   33,258;   -0,273;    2,955
1114,606;   23,621;   -0,364;   -0,955
1115,144;   48,348;   -1,273;    1,045
1115,683;   36,985;   -0,727;    0,318
1116,221;   55,258;   -0,455;   -0,864
1116,759;   29,803;    0,636;   -0,864
1117,297;   60,076;    0,000;    1,864
1117,836;   30,530;   -2,182;   -1,227
1118,374;   30,167;    0,182;   -0,682
1118,912;   34,621;    0,909;    2,682
1119,450;   33,803;    1,000;    0,864
1119,988;   35,076;    1,545;    2,136
1120,525;  180,439;    5,091;    3,318
1121,063;   84,348;    1,182;    1,864
1121,601;   32,076;   -0,909;   -1,227
1122,139;   22,803;   -0,727;   -2,045
1122,676;   72,530;   -0,727;    2,773
1123,214;   59,621;   -1,182;    4,409
1123,751;   23,985;    1,727;    2,227
1124,289;   39,712;   -0,091;   -0,409
1124,826;   25,621;    1,727;    0,227
1125,364;   14,076;    1,727;   -0,955
1125,901;   66,803;    1,182;    1,227
1126,438;   57,076;    0,818;    0,955
1126,975;   13,076;   -0,727;   -0,773
1127,513;   21,894;    0,273;    2,136
1128,050;   14,076;    1,636;   -0,682
1128,587;   25,621;    2,000;   -0,227
1129,124;   38,894;    0,091;    1,318
1129,661;   19,530;    0,273;    0,227
1130,198;   50,894;    1,636;    0,773
1130,734;   33,985;    0,182;    1,409
1131,271;   16,167;   -0,909;    0,864
1131,808;   41,348;    2,909;    3,045
1132,345;   22,803;    1,545;    0,318
1132,881;    9,439;   -1,545;   -1,864
1133,418;   27,258;    0,727;   -1,136
1133,954;   18,621;    2,455;   -2,682
1134,491;   31,803;    1,364;   -0,773
1135,027;   16,621;    2,364;    0,864
1135,564;   27,439;    0,273;    2,955
1136,100;   22,712;    0,364;    2,136
1136,636;   12,167;   -1,273;   -1,045
1137,172;   21,621;    0,000;   -1,045
1137,708;   14,530;   -1,364;   -1,045
1138,245;    9,348;    1,273;   -1,227
1138,781;    9,439;    1,091;   -3,318
1139,317;   12,167;    1,273;   -1,409
1139,852;   17,803;    3,091;    0,136
1140,388;   28,530;   -1,182;   -0,409
1140,924;   11,167;   -1,091;   -2,227
1141,460;    4,894;   -1,636;    0,136
1141,996;    6,803;   -1,364;    2,682
1142,531;    8,076;    1,364;    3,318
1143,067;   41,076;    1,182;    1,045
1143,602;   52,803;   -0,091;   -0,318
1144,138;   23,712;   -2,636;    1,045
1144,673;    7,348;   -1,455;    1,409
1145,209;   10,439;   -1,909;   -0,318
1145,744;    4,348;   -0,727;    0,864
1146,279;   18,439;    1,818;   -0,136
1146,815;    9,258;    1,545;   -2,682
1147,350;   18,985;   -1,364;    0,045
1147,885;    8,712;   -0,818;   -1,318
1148,420;    8,621;   -2,273;    0,773
1148,955;    8,076;   -1,727;    1,864
1149,490;   11,258;   -0,909;   -1,591
1150,025;    8,530;    0,455;   -1,773
1150,560;   19,712;    1,091;   -0,955
1151,094;   16,803;    1,455;   -0,591
1151,629;   13,985;    1,636;    0,864
1152,164;   10,076;    1,364;    1,318
1152,698;    5,167;   -0,182;   -0,136
1153,233;    1,530;    0,091;   -0,682
1153,767;    3,348;   -3,000;   -2,318
1154,302;    9,167;   -1,455;    1,773
1154,836;    7,894;   -0,455;   -2,136
1155,371;   14,621;   -1,364;    3,682
1155,905;    9,258;   -0,636;    1,682
1156,439;   12,348;   -0,636;   -0,500
1156,973;   11,530;    0,364;    0,318
1157,507;    6,076;   -0,364;    0,682
1158,042;    9,167;   -0,727;    1,045
1158,576;   13,439;    0,182;    1,773
1159,110;   15,076;   -0,818;    2,409
1159,643;   11,076;    0,636;   -0,045
1160,177;    5,621;   -1,545;    1,500

