
Integration time [ms]:   0,040
Averaging Nr. [scans]: 11
Smoothing Nr. [pixels]: 0
Data measured with spectrometer [name]: 7318044SP
Wave   ;Sample   ;Dark     ;Reference
[nm]   ;[counts] ;[counts] ;[counts] 

186,757;   32,354;   31,551;    1,318
187,357;   29,648;   22,551;    0,955
187,958;   18,930;   15,460;   -1,591
188,558;   25,077;    8,915;   -1,227
189,159;   12,656;    6,733;   -4,500
189,759;   11,107;    7,278;   -3,591
190,360;    8,811;    2,824;   -2,136
190,960;   12,239;    2,915;   -4,136
191,560;   14,891;    3,189;   -6,591
192,161;   60,084;    4,372;   -3,500
192,761;   34,125;    4,010;   -3,227
193,361;   19,622;    1,556;   -3,773
193,962;   30,184;    2,010;   -2,682
194,562;    9,584;    1,189;   -3,955
195,162;    8,827;   -2,448;   -2,227
195,762;   34,801;   -3,176;   -0,045
196,362;   23,287;    1,370;   -2,500
196,963;    8,060;    2,006;   -0,864
197,563;   17,443;    1,551;   -0,955
198,163;    7,808;    0,096;   -0,682
198,763;   12,037;    1,733;   -0,500
199,363;   19,408;    3,096;   -0,500
199,963;   15,583;    0,369;    0,409
200,563;   13,345;    2,823;   -1,409
201,163;   11,388;    3,277;   -0,227
201,763;   14,829;    3,732;    0,318
202,363;    8,670;    1,459;    1,500
202,963;   14,532;    1,459;    1,045
203,563;   25,141;    0,277;    0,500
204,162;   12,515;    2,096;   -1,864
204,762;    9,537;    0,550;    0,591
205,362;    4,946;    3,004;    1,955
205,962;   11,476;    3,096;    1,955
206,562;   12,650;    1,823;    2,318
207,161;    8,656;   -0,087;    0,318
207,761;   38,469;    1,277;    2,409
208,361;   15,884;   -0,268;    1,409
208,960;   15,730;    0,459;    1,500
209,560;   13,363;    1,277;    1,591
210,160;   20,781;    0,550;    1,864
210,759;   16,846;    4,186;    1,227
211,359;   11,129;    1,459;    1,045
211,958;   59,970;    1,277;    2,045
212,558;   56,864;    1,732;    1,864
213,157;   28,352;    1,822;    1,500
213,757;   94,236;    3,822;   -0,227
214,356;   40,377;    1,277;   -0,409
214,956;   93,391;    3,095;    0,409
215,555;   36,977;    2,095;    2,136
216,154;   20,614;   -2,723;   -0,591
216,754;   20,063;    0,277;    0,773
217,353;   31,098;   -0,268;   -1,045
217,952;    7,122;   -0,178;    0,318
218,552;   44,579;    1,368;   -0,773
219,151;   26,429;    0,277;    0,955
219,750;   21,117;    0,004;   -0,227
220,349;   16,137;   -0,451;    1,045
220,948;   58,264;   -1,360;    1,136
221,548;   27,836;    0,913;    1,227
222,147;   36,733;   -0,087;   -0,409
222,746;   91,075;   -0,451;   -0,955
223,345;   51,542;    0,731;    0,500
223,944;   52,946;   -0,451;    0,773
224,543;   61,639;    1,004;   -1,409
225,142;   47,048;    0,094;    0,136
225,741;   58,963;   -0,814;    1,045
226,340;   52,796;   -0,451;   -0,955
226,939;  111,273;   -0,996;   -0,136
227,538;   58,138;   -0,360;   -0,773
228,137;  125,706;   -0,814;    0,864
228,735;   95,521;   -0,541;    1,227
229,334;   36,516;   -0,905;   -0,227
229,933;  137,159;    0,459;    0,591
230,532;  136,491;    1,186;   -0,409
231,131;  189,835;    1,732;    0,318
231,729;  117,873;   -2,450;   -2,318
232,328;   82,865;   -0,723;   -1,500
232,927;   95,000;    1,004;   -0,500
233,525;   84,202;    3,640;    0,045
234,124;  108,036;    2,368;   -1,591
234,723;   74,239;    0,913;   -1,045
235,321;   67,553;    2,277;    0,136
235,920;   84,512;    1,186;   -1,227
236,518;  186,463;    3,459;    0,318
237,117;   94,110;    0,004;   -0,227
237,715;  112,518;    0,640;   -0,500
238,314;  136,045;   -0,087;   -2,318
238,912;  221,682;   -0,723;   -1,409
239,510;  160,217;    0,459;   -1,227
240,109;  236,071;    0,004;    3,773
240,707;  205,629;   -0,996;    1,227
241,305;  104,648;    0,550;    0,136
241,904;  171,375;   -0,178;   -2,045
242,502;  263,201;   -0,632;   -0,227
243,100;  183,876;   -0,087;   -0,955
243,698;  131,829;    0,732;    1,682
244,297;  159,337;   -0,632;    0,682
244,895;  153,093;   -0,269;   -2,318
245,493;  285,482;    2,186;   -0,591
246,091;  291,743;    1,368;   -1,318
246,689;  236,195;    1,004;    0,591
247,287;  215,282;    0,822;   -1,136
247,885;  179,517;   -1,451;    1,227
248,483;  150,915;    1,822;   -0,500
249,081;  221,475;    0,185;    1,591
249,679;  251,647;   -0,178;    1,682
250,277;  152,862;   -1,723;    0,864
250,875;  252,060;   -1,087;   -1,045
251,473;  171,659;   -1,178;    0,500
252,071;  248,915;    1,459;    1,045
252,669;  187,037;   -1,814;    0,318
253,267;  145,672;   -0,087;    0,773
253,864;  193,010;   -0,360;    0,682
254,462;  301,873;    1,640;    1,591
255,060;  153,496;   -0,269;    1,318
255,658;  149,491;    0,822;   -0,136
256,255;  195,007;    0,186;   -2,045
256,853;  237,153;   -0,269;    1,409
257,451;  208,840;    0,822;    1,864
258,048;  531,736;    1,822;    1,864
258,646;  314,234;    1,731;   -1,045
259,243;  389,699;   -0,087;    2,227
259,841;  288,584;   -0,814;    0,318
260,438;  178,791;   -0,087;    0,864
261,036;  275,795;   -1,905;    1,409
261,633;  182,315;   -0,087;    2,227
262,231;  149,030;    2,731;   -0,045
262,828;  149,594;   -0,905;    1,136
263,425;  199,458;    0,913;   -0,591
264,023;  199,859;    0,186;    0,045
264,620;  321,410;   -0,360;   -0,318
265,217;  420,130;   -2,087;    3,136
265,815;  210,561;   -1,905;    2,136
266,412;  304,408;    0,731;    0,136
267,009;  320,110;   -1,451;    0,773
267,606;  379,325;    0,822;   -0,955
268,203;  231,261;   -0,269;   -0,591
268,801;  255,853;    1,731;    0,591
269,398;  192,707;   -0,360;    2,500
269,995;  309,413;    0,277;    1,591
270,592;  266,153;   -0,632;   -0,500
271,189;  196,345;    0,186;    0,409
271,786;  174,644;   -0,632;    1,227
272,383;  364,709;   -1,087;    0,227
272,980;  253,024;    0,277;    0,318
273,577;  215,485;    0,004;    1,227
274,174;  195,315;    0,822;    2,591
274,771;  309,855;   -0,814;   -0,773
275,367;  623,755;    2,277;    1,409
275,964;  456,425;    0,731;   -0,500
276,561;  282,045;    1,549;   -1,045
277,158;  205,011;    0,095;   -1,773
277,755;  411,748;    2,185;    0,409
278,351;  328,595;   -0,451;   -1,500
278,948;  376,199;   -0,815;    0,045
279,545;  331,441;   -1,360;    2,318
280,141;  468,830;   -1,723;   -2,045
280,738;  444,213;   -0,451;   -0,136
281,334;  274,798;   -1,633;    0,591
281,931;  292,339;   -0,087;   -1,318
282,528;  384,326;    0,822;   -0,500
283,124;  443,509;   -1,087;   -0,500
283,721;  435,510;   -0,451;    1,409
284,317;  315,798;    0,185;    2,500
284,913;  462,696;   -1,360;    0,591
285,510;  665,969;    0,640;   -0,318
286,106;  499,116;   -2,269;   -0,955
286,703;  342,463;   -0,360;    1,955
287,299;  293,039;   -1,451;   -0,591
287,895;  277,684;    0,822;   -1,045
288,491;  257,253;    0,186;    2,136
289,088;  364,094;   -2,360;    2,409
289,684;  406,219;   -1,723;    1,500
290,280;  536,822;    0,368;    0,682
290,876;  483,952;    1,822;    5,500
291,472;  408,739;    1,276;    2,227
292,068;  422,394;    1,367;    0,227
292,665;  315,220;    2,095;    0,773
293,261;  229,986;    0,276;    2,136
293,857;  400,180;    2,913;    2,136
294,453;  328,066;    3,550;    0,955
295,049;  510,468;   -0,268;    1,955
295,644;  368,087;    0,095;    0,136
296,240;  247,950;   -0,905;   -0,136
296,836;  352,620;   -0,995;    0,318
297,432;  462,937;    1,096;   -0,500
298,028;  489,848;    0,732;    0,773
298,624;  365,628;    1,459;    1,864
299,220;  343,603;    2,368;    0,591
299,815;  331,545;    1,005;   -0,409
300,411;  418,468;    0,914;    1,773
301,007;  518,658;    1,368;    0,227
301,602;  369,624;   -0,541;   -2,318
302,198;  481,723;    0,732;   -0,773
302,794;  351,412;    1,187;   -0,500
303,389;  295,602;   -1,177;    1,045
303,985;  333,518;    0,550;    1,409
304,580;  453,773;    1,459;    1,591
305,176;  370,559;   -3,086;    0,136
305,771;  264,492;   -1,268;   -1,227
306,367;  608,691;    4,095;    0,136
306,962;  405,169;    0,641;    1,500
307,558;  452,168;   -0,450;    0,136
308,153;  494,834;    1,095;   -1,136
308,748;  316,181;   -0,814;    1,682
309,344;  645,510;   -0,632;   -1,318
309,939;  644,397;   -1,905;   -1,318
310,534;  370,681;   -0,086;   -1,682
311,130;  346,731;    0,459;   -2,500
311,725;  312,206;    1,004;   -0,500
312,320;  360,719;    2,459;    0,045
312,915;  449,956;    1,459;   -1,045
313,510;  637,937;    1,550;   -0,500
314,105;  372,941;    1,096;    1,409
314,700;  256,599;   -3,086;   -1,045
315,295;  336,137;   -0,904;    0,045
315,890;  287,892;    1,277;    0,864
316,485;  387,393;   -0,359;   -0,318
317,080;  295,538;   -3,086;    1,591
317,675;  579,904;    2,005;   -0,682
318,270;  784,009;    5,550;    3,318
318,865;  675,006;    3,278;    3,045
319,460;  519,532;   -0,904;    0,591
320,055;  361,163;   -0,541;   -1,227
320,650;  370,058;   -1,995;   -0,591
321,244;  370,085;   -0,177;   -1,409
321,839;  373,970;   -1,541;   -0,227
322,434;  434,265;   -1,086;   -1,591
323,029;  367,841;    1,732;    1,591
323,623;  335,999;    1,550;    0,773
324,218;  508,550;    2,368;    1,409
324,812;  442,142;    1,096;    1,591
325,407;  438,896;   -0,814;    2,045
326,002;  553,900;    0,277;   -0,409
326,596;  499,409;    0,914;    1,318
327,191;  347,160;    0,823;   -1,045
327,785;  344,500;   -0,813;   -0,227
328,379;  354,252;    1,368;    0,136
328,974;  410,343;    0,914;   -3,955
329,568;  422,600;    0,186;   -2,409
330,163;  497,211;    2,096;    1,045
330,757;  341,673;    2,459;    1,591
331,351;  290,827;    0,459;    0,682
331,945;  283,319;    0,914;    1,409
332,540;  420,102;   -1,723;   -0,591
333,134;  404,314;   -1,086;    0,773
333,728;  410,738;    0,005;    0,318
334,322;  301,793;   -1,177;   -0,864
334,916;  296,796;    0,277;    0,955
335,510;  459,368;   -0,450;   -0,136
336,105;  444,069;   -1,086;    1,591
336,699;  339,019;   -1,086;    0,591
337,293;  374,427;   -1,723;    0,318
337,887;  316,538;   -2,723;    1,955
338,481;  450,191;    0,459;    0,591
339,074;  541,248;   -0,359;    2,682
339,668;  524,325;   -1,632;    1,227
340,262; 1046,681;    1,732;    3,227
340,856;  679,458;    1,822;   -0,682
341,450;  369,026;    1,004;    1,864
342,044;  412,427;    1,459;    0,136
342,637;  546,798;    0,913;   -2,136
343,231;  525,751;   -2,360;    0,682
343,825;  423,289;   -1,086;   -0,591
344,419;  394,153;   -1,995;    0,500
345,012;  896,221;    2,459;    4,045
345,606;  708,204;    4,641;    1,591
346,199;  407,080;   -1,813;   -0,227
346,793;  535,612;    1,914;    2,045
347,386;  347,502;   -0,813;   -1,136
347,980;  248,036;   -0,268;   -0,045
348,573;  356,084;    2,278;    0,409
349,167;  631,581;    5,278;    4,773
349,760;  501,042;    2,914;    2,682
350,354;  471,374;   -0,813;    1,136
350,947;  515,611;    1,096;    1,682
351,540;  392,516;   -0,358;   -1,409
352,134;  267,497;    1,096;    1,136
352,727;  294,113;   -0,086;    1,136
353,320;  312,056;    0,005;    0,591
353,913;  254,164;   -1,995;    1,864
354,507;  447,632;    0,823;   -1,227
355,100;  320,707;    0,460;    0,864
355,693;  712,246;    2,005;    2,409
356,286;  492,313;    0,823;    2,773
356,879;  349,865;   -0,722;    1,227
357,472;  349,692;   -0,904;    1,500
358,065;  394,376;   -0,722;    2,500
358,658;  248,772;   -0,540;    2,318
359,251;  222,959;   -1,631;   -0,591
359,844;  408,732;   -1,904;   -1,136
360,437;  473,893;   -2,995;    0,045
361,030;  321,594;    1,369;   -0,682
361,623;  328,342;    2,824;    0,318
362,215;  546,006;   -0,086;    2,045
362,808;  400,658;   -2,358;   -1,682
363,401;  327,866;   -2,449;    0,136
363,994;  541,932;   -0,631;   -1,500
364,586;  342,493;    0,824;   -1,500
365,179;  294,992;   -0,449;   -1,136
365,772;  162,897;   -1,995;    2,045
366,364;  307,747;    1,915;   -3,227
366,957;  374,808;    2,279;   -0,045
367,549;  319,141;    2,188;   -0,864
368,142;  330,439;    1,825;   -1,500
368,734;  290,036;    0,734;   -2,136
369,327;  220,531;    1,643;   -0,500
369,919;  263,535;   -1,538;    0,409
370,512;  283,046;   -1,083;   -0,500
371,104;  549,910;   -0,901;    1,591
371,696;  573,825;    1,191;   -0,955
372,289;  426,477;    0,373;    1,136
372,881;  372,270;   -2,080;    1,318
373,473;  262,753;   -2,170;    1,136
374,066;  357,751;   -0,169;    0,500
374,658;  335,880;    0,378;    1,136
375,250;  268,765;    0,653;   -1,409
375,842;  323,482;    0,473;   -0,045
376,434;  280,245;   -0,435;   -0,409
377,026;  261,546;    0,204;   -2,500
377,618;  321,514;   -0,158;   -0,682
378,210;  263,467;   -0,338;   -1,955
378,802;  256,867;    0,754;   -0,591
379,394;  640,797;    1,846;    0,682
379,986;  399,811;    1,393;   -0,955
380,578;  308,191;   -0,153;    0,773
381,170;  549,538;   -0,972;    0,045
381,762;  445,513;    0,755;    1,409
382,354;  402,991;   -0,065;   -1,318
382,945;  312,386;   -2,976;    0,318
383,537;  253,379;   -2,705;   -1,955
384,129;  244,441;   -2,160;   -1,136
384,721;  366,499;   -0,252;    0,955
385,312;  298,511;   -0,161;   -0,955
385,904;  387,704;   -2,706;    1,591
386,496;  321,706;   -0,979;    1,045
387,087;  459,000;    1,022;    2,500
387,679;  399,924;   -1,160;    0,045
388,270;  377,500;    2,840;    2,045
388,862;  344,634;    1,295;   -0,318
389,453;  328,335;   -0,887;    1,045
390,045;  336,698;   -0,705;   -2,682
390,636;  231,990;    0,204;   -0,591
391,227;  300,897;   -0,523;   -0,045
391,819;  273,942;    0,204;    0,773
392,410;  530,822;    1,022;    0,045
393,001;  339,282;   -0,979;   -1,591
393,593;  402,868;    1,930;   -0,045
394,184;  453,924;    1,385;   -0,409
394,775;  330,291;    1,839;    2,136
395,366;  253,832;    1,385;    0,773
395,957;  450,374;    0,113;    0,136
396,548;  336,624;   -0,342;    2,682
397,139;  463,337;   -2,433;    0,591
397,730;  372,916;   -1,888;    0,955
398,321;  384,343;   -1,252;    0,955
398,912;  315,183;   -0,615;    0,136
399,503;  311,452;   -3,524;   -1,409
400,094;  374,403;    0,294;    1,682
400,685;  364,152;   -0,433;    0,045
401,276;  305,949;    0,930;   -0,955
401,867;  287,544;   -0,888;    0,773
402,458;  244,761;   -2,251;   -2,318
403,048;  402,017;    1,112;    0,591
403,639;  341,845;    0,840;    0,864
404,230;  463,569;    2,476;    0,318
404,821;  524,542;   -0,615;    0,045
405,411;  424,045;    1,203;   -2,591
406,002;  329,660;   -1,252;   -1,136
406,592;  562,998;    2,294;    0,045
407,183;  414,085;    0,566;   -1,500
407,774;  393,050;    3,475;   -0,136
408,364;  347,753;    0,930;    0,409
408,954;  471,872;    0,384;    1,227
409,545;  468,319;    1,021;    1,045
410,135;  422,211;    1,293;    0,500
410,726;  369,070;    1,838;    0,318
411,316;  562,702;    0,111;    0,773
411,906;  384,760;   -0,253;   -0,409
412,497;  400,846;   -1,070;   -0,045
413,087;  342,126;   -1,980;   -0,227
413,677;  264,889;   -0,707;    3,864
414,267;  254,150;    0,656;    1,409
414,857;  239,075;   -2,980;    4,227
415,448;  246,231;    0,839;    0,500
416,038;  277,881;    0,020;   -0,591
416,628;  335,245;   -0,889;    0,409
417,218;  400,190;    0,565;    3,318
417,808;  567,933;    0,202;   -0,409
418,398;  418,845;    0,020;    2,682
418,988;  296,858;    2,020;    0,591
419,578;  409,540;   -0,707;    1,409
420,168;  340,129;   -1,343;   -0,955
420,757;  509,777;   -1,343;   -1,500
421,347;  391,279;    0,111;   -0,227
421,937;  348,545;    2,292;    1,409
422,527;  498,124;    0,838;   -0,773
423,116;  648,389;   -0,253;   -0,045
423,706;  332,968;   -1,889;    0,318
424,296;  285,326;    1,384;    0,682
424,885;  447,872;   -0,071;   -3,045
425,475;  418,911;    1,474;   -2,864
426,065;  293,179;   -0,980;   -0,318
426,654;  262,471;   -0,435;   -0,318
427,244;  577,468;    0,020;    1,409
427,833;  551,359;    1,383;   -0,500
428,423;  396,168;   -0,526;    1,136
429,012;  389,784;   -0,344;   -1,136
429,601;  532,549;   -1,344;    0,136
430,191;  412,755;    1,292;    4,318
430,780;  300,172;   -0,344;   -0,409
431,369;  524,370;    0,746;   -0,045
431,959;  391,930;   -1,254;    0,500
432,548;  312,120;   -1,163;   -0,045
433,137;  246,333;   -1,254;   -1,318
433,726;  342,583;    0,292;    0,500
434,315;  369,242;   -0,526;    2,409
434,905;  490,075;   -1,254;    1,409
435,494;  497,387;    0,746;    0,955
436,083;  336,595;   -0,981;   -0,955
436,672;  440,899;    0,110;    0,500
437,261;  376,410;    0,292;   -1,955
437,850;  670,565;    1,383;    0,682
438,439;  718,389;    3,291;    1,955
439,027;  839,955;    3,655;    1,773
439,616;  756,281;    2,927;    1,227
440,205;  498,321;    0,200;   -2,136
440,794;  429,294;    2,109;   -0,045
441,383;  341,177;   -1,346;   -0,591
441,971;  296,803;   -2,436;    0,591
442,560;  315,140;    0,563;   -1,773
443,149;  177,427;    0,379;   -1,318
443,737;  268,158;   -0,074;   -2,318
444,326;  297,511;    0,018;    0,318
444,915;  366,863;   -1,982;    0,864
445,503;  377,652;   -2,891;   -0,318
446,092;  683,218;    0,382;    2,136
446,680;  607,440;    0,382;    0,318
447,269;  499,372;   -0,346;   -0,318
447,857;  472,606;    0,018;   -1,773
448,445;  414,352;    0,563;    1,318
449,034;  346,156;   -1,528;   -1,136
449,622;  341,795;   -1,073;    3,500
450,210;  711,544;    2,017;    2,227
450,799;  604,017;    0,290;   -0,591
451,387;  532,948;    1,381;   -0,591
451,975;  513,919;    2,654;    0,864
452,563;  625,689;    3,472;    2,318
453,151;  386,765;   -0,528;   -1,227
453,739;  452,236;   -1,347;    0,136
454,328;  601,019;    2,381;   -2,136
454,916;  503,062;    2,562;   -0,136
455,504;  518,387;    1,017;    1,227
456,092;  371,172;    0,017;   -1,591
456,679;  317,179;    1,472;    0,682
457,267;  850,504;    4,017;    1,045
457,855;  442,807;    1,017;    1,409
458,443;  251,507;   -0,165;    1,682
459,031;  495,649;    0,108;    2,409
459,619;  434,523;   -1,801;    2,864
460,206;  292,093;    0,835;    2,045
460,794;  295,585;   -2,983;   -0,227
461,382;  368,210;   -0,529;   -0,864
461,970;  359,754;    1,198;    1,864
462,557;  265,204;   -0,711;   -0,682
463,145;  445,811;   -3,165;   -1,682
463,732;  748,531;    2,016;   -1,045
464,320;  450,868;   -0,075;   -3,045
464,907;  638,116;    2,743;   -0,773
465,495;  525,150;    0,743;   -1,227
466,082;  416,679;   -1,984;   -0,045
466,670;  439,235;   -2,529;    1,227
467,257;  290,261;   -1,711;    2,045
467,844;  440,558;   -0,075;    0,045
468,432;  406,388;    0,834;    3,500
469,019;  334,552;    0,925;   -1,773
469,606;  446,781;    0,470;    3,682
470,193;  493,421;   -1,439;    0,227
470,780;  439,798;   -2,075;    0,864
471,368;  335,846;   -1,257;   -0,773
471,955;  483,004;    1,379;   -0,682
472,542;  422,983;    0,652;   -1,136
473,129;  261,019;   -0,166;    0,136
473,716;  278,000;    1,470;    0,591
474,303;  329,369;    0,652;   -0,864
474,890;  339,130;   -1,439;   -0,500
475,477;  464,163;   -1,621;    0,409
476,064;  336,875;    1,106;   -1,591
476,650;  496,171;    0,288;    0,318
477,237;  386,898;   -0,258;    0,955
477,824;  356,824;   -1,076;    0,864
478,411;  230,995;   -1,894;   -0,318
478,997;  232,964;    0,560;   -0,773
479,584;  152,315;    1,196;   -0,409
480,171;  416,102;   -0,440;   -0,773
480,757;  507,992;    2,651;    0,773
481,344;  345,015;    0,469;    0,409
481,931;  209,772;    1,105;    1,045
482,517;  420,229;   -1,258;    0,318
483,104;  559,132;    1,106;    2,864
483,690;  385,595;   -1,804;    0,045
484,276;  355,472;   -0,895;    0,227
484,863;  677,528;    2,469;    1,136
485,449;  442,337;   -0,077;    0,318
486,035;  373,439;   -1,986;   -0,136
486,622;  539,293;   -0,895;    0,045
487,208;  406,420;    1,378;    1,500
487,794;  280,289;    0,741;    0,318
488,380;  269,583;    0,105;   -1,409
488,967;  291,231;   -1,168;   -0,409
489,553;  320,099;   -1,895;   -1,409
490,139;  443,557;    1,559;    0,773
490,725;  301,934;    0,741;   -0,227
491,311;  367,829;    3,287;    3,045
491,897;  317,110;   -0,986;    1,500
492,483;  308,950;    0,105;    1,227
493,069;  918,574;    3,923;    0,864
493,655;  511,625;    1,650;    0,682
494,241;  339,065;    1,377;   -0,955
494,826;  371,641;    0,287;   -1,045
495,412;  469,279;    2,559;   -0,682
495,998;  317,322;   -0,805;   -0,318
496,584;  417,743;    0,377;    1,045
497,169;  427,498;    1,014;   -0,682
497,755;  324,228;    0,650;    1,227
498,341;  546,677;    0,559;    0,318
498,926;  714,173;    1,832;    1,955
499,512;  345,018;    1,286;    2,955
500,097;  348,565;    0,195;   -0,318
500,683;  383,170;   -0,350;    2,136
501,268;  295,176;   -0,169;   -0,955
501,854;  324,297;   -0,169;    1,227
502,439;  302,825;   -0,624;   -1,773
503,024;  374,317;    0,195;    0,500
503,610;  417,038;   -0,078;   -0,682
504,195;  308,067;    0,558;    1,955
504,780;  437,368;    2,922;    1,227
505,366;  566,443;    3,013;    2,864
505,951;  461,890;    0,740;    1,045
506,536;  352,330;   -3,260;   -3,682
507,121;  427,936;    0,285;   -0,318
507,706;  349,216;    2,376;    1,045
508,291;  279,165;    2,649;    1,136
508,876;  279,765;   -0,988;    2,591
509,461;  357,619;   -0,169;   -0,773
510,046;  407,791;    0,194;    0,318
510,631;  408,020;   -0,351;   -0,773
511,216;  297,419;    2,467;   -0,500
511,801;  378,791;   -0,442;    2,591
512,386;  413,767;    0,740;    0,500
512,971;  428,295;   -2,988;    0,955
513,555;  481,153;   -0,897;   -1,500
514,140;  421,718;   -0,442;   -3,136
514,725;  561,165;   -0,715;   -1,136
515,309;  439,695;   -0,533;    0,318
515,894;  320,327;   -0,624;   -2,227
516,479;  361,445;   -0,624;   -0,955
517,063;  365,966;    0,376;    1,227
517,648;  305,613;    1,012;   -1,136
518,232;  276,743;   -0,261;   -1,409
518,817;  376,565;   -0,079;    1,682
519,401;  514,549;    2,194;    0,591
519,985;  470,164;    1,103;    1,136
520,570;  308,212;    0,830;   -1,955
521,154;  424,794;    2,102;    0,591
521,738;  611,685;   -2,352;    2,409
522,323;  421,323;   -0,170;    1,682
522,907;  411,586;    0,466;   -0,136
523,491;  317,593;    0,557;    0,955
524,075;  279,052;    2,284;    0,591
524,659;  486,100;    1,466;    0,591
525,243;  423,838;    1,739;    0,409
525,827;  356,327;    0,648;   -0,045
526,411;  353,736;   -1,989;   -0,136
526,995;  461,216;   -0,352;    1,409
527,579;  528,495;   -0,443;   -1,045
528,163;  447,810;    0,375;   -1,500
528,747;  553,615;    2,466;   -0,773
529,331;  484,967;   -0,080;   -1,409
529,915;  330,998;    1,738;    0,955
530,499;  419,907;   -0,807;    1,227
531,082;  580,580;   -0,534;    1,591
531,666;  657,789;    1,374;    0,773
532,250;  537,165;    1,284;    2,682
532,833;  629,684;    0,920;    2,773
533,417;  467,872;   -1,807;    0,864
534,001;  595,104;    1,647;   -0,318
534,584;  513,251;    0,374;    0,500
535,168;  337,246;    0,465;    1,409
535,751;  692,610;    0,647;    0,045
536,334;  435,088;   -0,898;   -0,409
536,918;  282,263;    0,011;    1,591
537,501;  298,391;   -0,899;    1,318
538,085;  342,591;   -0,444;    1,045
538,668;  420,050;    0,829;    2,409
539,251;  706,327;    1,829;    3,773
539,834;  412,498;    0,101;    0,773
540,418;  537,937;   -1,990;    4,318
541,001;  711,824;   -0,990;    1,773
541,584;  478,128;    2,101;    2,227
542,167;  592,402;    1,374;    2,955
542,750;  414,700;    1,919;   -0,773
543,333;  287,331;    0,555;    2,136
543,916;  508,819;    0,192;    2,500
544,499;  444,572;   -1,354;    0,227
545,082;  521,579;    1,374;    3,591
545,665;  432,104;    1,919;    1,500
546,248;  560,513;    1,010;   -0,318
546,830;  533,135;   -0,445;    1,955
547,413;  494,558;    1,010;   -0,773
547,996;  458,137;    0,555;    0,500
548,579;  416,817;    0,919;    0,955
549,161;  655,370;    1,828;    2,682
549,744;  534,868;   -0,809;    0,409
550,326;  382,964;   -0,809;   -1,136
550,909;  846,818;    2,737;    0,591
551,492;  503,948;   -0,263;    0,227
552,074;  625,385;   -0,173;   -1,318
552,657;  649,296;    2,373;    0,045
553,239;  518,037;   -0,173;   -0,773
553,821;  384,439;   -1,082;    1,045
554,404;  642,656;    1,282;    1,136
554,986;  748,233;    0,464;    1,045
555,568;  582,519;    1,191;   -0,955
556,151;  791,524;    1,191;   -0,227
556,733;  473,947;   -0,264;   -0,864
557,315;  491,577;    0,100;    0,500
557,897;  370,384;    0,554;   -0,500
558,479;  378,753;   -1,991;    1,318
559,061;  475,196;   -0,719;   -0,864
559,643;  520,795;   -0,264;    0,045
560,225;  563,890;    1,645;    2,864
560,807;  405,067;    0,918;    0,318
561,389;  389,173;    0,554;    2,318
561,971;  487,000;    0,463;    2,136
562,553;  400,654;   -1,628;    1,591
563,135;  482,738;   -0,537;    1,136
563,717;  869,916;    3,372;    1,136
564,298;  766,307;    3,645;   -0,045
564,880;  521,692;    0,645;   -1,409
565,462;  356,873;    0,645;    1,318
566,043;  480,151;   -0,446;    2,318
566,625;  792,603;    1,918;    1,227
567,207;  602,378;    1,099;    1,682
567,788;  457,664;   -1,264;    1,500
568,370;  455,456;    1,917;   -0,500
568,951;  457,499;    0,190;    0,227
569,533;  555,038;   -0,628;   -0,500
570,114;  573,721;   -0,446;    0,682
570,695;  609,642;   -0,174;   -1,318
571,277;  586,310;   -0,265;   -1,682
571,858;  786,193;    2,008;   -1,136
572,439;  630,068;    1,554;   -1,045
573,021;  665,662;    2,099;   -2,773
573,602;  776,173;   -1,265;    0,318
574,183;  729,207;   -2,083;    2,227
574,764;  672,198;   -1,629;    0,409
575,345;  865,772;    0,917;   -0,136
575,926;  678,161;   -0,356;    0,136
576,507;  768,353;    1,099;   -0,227
577,088;  723,079;    3,099;    1,682
577,669;  918,492;    0,735;    1,955
578,250; 1092,752;    0,644;   -1,045
578,831;  867,204;   -1,356;   -2,227
579,412;  857,042;   -0,810;    0,955
579,993;  825,503;    1,008;    0,227
580,573;  746,143;   -0,629;   -0,955
581,154;  900,859;    0,735;   -0,591
581,735;  907,397;    0,644;    0,773
582,315; 1051,397;   -0,629;    2,136
582,896;  842,562;   -0,174;    1,227
583,477;  685,534;    0,189;    1,227
584,057;  829,775;    0,553;    0,955
584,638;  953,594;    2,553;    2,318
585,218; 1200,497;   -0,538;    2,682
585,799;  997,477;    0,281;   -0,227
586,379;  859,897;    0,372;    1,591
586,959;  830,572;    0,735;    0,318
587,540;  738,376;   -0,629;    2,227
588,120;  754,814;    1,007;   -0,045
588,700;  768,118;    2,553;    2,136
589,281;  954,232;    0,462;   -0,955
589,861;  808,885;    0,099;   -1,682
590,441;  654,965;    2,371;   -2,682
591,021;  758,228;   -0,265;   -2,591
591,601;  712,789;   -0,537;    0,500
592,181;  690,597;   -0,719;   -0,773
592,761;  593,591;    0,007;    1,409
593,341;  717,023;   -0,901;    0,045
593,921;  722,805;   -0,265;    1,591
594,501;  616,846;   -0,538;    1,318
595,081;  620,983;    0,917;   -0,318
595,661;  705,647;   -1,447;    0,955
596,240;  625,517;   -0,537;    0,136
596,820; 1051,377;    0,372;    1,955
597,400;  758,095;    2,008;    0,773
597,980;  654,133;    2,008;    1,045
598,559;  602,814;    2,735;   -0,227
599,139;  584,194;   -0,174;   -1,227
599,718;  580,012;   -0,174;   -0,409
600,298;  561,633;    0,735;    0,682
600,877; 1073,141;    2,917;    1,409
601,457;  761,547;    2,281;    1,136
602,036;  637,968;    0,190;    2,045
602,616;  695,221;    0,644;    1,682
603,195;  815,817;   -0,355;    3,500
603,774;  890,922;   -0,901;    2,045
604,354;  812,381;    0,826;   -0,500
604,933;  745,508;    0,463;    1,864
605,512;  846,207;    3,554;    0,591
606,091;  839,979;   -0,537;    3,773
606,671;  779,730;    0,281;    0,773
607,250;  960,917;    1,644;    3,136
607,829;  897,402;    2,372;    3,227
608,408;  733,791;    1,190;    2,591
608,987;  862,164;    1,281;    3,409
609,566;  669,741;   -1,265;   -2,500
610,145;  779,356;   -1,082;    0,682
610,723;  818,276;    4,372;    6,864
611,302;  739,141;   -0,446;    1,682
611,881; 1031,525;    5,008;   11,227
612,460;  729,623;    1,645;    3,955
613,039;  606,481;   -0,082;    2,045
613,617;  598,777;    1,736;    4,773
614,196;  619,624;    1,099;    1,227
614,775;  697,202;    1,009;    2,409
615,353;  749,081;    0,736;    0,864
615,932;  714,088;    0,100;    2,409
616,510;  692,927;    0,554;    0,591
617,089; 1211,823;    7,100;   17,591
617,667;  808,727;    2,372;    6,136
618,246;  561,879;   -1,537;    1,318
618,824;  639,797;   -3,355;   -0,955
619,402;  663,618;   -2,900;   -1,773
619,981;  720,220;   -0,173;   -1,045
620,559;  637,832;    0,009;    1,682
621,137;  650,029;   -0,718;    1,864
621,715;  556,495;   -1,173;   -0,682
622,293;  584,480;   -0,537;   -0,773
622,871;  595,486;   -0,718;    0,500
623,450;  536,698;    0,373;   -0,864
624,028;  741,467;    0,191;   -0,955
624,606;  699,984;   -1,718;    1,682
625,183;  508,128;   -1,536;   -1,136
625,761;  653,217;    1,009;    1,136
626,339;  952,542;    1,373;    2,591
626,917;  593,343;   -0,172;   -0,045
627,495;  541,079;   -0,354;    1,318
628,073;  665,041;   -0,263;    2,864
628,650;  688,012;    0,100;    2,136
629,228;  680,325;    0,373;    4,409
629,806;  493,108;    2,282;    1,136
630,383;  553,608;    1,464;   -0,318
630,961;  553,836;    2,555;   -0,955
631,539;  605,784;    2,464;    0,227
632,116; 1322,746;   11,373;   15,409
632,694;  928,977;    2,555;    6,500
633,271;  765,258;    0,828;    2,682
633,848;  865,931;    1,828;    2,045
634,426;  590,321;   -1,081;    1,773
635,003;  459,771;    1,101;   -0,409
635,580;  875,488;    1,192;    3,682
636,158;  738,561;    3,737;    1,227
636,735;  552,168;    0,555;   -0,500
637,312;  544,216;   -0,809;   -0,682
637,889;  550,035;   -4,354;   -0,682
638,466;  530,745;   -3,990;   -0,409
639,043;  581,124;    2,101;   -1,136
639,620;  494,757;   -2,262;   -0,955
640,197;  639,372;    1,100;    1,682
640,774;  456,106;   -0,172;    1,136
641,351;  531,567;    0,737;    1,136
641,928;  732,028;   -0,627;    1,409
642,505;  850,580;    0,828;   -0,500
643,082;  665,587;   -1,718;    1,227
643,658;  532,321;   -0,718;    1,500
644,235;  508,236;    1,191;    2,500
644,812;  703,697;    1,918;    0,773
645,388;  683,613;   -0,991;    1,409
645,965;  463,801;   -0,809;    1,682
646,542;  482,353;   -1,445;   -0,227
647,118;  875,724;    1,009;   -0,955
647,695;  648,458;   -0,263;    1,136
648,271;  460,010;   -0,536;    0,500
648,848;  634,198;    0,736;    2,227
649,424;  763,659;    0,827;    1,318
650,000;  584,756;   -0,354;   -1,045
650,577;  605,854;   -0,627;   -0,955
651,153;  605,679;   -1,809;    0,955
651,729;  562,594;    1,191;    0,864
652,305;  931,237;    0,645;    2,773
652,881;  881,607;   -0,082;    1,136
653,458; 1030,069;    1,100;    0,227
654,034; 1111,439;    0,282;    1,591
654,610; 1257,718;    0,554;    0,773
655,186; 1782,088;    0,645;    3,045
655,762; 1296,186;   -0,991;    0,409
656,338; 1262,101;    0,100;    0,136
656,913; 1349,017;   -0,082;    0,409
657,489; 1117,751;    0,827;   -0,318
658,065; 1229,394;   -0,173;   -1,591
658,641; 1261,218;   -0,900;   -0,864
659,217; 1182,225;   -0,991;    0,409
659,792; 1333,504;    0,645;   -0,409
660,368; 1141,238;   -2,173;   -0,682
660,944; 1174,699;   -2,082;    1,227
661,519; 1059,888;   -0,628;    0,409
662,095;  763,076;   -1,719;    0,591
662,670;  601,264;    1,281;   -0,136
663,246;  517,271;    1,009;   -0,409
663,821;  685,641;    0,281;    1,682
664,396;  632,102;    0,009;    1,864
664,972;  543,109;    0,009;   -0,500
665,547;  596,934;    1,372;    0,136
666,122;  575,395;   -1,082;    0,318
666,698;  775,856;   -0,173;    0,318
667,273;  543,135;   -0,173;    0,136
667,848;  582,505;    2,372;    1,500
668,423;  759,330;    2,190;    2,318
668,998;  604,609;    2,827;   -0,682
669,573;  559,343;   -3,264;   -1,500
670,148;  752,713;   -1,446;   -0,682
670,723;  524,083;   -1,810;    0,318
671,298;  817,545;    2,372;    1,045
671,873;  726,369;   -0,082;   -0,136
672,448;  708,921;    0,645;    0,136
673,023;  699,928;   -1,992;   -0,227
673,597;  808,298;    0,827;    2,318
674,172;  856,214;   -0,355;    0,318
674,747;  756,129;    0,372;   -1,045
675,321;  509,863;   -0,628;    3,318
675,896;  452,688;    0,645;    1,045
676,471;  687,876;    2,645;    1,591
677,045;  609,701;   -1,264;    0,682
677,620;  708,162;    0,190;    1,136
678,194;  532,896;   -2,628;    1,136
678,769;  610,993;   -1,083;   -0,318
679,343;  665,091;   -0,628;    1,773
679,917;  796,370;   -1,446;    1,955
680,492;  636,377;    0,826;    3,227
681,066;  672,656;    3,372;    0,409
681,640;  590,481;    1,463;   -0,318
682,214;  611,578;    0,735;    0,500
682,788;  608,494;   -1,356;   -0,773
683,363;  769,228;   -1,810;    1,682
683,937;  644,416;   -1,719;   -0,318
684,511;  663,332;    0,463;   -0,591
685,085;  674,611;   -1,356;    0,318
685,659;  583,436;   -2,538;    0,864
686,232;  840,806;   -0,356;   -0,318
686,806;  703,631;   -0,901;    0,409
687,380;  581,274;   -0,174;    0,591
687,954;  528,644;   -1,174;    1,136
688,528;  857,196;   -0,719;    1,955
689,101;  675,293;   -3,992;    1,045
689,675;  564,482;   -0,356;   -0,136
690,249;  828,306;   -0,719;    0,409
690,822;  817,040;    0,280;    0,318
691,396;  709,229;   -0,265;    1,227
691,969;  624,053;    1,280;    0,136
692,543;  514,605;   -0,447;   -1,955
693,116;  501,430;   -0,265;   -1,409
693,690;  595,709;    0,099;    0,500
694,263;  532,989;   -1,083;    2,955
694,836;  896,632;    1,371;    3,591
695,410;  774,002;   -0,265;    1,773
695,983;  800,190;    0,189;    0,591
696,556;  591,651;   -0,447;   -1,045
697,129;  508,021;   -0,356;    1,409
697,703;  734,301;   -1,629;    1,955
698,276;  621,035;    1,462;   -0,773
698,849;  785,677;    1,280;    1,409
699,422;  546,957;   -1,083;    0,591
699,995;  443,236;    0,007;    0,136
700,568;  592,970;   -0,629;    3,045
701,140;  615,976;   -2,811;    1,682
701,713;  783,801;   -0,174;    2,409
702,286;  660,353;   -0,538;    0,864
702,859;  749,087;   -0,902;   -0,591
703,432;  839,639;    0,825;    0,682
704,004;  715,100;    0,462;    0,318
704,577;  581,016;   -0,629;    0,136
705,150;  637,477;    0,189;    2,500
705,722;  700,120;   -0,356;   -3,227
706,295;  767,581;   -0,175;   -0,591
706,867;  638,133;   -0,175;    1,955
707,440;  728,958;   -1,720;   -0,409
708,012;  808,782;    0,462;    0,591
708,584;  720,607;    2,462;    0,227
709,157;  491,523;    1,825;   -0,591
709,729;  731,711;    2,280;    2,045
710,301;  576,536;    0,734;    0,045
710,874;  594,724;   -1,447;   -0,227
711,446;  480,276;    0,371;    0,864
712,018;  559,192;    0,098;    0,500
712,590;  503,926;   -1,993;    1,682
713,162;  793,660;    0,825;    1,318
713,734;  574,939;    1,825;   -2,045
714,306;  491,491;   -1,902;   -0,409
714,878;  553,407;    0,825;    0,864
715,450;  495,959;    0,643;    0,864
716,022;  511,238;    1,552;    1,318
716,593;  499,790;    0,189;    0,591
717,165;  550,069;   -3,175;   -1,227
717,737;  822,348;    0,280;    0,409
718,309;  592,355;    0,280;   -0,045
718,880;  514,634;   -0,539;   -1,409
719,452;  583,823;   -0,175;   -1,591
720,024;  687,011;    0,734;   -0,591
720,595;  580,654;   -2,902;    0,955
721,167;  564,024;    0,370;   -2,045
721,738;  691,576;   -0,812;   -1,045
722,309;  842,764;   -0,993;   -1,227
722,881;  573,226;   -1,357;    0,773
723,452;  647,596;   -2,630;    2,864
724,023;  658,602;   -0,721;    2,682
724,595;  728,973;    0,007;    0,682
725,166;  593,888;    0,007;   -0,409
725,737;  802,077;    1,734;    0,227
726,308;  580,901;   -0,266;    0,318
726,879;  492,999;   -1,630;    1,227
727,450;  667,278;    0,552;   -0,045
728,021;  599,921;    3,097;    0,682
728,592;  769,382;    0,734;    0,500
729,163;  858,661;    0,643;   -0,136
729,734;  837,850;    0,188;   -0,227
730,305;  688,493;    1,734;    0,136
730,876;  647,954;    0,188;    2,955
731,447;  981,415;    2,188;    2,682
732,017;  875,240;    1,097;    1,864
732,588;  666,792;    0,734;    1,227
733,159;  930,616;    0,643;   -1,045
733,729;  660,896;    0,006;    0,409
734,300;  831,902;    0,915;    0,864
734,870;  635,000;    3,461;    0,591
735,441;  618,188;    0,370;   -0,591
736,011;  609,558;    0,643;   -1,591
736,582;  615,928;   -0,812;    0,045
737,152;  751,844;   -1,721;   -2,045
737,722;  714,123;   -0,267;   -0,682
738,293;  560,403;   -1,358;    1,318
738,863;  751,682;    2,461;    2,318
739,433; 1018,143;    5,279;    0,318
740,003;  722,422;   -0,994;   -0,682
740,573;  854,974;    2,097;   -1,591
741,143;  720,435;   -1,085;    0,318
741,713;  612,260;    1,188;   -0,500
742,283;  689,358;    0,915;    1,591
742,853;  623,455;    1,915;    1,591
743,423;  450,553;    1,733;    0,045
743,993;  567,105;   -0,358;    1,500
744,563;  619,747;    0,097;   -0,864
745,133;  653,390;   -0,812;   -0,864
745,702;  510,670;   -0,267;    1,773
746,272;  740,222;   -0,176;    0,591
746,842;  767,774;   -1,358;   -0,591
747,411;  545,780;   -0,267;   -0,318
747,981;  444,241;    0,097;    0,500
748,551;  441,066;    2,278;   -1,045
749,120;  647,891;    0,642;   -0,227
749,690;  596,897;   -0,631;    2,409
750,259;  709,268;    1,369;    2,955
750,828;  761,547;    1,551;   -1,955
751,398;  528,190;    1,278;   -0,045
751,967; 1019,196;    2,187;    0,409
752,536;  661,385;   -0,813;   -0,227
753,105;  768,119;    0,096;    0,227
753,675;  601,307;    0,096;    1,773
754,244;  610,950;   -0,904;    3,591
754,813;  644,866;    0,551;    1,227
755,382;  602,599;    0,460;    0,955
755,951;  735,697;    1,551;    3,682
756,520;  855,703;   -0,085;    1,864
757,089;  957,619;    0,278;    0,500
757,658;  693,080;    1,733;    1,227
758,227;  524,723;    1,096;    0,318
758,795;  579,275;    1,187;    1,136
759,364;  584,191;   -0,086;   -0,591
759,933;  528,197;   -1,176;   -0,045
760,501;  465,749;    0,733;   -1,318
761,070;  630,483;   -2,813;   -1,409
761,639;  589,035;   -1,904;    1,318
762,207;  722,223;    1,551;   -0,955
762,776;  763,412;    0,369;    0,864
763,344;  616,873;   -0,995;    0,591
763,913;  411,425;   -0,722;    1,409
764,481;  947,795;    1,005;   -0,136
765,049;  952,893;   -1,358;    1,409
765,618;  863,899;   -0,086;    0,318
766,186;  662,906;    0,278;    0,136
766,754;  721,185;    0,005;    1,864
767,322;  603,101;   -1,995;    0,409
767,890;  541,289;   -0,722;   -1,773
768,459;  546,750;   -2,177;   -0,318
769,027;  771,666;    1,641;    3,409
769,595;  590,945;    3,278;    2,591
770,163;  696,406;    3,823;    2,955
770,730;  666,140;    0,732;   -0,136
771,298;  648,510;    0,187;   -1,409
771,866;  576,062;   -1,541;    4,955
772,434;  605,614;   -0,631;   -1,864
773,002;  808,712;    0,005;    0,682
773,569;  675,991;    0,914;    1,682
774,137;  802,452;   -0,268;   -0,045
774,705;  584,004;    0,278;   -0,136
775,272;  565,647;    0,641;    0,682
775,840;  580,563;   -0,177;    2,682
776,407;  699,933;    0,277;    1,955
776,975;  577,667;   -0,632;    0,318
777,542;  504,946;   -1,086;   -0,045
778,110;  549,134;   -1,268;   -0,045
778,677;  430,686;   -2,359;   -0,864
779,244;  503,329;    2,186;    1,045
779,812;  661,336;    1,823;    0,864
780,379;  751,797;    0,005;    1,136
780,946;  612,713;    1,005;   -0,773
781,513;  517,992;   -1,450;    0,318
782,080;  495,635;   -0,086;    2,864
782,647;  525,369;   -0,268;    3,045
783,214;  497,830;   -0,177;    3,864
783,781;  720,564;   -0,723;   -0,682
784,348;  655,388;   -0,632;    1,500
784,915;  437,395;   -3,177;    0,318
785,482;  673,401;    1,368;    2,591
786,049;  586,317;    0,186;   -0,591
786,615;  468,869;    0,277;   -0,955
787,182;  429,421;    0,186;   -0,682
787,749;  412,064;   -2,814;    1,409
788,315;  646,707;   -1,632;   -0,409
788,882;  518,168;    1,550;   -1,227
789,448;  821,720;    1,732;   -0,955
790,015;  582,181;    1,095;    3,227
790,581;  771,460;    1,459;    0,227
791,148;  585,649;    0,641;    1,045
791,714;  466,474;   -0,541;    3,136
792,280;  474,571;    0,186;    1,591
792,847;  419,396;    0,550;    2,500
793,413;  501,857;   -0,269;   -0,318
793,979;  730,227;    3,459;   -1,318
794,545; 1010,143;    4,459;    2,682
795,111;  889,331;    2,186;    1,318
795,678;  739,974;    0,731;   -1,682
796,244;  903,526;    3,368;    0,136
796,810;  744,442;    1,731;    0,773
797,375;  730,085;    0,549;   -2,136
797,941;  412,546;   -0,541;    0,591
798,507;  427,007;   -0,451;   -0,955
799,073;  465,013;   -0,360;    0,591
799,639;  460,384;   -2,632;    3,136
800,205;  419,117;    0,095;    2,682
800,770;  456,851;    0,640;    1,773
801,336;  473,221;    1,368;   -0,955
801,901; 1065,410;    4,549;    3,136
802,467;  713,144;   -0,542;    2,045
803,033;  498,514;   -0,087;    0,864
803,598;  494,611;    1,913;   -1,045
804,163;  497,618;    1,095;   -0,318
804,729;  601,352;   -0,178;    1,136
805,294;  498,813;    0,822;    2,227
805,859;  437,910;    0,731;   -0,409
806,425;  829,099;    1,186;    2,682
806,990;  803,105;    2,186;    4,318
807,555;  551,203;   -1,451;    2,591
808,120;  702,300;    0,822;   -0,409
808,685;  497,579;    0,185;   -2,500
809,250;  410,131;    0,004;   -0,500
809,815;  401,320;    1,913;    0,682
810,380;  525,963;   -0,269;    1,591
810,945;  708,969;   -1,087;    2,045
811,510;  533,067;    2,094;    1,591
812,075;  599,710;   -0,633;   -1,409
812,640;  839,534;    2,003;    1,409
813,204;  583,541;    0,822;   -0,227
813,769;  727,002;    2,094;   -0,045
814,334;  724,554;    0,458;    0,864
814,898;  448,924;    0,367;    0,591
815,463;  559,840;    1,276;   -0,773
816,027;  499,937;   -0,724;   -2,318
816,592;  411,762;    0,640;   -2,045
817,156;  593,405;    2,094;    1,136
817,721;  719,412;    4,276;    2,318
818,285;  450,236;    2,912;    1,500
818,849;  517,061;   -1,451;    1,682
819,414;  443,249;   -0,269;    2,955
819,978;  395,256;   -1,269;    1,773
820,542;  671,081;    2,003;    0,500
821,106;  496,360;   -0,815;    0,682
821,670;  724,730;   -0,815;    2,591
822,234;  503,282;   -0,270;    1,409
822,798;  392,471;    0,003;    0,500
823,362;  632,386;   -0,633;    4,227
823,926;  485,211;    0,094;    1,136
824,490;  671,308;   -0,997;   -0,682
825,054;  540,042;   -0,088;   -1,136
825,618;  431,412;   -1,542;   -1,500
826,181;  497,419;    0,458;   -1,318
826,745;  611,607;    1,367;   -1,045
827,309;  814,068;    1,185;    1,318
827,872;  676,530;    1,367;    0,955
828,436;  562,900;    1,185;   -0,773
828,999;  464,270;   -0,997;    1,227
829,563;  445,731;   -0,179;    1,136
830,126;  415,829;   -0,179;   -0,591
830,690;  535,744;   -1,997;    2,864
831,253;  448,023;   -0,543;    2,227
831,816;  500,030;   -1,906;    0,500
832,380;  457,946;    0,185;    0,864
832,943;  432,316;   -1,361;   -0,500
833,506;  440,141;    2,639;   -1,227
834,069;  579,329;    3,912;   -0,955
834,632;  431,154;    1,730;    1,318
835,195;  473,342;    1,003;    0,955
835,758;  411,803;   -0,997;    1,955
836,321;  442,355;    0,730;   -1,045
836,884;  404,180;   -0,725;   -0,955
837,447;  351,096;   -2,816;    1,773
838,010;  532,829;    0,366;    3,227
838,573;  531,563;   -1,179;    0,773
839,135;  384,479;   -1,361;   -0,955
839,698;  476,213;    1,275;    0,409
840,261;  414,219;    1,003;   -0,227
840,823;  369,589;   -0,543;    0,864
841,386;  354,414;   -0,452;   -2,409
841,948;  662,330;   -1,361;    1,773
842,511;  449,155;    0,912;    1,682
843,073;  643,979;    1,912;    0,227
843,636;  401,531;   -0,361;   -0,227
844,198;  623,083;    0,911;    0,591
844,760;  578,544;    1,093;    1,955
845,322;  382,642;    0,548;    1,136
845,885;  510,285;    0,730;    0,591
846,447;  443,655;   -1,998;    0,227
847,009;  790,116;    1,911;   -0,682
847,571;  502,214;    0,820;   -2,045
848,133;  438,584;   -1,089;   -1,864
848,695;  308,681;   -0,543;    1,409
849,257;  394,415;   -1,089;   -1,682
849,819;  541,058;   -0,998;   -0,409
850,381;  407,519;   -0,725;   -0,864
850,942;  477,707;    1,093;   -0,591
851,504;  556,532;    1,184;    0,227
852,066;  408,539;    1,275;   -1,591
852,628;  439,364;   -0,180;    1,955
853,189;  345,279;    1,638;    2,682
853,751;  355,104;   -0,907;    1,409
854,312;  511,292;   -0,453;   -1,682
854,874;  643,935;   -2,089;   -0,773
855,435;  456,487;   -0,907;   -1,682
855,997;  488,039;   -1,816;   -0,136
856,558;  607,046;    0,366;    1,773
857,119;  513,871;    0,820;    2,864
857,681;  363,150;    0,002;    0,318
858,242;  633,247;    1,911;   -2,136
858,803;  581,345;    0,456;   -0,773
859,364;  457,079;    0,184;   -4,773
859,925;  535,540;   -2,453;   -0,955
860,486;  416,728;   -0,453;   -0,955
861,047;  357,280;   -0,544;   -1,227
861,608;  411,650;   -1,089;   -0,773
862,169;  261,748;    0,638;   -0,045
862,730;  399,300;    0,456;    1,409
863,291;  446,943;   -0,635;   -0,500
863,852;  420,131;   -0,635;    1,955
864,412;  428,501;   -0,271;   -0,864
864,973;  664,508;   -0,089;    0,500
865,534;  770,060;   -1,726;    0,227
866,094;  546,794;    1,820;    0,227
866,655;  691,437;    1,274;    3,318
867,215;  501,352;    0,274;    0,136
867,776;  353,904;    0,547;   -0,136
868,336;  443,183;   -1,453;    0,136
868,897;  819,826;    2,638;    1,682
869,457;  601,197;    1,365;    0,318
870,017;  384,021;    0,547;   -1,227
870,578;  382,210;   -0,817;    0,773
871,138;  480,125;   -2,089;   -0,955
871,698;  397,405;   -0,817;   -1,318
872,258;  513,411;   -0,453;   -2,864
872,818;  656,327;    2,729;    0,045
873,378;  467,970;    0,638;    1,045
873,938;  453,885;    0,547;    0,500
874,498;  356,437;    0,274;   -1,955
875,058;  469,626;    2,183;    1,773
875,618;  467,178;    1,910;   -2,682
876,177;  503,821;    1,274;    0,136
876,737;  340,282;   -0,090;    1,955
877,297;  693,197;    0,183;    1,955
877,856;  622,295;   -0,362;    0,318
878,416;  399,938;    1,183;   -0,136
878,976;  357,672;   -1,817;    0,409
879,535;  391,133;    0,092;    3,136
880,095;  377,958;   -0,544;    0,045
880,654;  333,873;   -1,090;    1,318
881,213;  626,062;    2,456;    1,500
881,773;  468,886;    2,637;    2,682
882,332;  942,711;    3,365;    5,136
882,891;  452,445;    3,092;    2,136
883,451;  439,361;   -1,272;    1,682
884,010;  411,185;   -2,908;   -0,409
884,569;  346,374;   -0,999;   -0,045
885,128;  515,017;    2,819;   -1,864
885,687;  751,205;    4,455;    0,682
886,246;  921,666;    1,455;    2,136
886,805;  727,218;    2,455;    2,045
887,364;  389,861;   -0,999;   -0,500
887,922;  320,686;   -1,181;    0,045
888,481;  523,329;   -1,545;    0,591
889,040;  587,244;    1,183;    2,136
889,599;  470,342;    2,455;    1,409
890,157;  464,166;    1,455;    2,409
890,716;  396,628;   -0,090;    0,227
891,274;  514,907;    0,092;   -1,136
891,833;  584,550;    1,546;    0,864
892,391;  474,284;   -0,454;    0,500
892,950;  554,108;    1,819;   -0,773
893,508;  363,569;    0,455;   -0,409
894,067;  297,303;    0,637;    0,136
894,625;  402,037;   -0,636;   -1,500
895,183;  363,862;   -0,363;   -0,682
895,741;  633,050;    1,728;   -1,773
896,299;  428,239;   -0,545;   -2,409
896,858;  372,245;    0,819;   -1,591
897,416;  509,161;    2,728;   -1,318
897,974;  433,713;    1,819;    0,318
898,532;  855,265;    6,091;    2,682
899,089;  571,817;    2,091;   -0,682
899,647;  469,732;   -1,454;    1,318
900,205;  470,103;    1,182;    1,045
900,763;  456,564;   -0,454;    0,227
901,321;  406,934;    2,364;   -1,409
901,878;  254,122;   -1,000;   -0,773
902,436;  344,038;   -1,363;    1,318
902,994; 1009,954;    4,728;    3,682
903,551;  592,051;    0,728;    0,409
904,109;  457,421;    0,182;   -1,409
904,666;  413,701;    2,455;    1,045
905,224;  310,253;    0,182;   -0,409
905,781;  474,896;    0,727;   -0,318
906,338;  414,357;   -1,363;    1,045
906,895;  318,000;    0,637;    2,045
907,453;  564,188;    1,727;    1,136
908,010;  422,376;   -0,909;    0,409
908,567;  418,746;    1,273;    0,591
909,124;  279,389;    0,364;   -1,500
909,681;  335,941;   -2,909;    0,682
910,238;  359,039;    0,636;   -1,318
910,795;  271,318;   -0,273;   -1,136
911,352;  292,864;   -2,909;   -2,682
911,909;  337,500;   -1,364;   -0,864
912,466;  335,864;   -3,182;    1,500
913,022;  446,227;   -1,636;    0,500
913,579;  510,864;   -0,909;    2,045
914,136;  398,318;    1,636;    0,955
914,692;  395,045;    0,091;   -1,227
915,249;  423,500;    1,455;    0,409
915,806;  491,773;    0,182;    1,955
916,362;  398,136;    1,909;    1,864
916,918;  373,500;    2,000;    1,045
917,475;  486,773;   -1,182;    0,955
918,031;  334,409;    3,364;   -0,045
918,587;  412,409;   -0,909;   -0,318
919,144;  326,227;   -2,273;    0,227
919,700;  256,409;    1,727;    0,773
920,256;  269,500;    0,727;    0,045
920,812;  328,955;   -0,727;   -1,045
921,368;  292,955;   -1,727;   -1,045
921,924;  322,682;    0,182;   -0,136
922,480;  400,682;   -0,545;    1,227
923,036;  404,318;    1,273;    1,955
923,592;  311,682;    0,455;    0,318
924,148;  326,682;    0,455;   -0,955
924,704;  449,136;   -1,364;   -0,409
925,259;  286,045;   -0,273;    0,591
925,815;  289,409;    1,455;    0,500
926,371;  269,591;    2,909;    1,409
926,926;  415,864;    2,091;    0,591
927,482;  394,591;   -1,364;    0,773
928,037;  326,227;    0,909;    2,045
928,593;  487,227;    1,636;    1,045
929,148;  289,864;   -1,818;   -1,500
929,704;  361,227;   -1,455;   -0,500
930,259;  297,682;    0,091;   -0,136
930,814;  457,136;   -0,818;    1,955
931,369;  395,773;    1,091;   -0,773
931,925;  249,864;   -0,091;    0,136
932,480;  339,045;   -2,818;   -2,591
933,035;  623,409;    0,545;   -0,318
933,590;  534,045;    0,364;   -1,773
934,145;  255,318;   -1,364;   -0,318
934,700;  174,045;    0,455;   -0,591
935,255;  231,864;   -0,091;    0,045
935,809;  510,864;    3,182;    0,864
936,364;  238,318;   -0,455;   -0,136
936,919;  232,864;    0,455;   -1,773
937,474;  172,682;    1,455;    0,136
938,028;  183,136;   -1,636;    1,136
938,583;  512,591;    1,818;    4,682
939,138;  255,227;    2,091;    2,136
939,692;  155,591;    1,636;   -1,136
940,247;  200,227;   -0,727;   -1,045
940,801;  231,318;   -0,636;    0,227
941,355;  163,409;   -0,364;    2,591
941,910;  119,045;   -0,273;   -2,136
942,464;  142,136;   -0,818;   -0,318
943,018;  305,045;    1,000;   -0,227
943,572;  189,864;    2,545;   -0,682
944,126;  257,045;    0,091;   -0,409
944,681;  172,682;    3,091;    0,227
945,235;  128,318;    1,000;   -0,591
945,789;  106,682;    0,364;   -1,864
946,342;  290,864;    0,455;   -0,591
946,896;  147,500;   -2,273;    0,955
947,450;  122,773;    1,545;   -0,227
948,004;  285,318;    1,727;   -0,045
948,558;  171,318;    0,273;   -0,864
949,111;  164,136;   -0,273;   -0,318
949,665;  278,955;    1,636;   -0,682
950,219;  259,500;   -0,091;   -1,045
950,772;  204,864;   -1,909;    1,864
951,326;  186,591;    0,545;   -0,955
951,879;  160,773;    0,727;   -2,318
952,433;  248,773;    0,000;    2,227
952,986;  148,318;    2,909;    0,682
953,539;  122,864;   -0,273;    0,591
954,093;   95,864;    0,545;   -1,318
954,646;  167,864;    0,909;    1,318
955,199;  120,864;    0,000;   -0,500
955,752;  285,136;   -0,455;    1,773
956,305;  170,500;   -0,091;    2,955
956,858;  200,955;    0,818;   -0,318
957,411;  231,409;   -0,545;    2,136
957,964;  183,318;    1,364;    2,136
958,517;  133,864;   -1,545;    3,136
959,070;  101,500;   -0,455;    1,955
959,623;  275,409;    1,091;    1,500
960,176;  247,682;    1,727;    2,045
960,728;  209,045;   -2,727;    0,773
961,281;  163,955;    0,545;    0,500
961,834;  125,591;   -0,909;    0,864
962,386;  133,955;    1,727;    1,045
962,939;  120,591;    0,364;   -0,318
963,491;  150,227;    0,455;    1,136
964,043;  107,136;    1,182;    2,409
964,596;  219,136;   -1,000;    2,227
965,148;  155,409;   -1,000;    1,773
965,700;  110,864;    1,091;   -0,227
966,253;  208,682;   -0,636;    0,318
966,805;  178,500;   -2,273;    0,773
967,357;  136,409;    1,091;   -1,500
967,909;  202,955;    0,455;   -1,227
968,461;  138,955;    0,545;    3,136
969,013;  112,045;   -0,182;   -0,864
969,565;  212,682;   -0,455;   -1,136
970,117;  356,500;   -0,364;    1,045
970,669;  215,682;    0,182;   -0,136
971,220;   89,136;   -0,455;   -1,500
971,772;  143,955;   -0,636;   -0,318
972,324;  200,136;    0,091;   -0,500
972,876;  135,500;    0,818;   -0,045
973,427;  200,682;    1,909;   -1,045
973,979;  250,500;   -0,727;   -2,500
974,530;  139,045;    1,818;    1,318
975,082;  179,591;   -0,545;    1,682
975,633;  142,136;    1,091;    1,682
976,184;  156,955;    0,909;    0,773
976,736;  158,045;    0,091;    0,227
977,287;  180,591;   -0,909;   -0,500
977,838;  147,227;    0,909;   -0,318
978,389;  146,227;   -1,000;   -0,500
978,940;   75,682;    0,545;   -0,409
979,491;   77,864;    0,091;   -0,500
980,042;  136,773;    0,182;    3,045
980,593;  148,227;   -2,545;    0,227
981,144;  192,591;    2,545;   -0,500
981,695;  202,500;    1,455;    1,500
982,246;  177,318;   -0,273;    1,045
982,797;  105,955;   -1,727;    0,682
983,347;  186,227;    0,364;    0,591
983,898;  314,409;    3,091;    0,409
984,449;  300,136;    2,182;    0,773
984,999;  198,864;    1,455;   -1,136
985,550;  167,227;    0,182;   -0,318
986,100;   95,318;   -0,455;   -0,318
986,651;   91,227;   -0,818;    0,045
987,201;  107,500;   -1,000;   -0,591
987,751;  114,045;    0,818;    2,864
988,302;  131,591;    2,636;    1,500
988,852;  171,227;    0,455;   -1,136
989,402;  204,318;    0,091;    0,682
989,952;  219,409;   -2,182;    0,864
990,502;  123,500;   -0,091;    0,682
991,052;   70,500;   -0,727;    0,045
991,602;  101,773;   -2,909;    1,318
992,152;  124,409;    0,455;    0,682
992,702;  151,409;    1,364;   -0,045
993,252;  115,500;   -3,000;   -0,500
993,802;  179,318;   -0,273;    1,318
994,352;  141,318;   -1,545;    1,136
994,901;   87,864;   -0,182;    3,227
995,451;   82,409;   -0,182;    0,318
996,000;   96,864;    1,636;    0,318
996,550;  110,591;    2,273;    0,227
997,100;  130,136;    1,273;   -0,045
997,649;  212,227;    2,182;    0,955
998,198;  116,773;    1,727;   -1,500
998,748;  167,227;    1,091;   -2,318
999,297;  134,409;   -0,818;   -0,409
999,846;  209,136;    1,000;   -0,773
1000,395;  150,500;   -0,818;    0,500
1000,945;  220,409;    1,818;   -0,773
1001,494;  217,136;    2,364;    0,682
1002,043;  226,045;    4,636;    0,864
1002,592;  115,864;   -1,091;    1,955
1003,141;  103,045;   -0,455;   -0,682
1003,690;  209,591;    1,727;    0,500
1004,238;  131,591;    1,455;   -0,045
1004,787;   89,591;    1,364;    1,227
1005,336;  178,591;    0,364;    0,682
1005,885;  151,409;    1,364;   -2,773
1006,433;  144,682;    0,545;    0,955
1006,982;  245,045;    0,455;    1,682
1007,531;  162,773;   -1,818;   -0,227
1008,079;  144,955;   -2,273;    0,500
1008,627;  107,864;   -1,455;    0,409
1009,176;  129,227;    0,000;   -1,955
1009,724;   96,045;    1,091;    0,864
1010,273;  183,409;    1,273;    0,500
1010,821;  110,864;    0,091;    1,409
1011,369;   89,682;   -1,364;    1,318
1011,917;   96,955;   -1,364;   -0,591
1012,465;  143,045;    1,273;   -1,591
1013,013;  132,045;    2,091;   -1,682
1013,561;  204,955;    0,455;   -0,773
1014,109;  260,409;   -1,909;    1,682
1014,657;  180,227;    0,364;    0,591
1015,205;  120,773;    1,636;   -0,955
1015,753;   91,955;   -0,545;   -1,409
1016,301;  132,500;   -2,636;    3,045
1016,848;  174,500;   -1,273;    0,409
1017,396;  169,682;    2,545;    0,045
1017,944;  160,591;    1,182;    1,864
1018,491;  124,682;    0,273;    1,409
1019,039;  291,500;    0,455;    0,591
1019,586;  155,864;   -1,364;    1,682
1020,134;  142,773;    0,455;    1,500
1020,681;  198,227;    0,182;   -1,136
1021,228;  150,955;    2,909;   -2,227
1021,776;  128,864;    1,182;   -1,136
1022,323;  263,409;    0,455;    0,773
1022,870;  193,500;   -1,000;   -0,045
1023,417;  226,227;    2,636;    1,864
1023,964;  139,409;    2,636;    1,227
1024,511;  117,773;    1,000;    0,773
1025,058;  148,318;    3,182;   -0,045
1025,605;  117,136;   -2,273;    3,136
1026,152;  242,955;    1,727;   -0,591
1026,699;  157,045;    1,818;    1,318
1027,245;  144,864;   -0,091;    0,318
1027,792;  105,136;   -1,000;    1,409
1028,339;  246,227;    2,364;   -0,045
1028,885;  157,045;    1,000;   -0,227
1029,432;  131,045;   -0,091;    0,227
1029,978;  183,500;   -1,000;   -1,591
1030,525;  194,500;    1,000;    0,409
1031,071;  119,318;   -1,364;    1,136
1031,618;  281,500;    0,364;    1,682
1032,164;  182,318;   -0,091;    3,045
1032,710;  202,318;    1,636;   -1,500
1033,256;  186,045;   -0,636;   -0,136
1033,803;  103,318;   -0,545;    1,500
1034,349;   38,227;   -1,364;    0,136
1034,895;   62,773;    0,000;   -0,318
1035,441;  103,591;   -0,818;    0,318
1035,987;  127,773;   -2,364;   -0,682
1036,533;  166,955;   -1,455;   -0,955
1037,078;  298,864;    1,455;    1,682
1037,624;  202,682;    2,455;   -0,955
1038,170;  120,591;    0,455;   -0,318
1038,716;  166,045;    1,636;   -0,409
1039,261;  105,955;   -2,273;   -0,773
1039,807;  109,955;   -0,091;    3,409
1040,352;  114,682;   -1,909;   -0,318
1040,898;  115,682;   -1,545;   -0,682
1041,443;   86,409;   -1,455;   -2,591
1041,989;  269,318;    1,091;    1,591
1042,534;  148,591;   -0,364;    2,591
1043,079;   80,500;    2,909;    0,955
1043,625;  139,045;    1,818;    0,500
1044,170;  144,227;   -1,364;    1,045
1044,715;  261,227;    2,455;    0,955
1045,260;  202,045;    2,182;   -0,955
1045,805;  112,045;    1,182;   -0,591
1046,350;   95,409;    1,364;   -0,409
1046,895;  202,682;    2,909;    1,591
1047,440;  188,591;    5,364;    0,409
1047,985;  118,409;    2,818;   -0,955
1048,530;  105,409;    1,545;    1,227
1049,074;  130,682;    0,000;    0,318
1049,619;  102,227;   -1,364;    1,955
1050,164;  101,773;    0,455;    0,227
1050,708;  161,955;   -0,455;    0,045
1051,253;  297,227;    1,273;   -2,227
1051,797;  169,045;    0,818;   -1,318
1052,342;   78,409;   -1,182;    1,045
1052,886;  128,318;    0,364;   -1,409
1053,430;   75,409;   -1,364;    0,136
1053,975;  132,591;   -0,818;   -0,318
1054,519;  127,045;   -0,727;    3,227
1055,063;  162,682;    0,909;    1,318
1055,607;  158,045;   -0,182;    0,227
1056,151;  156,318;    2,909;    1,682
1056,695;  106,682;    2,273;   -1,136
1057,239;  100,773;   -1,727;   -0,682
1057,783;  127,409;    0,818;   -1,500
1058,327;  171,318;    0,000;    1,409
1058,871;  261,864;   -0,545;    1,318
1059,415;  186,591;   -0,818;   -0,045
1059,958;  262,864;    1,455;    2,591
1060,502;  114,864;   -1,000;   -0,773
1061,046;   72,591;    0,364;   -0,955
1061,589;   72,318;   -3,000;   -1,136
1062,133;   58,591;   -1,273;    1,864
1062,676;   88,227;    1,182;    0,864
1063,220;  100,591;    1,091;    0,500
1063,763;  116,227;    0,909;    1,136
1064,306;  124,864;   -0,909;    1,864
1064,849;  134,591;   -0,909;    0,591
1065,393;  113,227;    2,000;   -1,500
1065,936;  113,045;    0,182;   -0,409
1066,479;   80,227;   -1,455;    1,318
1067,022;   92,773;   -0,273;   -0,227
1067,565;   80,227;   -0,091;   -1,318
1068,108;   67,500;    0,727;   -0,591
1068,651;   56,045;   -0,636;    1,409
1069,194;   60,318;   -0,455;   -1,682
1069,736;   68,682;   -1,273;    0,955
1070,279;   62,227;   -1,364;   -0,500
1070,822;  102,591;   -2,000;   -0,318
1071,364;  175,864;   -0,364;    1,318
1071,907;   98,409;   -0,727;    3,227
1072,450;   31,864;    0,000;   -0,045
1072,992;   65,955;   -0,273;    3,136
1073,535;   93,136;    2,091;    2,136
1074,077;   61,409;   -0,727;    2,045
1074,619;   52,318;   -1,364;    0,591
1075,161;   75,591;   -1,091;    1,500
1075,704;  139,136;    1,545;    1,227
1076,246;   74,227;   -0,182;    0,682
1076,788;   41,227;   -0,364;    1,773
1077,330;   41,591;    1,273;    2,136
1077,872;   61,682;    0,909;    0,955
1078,414;  155,864;    2,727;    0,773
1078,956;   81,682;    1,273;   -0,227
1079,498;  142,136;    1,636;    0,318
1080,040;   78,318;    1,909;   -1,318
1080,581;   63,136;    1,636;   -0,318
1081,123;   35,227;    0,091;   -0,773
1081,665;   39,318;   -1,182;   -0,955
1082,206;  136,500;    1,364;   -0,500
1082,748;   86,136;    0,727;    2,045
1083,289;   43,500;   -2,000;    1,318
1083,831;   39,318;   -0,545;    0,227
1084,372;   66,955;    0,000;    0,591
1084,913;   58,591;    1,091;    0,864
1085,455;   40,136;   -1,909;   -2,045
1085,996;   32,136;   -2,273;    0,136
1086,537;   42,409;   -0,091;    0,864
1087,078;   54,591;   -0,909;   -2,136
1087,619;   82,773;   -1,273;    0,227
1088,160;   67,136;    0,000;    1,318
1088,701;   55,591;   -1,091;    0,682
1089,242;   52,227;    1,364;   -2,227
1089,783;   68,955;   -0,273;    1,409
1090,324;   54,773;    0,455;    0,682
1090,865;   38,500;    2,727;   -0,409
1091,405;   27,409;    0,727;    2,227
1091,946;   49,318;    0,182;   -0,955
1092,487;   25,409;    0,818;   -1,409
1093,027;   76,955;   -1,364;   -1,500
1093,568;   47,045;   -0,364;    1,227
1094,108;   60,136;    0,273;    1,773
1094,649;   45,591;   -1,182;    0,136
1095,189;   32,409;   -0,636;   -0,682
1095,729;   33,955;   -0,091;    0,955
1096,269;   31,864;    0,727;   -0,955
1096,810;   98,318;   -1,364;    0,500
1097,350;   70,955;    1,364;   -0,773
1097,890;   52,318;    0,364;    1,227
1098,430;  137,318;    2,364;    2,864
1098,970;   98,955;    2,182;    1,682
1099,510;   44,045;    0,545;   -2,318
1100,050;   32,318;    1,000;   -1,591
1100,589;   39,955;   -0,727;   -0,318
1101,129;   62,500;    0,818;   -0,955
1101,669;   99,045;    1,727;    2,136
1102,209;   65,591;   -0,091;    2,227
1102,748;   49,136;    0,000;    0,955
1103,288;   53,591;    1,273;   -1,227
1103,827;   46,227;    3,091;   -2,227
1104,367;   33,500;   -0,091;   -2,409
1104,906;   35,773;    1,364;   -1,136
1105,445;   55,136;    0,636;   -1,136
1105,985;   39,136;   -0,727;    1,500
1106,524;   47,773;   -1,727;   -0,682
1107,063;   38,318;   -2,727;    1,409
1107,602;   30,864;   -1,909;   -1,500
1108,141;   26,500;   -1,909;    1,500
1108,680;   53,591;   -3,455;   -0,591
1109,219;   40,682;   -0,909;   -0,500
1109,758;   34,318;    0,455;    0,682
1110,297;   31,682;    1,000;   -0,682
1110,836;   22,864;   -0,727;    0,955
1111,375;   30,318;   -2,545;    0,409
1111,913;   56,500;   -1,000;    0,773
1112,452;   40,682;   -0,273;    0,136
1112,991;   24,682;    1,091;    1,955
1113,529;   26,682;   -0,818;   -0,045
1114,068;   34,955;   -0,273;    2,955
1114,606;   22,045;   -0,364;   -0,955
1115,144;   47,864;   -1,273;    1,045
1115,683;   33,864;   -0,727;    0,318
1116,221;   48,955;   -0,455;   -0,864
1116,759;   31,591;    0,636;   -0,864
1117,297;   59,318;    0,000;    1,864
1117,836;   29,409;   -2,182;   -1,227
1118,374;   32,864;    0,182;   -0,682
1118,912;   33,227;    0,909;    2,682
1119,450;   31,045;    1,000;    0,864
1119,988;   30,227;    1,545;    2,136
1120,525;  173,500;    5,091;    3,318
1121,063;   82,591;    1,182;    1,864
1121,601;   31,955;   -0,909;   -1,227
1122,139;   24,318;   -0,727;   -2,045
1122,676;   70,136;   -0,727;    2,773
1123,214;   57,591;   -1,182;    4,409
1123,751;   26,500;    1,727;    2,227
1124,289;   37,682;   -0,091;   -0,409
1124,826;   27,409;    1,727;    0,227
1125,364;    7,773;    1,727;   -0,955
1125,901;   63,318;    1,182;    1,227
1126,438;   55,409;    0,818;    0,955
1126,975;   13,227;   -0,727;   -0,773
1127,513;   21,227;    0,273;    2,136
1128,050;   13,955;    1,636;   -0,682
1128,587;   27,136;    2,000;   -0,227
1129,124;   37,227;    0,091;    1,318
1129,661;   21,864;    0,273;    0,227
1130,198;   51,318;    1,636;    0,773
1130,734;   34,136;    0,182;    1,409
1131,271;   10,500;   -0,909;    0,864
1131,808;   38,773;    2,909;    3,045
1132,345;   23,045;    1,545;    0,318
1132,881;    8,318;   -1,545;   -1,864
1133,418;   25,682;    0,727;   -1,136
1133,954;   17,318;    2,455;   -2,682
1134,491;   27,864;    1,364;   -0,773
1135,027;   14,591;    2,364;    0,864
1135,564;   28,318;    0,273;    2,955
1136,100;   26,045;    0,364;    2,136
1136,636;   11,773;   -1,273;   -1,045
1137,172;   19,045;    0,000;   -1,045
1137,708;   14,227;   -1,364;   -1,045
1138,245;   11,955;    1,273;   -1,227
1138,781;    7,500;    1,091;   -3,318
1139,317;   16,227;    1,273;   -1,409
1139,852;   16,955;    3,091;    0,136
1140,388;   27,682;   -1,182;   -0,409
1140,924;   15,500;   -1,091;   -2,227
1141,460;    8,591;   -1,636;    0,136
1141,996;    4,318;   -1,364;    2,682
1142,531;    8,318;    1,364;    3,318
1143,067;   39,136;    1,182;    1,045
1143,602;   50,227;   -0,091;   -0,318
1144,138;   22,591;   -2,636;    1,045
1144,673;    9,773;   -1,455;    1,409
1145,209;   14,864;   -1,909;   -0,318
1145,744;    6,591;   -0,727;    0,864
1146,279;   23,045;    1,818;   -0,136
1146,815;   10,955;    1,545;   -2,682
1147,350;   18,500;   -1,364;    0,045
1147,885;    9,227;   -0,818;   -1,318
1148,420;    8,955;   -2,273;    0,773
1148,955;    4,773;   -1,727;    1,864
1149,490;    8,045;   -0,909;   -1,591
1150,025;    6,773;    0,455;   -1,773
1150,560;   19,136;    1,091;   -0,955
1151,094;   14,136;    1,455;   -0,591
1151,629;   12,500;    1,636;    0,864
1152,164;    9,045;    1,364;    1,318
1152,698;    6,409;   -0,182;   -0,136
1153,233;    1,136;    0,091;   -0,682
1153,767;    6,227;   -3,000;   -2,318
1154,302;   10,318;   -1,455;    1,773
1154,836;   11,864;   -0,455;   -2,136
1155,371;   17,045;   -1,364;    3,682
1155,905;   12,409;   -0,636;    1,682
1156,439;   11,318;   -0,636;   -0,500
1156,973;   12,773;    0,364;    0,318
1157,507;    8,500;   -0,364;    0,682
1158,042;    9,318;   -0,727;    1,045
1158,576;   10,773;    0,182;    1,773
1159,110;    9,409;   -0,818;    2,409
1159,643;    6,591;    0,636;   -0,045
1160,177;    1,045;   -1,545;    1,500

