
Integration time [ms]:   0,040
Averaging Nr. [scans]: 11
Smoothing Nr. [pixels]: 0
Data measured with spectrometer [name]: 7318044SP
Wave   ;Sample   ;Dark     ;Reference
[nm]   ;[counts] ;[counts] ;[counts] 

186,757;   39,348;   31,551;    1,318
187,357;   31,367;   22,551;    0,955
187,958;   23,559;   15,460;   -1,591
188,558;   25,251;    8,915;   -1,227
189,159;   13,739;    6,733;   -4,500
189,759;   12,826;    7,278;   -3,591
190,360;    7,438;    2,824;   -2,136
190,960;   10,591;    2,915;   -4,136
191,560;   10,058;    3,189;   -6,591
192,161;   56,424;    4,372;   -3,500
192,761;   30,731;    4,010;   -3,227
193,361;   15,135;    1,556;   -3,773
193,962;   27,975;    2,010;   -2,682
194,562;    9,113;    1,189;   -3,955
195,162;    8,088;   -2,448;   -2,227
195,762;   32,609;   -3,176;   -0,045
196,362;   21,550;    1,370;   -2,500
196,963;    6,506;    2,006;   -0,864
197,563;   10,436;    1,551;   -0,955
198,163;    5,348;    0,096;   -0,682
198,763;    5,577;    1,733;   -0,500
199,363;   17,675;    3,096;   -0,500
199,963;   11,396;    0,369;    0,409
200,563;    8,977;    2,823;   -1,409
201,163;    4,839;    3,277;   -0,227
201,763;    9,280;    3,732;    0,318
202,363;    6,303;    1,459;    1,500
202,963;   13,984;    1,459;    1,045
203,563;   23,319;    0,277;    0,500
204,162;    9,966;    2,096;   -1,864
204,762;    6,808;    0,550;    0,591
205,362;    5,489;    3,004;    1,955
205,962;    9,291;    3,096;    1,955
206,562;    9,012;    1,823;    2,318
207,161;    5,655;   -0,087;    0,318
207,761;   25,649;    1,277;    2,409
208,361;   10,426;   -0,268;    1,409
208,960;    9,818;    0,459;    1,500
209,560;    6,271;    1,277;    1,591
210,160;   15,324;    0,550;    1,864
210,759;    8,662;    4,186;    1,227
211,359;    6,583;    1,459;    1,045
211,958;   38,878;    1,277;    2,045
212,558;   38,225;    1,732;    1,864
213,157;   17,442;    1,822;    1,500
213,757;   63,599;    3,822;   -0,227
214,356;   26,739;    1,277;   -0,409
214,956;   52,843;    3,095;    0,409
215,555;   19,522;    2,095;    2,136
216,154;    9,341;   -2,723;   -0,591
216,754;    9,154;    0,277;    0,773
217,353;   15,370;   -0,268;   -1,045
217,952;    4,304;   -0,178;    0,318
218,552;   21,125;    1,368;   -0,773
219,151;   11,431;    0,277;    0,955
219,750;    7,301;    0,004;   -0,227
220,349;    7,501;   -0,451;    1,045
220,948;   33,266;   -1,360;    1,136
221,548;   13,291;    0,913;    1,227
222,147;   14,460;   -0,087;   -0,409
222,746;   43,530;   -0,451;   -0,955
223,345;   25,089;    0,731;    0,500
223,944;   23,856;   -0,451;    0,773
224,543;   27,912;    1,004;   -1,409
225,142;   18,051;    0,094;    0,136
225,741;   24,146;   -0,814;    1,045
226,340;   18,706;   -0,451;   -0,955
226,939;   43,273;   -0,996;   -0,136
227,538;   21,957;   -0,360;   -0,773
228,137;   56,978;   -0,814;    0,864
228,735;   41,521;   -0,541;    1,227
229,334;   11,152;   -0,905;   -0,227
229,933;   54,977;    0,459;    0,591
230,532;   51,036;    1,186;   -0,409
231,131;   78,016;    1,732;    0,318
231,729;   39,873;   -2,450;   -2,318
232,328;   22,410;   -0,723;   -1,500
232,927;   31,817;    1,004;   -0,500
233,525;   28,112;    3,640;    0,045
234,124;   39,217;    2,368;   -1,591
234,723;   23,420;    0,913;   -1,045
235,321;   18,371;    2,277;    0,136
235,920;   21,694;    1,186;   -1,227
236,518;   70,736;    3,459;    0,318
237,117;   27,474;    0,004;   -0,227
237,715;   39,972;    0,640;   -0,500
238,314;   39,317;   -0,087;   -2,318
238,912;   74,863;   -0,723;   -1,409
239,510;   53,125;    0,459;   -1,227
240,109;   94,524;    0,004;    3,773
240,707;   79,991;   -0,996;    1,227
241,305;   33,101;    0,550;    0,136
241,904;   60,556;   -0,178;   -2,045
242,502;  124,018;   -0,632;   -0,227
243,100;   78,603;   -0,087;   -0,955
243,698;   45,373;    0,732;    1,682
244,297;   64,245;   -0,632;    0,682
244,895;   60,729;   -0,269;   -2,318
245,493;  136,573;    2,186;   -0,591
246,091;  146,107;    1,368;   -1,318
246,689;  104,195;    1,004;    0,591
247,287;   96,919;    0,822;   -1,136
247,885;   74,336;   -1,451;    1,227
248,483;   66,279;    1,822;   -0,500
249,081;  115,840;    0,185;    1,591
249,679;  124,467;   -0,178;    1,682
250,277;   72,863;   -1,723;    0,864
250,875;  134,151;   -1,087;   -1,045
251,473;   89,023;   -1,178;    0,500
252,071;  148,007;    1,459;    1,045
252,669;   96,856;   -1,814;    0,318
253,267;   73,310;   -0,087;    0,773
253,864;  106,374;   -0,360;    0,682
254,462;  176,328;    1,640;    1,591
255,060;   76,860;   -0,269;    1,318
255,658;   78,129;    0,822;   -0,136
256,255;  112,644;    0,186;   -2,045
256,853;  142,336;   -0,269;    1,409
257,451;  112,750;    0,822;    1,864
258,048;  360,282;    1,822;    1,864
258,646;  201,962;    1,731;   -1,045
259,243;  256,791;   -0,087;    2,227
259,841;  185,676;   -0,814;    0,318
260,438;  106,065;   -0,087;    0,864
261,036;  177,613;   -1,905;    1,409
261,633;  110,134;   -0,087;    2,227
262,231;   84,212;    2,731;   -0,045
262,828;   89,139;   -0,905;    1,136
263,425;  114,458;    0,913;   -0,591
264,023;  122,406;    0,186;    0,045
264,620;  209,775;   -0,360;   -0,318
265,217;  292,040;   -2,087;    3,136
265,815;  135,017;   -1,905;    2,136
266,412;  199,773;    0,731;    0,136
267,009;  204,565;   -1,451;    0,773
267,606;  256,053;    0,822;   -0,955
268,203;  149,624;   -0,269;   -0,591
268,801;  162,218;    1,731;    0,591
269,398;  116,890;   -0,360;    2,500
269,995;  206,230;    0,277;    1,591
270,592;  180,607;   -0,632;   -0,500
271,189;  114,710;    0,186;    0,409
271,786;   99,553;   -0,632;    1,227
272,383;  244,527;   -1,087;    0,227
272,980;  159,479;    0,277;    0,318
273,577;  130,939;    0,004;    1,227
274,174;  119,496;    0,822;    2,591
274,771;  207,674;   -0,814;   -0,773
275,367;  472,936;    2,277;    1,409
275,964;  320,425;    0,731;   -0,500
276,561;  180,500;    1,549;   -1,045
277,158;  107,740;    0,095;   -1,773
277,755;  286,750;    2,185;    0,409
278,351;  224,141;   -0,451;   -1,500
278,948;  262,019;   -0,815;    0,045
279,545;  222,988;   -1,360;    2,318
280,141;  337,739;   -1,723;   -2,045
280,738;  333,032;   -0,451;   -0,136
281,334;  185,436;   -1,633;    0,591
281,931;  188,432;   -0,087;   -1,318
282,528;  275,056;    0,822;   -0,500
283,124;  320,510;   -1,087;   -0,500
283,721;  318,149;   -0,451;    1,409
284,317;  214,255;    0,185;    2,500
284,913;  338,062;   -1,360;    0,591
285,510;  502,244;    0,640;   -0,318
286,106;  367,936;   -2,269;   -0,955
286,703;  246,373;   -0,360;    1,955
287,299;  207,039;   -1,451;   -0,591
287,895;  194,866;    0,822;   -1,045
288,491;  180,890;    0,186;    2,136
289,088;  267,914;   -2,360;    2,409
289,684;  302,310;   -1,723;    1,500
290,280;  418,095;    0,368;    0,682
290,876;  368,680;    1,822;    5,500
291,472;  308,922;    1,276;    2,227
292,068;  321,032;    1,367;    0,227
292,665;  242,039;    2,095;    0,773
293,261;  171,351;    0,276;    2,136
293,857;  312,635;    2,913;    2,136
294,453;  247,611;    3,550;    0,955
295,049;  418,466;   -0,268;    1,955
295,644;  290,631;    0,095;    0,136
296,240;  183,494;   -0,905;   -0,136
296,836;  280,799;   -0,995;    0,318
297,432;  376,206;    1,096;   -0,500
298,028;  402,935;    0,732;    0,773
298,624;  299,625;    1,459;    1,864
299,220;  283,327;    2,368;    0,591
299,815;  268,906;    1,005;   -0,409
300,411;  350,102;    0,914;    1,773
301,007;  432,836;    1,368;    0,227
301,602;  296,985;   -0,541;   -2,318
302,198;  412,082;    0,732;   -0,773
302,794;  287,500;    1,187;   -0,500
303,389;  237,145;   -1,177;    1,045
303,985;  274,606;    0,550;    1,409
304,580;  383,407;    1,459;    1,591
305,176;  307,738;   -3,086;    0,136
305,771;  208,217;   -1,268;   -1,227
306,367;  529,599;    4,095;    0,136
306,962;  337,439;    0,641;    1,500
307,558;  385,165;   -0,450;    0,136
308,153;  417,922;    1,095;   -1,136
308,748;  255,815;   -0,814;    1,682
309,344;  562,418;   -0,632;   -1,318
309,939;  556,667;   -1,905;   -1,318
310,534;  305,134;   -0,086;   -1,682
311,130;  287,910;    0,459;   -2,500
311,725;  258,931;    1,004;   -0,500
312,320;  304,171;    2,459;    0,045
312,915;  374,227;    1,459;   -1,045
313,510;  550,935;    1,550;   -0,500
314,105;  304,301;    1,096;    1,409
314,700;  200,323;   -3,086;   -1,045
315,295;  270,952;   -0,904;    0,045
315,890;  231,889;    1,277;    0,864
316,485;  325,573;   -0,359;   -0,318
317,080;  237,263;   -3,086;    1,591
317,675;  496,628;    2,005;   -0,682
318,270;  673,732;    5,550;    3,318
318,865;  572,820;    3,278;    3,045
319,460;  428,348;   -0,904;    0,591
320,055;  284,250;   -0,541;   -1,227
320,650;  293,054;   -1,995;   -0,591
321,244;  288,718;   -0,177;   -1,409
321,839;  290,513;   -1,541;   -0,227
322,434;  342,444;   -1,086;   -1,591
323,029;  281,746;    1,732;    1,591
323,623;  260,724;    1,550;    0,773
324,218;  422,818;    2,368;    1,409
324,812;  362,048;    1,096;    1,591
325,407;  358,348;   -0,814;    2,045
326,002;  475,898;    0,277;   -0,409
326,596;  425,406;    0,914;    1,318
327,191;  280,157;    0,823;   -1,045
327,785;  283,133;   -0,813;   -0,227
328,379;  279,976;    1,368;    0,136
328,974;  331,431;    0,914;   -3,955
329,568;  349,961;    0,186;   -2,409
330,163;  422,843;    2,096;    1,045
330,757;  276,580;    2,459;    1,591
331,351;  228,370;    0,459;    0,682
331,945;  226,770;    0,914;    1,409
332,540;  348,736;   -1,723;   -0,591
333,134;  341,039;   -1,086;    0,773
333,728;  343,190;    0,005;    0,318
334,322;  249,517;   -1,177;   -0,864
334,916;  249,522;    0,277;    0,955
335,510;  396,184;   -0,450;   -0,136
336,105;  382,702;   -1,086;    1,591
336,699;  292,562;   -1,086;    0,591
337,293;  326,879;   -1,723;    0,318
337,887;  268,627;   -2,723;    1,955
338,481;  394,553;    0,459;    0,591
339,074;  488,701;   -0,359;    2,682
339,668;  466,414;   -1,632;    1,227
340,262;  967,952;    1,732;    3,227
340,856;  606,457;    1,822;   -0,682
341,450;  326,571;    1,004;    1,864
342,044;  375,243;    1,459;    0,136
342,637;  496,978;    0,913;   -2,136
343,231;  476,297;   -2,360;    0,682
343,825;  379,923;   -1,086;   -0,591
344,419;  355,423;   -1,995;    0,500
345,012;  839,854;    2,459;    4,045
345,606;  658,837;    4,641;    1,591
346,199;  377,894;   -1,813;   -0,227
346,793;  491,698;    1,914;    2,045
347,386;  310,227;   -0,813;   -1,136
347,980;  222,031;   -0,268;   -0,045
348,573;  316,533;    2,278;    0,409
349,167;  591,120;    5,278;    4,773
349,760;  461,763;    2,914;    2,682
350,354;  427,366;   -0,813;    1,136
350,947;  473,150;    1,096;    1,682
351,540;  359,327;   -0,358;   -1,409
352,134;  244,855;    1,096;    1,136
352,727;  266,745;   -0,086;    1,136
353,320;  277,323;    0,005;    0,591
353,913;  223,613;   -1,995;    1,864
354,507;  414,263;    0,823;   -1,227
355,100;  291,156;    0,460;    0,864
355,693;  676,875;    2,005;    2,409
356,286;  460,306;    0,823;    2,773
356,879;  323,768;   -0,722;    1,227
357,472;  317,777;   -0,904;    1,500
358,065;  357,643;   -0,722;    2,500
358,658;  227,311;   -0,540;    2,318
359,251;  203,134;   -1,631;   -0,591
359,844;  379,453;   -1,904;   -1,136
360,437;  436,160;   -2,995;    0,045
361,030;  283,043;    1,369;   -0,682
361,623;  291,608;    2,824;    0,318
362,215;  505,635;   -0,086;    2,045
362,808;  362,470;   -2,358;   -1,682
363,401;  291,768;   -2,449;    0,136
363,994;  496,834;   -0,631;   -1,500
364,586;  307,757;    0,824;   -1,500
365,179;  261,165;   -0,449;   -1,136
365,772;  135,345;   -1,995;    2,045
366,364;  280,647;    1,915;   -3,227
366,957;  334,070;    2,279;   -0,045
367,549;  282,220;    2,188;   -0,864
368,142;  298,154;    1,825;   -1,500
368,734;  260,294;    0,734;   -2,136
369,327;  196,516;    1,643;   -0,500
369,919;  234,882;   -1,538;    0,409
370,512;  254,664;   -1,083;   -0,500
371,104;  505,797;   -0,901;    1,591
371,696;  527,708;    1,191;   -0,955
372,289;  385,721;    0,373;    1,136
372,881;  339,783;   -2,080;    1,318
373,473;  235,626;   -2,170;    1,136
374,066;  319,617;   -0,169;    0,500
374,658;  296,100;    0,378;    1,136
375,250;  228,703;    0,653;   -1,409
375,842;  284,866;    0,473;   -0,045
376,434;  249,893;   -0,435;   -0,409
377,026;  229,366;    0,204;   -2,500
377,618;  278,778;   -0,158;   -0,682
378,210;  225,904;   -0,338;   -1,955
378,802;  226,388;    0,754;   -0,591
379,394;  587,131;    1,846;    0,682
379,986;  360,869;    1,393;   -0,955
380,578;  274,157;   -0,153;    0,773
381,170;  501,325;   -0,972;    0,045
381,762;  402,942;    0,755;    1,409
382,354;  355,791;   -0,065;   -1,318
382,945;  270,830;   -2,976;    0,318
383,537;  214,013;   -2,705;   -1,955
384,129;  207,172;   -2,160;   -1,136
384,721;  316,050;   -0,252;    0,955
385,312;  258,155;   -0,161;   -0,955
385,904;  340,620;   -2,706;    1,591
386,496;  282,256;   -0,979;    1,045
387,087;  416,185;    1,022;    2,500
387,679;  352,653;   -1,160;    0,045
388,270;  331,864;    2,840;    2,045
388,862;  304,544;    1,295;   -0,318
389,453;  297,063;   -0,887;    1,045
390,045;  302,517;   -0,705;   -2,682
390,636;  201,898;    0,204;   -0,591
391,227;  263,898;   -0,523;   -0,045
391,819;  240,125;    0,204;    0,773
392,410;  490,006;    1,022;    0,045
393,001;  302,288;   -0,979;   -1,591
393,593;  359,328;    1,930;   -0,045
394,184;  411,111;    1,385;   -0,409
394,775;  292,387;    1,839;    2,136
395,366;  215,927;    1,385;    0,773
395,957;  400,376;    0,113;    0,136
396,548;  294,355;   -0,342;    2,682
397,139;  414,157;   -2,433;    0,591
397,730;  326,193;   -1,888;    0,955
398,321;  339,712;   -1,252;    0,955
398,912;  270,734;   -0,615;    0,136
399,503;  265,730;   -3,524;   -1,409
400,094;  326,228;    0,294;    1,682
400,685;  315,793;   -0,433;    0,045
401,276;  264,408;    0,930;   -0,955
401,867;  245,459;   -0,888;    0,773
402,458;  209,311;   -2,251;   -2,318
403,048;  360,296;    1,112;    0,591
403,639;  298,667;    0,840;    0,864
404,230;  407,302;    2,476;    0,318
404,821;  469,366;   -0,615;    0,045
405,411;  366,506;    1,203;   -2,591
406,002;  282,665;   -1,252;   -1,136
406,592;  512,823;    2,294;    0,045
407,183;  364,275;    0,566;   -1,500
407,774;  341,513;    3,475;   -0,136
408,364;  296,579;    0,930;    0,409
408,954;  414,425;    0,384;    1,227
409,545;  417,054;    1,021;    1,045
410,135;  369,583;    1,293;    0,500
410,726;  315,262;    1,838;    0,318
411,316;  500,256;    0,111;    0,773
411,906;  326,407;   -0,253;   -0,409
412,497;  349,127;   -1,070;   -0,045
413,087;  291,680;   -1,980;   -0,227
413,677;  213,172;   -0,707;    3,864
414,267;  215,161;    0,656;    1,409
414,857;  186,904;   -2,980;    4,227
415,448;  190,603;    0,839;    0,500
416,038;  221,527;    0,020;   -0,591
416,628;  270,619;   -0,889;    0,409
417,218;  325,474;    0,565;    3,318
417,808;  474,944;    0,202;   -0,409
418,398;  346,766;    0,020;    2,682
418,988;  230,233;    2,020;    0,591
419,578;  334,278;   -0,707;    1,409
420,168;  265,412;   -1,343;   -0,955
420,757;  416,968;   -1,343;   -1,500
421,347;  305,928;    0,111;   -0,227
421,937;  274,193;    2,292;    1,409
422,527;  408,774;    0,838;   -0,773
423,116;  543,219;   -0,253;   -0,045
423,706;  255,980;   -1,889;    0,318
424,296;  217,702;    1,384;    0,682
424,885;  348,156;   -0,071;   -3,045
425,475;  314,651;    1,474;   -2,864
426,065;  207,828;   -0,980;   -0,318
426,654;  181,212;   -0,435;   -0,318
427,244;  456,480;    0,020;    1,409
427,833;  425,553;    1,383;   -0,500
428,423;  285,727;   -0,526;    1,136
429,012;  280,163;   -0,344;   -1,136
429,601;  408,019;   -1,344;    0,136
430,191;  302,769;    1,292;    4,318
430,780;  204,368;   -0,344;   -0,409
431,369;  391,931;    0,746;   -0,045
431,959;  274,854;   -1,254;    0,500
432,548;  209,227;   -1,163;   -0,045
433,137;  148,895;   -1,254;   -1,318
433,726;  227,053;    0,292;    0,500
434,315;  254,621;   -0,526;    2,409
434,905;  353,820;   -1,254;    1,409
435,494;  343,585;    0,746;    0,955
436,083;  211,065;   -0,981;   -0,955
436,672;  303,915;    0,110;    0,500
437,261;  249,609;    0,292;   -1,955
437,850;  474,400;    1,383;    0,682
438,439;  515,952;    3,291;    1,955
439,027;  626,792;    3,655;    1,773
439,616;  538,392;    2,927;    1,227
440,205;  320,885;    0,200;   -2,136
440,794;  270,859;    2,109;   -0,045
441,383;  204,834;   -1,346;   -0,591
441,971;  171,278;   -2,436;    0,591
442,560;  178,252;    0,563;   -1,773
443,149;   74,096;    0,379;   -1,318
443,737;  127,456;   -0,074;   -2,318
444,326;  156,533;    0,018;    0,318
444,915;  200,339;   -1,982;    0,864
445,503;  211,673;   -2,891;   -0,318
446,092;  456,331;    0,382;    2,136
446,680;  382,643;    0,382;    0,318
447,269;  288,575;   -0,346;   -0,318
447,857;  272,174;    0,018;   -1,773
448,445;  223,739;    0,563;    1,318
449,034;  165,088;   -1,528;   -1,136
449,622;  170,272;   -1,073;    3,500
450,210;  420,660;    2,017;    2,227
450,799;  332,951;    0,290;   -0,591
451,387;  295,882;    1,381;   -0,591
451,975;  281,398;    2,654;    0,864
452,563;  342,350;    3,472;    2,318
453,151;  185,700;   -0,528;   -1,227
453,739;  218,626;   -1,347;    0,136
454,328;  306,409;    2,381;   -2,136
454,916;  244,907;    2,562;   -0,136
455,504;  260,868;    1,017;    1,227
456,092;  160,743;    0,017;   -1,591
456,679;  129,296;    1,472;    0,682
457,267;  479,622;    4,017;    1,045
457,855;  204,471;    1,017;    1,409
458,443;   86,444;   -0,165;    1,682
459,031;  206,768;    0,108;    2,409
459,619;  171,278;   -1,801;    2,864
460,206;   97,121;    0,835;    2,045
460,794;   98,432;   -2,983;   -0,227
461,382;  134,331;   -0,529;   -0,864
461,970;  133,511;    1,198;    1,864
462,557;   80,597;   -0,711;   -0,682
463,145;  170,021;   -3,165;   -1,682
463,732;  373,561;    2,016;   -1,045
464,320;  186,899;   -0,075;   -3,045
464,907;  292,329;    2,743;   -0,773
465,495;  209,910;    0,743;   -1,227
466,082;  152,074;   -1,984;   -0,045
466,670;  175,084;   -2,529;    1,227
467,257;   92,111;   -1,711;    2,045
467,844;  166,863;   -0,075;    0,045
468,432;  138,966;    0,834;    3,500
469,019;  109,039;    0,925;   -1,773
469,606;  181,814;    0,470;    3,682
470,193;  196,091;   -1,439;    0,227
470,780;  145,831;   -2,075;    0,864
471,368;   96,971;   -1,257;   -0,773
471,955;  170,401;    1,379;   -0,682
472,542;  138,290;    0,652;   -1,136
473,129;   67,507;   -0,166;    0,136
473,716;   71,215;    1,470;    0,591
474,303;   87,675;    0,652;   -0,864
474,890;   85,619;   -1,439;   -0,500
475,477;  157,198;   -1,621;    0,409
476,064;   89,457;    1,106;   -1,591
476,650;  170,570;    0,288;    0,318
477,237;  103,934;   -0,258;    0,955
477,824;   91,769;   -1,076;    0,864
478,411;   46,394;   -1,894;   -0,318
478,997;   35,274;    0,560;   -0,773
479,584;   12,080;    1,196;   -0,409
480,171;   99,139;   -0,440;   -0,773
480,757;  130,121;    2,651;    0,773
481,344;   70,144;    0,469;    0,409
481,931;   25,268;    1,105;    1,045
482,517;   86,450;   -1,258;    0,318
483,104;  142,988;    1,106;    2,864
483,690;   66,633;   -1,804;    0,045
484,276;   54,147;   -0,895;    0,227
484,863;  178,112;    2,469;    1,136
485,449;   82,649;   -0,077;    0,318
486,035;   55,025;   -1,986;   -0,136
486,622;   99,696;   -0,895;    0,045
487,208;   56,550;    1,378;    1,500
487,794;   20,511;    0,741;    0,318
488,380;   21,260;    0,105;   -1,409
488,967;   19,364;   -1,168;   -0,409
489,553;   30,413;   -1,895;   -1,409
490,139;   67,872;    1,559;    0,773
490,725;   35,521;    0,741;   -0,227
491,311;   53,144;    3,287;    3,045
491,897;   41,788;   -0,986;    1,500
492,483;   48,537;    0,105;    1,227
493,069;  296,161;    3,923;    0,864
493,655;  129,667;    1,650;    0,682
494,241;   57,653;    1,377;   -0,955
494,826;   66,410;    0,287;   -1,045
495,412;   96,956;    2,559;   -0,682
495,998;   55,820;   -0,805;   -0,318
496,584;   90,150;    0,377;    1,045
497,169;  106,451;    1,014;   -0,682
497,755;   71,455;    0,650;    1,227
498,341;  161,630;    0,559;    0,318
498,926;  260,399;    1,832;    1,955
499,512;   79,974;    1,286;    2,955
500,097;   82,429;    0,195;   -0,318
500,683;  107,760;   -0,350;    2,136
501,268;   78,494;   -0,169;   -0,955
501,854;  103,798;   -0,169;    1,227
502,439;   98,691;   -0,624;   -1,773
503,024;  122,000;    0,195;    0,500
503,610;  157,811;   -0,078;   -0,682
504,195;  114,205;    0,558;    1,955
504,780;  207,141;    2,922;    1,227
505,366;  307,216;    3,013;    2,864
505,951;  246,665;    0,740;    1,045
506,536;  169,468;   -3,260;   -3,682
507,121;  237,983;    0,285;   -0,318
507,706;  193,536;    2,376;    1,045
508,291;  146,395;    2,649;    1,136
508,876;  152,452;   -0,988;    2,591
509,461;  218,669;   -0,169;   -0,773
510,046;  269,659;    0,194;    0,318
510,631;  286,159;   -0,351;   -0,773
511,216;  196,014;    2,467;   -0,500
511,801;  282,203;   -0,442;    2,591
512,386;  311,725;    0,740;    0,500
512,971;  325,527;   -2,988;    0,955
513,555;  385,566;   -0,897;   -1,500
514,140;  336,313;   -0,442;   -3,136
514,725;  470,852;   -0,715;   -1,136
515,309;  362,472;   -0,533;    0,318
515,894;  255,196;   -0,624;   -2,227
516,479;  300,405;   -0,624;   -0,955
517,063;  314,926;    0,376;    1,227
517,648;  260,755;    1,012;   -1,136
518,232;  235,432;   -0,261;   -1,409
518,817;  341,618;   -0,079;    1,682
519,401;  472,056;    2,194;    0,591
519,985;  435,489;    1,103;    1,136
520,570;  280,720;    0,830;   -1,955
521,154;  395,301;    2,102;    0,591
521,738;  581,649;   -2,352;    2,409
522,323;  401,467;   -0,170;    1,682
522,907;  394,913;    0,466;   -0,136
523,491;  301,466;    0,557;    0,955
524,075;  270,016;    2,284;    0,591
524,659;  468,972;    1,466;    0,591
525,243;  407,438;    1,739;    0,409
525,827;  347,563;    0,648;   -0,045
526,411;  348,153;   -1,989;   -0,136
526,995;  455,361;   -0,352;    1,409
527,579;  513,096;   -0,443;   -1,045
528,163;  441,230;    0,375;   -1,500
528,747;  546,126;    2,466;   -0,773
529,331;  483,205;   -0,080;   -1,409
529,915;  323,237;    1,738;    0,955
530,499;  415,236;   -0,807;    1,227
531,082;  580,363;   -0,534;    1,591
531,666;  651,482;    1,374;    0,773
532,250;  531,949;    1,284;    2,682
532,833;  641,468;    0,920;    2,773
533,417;  477,565;   -1,807;    0,864
534,001;  600,162;    1,647;   -0,318
534,584;  513,310;    0,374;    0,500
535,168;  334,759;    0,465;    1,409
535,751;  684,577;    0,647;    0,045
536,334;  430,874;   -0,898;   -0,409
536,918;  279,412;    0,011;    1,591
537,501;  294,449;   -0,899;    1,318
538,085;  342,377;   -0,444;    1,045
538,668;  424,654;    0,829;    2,409
539,251;  702,204;    1,829;    3,773
539,834;  416,466;    0,101;    0,773
540,418;  544,178;   -1,990;    4,318
541,001;  719,065;   -0,990;    1,773
541,584;  483,280;    2,101;    2,227
542,167;  599,008;    1,374;    2,955
542,750;  420,760;    1,919;   -0,773
543,333;  298,211;    0,555;    2,136
543,916;  520,880;    0,192;    2,500
544,499;  449,815;   -1,354;    0,227
545,082;  532,458;    1,374;    3,591
545,665;  444,074;    1,919;    1,500
546,248;  571,483;    1,010;   -0,318
546,830;  545,196;   -0,445;    1,955
547,413;  504,439;    1,010;   -0,773
547,996;  460,836;    0,555;    0,500
548,579;  423,244;    0,919;    0,955
549,161;  656,524;    1,828;    2,682
549,744;  542,841;   -0,809;    0,409
550,326;  393,483;   -0,809;   -1,136
550,909;  863,610;    2,737;    0,591
551,492;  508,921;   -0,263;    0,227
552,074;  631,996;   -0,173;   -1,318
552,657;  660,180;    2,373;    0,045
553,239;  527,557;   -0,173;   -0,773
553,821;  398,685;   -1,082;    1,045
554,404;  658,085;    1,282;    1,136
554,986;  757,844;    0,464;    1,045
555,568;  584,858;    1,191;   -0,955
556,151;  801,771;    1,191;   -0,227
556,733;  480,649;   -0,264;   -0,864
557,315;  502,916;    0,100;    0,500
557,897;  371,814;    0,554;   -0,500
558,479;  386,002;   -1,991;    1,318
559,061;  479,627;   -0,719;   -0,864
559,643;  520,771;   -0,264;    0,045
560,225;  568,138;    1,645;    2,864
560,807;  403,953;    0,918;    0,318
561,389;  394,786;    0,554;    2,318
561,971;  485,887;    0,463;    2,136
562,553;  397,267;   -1,628;    1,591
563,135;  484,260;   -0,537;    1,136
563,717;  881,893;    3,372;    1,136
564,298;  768,284;    3,645;   -0,045
564,880;  526,216;    0,645;   -1,409
565,462;  358,671;    0,645;    1,318
566,043;  484,311;   -0,446;    2,318
566,625;  803,217;    1,918;    1,227
567,207;  613,811;    1,099;    1,682
567,788;  460,369;   -1,264;    1,500
568,370;  467,890;    1,917;   -0,500
568,951;  467,569;    0,190;    0,227
569,533;  576,654;   -0,628;   -0,500
570,114;  590,063;   -0,446;    0,682
570,695;  607,531;   -0,174;   -1,318
571,277;  592,381;   -0,265;   -1,682
571,858;  805,264;    2,008;   -1,136
572,439;  637,138;    1,554;   -1,045
573,021;  677,916;    2,099;   -2,773
573,602;  793,154;   -1,265;    0,318
574,183;  737,461;   -2,083;    2,227
574,764;  682,997;   -1,629;    0,409
575,345;  889,299;    0,917;   -0,136
575,926;  706,324;   -0,356;    0,136
576,507;  785,697;    1,099;   -0,227
577,088;  741,423;    3,099;    1,682
577,669;  922,655;    0,735;    1,955
578,250; 1111,279;    0,644;   -1,045
578,831;  892,914;   -1,356;   -2,227
579,412;  868,841;   -0,810;    0,955
579,993;  858,394;    1,008;    0,227
580,573;  764,125;   -0,629;   -0,955
581,154;  903,295;    0,735;   -0,591
581,735;  914,560;    0,644;    0,773
582,315; 1067,197;   -0,629;    2,136
582,896;  864,452;   -0,174;    1,227
583,477;  702,061;    0,189;    1,227
584,057;  854,211;    0,553;    0,955
584,638;  969,848;    2,553;    2,318
585,218; 1203,115;   -0,538;    2,682
585,799; 1012,367;    0,281;   -0,227
586,379;  874,242;    0,372;    1,591
586,959;  844,008;    0,735;    0,318
587,540;  752,449;   -0,629;    2,227
588,120;  767,070;    1,007;   -0,045
588,700;  776,009;    2,553;    2,136
589,281;  961,759;    0,462;   -0,955
589,861;  819,867;    0,099;   -1,682
590,441;  673,037;    2,371;   -2,682
591,021;  770,027;   -0,265;   -2,591
591,601;  720,496;   -0,537;    0,500
592,181;  704,123;   -0,719;   -0,773
592,761;  600,210;    0,007;    1,409
593,341;  723,368;   -0,901;    0,045
593,921;  724,241;   -0,265;    1,591
594,501;  622,100;   -0,538;    1,318
595,081;  628,509;    0,917;   -0,318
595,661;  703,446;   -1,447;    0,955
596,240;  638,770;   -0,537;    0,136
596,820; 1063,175;    0,372;    1,955
597,400;  765,167;    2,008;    0,773
597,980;  662,477;    2,008;    1,045
598,559;  608,159;    2,735;   -0,227
599,139;  587,265;   -0,174;   -1,227
599,718;  587,447;   -0,174;   -0,409
600,298;  568,614;    0,735;    0,682
600,877; 1087,485;    2,917;    1,409
601,457;  780,981;    2,281;    1,136
602,036;  658,948;    0,190;    2,045
602,616;  715,383;    0,644;    1,682
603,195;  830,069;   -0,355;    3,500
603,774;  896,357;   -0,901;    2,045
604,354;  818,997;    0,826;   -0,500
604,933;  756,488;    0,463;    1,864
605,512;  861,550;    3,554;    0,591
606,091;  855,049;   -0,537;    3,773
606,671;  790,073;    0,281;    0,773
607,250;  974,260;    1,644;    3,136
607,829;  915,926;    2,372;    3,227
608,408;  753,589;    1,190;    2,591
608,987;  875,779;    1,281;    3,409
609,566;  683,358;   -1,265;   -2,500
610,145;  791,425;   -1,082;    0,682
610,723;  832,891;    4,372;    6,864
611,302;  747,482;   -0,446;    1,682
611,881; 1046,231;    5,008;   11,227
612,460;  741,601;    1,645;    3,955
613,039;  615,094;   -0,082;    2,045
613,617;  605,393;    1,736;    4,773
614,196;  626,329;    1,099;    1,227
614,775;  696,270;    1,009;    2,409
615,353;  756,876;    0,736;    0,864
615,932;  723,156;    0,100;    2,409
616,510;  697,267;    0,554;    0,591
617,089; 1229,163;    7,100;   17,591
617,667;  818,977;    2,372;    6,136
618,246;  569,855;   -1,537;    1,318
618,824;  648,865;   -3,355;   -0,955
619,402;  674,685;   -2,900;   -1,773
619,981;  733,105;   -0,173;   -1,045
620,559;  645,626;    0,009;    1,682
621,137;  663,277;   -0,718;    1,864
621,715;  569,562;   -1,173;   -0,682
622,293;  592,910;   -0,537;   -0,773
622,871;  599,007;   -0,718;    0,500
623,450;  546,764;    0,373;   -0,864
624,028;  742,806;    0,191;   -0,955
624,606;  706,959;   -1,718;    1,682
625,183;  518,103;   -1,536;   -1,136
625,761;  657,737;    1,009;    1,136
626,339;  954,790;    1,373;    2,591
626,917;  598,862;   -0,172;   -0,045
627,495;  549,962;   -0,354;    1,318
628,073;  675,741;   -0,263;    2,864
628,650;  687,350;    0,100;    2,136
629,228;  682,300;    0,373;    4,409
629,806;  501,992;    2,282;    1,136
630,383;  563,400;    1,464;   -0,318
630,961;  555,992;    2,555;   -0,955
631,539;  611,757;    2,464;    0,227
632,116; 1335,538;   11,373;   15,409
632,694;  940,951;    2,555;    6,500
633,271;  774,139;    0,828;    2,682
633,848;  875,540;    1,828;    2,045
634,426;  596,839;   -1,081;    1,773
635,003;  457,378;    1,101;   -0,409
635,580;  887,549;    1,192;    3,682
636,158;  747,260;    3,737;    1,227
636,735;  565,504;    0,555;   -0,500
637,312;  555,643;   -0,809;   -0,682
637,889;  556,734;   -4,354;   -0,682
638,466;  530,352;   -3,990;   -0,409
639,043;  593,093;    2,101;   -1,136
639,620;  502,908;   -2,262;   -0,955
640,197;  637,890;    1,100;    1,682
640,774;  455,806;   -0,172;    1,136
641,351;  538,722;    0,737;    1,136
641,928;  738,365;   -0,627;    1,409
642,505;  856,917;    0,828;   -0,500
643,082;  674,833;   -1,718;    1,227
643,658;  540,658;   -0,718;    1,500
644,235;  521,482;    1,191;    2,500
644,812;  717,671;    1,918;    0,773
645,388;  692,859;   -0,991;    1,409
645,965;  473,502;   -0,809;    1,682
646,542;  486,873;   -1,445;   -0,227
647,118;  880,334;    1,009;   -0,955
647,695;  662,159;   -0,263;    1,136
648,271;  467,620;   -0,536;    0,500
648,848;  643,990;    0,736;    2,227
649,424;  769,633;    0,827;    1,318
650,000;  587,094;   -0,354;   -1,045
650,577;  620,556;   -0,627;   -0,955
651,153;  620,653;   -1,809;    0,955
651,729;  567,933;    1,191;    0,864
652,305;  940,121;    0,645;    2,773
652,881;  903,037;   -0,082;    1,136
653,458; 1027,953;    1,100;    0,227
654,034; 1134,777;    0,282;    1,591
654,610; 1293,239;    0,554;    0,773
655,186; 1801,609;    0,645;    3,045
655,762; 1312,070;   -0,991;    0,409
656,338; 1286,531;    0,100;    0,136
656,913; 1381,538;   -0,082;    0,409
657,489; 1151,636;    0,827;   -0,318
658,065; 1260,642;   -0,173;   -1,591
658,641; 1296,103;   -0,900;   -0,864
659,217; 1205,383;   -0,991;    0,409
659,792; 1357,753;    0,645;   -0,409
660,368; 1156,123;   -2,173;   -0,682
660,944; 1196,221;   -2,082;    1,227
661,519; 1081,228;   -0,628;    0,409
662,095;  780,234;   -1,719;    0,591
662,670;  614,059;    1,281;   -0,136
663,246;  527,884;    1,009;   -0,409
663,821;  697,982;    0,281;    1,682
664,396;  647,352;    0,009;    1,864
664,972;  553,540;    0,009;   -0,500
665,547;  618,183;    1,372;    0,136
666,122;  590,735;   -1,082;    0,318
666,698;  778,651;   -0,173;    0,318
667,273;  551,385;   -0,173;    0,136
667,848;  591,301;    2,372;    1,500
668,423;  773,944;    2,190;    2,318
668,998;  607,314;    2,827;   -0,682
669,573;  573,321;   -3,264;   -1,500
670,148;  771,237;   -1,446;   -0,682
670,723;  538,698;   -1,810;    0,318
671,298;  832,250;    2,372;    1,045
671,873;  727,257;   -0,082;   -0,136
672,448;  717,445;    0,645;    0,136
673,023;  709,906;   -1,992;   -0,227
673,597;  815,367;    0,827;    2,318
674,172;  860,920;   -0,355;    0,318
674,747;  766,563;    0,372;   -1,045
675,321;  519,569;   -0,628;    3,318
675,896;  459,576;    0,645;    1,045
676,471;  692,492;    2,645;    1,591
677,045;  623,498;   -1,264;    0,682
677,620;  719,778;    0,190;    1,136
678,194;  543,875;   -2,628;    1,136
678,769;  621,427;   -1,083;   -0,318
679,343;  680,070;   -0,628;    1,773
679,917;  801,077;   -1,446;    1,955
680,492;  649,811;    0,826;    3,227
681,066;  687,818;    3,372;    0,409
681,640;  614,006;    1,463;   -0,318
682,214;  622,649;    0,735;    0,500
682,788;  623,201;   -1,356;   -0,773
683,363;  776,208;   -1,810;    1,682
683,937;  647,851;   -1,719;   -0,318
684,511;  674,858;    0,463;   -0,591
685,085;  690,682;   -1,356;    0,318
685,659;  595,325;   -2,538;    0,864
686,232;  846,150;   -0,356;   -0,318
686,806;  715,975;   -0,901;    0,409
687,380;  590,618;   -0,174;    0,591
687,954;  536,261;   -1,174;    1,136
688,528;  872,177;   -0,719;    1,955
689,101;  689,729;   -3,992;    1,045
689,675;  585,008;   -0,356;   -0,136
690,249;  836,288;   -0,719;    0,409
690,822;  832,385;    0,280;    0,318
691,396;  713,028;   -0,265;    1,227
691,969;  628,580;    1,280;    0,136
692,543;  521,314;   -0,447;   -1,955
693,116;  510,412;   -0,265;   -1,409
693,690;  605,419;    0,099;    0,500
694,263;  543,698;   -1,083;    2,955
694,836;  916,432;    1,371;    3,591
695,410;  796,802;   -0,265;    1,773
695,983;  807,991;    0,189;    0,591
696,556;  601,815;   -0,447;   -1,045
697,129;  512,549;   -0,356;    1,409
697,703;  748,192;   -1,629;    1,955
698,276;  631,745;    1,462;   -0,773
698,849;  801,751;    1,280;    1,409
699,422;  557,031;   -1,083;    0,591
699,995;  455,946;    0,007;    0,136
700,568;  601,862;   -0,629;    3,045
701,140;  620,778;   -2,811;    1,682
701,713;  797,512;   -0,174;    2,409
702,286;  683,609;   -0,538;    0,864
702,859;  759,889;   -0,902;   -0,591
703,432;  849,077;    0,825;    0,682
704,004;  722,538;    0,462;    0,318
704,577;  589,000;   -0,629;    0,136
705,150;  643,006;    0,189;    2,500
705,722;  700,195;   -0,356;   -3,227
706,295;  774,383;   -0,175;   -0,591
706,867;  652,844;   -0,175;    1,955
707,440;  739,306;   -1,720;   -0,409
708,012;  817,040;    0,462;    0,591
708,584;  727,592;    2,462;    0,227
709,157;  500,780;    1,825;   -0,591
709,729;  738,241;    2,280;    2,045
710,301;  589,703;    0,734;    0,045
710,874;  610,709;   -1,447;   -0,227
711,446;  496,898;    0,371;    0,864
712,018;  571,086;    0,098;    0,500
712,590;  515,820;   -1,993;    1,682
713,162;  802,736;    0,825;    1,318
713,734;  586,470;    1,825;   -2,045
714,306;  504,204;   -1,902;   -0,409
714,878;  560,574;    0,825;    0,864
715,450;  508,217;    0,643;    0,864
716,022;  523,587;    1,552;    1,318
716,593;  509,503;    0,189;    0,591
717,165;  562,237;   -3,175;   -1,227
717,737;  824,335;    0,280;    0,409
718,309;  605,523;    0,280;   -0,045
718,880;  520,621;   -0,539;   -1,409
719,452;  594,900;   -0,175;   -1,591
720,024;  701,179;    0,734;   -0,591
720,595;  582,641;   -2,902;    0,955
721,167;  569,284;    0,370;   -2,045
721,738;  699,290;   -0,812;   -1,045
722,309;  852,751;   -0,993;   -1,227
722,881;  577,394;   -1,357;    0,773
723,452;  653,310;   -2,630;    2,864
724,023;  663,135;   -0,721;    2,682
724,595;  734,505;    0,007;    0,682
725,166;  601,057;    0,007;   -0,409
725,737;  810,519;    1,734;    0,227
726,308;  594,253;   -0,266;    0,318
726,879;  500,532;   -1,630;    1,227
727,450;  676,811;    0,552;   -0,045
728,021;  605,545;    3,097;    0,682
728,592;  781,006;    0,734;    0,500
729,163;  864,740;    0,643;   -0,136
729,734;  850,656;    0,188;   -0,227
730,305;  704,936;    1,734;    0,136
730,876;  660,124;    0,188;    2,955
731,447;  993,858;    2,188;    2,682
732,017;  888,319;    1,097;    1,864
732,588;  676,780;    0,734;    1,227
733,159;  940,605;    0,643;   -1,045
733,729;  671,339;    0,006;    0,409
734,300;  840,528;    0,915;    0,864
734,870;  646,261;    3,461;    0,591
735,441;  614,541;    0,370;   -0,591
736,011;  611,911;    0,643;   -1,591
736,582;  618,372;   -0,812;    0,045
737,152;  757,288;   -1,721;   -2,045
737,722;  721,477;   -0,267;   -0,682
738,293;  568,574;   -1,358;    1,318
738,863;  758,399;    2,461;    2,318
739,433; 1019,769;    5,279;    0,318
740,003;  721,230;   -0,994;   -0,682
740,573;  860,055;    2,097;   -1,591
741,143;  727,153;   -1,085;    0,318
741,713;  624,341;    1,188;   -0,500
742,283;  701,712;    0,915;    1,591
742,853;  626,446;    1,915;    1,591
743,423;  456,634;    1,733;    0,045
743,993;  577,913;   -0,358;    1,500
744,563;  630,011;    0,097;   -0,864
745,133;  669,836;   -0,812;   -0,864
745,702;  526,752;   -0,267;    1,773
746,272;  748,576;   -0,176;    0,591
746,842;  773,765;   -1,358;   -0,591
747,411;  552,772;   -0,267;   -0,318
747,981;  457,051;    0,097;    0,500
748,551;  447,967;    2,278;   -1,045
749,120;  655,973;    0,642;   -0,227
749,690;  599,435;   -0,631;    2,409
750,259;  702,623;    1,369;    2,955
750,828;  775,448;    1,551;   -1,955
751,398;  542,727;    1,278;   -0,045
751,967; 1024,461;    2,187;    0,409
752,536;  664,559;   -0,813;   -0,227
753,105;  780,020;    0,096;    0,227
753,675;  615,299;    0,096;    1,773
754,244;  622,942;   -0,904;    3,591
754,813;  663,040;    0,551;    1,227
755,382;  620,047;    0,460;    0,955
755,951;  755,235;    1,551;    3,682
756,520;  859,969;   -0,085;    1,864
757,089;  970,157;    0,278;    0,500
757,658;  710,528;    1,733;    1,227
758,227;  540,353;    1,096;    0,318
758,795;  587,359;    1,187;    1,136
759,364;  590,820;   -0,086;   -0,591
759,933;  532,009;   -1,176;   -0,045
760,501;  472,197;    0,733;   -1,318
761,070;  639,750;   -2,813;   -1,409
761,639;  594,302;   -1,904;    1,318
762,207;  736,581;    1,551;   -0,955
762,776;  768,860;    0,369;    0,864
763,344;  618,594;   -0,995;    0,591
763,913;  419,328;   -0,722;    1,409
764,481;  962,789;    1,005;   -0,136
765,049;  958,342;   -1,358;    1,409
765,618;  875,075;   -0,086;    0,318
766,186;  671,082;    0,278;    0,136
766,754;  724,634;    0,005;    1,864
767,322;  617,823;   -1,995;    0,409
767,890;  552,557;   -0,722;   -1,773
768,459;  560,200;   -2,177;   -0,318
769,027;  784,843;    1,641;    3,409
769,595;  597,849;    3,278;    2,591
770,163;  697,129;    3,823;    2,955
770,730;  673,772;    0,732;   -0,136
771,298;  657,051;    0,187;   -1,409
771,866;  580,785;   -1,541;    4,955
772,434;  618,428;   -0,631;   -1,864
773,002;  829,344;    0,005;    0,682
773,569;  693,896;    0,914;    1,682
774,137;  817,448;   -0,268;   -0,045
774,705;  597,182;    0,278;   -0,136
775,272;  572,189;    0,641;    0,682
775,840;  588,741;   -0,177;    2,682
776,407;  706,202;    0,277;    1,955
776,975;  587,300;   -0,632;    0,318
777,542;  527,215;   -1,086;   -0,045
778,110;  555,040;   -1,268;   -0,045
778,677;  436,956;   -2,359;   -0,864
779,244;  519,872;    2,186;    1,045
779,812;  670,787;    1,823;    0,864
780,379;  761,521;    0,005;    1,136
780,946;  630,346;    1,005;   -0,773
781,513;  526,444;   -1,450;    0,318
782,080;  507,723;   -0,086;    2,864
782,647;  532,730;   -0,268;    3,045
783,214;  516,555;   -0,177;    3,864
783,781;  736,016;   -0,723;   -0,682
784,348;  665,568;   -0,632;    1,500
784,915;  437,211;   -3,177;    0,318
785,482;  683,945;    1,368;    2,591
786,049;  601,133;    0,186;   -0,591
786,615;  474,595;    0,277;   -0,955
787,182;  442,510;    0,186;   -0,682
787,749;  416,062;   -2,814;    1,409
788,315;  652,160;   -1,632;   -0,409
788,882;  523,076;    1,550;   -1,227
789,448;  826,901;    1,732;   -0,955
790,015;  590,362;    1,095;    3,227
790,581;  777,550;    1,459;    0,227
791,148;  596,466;    0,641;    1,045
791,714;  480,109;   -0,541;    3,136
792,280;  491,752;    0,186;    1,591
792,847;  432,577;    0,550;    2,500
793,413;  517,311;   -0,269;   -0,318
793,979;  737,408;    3,459;   -1,318
794,545; 1022,506;    4,459;    2,682
795,111;  911,331;    2,186;    1,318
795,678;  756,792;    0,731;   -1,682
796,244;  909,435;    3,368;    0,136
796,810;  747,351;    1,731;    0,773
797,375;  741,266;    0,549;   -2,136
797,941;  417,000;   -0,541;    0,591
798,507;  441,552;   -0,451;   -0,955
799,073;  475,014;   -0,360;    0,591
799,639;  467,202;   -2,632;    3,136
800,205;  422,482;    0,095;    2,682
800,770;  463,579;    0,640;    1,773
801,336;  480,404;    1,368;   -0,955
801,901; 1081,411;    4,549;    3,136
802,467;  722,508;   -0,542;    2,045
803,033;  512,515;   -0,087;    0,864
803,598;  499,885;    1,913;   -1,045
804,163;  506,165;    1,095;   -0,318
804,729;  607,080;   -0,178;    1,136
805,294;  501,905;    0,822;    2,227
805,859;  450,366;    0,731;   -0,409
806,425;  848,009;    1,186;    2,682
806,990;  816,289;    2,186;    4,318
807,555;  566,386;   -1,451;    2,591
808,120;  716,847;    0,822;   -0,409
808,685;  508,127;    0,185;   -2,500
809,250;  424,679;    0,004;   -0,500
809,815;  408,686;    1,913;    0,682
810,380;  539,510;   -0,269;    1,591
810,945;  714,426;   -1,087;    2,045
811,510;  542,160;    2,094;    1,591
812,075;  609,167;   -0,633;   -1,409
812,640;  845,901;    2,003;    1,409
813,204;  595,816;    0,822;   -0,227
813,769;  734,096;    2,094;   -0,045
814,334;  733,375;    0,458;    0,864
814,898;  454,655;    0,367;    0,591
815,463;  562,116;    1,276;   -0,773
816,027;  504,395;   -0,724;   -2,318
816,592;  420,402;    0,640;   -2,045
817,156;  605,590;    2,094;    1,136
817,721;  730,052;    4,276;    2,318
818,285;  459,240;    2,912;    1,500
818,849;  514,792;   -1,451;    1,682
819,414;  441,435;   -0,269;    2,955
819,978;  395,624;   -1,269;    1,773
820,542;  685,448;    2,003;    0,500
821,106;  512,728;   -0,815;    0,682
821,670;  738,098;   -0,815;    2,591
822,234;  514,287;   -0,270;    1,409
822,798;  406,293;    0,003;    0,500
823,362;  644,391;   -0,633;    4,227
823,926;  496,488;    0,094;    1,136
824,490;  685,313;   -0,997;   -0,682
825,054;  551,411;   -0,088;   -1,136
825,618;  444,963;   -1,542;   -1,500
826,181;  516,970;    0,458;   -1,318
826,745;  621,613;    1,367;   -1,045
827,309;  824,710;    1,185;    1,318
827,872;  692,262;    1,367;    0,955
828,436;  576,178;    1,185;   -0,773
828,999;  466,821;   -0,997;    1,227
829,563;  449,010;   -0,179;    1,136
830,126;  426,198;   -0,179;   -0,591
830,690;  539,205;   -1,997;    2,864
831,253;  458,211;   -0,543;    2,227
831,816;  507,127;   -1,906;    0,500
832,380;  465,043;    0,185;    0,864
832,943;  437,231;   -1,361;   -0,500
833,506;  451,511;    2,639;   -1,227
834,069;  594,426;    3,912;   -0,955
834,632;  441,888;    1,730;    1,318
835,195;  487,076;    1,003;    0,955
835,758;  429,355;   -0,997;    1,955
836,321;  441,726;    0,730;   -1,045
836,884;  413,732;   -0,725;   -0,955
837,447;  359,830;   -2,816;    1,773
838,010;  549,200;    0,366;    3,227
838,573;  539,389;   -1,179;    0,773
839,135;  391,941;   -1,361;   -0,955
839,698;  474,129;    1,275;    0,409
840,261;  419,409;    1,003;   -0,227
840,823;  378,415;   -0,543;    0,864
841,386;  364,786;   -0,452;   -2,409
841,948;  671,065;   -1,361;    1,773
842,511;  456,254;    0,912;    1,682
843,073;  649,260;    1,912;    0,227
843,636;  402,812;   -0,361;   -0,227
844,198;  627,819;    0,911;    0,591
844,760;  578,644;    1,093;    1,955
845,322;  379,287;    0,548;    1,136
845,885;  524,203;    0,730;    0,591
846,447;  454,482;   -1,998;    0,227
847,009;  792,216;    1,911;   -0,682
847,571;  500,586;    0,820;   -2,045
848,133;  447,047;   -1,089;   -1,864
848,695;  316,599;   -0,543;    1,409
849,257;  399,515;   -1,089;   -1,682
849,819;  547,158;   -0,998;   -0,409
850,381;  409,801;   -0,725;   -0,864
850,942;  490,717;    1,093;   -0,591
851,504;  560,360;    1,184;    0,227
852,066;  417,821;    1,275;   -1,591
852,628;  445,646;   -0,180;    1,955
853,189;  353,653;    1,638;    2,682
853,751;  359,114;   -0,907;    1,409
854,312;  523,484;   -0,453;   -1,682
854,874;  651,218;   -2,089;   -0,773
855,435;  460,316;   -0,907;   -1,682
855,997;  493,141;   -1,816;   -0,136
856,558;  618,420;    0,366;    1,773
857,119;  527,063;    0,820;    2,864
857,681;  365,524;    0,002;    0,318
858,242;  634,622;    1,911;   -2,136
858,803;  583,447;    0,456;   -0,773
859,364;  462,544;    0,184;   -4,773
859,925;  541,187;   -2,453;   -0,955
860,486;  419,557;   -0,453;   -0,955
861,047;  370,110;   -0,544;   -1,227
861,608;  412,207;   -1,089;   -0,773
862,169;  272,123;    0,638;   -0,045
862,730;  411,402;    0,456;    1,409
863,291;  453,136;   -0,635;   -0,500
863,852;  429,688;   -0,635;    1,955
864,412;  435,604;   -0,271;   -0,864
864,973;  672,156;   -0,089;    0,500
865,534;  777,890;   -1,726;    0,227
866,094;  556,533;    1,820;    0,227
866,655;  691,813;    1,274;    3,318
867,215;  502,274;    0,274;    0,136
867,776;  355,371;    0,547;   -0,136
868,336;  444,832;   -1,453;    0,136
868,897;  816,475;    2,638;    1,682
869,457;  609,119;    1,365;    0,318
870,017;  399,943;    0,547;   -1,227
870,578;  387,495;   -0,817;    0,773
871,138;  483,320;   -2,089;   -0,955
871,698;  397,691;   -0,817;   -1,318
872,258;  517,970;   -0,453;   -2,864
872,818;  664,613;    2,729;    0,045
873,378;  477,801;    0,638;    1,045
873,938;  460,354;    0,547;    0,500
874,498;  366,815;    0,274;   -1,955
875,058;  476,003;    2,183;    1,773
875,618;  469,919;    1,910;   -2,682
876,177;  508,744;    1,274;    0,136
876,737;  343,478;   -0,090;    1,955
877,297;  704,848;    0,183;    1,955
877,856;  631,673;   -0,362;    0,318
878,416;  407,225;    1,183;   -0,136
878,976;  367,141;   -1,817;    0,409
879,535;  402,238;    0,092;    3,136
880,095;  386,972;   -0,544;    0,045
880,654;  337,706;   -1,090;    1,318
881,213;  635,986;    2,456;    1,500
881,773;  484,538;    2,637;    2,682
882,332;  956,272;    3,365;    5,136
882,891;  461,915;    3,092;    2,136
883,451;  440,739;   -1,272;    1,682
884,010;  414,837;   -2,908;   -0,409
884,569;  352,026;   -0,999;   -0,045
885,128;  525,123;    2,819;   -1,864
885,687;  761,857;    4,455;    0,682
886,246;  924,682;    1,455;    2,136
886,805;  733,779;    2,455;    2,045
887,364;  393,968;   -0,999;   -0,500
887,922;  325,247;   -1,181;    0,045
888,481;  531,527;   -1,545;    0,591
889,040;  599,806;    1,183;    2,136
889,599;  472,085;    2,455;    1,409
890,157;  475,001;    1,455;    2,409
890,716;  409,190;   -0,090;    0,227
891,274;  525,742;    0,092;   -1,136
891,833;  585,294;    1,546;    0,864
892,391;  485,210;   -0,454;    0,500
892,950;  566,398;    1,819;   -0,773
893,508;  369,587;    0,455;   -0,409
894,067;  300,230;    0,637;    0,136
894,625;  402,509;   -0,636;   -1,500
895,183;  369,788;   -0,363;   -0,682
895,741;  628,977;    1,728;   -1,773
896,299;  429,802;   -0,545;   -2,409
896,858;  378,990;    0,819;   -1,591
897,416;  511,906;    2,728;   -1,318
897,974;  437,276;    1,819;    0,318
898,532;  854,101;    6,091;    2,682
899,089;  577,562;    2,091;   -0,682
899,647;  482,933;   -1,454;    1,318
900,205;  477,303;    1,182;    1,045
900,763;  461,673;   -0,454;    0,227
901,321;  414,316;    2,364;   -1,409
901,878;  263,232;   -1,000;   -0,773
902,436;  349,329;   -1,363;    1,318
902,994; 1010,427;    4,728;    3,682
903,551;  585,161;    0,728;    0,409
904,109;  456,622;    0,182;   -1,409
904,666;  419,083;    2,455;    1,045
905,224;  311,635;    0,182;   -0,409
905,781;  486,278;    0,727;   -0,318
906,338;  425,921;   -1,363;    1,045
906,895;  324,110;    0,637;    2,045
907,453;  569,935;    1,727;    1,136
908,010;  431,669;   -0,909;    0,409
908,567;  431,857;    1,273;    0,591
909,124;  282,773;    0,364;   -1,500
909,681;  344,325;   -2,909;    0,682
910,238;  370,241;    0,636;   -1,318
910,795;  276,793;   -0,273;   -1,136
911,352;  300,338;   -2,909;   -2,682
911,909;  345,975;   -1,364;   -0,864
912,466;  345,884;   -3,182;    1,500
913,022;  451,429;   -1,636;    0,500
913,579;  520,611;   -0,909;    2,045
914,136;  403,611;    1,636;    0,955
914,692;  398,520;    0,091;   -1,227
915,249;  427,975;    1,455;    0,409
915,806;  490,793;    0,182;    1,955
916,362;  397,702;    1,909;    1,864
916,918;  380,793;    2,000;    1,045
917,475;  495,884;   -1,182;    0,955
918,031;  346,247;    3,364;   -0,045
918,587;  412,793;   -0,909;   -0,318
919,144;  332,702;   -2,273;    0,227
919,700;  256,520;    1,727;    0,773
920,256;  274,611;    0,727;    0,045
920,812;  336,338;   -0,727;   -1,045
921,368;  301,611;   -1,727;   -1,045
921,924;  328,702;    0,182;   -0,136
922,480;  408,975;   -0,545;    1,227
923,036;  407,884;    1,273;    1,955
923,592;  311,975;    0,455;    0,318
924,148;  332,157;    0,455;   -0,955
924,704;  458,520;   -1,364;   -0,409
925,259;  296,429;   -0,273;    0,591
925,815;  300,066;    1,455;    0,500
926,371;  275,975;    2,909;    1,409
926,926;  420,520;    2,091;    0,591
927,482;  400,520;   -1,364;    0,773
928,037;  330,066;    0,909;    2,045
928,593;  492,702;    1,636;    1,045
929,148;  295,247;   -1,818;   -1,500
929,704;  364,793;   -1,455;   -0,500
930,259;  301,793;    0,091;   -0,136
930,814;  461,429;   -0,818;    1,955
931,369;  399,429;    1,091;   -0,773
931,925;  254,611;   -0,091;    0,136
932,480;  349,066;   -2,818;   -2,591
933,035;  631,520;    0,545;   -0,318
933,590;  548,611;    0,364;   -1,773
934,145;  263,247;   -1,364;   -0,318
934,700;  179,884;    0,455;   -0,591
935,255;  232,338;   -0,091;    0,045
935,809;  510,611;    3,182;    0,864
936,364;  242,975;   -0,455;   -0,136
936,919;  236,611;    0,455;   -1,773
937,474;  174,975;    1,455;    0,136
938,028;  186,338;   -1,636;    1,136
938,583;  515,793;    1,818;    4,682
939,138;  258,884;    2,091;    2,136
939,692;  158,066;    1,636;   -1,136
940,247;  203,975;   -0,727;   -1,045
940,801;  234,611;   -0,636;    0,227
941,355;  166,793;   -0,364;    2,591
941,910;  118,975;   -0,273;   -2,136
942,464;  143,338;   -0,818;   -0,318
943,018;  315,247;    1,000;   -0,227
943,572;  202,429;    2,545;   -0,682
944,126;  262,066;    0,091;   -0,409
944,681;  174,338;    3,091;    0,227
945,235;  128,429;    1,000;   -0,591
945,789;  112,157;    0,364;   -1,864
946,342;  299,247;    0,455;   -0,591
946,896;  149,793;   -2,273;    0,955
947,450;  128,338;    1,545;   -0,227
948,004;  290,066;    1,727;   -0,045
948,558;  172,247;    0,273;   -0,864
949,111;  168,338;   -0,273;   -0,318
949,665;  286,066;    1,636;   -0,682
950,219;  265,157;   -0,091;   -1,045
950,772;  206,157;   -1,909;    1,864
951,326;  191,793;    0,545;   -0,955
951,879;  161,066;    0,727;   -2,318
952,433;  253,429;    0,000;    2,227
952,986;  147,975;    2,909;    0,682
953,539;  125,429;   -0,273;    0,591
954,093;   97,702;    0,545;   -1,318
954,646;  169,157;    0,909;    1,318
955,199;  117,884;    0,000;   -0,500
955,752;  277,975;   -0,455;    1,773
956,305;  172,702;   -0,091;    2,955
956,858;  197,975;    0,818;   -0,318
957,411;  231,157;   -0,545;    2,136
957,964;  194,157;    1,364;    2,136
958,517;  136,429;   -1,545;    3,136
959,070;   99,338;   -0,455;    1,955
959,623;  281,429;    1,091;    1,500
960,176;  248,066;    1,727;    2,045
960,728;  213,066;   -2,727;    0,773
961,281;  171,429;    0,545;    0,500
961,834;  126,793;   -0,909;    0,864
962,386;  139,975;    1,727;    1,045
962,939;  123,702;    0,364;   -0,318
963,491;  153,338;    0,455;    1,136
964,043;  114,066;    1,182;    2,409
964,596;  223,157;   -1,000;    2,227
965,148;  159,975;   -1,000;    1,773
965,700;  112,520;    1,091;   -0,227
966,253;  214,247;   -0,636;    0,318
966,805;  187,338;   -2,273;    0,773
967,357;  140,975;    1,091;   -1,500
967,909;  209,611;    0,455;   -1,227
968,461;  144,975;    0,545;    3,136
969,013;  114,157;   -0,182;   -0,864
969,565;  217,884;   -0,455;   -1,136
970,117;  356,338;   -0,364;    1,045
970,669;  217,702;    0,182;   -0,136
971,220;   89,793;   -0,455;   -1,500
971,772;  143,793;   -0,636;   -0,318
972,324;  200,520;    0,091;   -0,500
972,876;  132,157;    0,818;   -0,045
973,427;  203,338;    1,909;   -1,045
973,979;  254,611;   -0,727;   -2,500
974,530;  138,611;    1,818;    1,318
975,082;  181,793;   -0,545;    1,682
975,633;  144,702;    1,091;    1,682
976,184;  162,247;    0,909;    0,773
976,736;  159,520;    0,091;    0,227
977,287;  185,338;   -0,909;   -0,500
977,838;  152,611;    0,909;   -0,318
978,389;  146,793;   -1,000;   -0,500
978,940;   79,975;    0,545;   -0,409
979,491;   80,793;    0,091;   -0,500
980,042;  139,247;    0,182;    3,045
980,593;  148,975;   -2,545;    0,227
981,144;  198,157;    2,545;   -0,500
981,695;  201,702;    1,455;    1,500
982,246;  173,793;   -0,273;    1,045
982,797;  108,975;   -1,727;    0,682
983,347;  188,793;    0,364;    0,591
983,898;  322,611;    3,091;    0,409
984,449;  303,247;    2,182;    0,773
984,999;  195,884;    1,455;   -1,136
985,550;  168,429;    0,182;   -0,318
986,100;   97,520;   -0,455;   -0,318
986,651;   93,429;   -0,818;    0,045
987,201;  109,884;   -1,000;   -0,591
987,751;  112,611;    0,818;    2,864
988,302;  130,975;    2,636;    1,500
988,852;  170,338;    0,455;   -1,136
989,402;  194,429;    0,091;    0,682
989,952;  219,702;   -2,182;    0,864
990,502;  126,702;   -0,091;    0,682
991,052;   70,520;   -0,727;    0,045
991,602;  103,338;   -2,909;    1,318
992,152;  125,611;    0,455;    0,682
992,702;  157,157;    1,364;   -0,045
993,252;  118,066;   -3,000;   -0,500
993,802;  177,066;   -0,273;    1,318
994,352;  140,247;   -1,545;    1,136
994,901;   88,702;   -0,182;    3,227
995,451;   86,793;   -0,182;    0,318
996,000;  104,429;    1,636;    0,318
996,550;  111,429;    2,273;    0,227
997,100;  134,884;    1,273;   -0,045
997,649;  210,611;    2,182;    0,955
998,198;  116,247;    1,727;   -1,500
998,748;  170,429;    1,091;   -2,318
999,297;  139,338;   -0,818;   -0,409
999,846;  208,975;    1,000;   -0,773
1000,395;  155,338;   -0,818;    0,500
1000,945;  221,247;    1,818;   -0,773
1001,494;  219,884;    2,364;    0,682
1002,043;  218,066;    4,636;    0,864
1002,592;  118,066;   -1,091;    1,955
1003,141;  104,520;   -0,455;   -0,682
1003,690;  210,884;    1,727;    0,500
1004,238;  136,611;    1,455;   -0,045
1004,787;   93,793;    1,364;    1,227
1005,336;  188,702;    0,364;    0,682
1005,885;  152,975;    1,364;   -2,773
1006,433;  148,702;    0,545;    0,955
1006,982;  248,702;    0,455;    1,682
1007,531;  165,793;   -1,818;   -0,227
1008,079;  145,884;   -2,273;    0,500
1008,627;  109,247;   -1,455;    0,409
1009,176;  134,702;    0,000;   -1,955
1009,724;   99,975;    1,091;    0,864
1010,273;  181,338;    1,273;    0,500
1010,821;  112,247;    0,091;    1,409
1011,369;   94,702;   -1,364;    1,318
1011,917;   99,338;   -1,364;   -0,591
1012,465;  143,702;    1,273;   -1,591
1013,013;  135,793;    2,091;   -1,682
1013,561;  205,611;    0,455;   -0,773
1014,109;  256,520;   -1,909;    1,682
1014,657;  175,247;    0,364;    0,591
1015,205;  121,702;    1,636;   -0,955
1015,753;   94,157;   -0,545;   -1,409
1016,301;  133,157;   -2,636;    3,045
1016,848;  182,975;   -1,273;    0,409
1017,396;  169,429;    2,545;    0,045
1017,944;  163,338;    1,182;    1,864
1018,491;  128,066;    0,273;    1,409
1019,039;  298,884;    0,455;    0,591
1019,586;  162,247;   -1,364;    1,682
1020,134;  148,157;    0,455;    1,500
1020,681;  200,793;    0,182;   -1,136
1021,228;  148,338;    2,909;   -2,227
1021,776;  129,975;    1,182;   -1,136
1022,323;  268,157;    0,455;    0,773
1022,870;  199,066;   -1,000;   -0,045
1023,417;  230,066;    2,636;    1,864
1023,964;  140,157;    2,636;    1,227
1024,511;  116,520;    1,000;    0,773
1025,058;  155,702;    3,182;   -0,045
1025,605;  122,793;   -2,273;    3,136
1026,152;  245,884;    1,727;   -0,591
1026,699;  150,884;    1,818;    1,318
1027,245;  145,247;   -0,091;    0,318
1027,792;  104,066;   -1,000;    1,409
1028,339;  245,066;    2,364;   -0,045
1028,885;  156,702;    1,000;   -0,227
1029,432;  131,429;   -0,091;    0,227
1029,978;  186,066;   -1,000;   -1,591
1030,525;  195,793;    1,000;    0,409
1031,071;  120,611;   -1,364;    1,136
1031,618;  281,611;    0,364;    1,682
1032,164;  184,247;   -0,091;    3,045
1032,710;  203,338;    1,636;   -1,500
1033,256;  185,611;   -0,636;   -0,136
1033,803;  105,338;   -0,545;    1,500
1034,349;   38,520;   -1,364;    0,136
1034,895;   63,611;    0,000;   -0,318
1035,441;  105,975;   -0,818;    0,318
1035,987;  131,157;   -2,364;   -0,682
1036,533;  169,702;   -1,455;   -0,955
1037,078;  299,157;    1,455;    1,682
1037,624;  207,611;    2,455;   -0,955
1038,170;  119,611;    0,455;   -0,318
1038,716;  171,338;    1,636;   -0,409
1039,261;  106,975;   -2,273;   -0,773
1039,807;  114,793;   -0,091;    3,409
1040,352;  125,066;   -1,909;   -0,318
1040,898;  118,429;   -1,545;   -0,682
1041,443;   87,793;   -1,455;   -2,591
1041,989;  275,157;    1,091;    1,591
1042,534;  152,157;   -0,364;    2,591
1043,079;   80,884;    2,909;    0,955
1043,625;  138,975;    1,818;    0,500
1044,170;  143,702;   -1,364;    1,045
1044,715;  267,338;    2,455;    0,955
1045,260;  204,157;    2,182;   -0,955
1045,805;  112,429;    1,182;   -0,591
1046,350;   99,702;    1,364;   -0,409
1046,895;  206,520;    2,909;    1,591
1047,440;  193,520;    5,364;    0,409
1047,985;  120,247;    2,818;   -0,955
1048,530;  106,338;    1,545;    1,227
1049,074;  135,338;    0,000;    0,318
1049,619;  101,520;   -1,364;    1,955
1050,164;   98,247;    0,455;    0,227
1050,708;  160,429;   -0,455;    0,045
1051,253;  296,611;    1,273;   -2,227
1051,797;  169,884;    0,818;   -1,318
1052,342;   79,611;   -1,182;    1,045
1052,886;  127,338;    0,364;   -1,409
1053,430;   78,066;   -1,364;    0,136
1053,975;  135,884;   -0,818;   -0,318
1054,519;  130,066;   -0,727;    3,227
1055,063;  160,247;    0,909;    1,318
1055,607;  156,884;   -0,182;    0,227
1056,151;  158,157;    2,909;    1,682
1056,695;  113,338;    2,273;   -1,136
1057,239;  104,247;   -1,727;   -0,682
1057,783;  130,975;    0,818;   -1,500
1058,327;  174,429;    0,000;    1,409
1058,871;  263,793;   -0,545;    1,318
1059,415;  185,157;   -0,818;   -0,045
1059,958;  259,793;    1,455;    2,591
1060,502;  114,338;   -1,000;   -0,773
1061,046;   75,338;    0,364;   -0,955
1061,589;   74,702;   -3,000;   -1,136
1062,133;   61,611;   -1,273;    1,864
1062,676;   84,611;    1,182;    0,864
1063,220;  103,702;    1,091;    0,500
1063,763;  114,429;    0,909;    1,136
1064,306;  127,975;   -0,909;    1,864
1064,849;  127,975;   -0,909;    0,591
1065,393;  114,702;    2,000;   -1,500
1065,936;  117,247;    0,182;   -0,409
1066,479;   78,793;   -1,455;    1,318
1067,022;   91,702;   -0,273;   -0,227
1067,565;   81,429;   -0,091;   -1,318
1068,108;   65,338;    0,727;   -0,591
1068,651;   57,066;   -0,636;    1,409
1069,194;   60,066;   -0,455;   -1,682
1069,736;   70,338;   -1,273;    0,955
1070,279;   60,247;   -1,364;   -0,500
1070,822;  104,157;   -2,000;   -0,318
1071,364;  175,429;   -0,364;    1,318
1071,907;  103,884;   -0,727;    3,227
1072,450;   34,157;    0,000;   -0,045
1072,992;   69,611;   -0,273;    3,136
1073,535;   94,884;    2,091;    2,136
1074,077;   62,247;   -0,727;    2,045
1074,619;   55,702;   -1,364;    0,591
1075,161;   76,884;   -1,091;    1,500
1075,704;  145,793;    1,545;    1,227
1076,246;   79,247;   -0,182;    0,682
1076,788;   46,429;   -0,364;    1,773
1077,330;   44,975;    1,273;    2,136
1077,872;   67,066;    0,909;    0,955
1078,414;  155,338;    2,727;    0,773
1078,956;   80,884;    1,273;   -0,227
1079,498;  150,611;    1,636;    0,318
1080,040;   83,429;    1,909;   -1,318
1080,581;   59,702;    1,636;   -0,318
1081,123;   33,975;    0,091;   -0,773
1081,665;   38,702;   -1,182;   -0,955
1082,206;  138,157;    1,364;   -0,500
1082,748;   87,884;    0,727;    2,045
1083,289;   47,520;   -2,000;    1,318
1083,831;   42,157;   -0,545;    0,227
1084,372;   63,429;    0,000;    0,591
1084,913;   63,975;    1,091;    0,864
1085,455;   46,157;   -1,909;   -2,045
1085,996;   37,520;   -2,273;    0,136
1086,537;   44,611;   -0,091;    0,864
1087,078;   56,338;   -0,909;   -2,136
1087,619;   84,066;   -1,273;    0,227
1088,160;   69,157;    0,000;    1,318
1088,701;   59,157;   -1,091;    0,682
1089,242;   48,884;    1,364;   -2,227
1089,783;   71,520;   -0,273;    1,409
1090,324;   56,793;    0,455;    0,682
1090,865;   39,066;    2,727;   -0,409
1091,405;   30,338;    0,727;    2,227
1091,946;   52,066;    0,182;   -0,955
1092,487;   30,429;    0,818;   -1,409
1093,027;   78,884;   -1,364;   -1,500
1093,568;   45,247;   -0,364;    1,227
1094,108;   60,157;    0,273;    1,773
1094,649;   47,247;   -1,182;    0,136
1095,189;   33,975;   -0,636;   -0,682
1095,729;   32,611;   -0,091;    0,955
1096,269;   28,429;    0,727;   -0,955
1096,810;  100,793;   -1,364;    0,500
1097,350;   69,066;    1,364;   -0,773
1097,890;   45,338;    0,364;    1,227
1098,430;  141,520;    2,364;    2,864
1098,970;  103,157;    2,182;    1,682
1099,510;   46,429;    0,545;   -2,318
1100,050;   35,975;    1,000;   -1,591
1100,589;   44,975;   -0,727;   -0,318
1101,129;   61,975;    0,818;   -0,955
1101,669;  101,884;    1,727;    2,136
1102,209;   68,520;   -0,091;    2,227
1102,748;   47,611;    0,000;    0,955
1103,288;   53,520;    1,273;   -1,227
1103,827;   47,520;    3,091;   -2,227
1104,367;   29,247;   -0,091;   -2,409
1104,906;   37,247;    1,364;   -1,136
1105,445;   54,793;    0,636;   -1,136
1105,985;   43,157;   -0,727;    1,500
1106,524;   45,793;   -1,727;   -0,682
1107,063;   40,884;   -2,727;    1,409
1107,602;   30,520;   -1,909;   -1,500
1108,141;   25,157;   -1,909;    1,500
1108,680;   52,884;   -3,455;   -0,591
1109,219;   38,975;   -0,909;   -0,500
1109,758;   37,884;    0,455;    0,682
1110,297;   33,793;    1,000;   -0,682
1110,836;   24,429;   -0,727;    0,955
1111,375;   30,066;   -2,545;    0,409
1111,913;   55,066;   -1,000;    0,773
1112,452;   41,338;   -0,273;    0,136
1112,991;   21,611;    1,091;    1,955
1113,529;   20,884;   -0,818;   -0,045
1114,068;   31,793;   -0,273;    2,955
1114,606;   20,975;   -0,364;   -0,955
1115,144;   47,338;   -1,273;    1,045
1115,683;   36,157;   -0,727;    0,318
1116,221;   49,793;   -0,455;   -0,864
1116,759;   33,066;    0,636;   -0,864
1117,297;   60,975;    0,000;    1,864
1117,836;   32,066;   -2,182;   -1,227
1118,374;   32,702;    0,182;   -0,682
1118,912;   37,793;    0,909;    2,682
1119,450;   33,157;    1,000;    0,864
1119,988;   31,247;    1,545;    2,136
1120,525;  176,066;    5,091;    3,318
1121,063;   78,975;    1,182;    1,864
1121,601;   33,247;   -0,909;   -1,227
1122,139;   26,429;   -0,727;   -2,045
1122,676;   73,157;   -0,727;    2,773
1123,214;   59,611;   -1,182;    4,409
1123,751;   24,429;    1,727;    2,227
1124,289;   38,520;   -0,091;   -0,409
1124,826;   25,975;    1,727;    0,227
1125,364;   12,793;    1,727;   -0,955
1125,901;   64,611;    1,182;    1,227
1126,438;   56,520;    0,818;    0,955
1126,975;   13,066;   -0,727;   -0,773
1127,513;   20,338;    0,273;    2,136
1128,050;   14,611;    1,636;   -0,682
1128,587;   27,520;    2,000;   -0,227
1129,124;   34,975;    0,091;    1,318
1129,661;   19,520;    0,273;    0,227
1130,198;   49,520;    1,636;    0,773
1130,734;   33,338;    0,182;    1,409
1131,271;   10,611;   -0,909;    0,864
1131,808;   39,884;    2,909;    3,045
1132,345;   23,884;    1,545;    0,318
1132,881;    8,520;   -1,545;   -1,864
1133,418;   23,975;    0,727;   -1,136
1133,954;   12,611;    2,455;   -2,682
1134,491;   28,793;    1,364;   -0,773
1135,027;   18,884;    2,364;    0,864
1135,564;   28,247;    0,273;    2,955
1136,100;   25,429;    0,364;    2,136
1136,636;    9,520;   -1,273;   -1,045
1137,172;   18,247;    0,000;   -1,045
1137,708;   16,157;   -1,364;   -1,045
1138,245;   11,702;    1,273;   -1,227
1138,781;    9,611;    1,091;   -3,318
1139,317;   15,702;    1,273;   -1,409
1139,852;   21,338;    3,091;    0,136
1140,388;   25,702;   -1,182;   -0,409
1140,924;   13,247;   -1,091;   -2,227
1141,460;    7,338;   -1,636;    0,136
1141,996;    4,702;   -1,364;    2,682
1142,531;    8,247;    1,364;    3,318
1143,067;   39,338;    1,182;    1,045
1143,602;   50,520;   -0,091;   -0,318
1144,138;   23,338;   -2,636;    1,045
1144,673;    7,338;   -1,455;    1,409
1145,209;   13,793;   -1,909;   -0,318
1145,744;    4,429;   -0,727;    0,864
1146,279;   18,884;    1,818;   -0,136
1146,815;   10,247;    1,545;   -2,682
1147,350;   22,066;   -1,364;    0,045
1147,885;    9,702;   -0,818;   -1,318
1148,420;    9,611;   -2,273;    0,773
1148,955;    8,157;   -1,727;    1,864
1149,490;    8,884;   -0,909;   -1,591
1150,025;    6,066;    0,455;   -1,773
1150,560;   21,520;    1,091;   -0,955
1151,094;   17,975;    1,455;   -0,591
1151,629;   14,975;    1,636;    0,864
1152,164;    7,157;    1,364;    1,318
1152,698;    6,247;   -0,182;   -0,136
1153,233;    4,975;    0,091;   -0,682
1153,767;    6,793;   -3,000;   -2,318
1154,302;   10,793;   -1,455;    1,773
1154,836;   11,975;   -0,455;   -2,136
1155,371;   16,338;   -1,364;    3,682
1155,905;   10,793;   -0,636;    1,682
1156,439;    8,429;   -0,636;   -0,500
1156,973;   13,611;    0,364;    0,318
1157,507;    7,975;   -0,364;    0,682
1158,042;    7,611;   -0,727;    1,045
1158,576;    9,702;    0,182;    1,773
1159,110;   13,975;   -0,818;    2,409
1159,643;    8,247;    0,636;   -0,045
1160,177;    5,066;   -1,545;    1,500

