
Integration time [ms]:   0,040
Averaging Nr. [scans]: 11
Smoothing Nr. [pixels]: 0
Data measured with spectrometer [name]: 7318044SP
Wave   ;Sample   ;Dark     ;Reference
[nm]   ;[counts] ;[counts] ;[counts] 

186,757;   34,513;   31,551;    1,318
187,357;   30,623;   22,551;    0,955
187,958;   23,178;   15,460;   -1,591
188,558;   25,689;    8,915;   -1,227
189,159;   15,994;    6,733;   -4,500
189,759;   10,082;    7,278;   -3,591
190,360;   11,510;    2,824;   -2,136
190,960;   12,662;    2,915;   -4,136
191,560;   16,035;    3,189;   -6,591
192,161;   58,394;    4,372;   -3,500
192,761;   32,876;    4,010;   -3,227
193,361;   20,099;    1,556;   -3,773
193,962;   27,851;    2,010;   -2,682
194,562;    9,633;    1,189;   -3,955
195,162;    6,249;   -2,448;   -2,227
195,762;   34,227;   -3,176;   -0,045
196,362;   18,532;    1,370;   -2,500
196,963;    4,033;    2,006;   -0,864
197,563;   17,783;    1,551;   -0,955
198,163;    7,515;    0,096;   -0,682
198,763;    8,560;    1,733;   -0,500
199,363;   16,931;    3,096;   -0,500
199,963;   12,018;    0,369;    0,409
200,563;    9,690;    2,823;   -1,409
201,163;    5,825;    3,277;   -0,227
201,763;   11,357;    3,732;    0,318
202,363;    6,380;    1,459;    1,500
202,963;   12,334;    1,459;    1,045
203,563;   24,396;    0,277;    0,500
204,162;    9,498;    2,096;   -1,864
204,762;    5,887;    0,550;    0,591
205,362;    4,295;    3,004;    1,955
205,962;   11,459;    3,096;    1,955
206,562;    9,635;    1,823;    2,318
207,161;    6,188;   -0,087;    0,318
207,761;   33,090;    1,277;    2,409
208,361;   12,504;   -0,268;    1,409
208,960;   13,532;    0,459;    1,500
209,560;    9,986;    1,277;    1,591
210,160;   16,948;    0,550;    1,864
210,759;   13,649;    4,186;    1,227
211,359;    9,481;    1,459;    1,045
211,958;   51,774;    1,277;    2,045
212,558;   51,304;    1,732;    1,864
213,157;   20,521;    1,822;    1,500
213,757;   86,224;    3,822;   -0,227
214,356;   38,273;    1,277;   -0,409
214,956;   76,557;    3,095;    0,409
215,555;   29,238;    2,095;    2,136
216,154;   14,239;   -2,723;   -0,591
216,754;   17,688;    0,277;    0,773
217,353;   23,721;   -0,268;   -1,045
217,952;    5,930;   -0,178;    0,318
218,552;   34,751;    1,368;   -0,773
219,151;   17,602;    0,277;    0,955
219,750;   14,655;    0,004;   -0,227
220,349;   13,036;   -0,451;    1,045
220,948;   50,256;   -1,360;    1,136
221,548;   21,735;    0,913;    1,227
222,147;   30,177;   -0,087;   -0,409
222,746;   75,248;   -0,451;   -0,955
223,345;   44,079;    0,731;    0,500
223,944;   46,663;   -0,451;    0,773
224,543;   46,356;    1,004;   -1,409
225,142;   33,950;    0,094;    0,136
225,741;   45,772;   -0,814;    1,045
226,340;   40,605;   -0,451;   -0,955
226,939;   86,717;   -0,996;   -0,136
227,538;   38,674;   -0,360;   -0,773
228,137;  102,149;   -0,814;    0,864
228,735;   75,146;   -0,541;    1,227
229,334;   30,231;   -0,905;   -0,227
229,933;  111,784;    0,459;    0,591
230,532;  109,297;    1,186;   -0,409
231,131;  146,822;    1,732;    0,318
231,729;   84,952;   -2,450;   -2,318
232,328;   59,489;   -0,723;   -1,500
232,927;   69,623;    1,004;   -0,500
233,525;   63,919;    3,640;    0,045
234,124;   85,115;    2,368;   -1,591
234,723;   53,136;    0,913;   -1,045
235,321;   46,087;    2,277;    0,136
235,920;   66,046;    1,186;   -1,227
236,518;  143,088;    3,459;    0,318
237,117;   66,373;    0,004;   -0,227
237,715;   86,051;    0,640;   -0,500
238,314;  101,487;   -0,087;   -2,318
238,912;  173,579;   -0,723;   -1,409
239,510;  125,023;    0,459;   -1,227
240,109;  192,330;    0,004;    3,773
240,707;  170,615;   -0,996;    1,227
241,305;   84,908;    0,550;    0,136
241,904;  137,089;   -0,178;   -2,045
242,502;  221,279;   -0,632;   -0,227
243,100;  152,682;   -0,087;   -0,955
243,698;  104,998;    0,732;    1,682
244,297;  130,689;   -0,632;    0,682
244,895;  127,173;   -0,269;   -2,318
245,493;  243,926;    2,186;   -0,591
246,091;  253,824;    1,368;   -1,318
246,689;  196,730;    1,004;    0,591
247,287;  185,454;    0,822;   -1,136
247,885;  149,871;   -1,451;    1,227
248,483;  129,087;    1,822;   -0,500
249,081;  192,013;    0,185;    1,591
249,679;  216,003;   -0,178;    1,682
250,277;  135,216;   -1,723;    0,864
250,875;  220,412;   -1,087;   -1,045
251,473;  148,285;   -1,178;    0,500
252,071;  226,450;    1,459;    1,045
252,669;  163,663;   -1,814;    0,318
253,267;  127,846;   -0,087;    0,773
253,864;  165,545;   -0,360;    0,682
254,462;  277,681;    1,640;    1,591
255,060;  135,850;   -0,269;    1,318
255,658;  131,754;    0,822;   -0,136
256,255;  173,997;    0,186;   -2,045
256,853;  213,144;   -0,269;    1,409
257,451;  187,012;    0,822;    1,864
258,048;  491,453;    1,822;    1,864
258,646;  292,497;    1,731;   -1,045
259,243;  363,962;   -0,087;    2,227
259,841;  267,483;   -0,814;    0,318
260,438;  156,600;   -0,087;    0,864
261,036;  249,056;   -1,905;    1,409
261,633;  166,760;   -0,087;    2,227
262,231;  139,565;    2,731;   -0,045
262,828;  140,401;   -0,905;    1,136
263,425;  175,902;    0,913;   -0,591
264,023;  182,850;    0,186;    0,045
264,620;  296,673;   -0,360;   -0,318
265,217;  389,666;   -2,087;    3,136
265,815;  195,189;   -1,905;    2,136
266,412;  283,490;    0,731;    0,136
267,009;  290,918;   -1,451;    0,773
267,606;  354,951;    0,822;   -0,955
268,203;  219,249;   -0,269;   -0,591
268,801;  232,753;    1,731;    0,591
269,398;  167,880;   -0,360;    2,500
269,995;  282,673;    0,277;    1,591
270,592;  240,505;   -0,632;   -0,500
271,189;  171,790;    0,186;    0,409
271,786;  154,178;   -0,632;    1,227
272,383;  335,152;   -1,087;    0,227
272,980;  228,923;    0,277;    0,318
273,577;  189,655;    0,004;    1,227
274,174;  173,121;    0,822;    2,591
274,771;  282,573;   -0,814;   -0,773
275,367;  586,106;    2,277;    1,409
275,964;  418,686;    0,731;   -0,500
276,561;  256,672;    1,549;   -1,045
277,158;  175,639;    0,095;   -1,773
277,755;  382,740;    2,185;    0,409
278,351;  304,222;   -0,451;   -1,500
278,948;  345,645;   -0,815;    0,045
279,545;  305,523;   -1,360;    2,318
280,141;  442,092;   -1,723;   -2,045
280,738;  419,476;   -0,451;   -0,136
281,334;  256,244;   -1,633;    0,591
281,931;  264,059;   -0,087;   -1,318
282,528;  362,410;    0,822;   -0,500
283,124;  416,591;   -1,087;   -0,500
283,721;  411,321;   -0,451;    1,409
284,317;  293,518;    0,185;    2,500
284,913;  444,508;   -1,360;    0,591
285,510;  633,871;    0,640;   -0,318
286,106;  476,744;   -2,269;   -0,955
286,703;  325,364;   -0,360;    1,955
287,299;  274,483;   -1,451;   -0,591
287,895;  261,311;    0,822;   -1,045
288,491;  241,880;    0,186;    2,136
289,088;  346,086;   -2,360;    2,409
289,684;  388,391;   -1,723;    1,500
290,280;  517,357;    0,368;    0,682
290,876;  467,033;    1,822;    5,500
291,472;  390,731;    1,276;    2,227
292,068;  402,568;    1,367;    0,227
292,665;  300,847;    2,095;    0,773
293,261;  225,250;    0,276;    2,136
293,857;  386,169;    2,913;    2,136
294,453;  308,327;    3,550;    0,955
295,049;  505,726;   -0,268;    1,955
295,644;  360,891;    0,095;    0,136
296,240;  236,663;   -0,905;   -0,136
296,836;  337,149;   -0,995;    0,318
297,432;  449,647;    1,096;   -0,500
298,028;  478,103;    0,732;    0,773
298,624;  359,248;    1,459;    1,864
299,220;  339,677;    2,368;    0,591
299,815;  327,257;    1,005;   -0,409
300,411;  413,180;    0,914;    1,773
301,007;  507,549;    1,368;    0,227
301,602;  364,153;   -0,541;   -2,318
302,198;  473,613;    0,732;   -0,773
302,794;  341,123;    1,187;   -0,500
303,389;  288,495;   -1,177;    1,045
303,985;  330,138;    0,550;    1,409
304,580;  439,029;    1,459;    1,591
305,176;  360,725;   -3,086;    0,136
305,771;  259,477;   -1,268;   -1,227
306,367;  603,404;    4,095;    0,136
306,962;  392,608;    0,641;    1,500
307,558;  444,061;   -0,450;    0,136
308,153;  490,182;    1,095;   -1,136
308,748;  310,165;   -0,814;    1,682
309,344;  636,951;   -0,632;   -1,318
309,939;  636,927;   -1,905;   -1,318
310,534;  361,848;   -0,086;   -1,682
311,130;  340,079;    0,459;   -2,500
311,725;  306,373;    1,004;   -0,500
312,320;  347,612;    2,459;    0,045
312,915;  438,851;    1,459;   -1,045
313,510;  623,104;    1,550;   -0,500
314,105;  359,651;    1,096;    1,409
314,700;  246,309;   -3,086;   -1,045
315,295;  331,120;   -0,904;    0,045
315,890;  282,784;    1,277;    0,864
316,485;  380,560;   -0,359;   -0,318
317,080;  291,068;   -3,086;    1,591
317,675;  574,524;    2,005;   -0,682
318,270;  766,263;    5,550;    3,318
318,865;  660,261;    3,278;    3,045
319,460;  507,152;   -0,904;    0,591
320,055;  349,963;   -0,541;   -1,227
320,650;  356,766;   -1,995;   -0,591
321,244;  357,794;   -0,177;   -1,409
321,839;  363,317;   -1,541;   -0,227
322,434;  418,794;   -1,086;   -1,591
323,029;  357,369;    1,732;    1,591
323,623;  319,620;    1,550;    0,773
324,218;  486,350;    2,368;    1,409
324,812;  427,671;    1,096;    1,591
325,407;  434,607;   -0,814;    2,045
326,002;  548,157;    0,277;   -0,409
326,596;  489,846;    0,914;    1,318
327,191;  336,598;    0,823;   -1,045
327,785;  335,028;   -0,813;   -0,227
328,379;  343,053;    1,368;    0,136
328,974;  397,327;    0,914;   -3,955
329,568;  412,220;    0,186;   -2,409
330,163;  483,375;    2,096;    1,045
330,757;  332,386;    2,459;    1,591
331,351;  278,357;    0,459;    0,682
331,945;  271,666;    0,914;    1,409
332,540;  412,087;   -1,723;   -0,591
333,134;  400,390;   -1,086;    0,773
333,728;  405,813;    0,005;    0,318
334,322;  297,322;   -1,177;   -0,864
334,916;  287,237;    0,277;    0,955
335,510;  453,352;   -0,450;   -0,136
336,105;  438,689;   -1,086;    1,591
336,699;  334,731;   -1,086;    0,591
337,293;  373,958;   -1,723;    0,318
337,887;  313,795;   -2,723;    1,955
338,481;  448,812;    0,459;    0,591
339,074;  544,871;   -0,359;    2,682
339,668;  517,947;   -1,632;    1,227
340,262; 1040,757;    1,732;    3,227
340,856;  672,536;    1,822;   -0,682
341,450;  367,014;    1,004;    1,864
342,044;  414,140;    1,459;    0,136
342,637;  547,693;    0,913;   -2,136
343,231;  527,377;   -2,360;    0,682
343,825;  431,092;   -1,086;   -0,591
344,419;  398,954;   -1,995;    0,500
345,012;  893,749;    2,459;    4,045
345,606;  703,369;    4,641;    1,591
346,199;  411,698;   -1,813;   -0,227
346,793;  536,502;    1,914;    2,045
347,386;  345,395;   -0,813;   -1,136
347,980;  244,652;   -0,268;   -0,045
348,573;  350,608;    2,278;    0,409
349,167;  635,286;    5,278;    4,773
349,760;  511,565;    2,914;    2,682
350,354;  477,075;   -0,813;    1,136
350,947;  514,406;    1,096;    1,682
351,540;  388,856;   -0,358;   -1,409
352,134;  264,293;    1,096;    1,136
352,727;  290,184;   -0,086;    1,136
353,320;  313,308;    0,005;    0,591
353,913;  248,688;   -1,995;    1,864
354,507;  450,611;    0,823;   -1,227
355,100;  326,595;    0,460;    0,864
355,693;  717,586;    2,005;    2,409
356,286;  487,290;    0,823;    2,773
356,879;  350,843;   -0,722;    1,227
357,472;  351,307;   -0,904;    1,500
358,065;  395,535;   -0,722;    2,500
358,658;  253,295;   -0,540;    2,318
359,251;  228,391;   -1,631;   -0,591
359,844;  405,164;   -1,904;   -1,136
360,437;  476,417;   -2,995;    0,045
361,030;  311,481;    1,369;   -0,682
361,623;  327,228;    2,824;    0,318
362,215;  552,074;   -0,086;    2,045
362,808;  395,362;   -2,358;   -1,682
363,401;  322,296;   -2,449;    0,136
363,994;  544,271;   -0,631;   -1,500
364,586;  343,284;    0,824;   -1,500
365,179;  290,691;   -0,449;   -1,136
365,772;  156,874;   -1,995;    2,045
366,364;  314,174;    1,915;   -3,227
366,957;  361,504;    2,279;   -0,045
367,549;  308,200;    2,188;   -0,864
368,142;  325,769;    1,825;   -1,500
368,734;  290,635;    0,734;   -2,136
369,327;  222,038;    1,643;   -0,500
369,919;  265,494;   -1,538;    0,409
370,512;  283,365;   -1,083;   -0,500
371,104;  545,223;   -0,901;    1,591
371,696;  567,222;    1,191;   -0,955
372,289;  418,324;    0,373;    1,136
372,881;  370,563;   -2,080;    1,318
373,473;  262,494;   -2,170;    1,136
374,066;  358,207;   -0,169;    0,500
374,658;  330,137;    0,378;    1,136
375,250;  261,370;    0,653;   -1,409
375,842;  318,161;    0,473;   -0,045
376,434;  277,092;   -0,435;   -0,409
377,026;  264,101;    0,204;   -2,500
377,618;  316,687;   -0,158;   -0,682
378,210;  258,897;   -0,338;   -1,955
378,802;  255,285;    0,754;   -0,591
379,394;  634,387;    1,846;    0,682
379,986;  393,122;    1,393;   -0,955
380,578;  303,682;   -0,153;    0,773
381,170;  541,490;   -0,972;    0,045
381,762;  442,292;    0,755;    1,409
382,354;  398,511;   -0,065;   -1,318
382,945;  302,101;   -2,976;    0,318
383,537;  240,927;   -2,705;   -1,955
384,129;  231,182;   -2,160;   -1,136
384,721;  357,880;   -0,252;    0,955
385,312;  293,259;   -0,161;   -0,955
385,904;  387,632;   -2,706;    1,591
386,496;  316,904;   -0,979;    1,045
387,087;  456,012;    1,022;    2,500
387,679;  391,479;   -1,160;    0,045
388,270;  365,235;    2,840;    2,045
388,862;  340,280;    1,295;   -0,318
389,453;  328,980;   -0,887;    1,045
390,045;  333,433;   -0,705;   -2,682
390,636;  225,814;    0,204;   -0,591
391,227;  295,633;   -0,523;   -0,045
391,819;  274,134;    0,204;    0,773
392,410;  528,107;    1,022;    0,045
393,001;  337,390;   -0,979;   -1,591
393,593;  407,613;    1,930;   -0,045
394,184;  452,395;    1,385;   -0,409
394,775;  326,581;    1,839;    2,136
395,366;  250,846;    1,385;    0,773
395,957;  446,931;    0,113;    0,136
396,548;  330,456;   -0,342;    2,682
397,139;  455,257;   -2,433;    0,591
397,730;  368,113;   -1,888;    0,955
398,321;  375,268;   -1,252;    0,955
398,912;  313,200;   -0,615;    0,136
399,503;  309,468;   -3,524;   -1,409
400,094;  366,785;    0,294;    1,682
400,685;  355,804;   -0,433;    0,045
401,276;  294,510;    0,930;   -0,955
401,867;  282,106;   -0,888;    0,773
402,458;  244,231;   -2,251;   -2,318
403,048;  400,762;    1,112;    0,591
403,639;  339,496;    0,840;    0,864
404,230;  451,495;    2,476;    0,318
404,821;  512,832;   -0,615;    0,045
405,411;  409,700;    1,203;   -2,591
406,002;  321,950;   -1,252;   -1,136
406,592;  557,472;    2,294;    0,045
407,183;  404,834;    0,566;   -1,500
407,774;  378,889;    3,475;   -0,136
408,364;  339,319;    0,930;    0,409
408,954;  466,166;    0,384;    1,227
409,545;  460,158;    1,021;    1,045
410,135;  412,506;    1,293;    0,500
410,726;  363,278;    1,838;    0,318
411,316;  553,816;    0,111;    0,773
411,906;  375,877;   -0,253;   -0,409
412,497;  392,596;   -1,070;   -0,045
413,087;  332,694;   -1,980;   -0,227
413,677;  259,097;   -0,707;    3,864
414,267;  252,994;    0,656;    1,409
414,857;  224,920;   -2,980;    4,227
415,448;  230,527;    0,839;    0,500
416,038;  263,995;    0,020;   -0,591
416,628;  314,907;   -0,889;    0,409
417,218;  382,489;    0,565;    3,318
417,808;  543,415;    0,202;   -0,409
418,398;  401,327;    0,020;    2,682
418,988;  276,249;    2,020;    0,591
419,578;  386,021;   -0,707;    1,409
420,168;  324,064;   -1,343;   -0,955
420,757;  488,436;   -1,343;   -1,500
421,347;  367,308;    0,111;   -0,227
421,937;  331,665;    2,292;    1,409
422,527;  476,791;    0,838;   -0,773
423,116;  627,689;   -0,253;   -0,045
423,706;  309,451;   -1,889;    0,318
424,296;  267,445;    1,384;    0,682
424,885;  414,809;   -0,071;   -3,045
425,475;  393,758;    1,474;   -2,864
426,065;  263,663;   -0,980;   -0,318
426,654;  240,321;   -0,435;   -0,318
427,244;  544,861;    0,020;    1,409
427,833;  510,933;    1,383;   -0,500
428,423;  369,927;   -0,526;    1,136
429,012;  363,181;   -0,344;   -1,136
429,601;  506,129;   -1,344;    0,136
430,191;  380,151;    1,292;    4,318
430,780;  275,386;   -0,344;   -0,409
431,369;  493,859;    0,746;   -0,045
431,959;  363,873;   -1,254;    0,500
432,548;  283,610;   -1,163;   -0,045
433,137;  215,551;   -1,254;   -1,318
433,726;  305,981;    0,292;    0,500
434,315;  330,278;   -0,526;    2,409
434,905;  449,114;   -1,254;    1,409
435,494;  453,061;    0,746;    0,955
436,083;  301,994;   -0,981;   -0,955
436,672;  393,935;    0,110;    0,500
437,261;  332,358;    0,292;   -1,955
437,850;  610,239;    1,383;    0,682
438,439;  657,701;    3,291;    1,955
439,027;  781,632;    3,655;    1,773
439,616;  699,414;    2,927;    1,227
440,205;  446,271;    0,200;   -2,136
440,794;  379,882;    2,109;   -0,045
441,383;  293,312;   -1,346;   -0,591
441,971;  251,938;   -2,436;    0,591
442,560;  280,458;    0,563;   -1,773
443,149;  145,765;    0,379;   -1,318
443,737;  225,664;   -0,074;   -2,318
444,326;  254,466;    0,018;    0,318
444,915;  315,272;   -1,982;    0,864
445,503;  326,424;   -2,891;   -0,318
446,092;  619,536;    0,382;    2,136
446,680;  533,122;    0,382;    0,318
447,269;  432,146;   -0,346;   -0,318
447,857;  410,381;    0,018;   -1,773
448,445;  354,310;    0,563;    1,318
449,034;  281,750;   -1,528;   -1,136
449,622;  280,298;   -1,073;    3,500
450,210;  621,414;    2,017;    2,227
450,799;  526,614;    0,290;   -0,591
451,387;  465,001;    1,381;   -0,591
451,975;  446,244;    2,654;    0,864
452,563;  534,012;    3,472;    2,318
453,151;  318,272;   -0,528;   -1,227
453,739;  380,291;   -1,347;    0,136
454,328;  503,892;    2,381;   -2,136
454,916;  424,845;    2,562;   -0,136
455,504;  435,441;    1,017;    1,227
456,092;  300,135;    0,017;   -1,591
456,679;  255,324;    1,472;    0,682
457,267;  744,559;    4,017;    1,045
457,855;  366,136;    1,017;    1,409
458,443;  191,110;   -0,165;    1,682
459,031;  395,979;    0,108;    2,409
459,619;  347,034;   -1,801;    2,864
460,206;  229,423;    0,835;    2,045
460,794;  233,643;   -2,983;   -0,227
461,382;  297,634;   -0,529;   -0,864
461,970;  291,359;    1,198;    1,864
462,557;  196,082;   -0,711;   -0,682
463,145;  357,961;   -3,165;   -1,682
463,732;  635,047;    2,016;   -1,045
464,320;  361,658;   -0,075;   -3,045
464,907;  534,542;    2,743;   -0,773
465,495;  426,216;    0,743;   -1,227
466,082;  327,015;   -1,984;   -0,045
466,670;  353,662;   -2,529;    1,227
467,257;  224,961;   -1,711;    2,045
467,844;  352,259;   -0,075;    0,045
468,432;  318,362;    0,834;    3,500
469,019;  260,709;    0,925;   -1,773
469,606;  359,665;    0,470;    3,682
470,193;  393,489;   -1,439;    0,227
470,780;  342,955;   -2,075;    0,864
471,368;  252,550;   -1,257;   -0,773
471,955;  382,435;    1,379;   -0,682
472,542;  331,597;    0,652;   -1,136
473,129;  189,268;   -0,166;    0,136
473,716;  203,976;    1,470;    0,591
474,303;  242,163;    0,652;   -0,864
474,890;  250,200;   -1,439;   -0,500
475,477;  365,416;   -1,621;    0,409
476,064;  249,039;    1,106;   -1,591
476,650;  389,606;    0,288;    0,318
477,237;  282,696;   -0,258;    0,955
477,824;  259,623;   -1,076;    0,864
478,411;  157,703;   -1,894;   -0,318
478,997;  150,674;    0,560;   -0,773
479,584;   88,754;    1,196;   -0,409
480,171;  309,540;   -0,440;   -0,773
480,757;  381,341;    2,651;    0,773
481,344;  245,726;    0,469;    0,409
481,931;  133,125;    1,105;    1,045
482,517;  303,670;   -1,258;    0,318
483,104;  416,753;    1,106;    2,864
483,690;  263,943;   -1,804;    0,045
484,276;  240,730;   -0,895;    0,227
484,863;  514,786;    2,469;    1,136
485,449;  312,597;   -0,077;    0,318
486,035;  258,518;   -1,986;   -0,136
486,622;  379,916;   -0,895;    0,045
487,208;  275,771;    1,378;    1,500
487,794;  169,005;    0,741;    0,318
488,380;  164,572;    0,105;   -1,409
488,967;  177,404;   -1,168;   -0,409
489,553;  201,998;   -1,895;   -1,409
490,139;  312,003;    1,559;    0,773
490,725;  198,016;    0,741;   -0,227
491,311;  254,457;    3,287;    3,045
491,897;  218,556;   -0,986;    1,500
492,483;  209,578;    0,105;    1,227
493,069;  735,020;    3,923;    0,864
493,655;  390,527;    1,650;    0,682
494,241;  247,512;    1,377;   -0,955
494,826;  269,178;    0,287;   -1,045
495,412;  354,269;    2,559;   -0,682
495,998;  227,498;   -0,805;   -0,318
496,584;  307,282;    0,377;    1,045
497,169;  326,492;    1,014;   -0,682
497,755;  246,225;    0,650;    1,227
498,341;  446,308;    0,559;    0,318
498,926;  600,077;    1,832;    1,955
499,512;  257,110;    1,286;    2,955
500,097;  268,472;    0,195;   -0,318
500,683;  300,167;   -0,350;    2,136
501,268;  228,810;   -0,169;   -0,955
501,854;  259,751;   -0,169;    1,227
502,439;  241,735;   -0,624;   -1,773
503,024;  313,953;    0,195;    0,500
503,610;  350,491;   -0,078;   -0,682
504,195;  264,522;    0,558;    1,955
504,780;  387,639;    2,922;    1,227
505,366;  507,805;    3,013;    2,864
505,951;  414,165;    0,740;    1,045
506,536;  300,877;   -3,260;   -3,682
507,121;  389,391;    0,285;   -0,318
507,706;  319,309;    2,376;    1,045
508,291;  252,168;    2,649;    1,136
508,876;  252,317;   -0,988;    2,591
509,461;  336,806;   -0,169;   -0,773
510,046;  387,160;    0,194;    0,318
510,631;  387,841;   -0,351;   -0,773
511,216;  288,787;    2,467;   -0,500
511,801;  369,703;   -0,442;    2,591
512,386;  401,953;    0,740;    0,500
512,971;  416,301;   -2,988;    0,955
513,555;  476,340;   -0,897;   -1,500
514,140;  412,541;   -0,442;   -3,136
514,725;  552,809;   -0,715;   -1,136
515,309;  437,065;   -0,533;    0,318
515,894;  311,698;   -0,624;   -2,227
516,479;  359,361;   -0,624;   -0,955
517,063;  371,246;    0,376;    1,227
517,648;  307,075;    1,012;   -1,136
518,232;  278,390;   -0,261;   -1,409
518,817;  380,667;   -0,079;    1,682
519,401;  518,741;    2,194;    0,591
519,985;  471,901;    1,103;    1,136
520,570;  305,587;    0,830;   -1,955
521,154;  430,169;    2,102;    0,591
521,738;  619,336;   -2,352;    2,409
522,323;  429,608;   -0,170;    1,682
522,907;  416,872;    0,466;   -0,136
523,491;  318,608;    0,557;    0,955
524,075;  288,067;    2,284;    0,591
524,659;  491,476;    1,466;    0,591
525,243;  426,670;    1,739;    0,409
525,827;  365,159;    0,648;   -0,045
526,411;  366,204;   -1,989;   -0,136
526,995;  469,048;   -0,352;    1,409
527,579;  539,148;   -0,443;   -1,045
528,163;  459,374;    0,375;   -1,500
528,747;  565,724;    2,466;   -0,773
529,331;  501,438;   -0,080;   -1,409
529,915;  338,471;    1,738;    0,955
530,499;  432,652;   -0,807;    1,227
531,082;  587,051;   -0,534;    1,591
531,666;  666,899;    1,374;    0,773
532,250;  545,910;    1,284;    2,682
532,833;  648,248;    0,920;    2,773
533,417;  481,800;   -1,807;    0,864
534,001;  609,852;    1,647;   -0,318
534,584;  529,455;    0,374;    0,500
535,168;  350,723;    0,465;    1,409
535,751;  705,903;    0,647;    0,045
536,334;  446,382;   -0,898;   -0,409
536,918;  289,374;    0,011;    1,591
537,501;  300,321;   -0,899;    1,318
538,085;  344,067;   -0,444;    1,045
538,668;  427,890;    0,829;    2,409
539,251;  710,895;    1,829;    3,773
539,834;  420,247;    0,101;    0,773
540,418;  551,869;   -1,990;    4,318
541,001;  728,938;   -0,990;    1,773
541,584;  495,064;    2,101;    2,227
542,167;  602,517;    1,374;    2,955
542,750;  429,179;    1,919;   -0,773
543,333;  298,812;    0,555;    2,136
543,916;  526,118;    0,192;    2,500
544,499;  458,507;   -1,354;    0,227
545,082;  535,878;    1,374;    3,591
545,665;  450,130;    1,919;    1,500
546,248;  572,812;    1,010;   -0,318
546,830;  556,798;   -0,445;    1,955
547,413;  506,405;    1,010;   -0,773
547,996;  471,621;    0,555;    0,500
548,579;  429,393;    0,919;    0,955
549,161;  669,036;    1,828;    2,682
549,744;  554,900;   -0,809;    0,409
550,326;  403,996;   -0,809;   -1,136
550,909;  873,487;    2,737;    0,591
551,492;  516,161;   -0,263;    0,227
552,074;  639,601;   -0,173;   -1,318
552,657;  669,421;    2,373;    0,045
553,239;  540,434;   -0,173;   -0,773
553,821;  402,562;   -1,082;    1,045
554,404;  662,144;    1,282;    1,136
554,986;  761,813;    0,464;    1,045
555,568;  598,281;    1,191;   -0,955
556,151;  812,286;    1,191;   -0,227
556,733;  485,890;   -0,264;   -0,864
557,315;  505,431;    0,100;    0,500
557,897;  374,147;    0,554;   -0,500
558,479;  390,062;   -1,991;    1,318
559,061;  480,052;   -0,719;   -0,864
559,643;  527,468;   -0,264;    0,045
560,225;  578,470;    1,645;    2,864
560,807;  429,105;    0,918;    0,318
561,389;  401,847;    0,554;    2,318
561,971;  496,040;    0,463;    2,136
562,553;  408,965;   -1,628;    1,591
563,135;  494,776;   -0,537;    1,136
563,717;  888,772;    3,372;    1,136
564,298;  777,528;    3,645;   -0,045
564,880;  533,279;    0,645;   -1,409
565,462;  373,097;    0,645;    1,318
566,043;  501,918;   -0,446;    2,318
566,625;  810,552;    1,918;    1,227
567,207;  616,600;    1,099;    1,682
567,788;  470,068;   -1,264;    1,500
568,370;  471,135;    1,917;   -0,500
568,951;  476,450;    0,190;    0,227
569,533;  582,354;   -0,628;   -0,500
570,114;  595,852;   -0,446;    0,682
570,695;  622,230;   -0,174;   -1,318
571,277;  602,172;   -0,265;   -1,682
571,858;  817,055;    2,008;   -1,136
572,439;  652,564;    1,554;   -1,045
573,021;  686,708;    2,099;   -2,773
573,602;  799,491;   -1,265;    0,318
574,183;  746,798;   -2,083;    2,227
574,764;  683,607;   -1,629;    0,409
575,345;  892,092;    0,917;   -0,136
575,926;  720,660;   -0,356;    0,136
576,507;  800,034;    1,099;   -0,227
577,088;  756,124;    3,099;    1,682
577,669;  936,083;    0,735;    1,955
578,250; 1116,344;    0,644;   -1,045
578,831;  901,343;   -1,356;   -2,227
579,412;  894,906;   -0,810;    0,955
579,993;  871,277;    1,008;    0,227
580,573;  781,826;   -0,629;   -0,955
581,154;  921,542;    0,735;   -0,591
581,735;  938,989;    0,644;    0,773
582,315; 1086,989;   -0,629;    2,136
582,896;  873,426;   -0,174;    1,227
583,477;  717,672;    0,189;    1,227
584,057;  850,185;    0,553;    0,955
584,638;  980,641;    2,553;    2,318
585,218; 1226,634;   -0,538;    2,682
585,799; 1025,705;    0,281;   -0,227
586,379;  891,215;    0,372;    1,591
586,959;  858,527;    0,735;    0,318
587,540;  764,333;   -0,629;    2,227
588,120;  776,773;    1,007;   -0,045
588,700;  792,712;    2,553;    2,136
589,281;  969,824;    0,462;   -0,955
589,861;  829,841;    0,099;   -1,682
590,441;  683,557;    2,371;   -2,682
591,021;  782,547;   -0,265;   -2,591
591,601;  738,288;   -0,537;    0,500
592,181;  714,187;   -0,719;   -0,773
592,761;  611,912;    0,007;    1,409
593,341;  738,251;   -0,901;    0,045
593,921;  751,850;   -0,265;    1,591
594,501;  635,164;   -0,538;    1,318
595,081;  643,937;    0,917;   -0,318
595,661;  718,511;   -1,447;    0,955
596,240;  643,107;   -0,537;    0,136
596,820; 1075,602;    0,372;    1,955
597,400;  783,686;    2,008;    0,773
597,980;  673,450;    2,008;    1,045
598,559;  620,859;    2,735;   -0,227
599,139;  601,330;   -0,174;   -1,227
599,718;  597,330;   -0,174;   -0,409
600,298;  589,133;    0,735;    0,682
600,877; 1104,003;    2,917;    1,409
601,457;  796,226;    2,281;    1,136
602,036;  672,103;    0,190;    2,045
602,616;  720,993;    0,644;    1,682
603,195;  841,314;   -0,355;    3,500
603,774;  909,602;   -0,901;    2,045
604,354;  837,516;    0,826;   -0,500
604,933;  768,734;    0,463;    1,864
605,512;  874,250;    3,554;    0,591
606,091;  876,203;   -0,537;    3,773
606,671;  808,864;    0,281;    0,773
607,250;  995,688;    1,644;    3,136
607,829;  929,262;    2,372;    3,227
608,408;  754,833;    1,190;    2,591
608,987;  883,023;    1,281;    3,409
609,566;  696,968;   -1,265;   -2,500
610,145;  799,123;   -1,082;    0,682
610,723;  840,862;    4,372;    6,864
611,302;  749,816;   -0,446;    1,682
611,881; 1050,020;    5,008;   11,227
612,460;  753,118;    1,645;    3,955
613,039;  633,792;   -0,082;    2,045
613,617;  621,183;    1,736;    4,773
614,196;  643,664;    1,099;    1,227
614,775;  705,968;    1,009;    2,409
615,353;  772,028;    0,736;    0,864
615,932;  733,308;    0,100;    2,409
616,510;  706,783;    0,554;    0,591
617,089; 1242,133;    7,100;   17,591
617,667;  838,038;    2,372;    6,136
618,246;  586,097;   -1,537;    1,318
618,824;  661,562;   -3,355;   -0,955
619,402;  684,201;   -2,900;   -1,773
619,981;  747,257;   -0,173;   -1,045
620,559;  652,322;    0,009;    1,682
621,137;  668,610;   -0,718;    1,864
621,715;  573,986;   -1,173;   -0,682
622,293;  597,607;   -0,537;   -0,773
622,871;  608,613;   -0,718;    0,500
623,450;  552,915;    0,373;   -0,864
624,028;  756,048;    0,191;   -0,955
624,606;  714,110;   -1,718;    1,682
625,183;  526,799;   -1,536;   -1,136
625,761;  667,614;    1,009;    1,136
626,339;  977,304;    1,373;    2,591
626,917;  615,194;   -0,172;   -0,045
627,495;  558,294;   -0,354;    1,318
628,073;  688,345;   -0,263;    2,864
628,650;  704,500;    0,100;    2,136
629,228;  703,359;    0,373;    4,409
629,806;  510,687;    2,282;    1,136
630,383;  575,822;    1,464;   -0,318
630,961;  567,052;    2,555;   -0,955
631,539;  624,725;    2,464;    0,227
632,116; 1346,506;   11,373;   15,409
632,694;  957,918;    2,555;    6,500
633,271;  789,015;    0,828;    2,682
633,848;  893,053;    1,828;    2,045
634,426;  616,532;   -1,081;    1,773
635,003;  479,616;    1,101;   -0,409
635,580;  904,060;    1,192;    3,682
636,158;  761,771;    3,737;    1,227
636,735;  569,470;    0,555;   -0,500
637,312;  568,792;   -0,809;   -0,682
637,889;  573,336;   -4,354;   -0,682
638,466;  547,226;   -3,990;   -0,409
639,043;  603,421;    2,101;   -1,136
639,620;  518,690;   -2,262;   -0,955
640,197;  659,676;    1,100;    1,682
640,774;  470,682;   -0,172;    1,136
641,351;  553,416;    0,737;    1,136
641,928;  751,878;   -0,627;    1,409
642,505;  870,066;    0,828;   -0,500
643,082;  674,073;   -1,718;    1,227
643,658;  546,171;   -0,718;    1,500
644,235;  530,541;    1,191;    2,500
644,812;  725,457;    1,918;    0,773
645,388;  700,282;   -0,991;    1,409
645,965;  482,288;   -0,809;    1,682
646,542;  496,932;   -1,445;   -0,227
647,118;  888,666;    1,009;   -0,955
647,695;  671,218;   -0,263;    1,136
648,271;  474,134;   -0,536;    0,500
648,848;  651,322;    0,736;    2,227
649,424;  784,965;    0,827;    1,318
650,000;  603,881;   -0,354;   -1,045
650,577;  629,979;   -0,627;   -0,955
651,153;  627,258;   -1,809;    0,955
651,729;  585,810;    1,191;    0,864
652,305;  948,544;    0,645;    2,773
652,881;  908,369;   -0,082;    1,136
653,458; 1056,649;    1,100;    0,227
654,034; 1155,928;    0,282;    1,591
654,610; 1306,026;    0,554;    0,773
655,186; 1819,396;    0,645;    3,045
655,762; 1339,494;   -0,991;    0,409
656,338; 1311,410;    0,100;    0,136
656,913; 1402,689;   -0,082;    0,409
657,489; 1164,060;    0,827;   -0,318
658,065; 1278,066;   -0,173;   -1,591
658,641; 1321,073;   -0,900;   -0,864
659,217; 1225,898;   -0,991;    0,409
659,792; 1364,905;    0,645;   -0,409
660,368; 1183,093;   -2,173;   -0,682
660,944; 1213,100;   -2,082;    1,227
661,519; 1098,016;   -0,628;    0,409
662,095;  800,477;   -1,719;    0,591
662,670;  630,211;    1,281;   -0,136
663,246;  533,218;    1,009;   -0,409
663,821;  703,770;    0,281;    1,682
664,396;  654,959;    0,009;    1,864
664,972;  565,693;    0,009;   -0,500
665,547;  622,245;    1,372;    0,136
666,122;  599,615;   -1,082;    0,318
666,698;  801,076;   -0,173;    0,318
667,273;  571,174;   -0,173;    0,136
667,848;  608,090;    2,372;    1,500
668,423;  782,188;    2,190;    2,318
668,998;  617,103;    2,827;   -0,682
669,573;  578,019;   -3,264;   -1,500
670,148;  769,662;   -1,446;   -0,682
670,723;  546,851;   -1,810;    0,318
671,298;  850,676;    2,372;    1,045
671,873;  749,682;   -0,082;   -0,136
672,448;  731,053;    0,645;    0,136
673,023;  719,332;   -1,992;   -0,227
673,597;  824,521;    0,827;    2,318
674,172;  875,982;   -0,355;    0,318
674,747;  780,534;    0,372;   -1,045
675,321;  535,814;   -0,628;    3,318
675,896;  469,184;    0,645;    1,045
676,471;  704,191;    2,645;    1,591
677,045;  630,198;   -1,264;    0,682
677,620;  726,477;    0,190;    1,136
678,194;  552,302;   -2,628;    1,136
678,769;  632,854;   -1,083;   -0,318
679,343;  683,315;   -0,628;    1,773
679,917;  814,959;   -1,446;    1,955
680,492;  654,147;    0,826;    3,227
681,066;  694,699;    3,372;    0,409
681,640;  626,342;    1,463;   -0,318
682,214;  637,167;    0,735;    0,500
682,788;  635,810;   -1,356;   -0,773
683,363;  788,726;   -1,810;    1,682
683,937;  662,551;   -1,719;   -0,318
684,511;  688,467;    0,463;   -0,591
685,085;  709,383;   -1,356;    0,318
685,659;  599,844;   -2,538;    0,864
686,232;  855,487;   -0,356;   -0,318
686,806;  733,494;   -0,901;    0,409
687,380;  603,228;   -0,174;    0,591
687,954;  541,962;   -1,174;    1,136
688,528;  878,060;   -0,719;    1,955
689,101;  692,885;   -3,992;    1,045
689,675;  587,800;   -0,356;   -0,136
690,249;  854,898;   -0,719;    0,409
690,822;  844,632;    0,280;    0,318
691,396;  727,184;   -0,265;    1,227
691,969;  641,646;    1,280;    0,136
692,543;  536,925;   -0,447;   -1,955
693,116;  526,114;   -0,265;   -1,409
693,690;  613,393;    0,099;    0,500
694,263;  552,218;   -1,083;    2,955
694,836;  922,770;    1,371;    3,591
695,410;  804,322;   -0,265;    1,773
695,983;  822,784;    0,189;    0,591
696,556;  613,699;   -0,447;   -1,045
697,129;  521,615;   -0,356;    1,409
697,703;  753,440;   -1,629;    1,955
698,276;  642,265;    1,462;   -0,773
698,849;  809,999;    1,280;    1,409
699,422;  570,551;   -1,083;    0,591
699,995;  475,467;    0,007;    0,136
700,568;  610,747;   -0,629;    3,045
701,140;  628,026;   -2,811;    1,682
701,713;  801,215;   -0,174;    2,409
702,286;  683,403;   -0,538;    0,864
702,859;  771,592;   -0,902;   -0,591
703,432;  861,962;    0,825;    0,682
704,004;  730,423;    0,462;    0,318
704,577;  600,066;   -0,629;    0,136
705,150;  652,437;    0,189;    2,500
705,722;  718,444;   -0,356;   -3,227
706,295;  781,905;   -0,175;   -0,591
706,867;  654,457;   -0,175;    1,955
707,440;  743,555;   -1,720;   -0,409
708,012;  832,561;    0,462;    0,591
708,584;  747,386;    2,462;    0,227
709,157;  515,848;    1,825;   -0,591
709,729;  746,582;    2,280;    2,045
710,301;  601,043;    0,734;    0,045
710,874;  614,504;   -1,447;   -0,227
711,446;  499,329;    0,371;    0,864
712,018;  586,972;    0,098;    0,500
712,590;  533,161;   -1,993;    1,682
713,162;  815,804;    0,825;    1,318
713,734;  593,174;    1,825;   -2,045
714,306;  507,636;   -1,902;   -0,409
714,878;  569,642;    0,825;    0,864
715,450;  522,285;    0,643;    0,864
716,022;  535,383;    1,552;    1,318
716,593;  525,935;    0,189;    0,591
717,165;  575,760;   -3,175;   -1,227
717,737;  843,585;    0,280;    0,409
718,309;  602,955;    0,280;   -0,045
718,880;  537,326;   -0,539;   -1,409
719,452;  608,696;   -0,175;   -1,591
720,024;  703,067;    0,734;   -0,591
720,595;  592,528;   -2,902;    0,955
721,167;  585,989;    0,370;   -2,045
721,738;  707,541;   -0,812;   -1,045
722,309;  863,730;   -0,993;   -1,227
722,881;  582,827;   -1,357;    0,773
723,452;  670,925;   -2,630;    2,864
724,023;  679,114;   -0,721;    2,682
724,595;  743,484;    0,007;    0,682
725,166;  608,127;    0,007;   -0,409
725,737;  813,679;    1,734;    0,227
726,308;  597,595;   -0,266;    0,318
726,879;  509,511;   -1,630;    1,227
727,450;  688,427;    0,552;   -0,045
728,021;  611,979;    3,097;    0,682
728,592;  787,440;    0,734;    0,500
729,163;  876,720;    0,643;   -0,136
729,734;  856,636;    0,188;   -0,227
730,305;  702,279;    1,734;    0,136
730,876;  667,376;    0,188;    2,955
731,447; 1006,292;    2,188;    2,682
732,017;  898,208;    1,097;    1,864
732,588;  685,397;    0,734;    1,227
733,159;  956,858;    0,643;   -1,045
733,729;  679,410;    0,006;    0,409
734,300;  841,599;    0,915;    0,864
734,870;  655,514;    3,461;    0,591
735,441;  632,157;    0,370;   -0,591
736,011;  622,619;    0,643;   -1,591
736,582;  636,444;   -0,812;    0,045
737,152;  774,814;   -1,721;   -2,045
737,722;  736,730;   -0,267;   -0,682
738,293;  577,646;   -1,358;    1,318
738,863;  768,380;    2,461;    2,318
739,433; 1038,386;    5,279;    0,318
740,003;  731,939;   -0,994;   -0,682
740,573;  870,491;    2,097;   -1,591
741,143;  735,770;   -1,085;    0,318
741,713;  637,868;    1,188;   -0,500
742,283;  709,693;    0,915;    1,591
742,853;  638,791;    1,915;    1,591
743,423;  464,888;    1,733;    0,045
743,993;  586,531;   -0,358;    1,500
744,563;  641,083;    0,097;   -0,864
745,133;  668,999;   -0,812;   -0,864
745,702;  537,551;   -0,267;    1,773
746,272;  762,558;   -0,176;    0,591
746,842;  785,110;   -1,358;   -0,591
747,411;  562,208;   -0,267;   -0,318
747,981;  459,851;    0,097;    0,500
748,551;  455,131;    2,278;   -1,045
749,120;  666,956;    0,642;   -0,227
749,690;  612,508;   -0,631;    2,409
750,259;  722,060;    1,369;    2,955
750,828;  783,794;    1,551;   -1,955
751,398;  552,892;    1,278;   -0,045
751,967; 1040,898;    2,187;    0,409
752,536;  678,905;   -0,813;   -0,227
753,105;  794,094;    0,096;    0,227
753,675;  623,919;    0,096;    1,773
754,244;  634,107;   -0,904;    3,591
754,813;  670,205;    0,551;    1,227
755,382;  628,575;    0,460;    0,955
755,951;  762,945;    1,551;    3,682
756,520;  874,679;   -0,085;    1,864
757,089;  988,232;    0,278;    0,500
757,658;  710,057;    1,733;    1,227
758,227;  550,154;    1,096;    0,318
758,795;  601,343;    1,187;    1,136
759,364;  606,531;   -0,086;   -0,591
759,933;  547,084;   -1,176;   -0,045
760,501;  480,181;    0,733;   -1,318
761,070;  649,733;   -2,813;   -1,409
761,639;  600,558;   -1,904;    1,318
762,207;  736,656;    1,551;   -0,955
762,776;  779,572;    0,369;    0,864
763,344;  628,942;   -0,995;    0,591
763,913;  426,403;   -0,722;    1,409
764,481;  972,047;    1,005;   -0,136
765,049;  971,690;   -1,358;    1,409
765,618;  886,878;   -0,086;    0,318
766,186;  687,249;    0,278;    0,136
766,754;  731,619;    0,005;    1,864
767,322;  616,353;   -1,995;    0,409
767,890;  556,632;   -0,722;   -1,773
768,459;  568,094;   -2,177;   -0,318
769,027;  797,646;    1,641;    3,409
769,595;  611,016;    3,278;    2,591
770,163;  702,114;    3,823;    2,955
770,730;  679,757;    0,732;   -0,136
771,298;  669,400;    0,187;   -1,409
771,866;  590,134;   -1,541;    4,955
772,434;  625,777;   -0,631;   -1,864
773,002;  825,057;    0,005;    0,682
773,569;  695,882;    0,914;    1,682
774,137;  816,979;   -0,268;   -0,045
774,705;  598,440;    0,278;   -0,136
775,272;  578,538;    0,641;    0,682
775,840;  601,363;   -0,177;    2,682
776,407;  725,824;    0,277;    1,955
776,975;  589,104;   -0,632;    0,318
777,542;  523,292;   -1,086;   -0,045
778,110;  560,299;   -1,268;   -0,045
778,677;  440,942;   -2,359;   -0,864
779,244;  518,767;    2,186;    1,045
779,812;  680,865;    1,823;    0,864
780,379;  771,326;    0,005;    1,136
780,946;  638,060;    1,005;   -0,773
781,513;  536,521;   -1,450;    0,318
782,080;  510,892;   -0,086;    2,864
782,647;  536,808;   -0,268;    3,045
783,214;  516,996;   -0,177;    3,864
783,781;  737,548;   -0,723;   -0,682
784,348;  667,919;   -0,632;    1,500
784,915;  443,380;   -3,177;    0,318
785,482;  690,568;    1,368;    2,591
786,049;  612,575;    0,186;   -0,591
786,615;  484,673;    0,277;   -0,955
787,182;  444,771;    0,186;   -0,682
787,749;  429,505;   -2,814;    1,409
788,315;  665,602;   -1,632;   -0,409
788,882;  534,336;    1,550;   -1,227
789,448;  833,434;    1,732;   -0,955
790,015;  592,895;    1,095;    3,227
790,581;  787,902;    1,459;    0,227
791,148;  601,727;    0,641;    1,045
791,714;  485,552;   -0,541;    3,136
792,280;  495,195;    0,186;    1,591
792,847;  433,656;    0,550;    2,500
793,413;  522,663;   -0,269;   -0,318
793,979;  748,851;    3,459;   -1,318
794,545; 1026,131;    4,459;    2,682
795,111;  906,228;    2,186;    1,318
795,678;  749,144;    0,731;   -1,682
796,244;  909,787;    3,368;    0,136
796,810;  759,430;    1,731;    0,773
797,375;  755,619;    0,549;   -2,136
797,941;  438,535;   -0,541;    0,591
798,507;  451,269;   -0,451;   -0,955
799,073;  484,730;   -0,360;    0,591
799,639;  474,737;   -2,632;    3,136
800,205;  436,562;    0,095;    2,682
800,770;  467,932;    0,640;    1,773
801,336;  490,303;    1,368;   -0,955
801,901; 1086,218;    4,549;    3,136
802,467;  737,316;   -0,542;    2,045
803,033;  519,323;   -0,087;    0,864
803,598;  511,239;    1,913;   -1,045
804,163;  513,609;    1,095;   -0,318
804,729;  620,252;   -0,178;    1,136
805,294;  510,713;    0,822;    2,227
805,859;  445,720;    0,731;   -0,409
806,425;  845,181;    1,186;    2,682
806,990;  823,188;    2,186;    4,318
807,555;  571,649;   -1,451;    2,591
808,120;  719,747;    0,822;   -0,409
808,685;  507,481;    0,185;   -2,500
809,250;  422,670;    0,004;   -0,500
809,815;  413,404;    1,913;    0,682
810,380;  547,410;   -0,269;    1,591
810,945;  732,872;   -1,087;    2,045
811,510;  552,787;    2,094;    1,591
812,075;  613,431;   -0,633;   -1,409
812,640;  860,528;    2,003;    1,409
813,204;  602,899;    0,822;   -0,227
813,769;  743,087;    2,094;   -0,045
814,334;  733,185;    0,458;    0,864
814,898;  456,919;    0,367;    0,591
815,463;  577,562;    1,276;   -0,773
816,027;  519,478;   -0,724;   -2,318
816,592;  430,757;    0,640;   -2,045
817,156;  618,855;    2,094;    1,136
817,721;  739,225;    4,276;    2,318
818,285;  468,686;    2,912;    1,500
818,849;  525,693;   -1,451;    1,682
819,414;  452,700;   -0,269;    2,955
819,978;  406,707;   -1,269;    1,773
820,542;  697,532;    2,003;    0,500
821,106;  524,538;   -0,815;    0,682
821,670;  744,000;   -0,815;    2,591
822,234;  512,643;   -0,270;    1,409
822,798;  411,377;    0,003;    0,500
823,362;  654,293;   -0,633;    4,227
823,926;  500,754;    0,094;    1,136
824,490;  692,579;   -0,997;   -0,682
825,054;  559,495;   -0,088;   -1,136
825,618;  454,956;   -1,542;   -1,500
826,181;  520,963;    0,458;   -1,318
826,745;  630,333;    1,367;   -1,045
827,309;  832,431;    1,185;    1,318
827,872;  699,256;    1,367;    0,955
828,436;  579,171;    1,185;   -0,773
828,999;  468,178;   -0,997;    1,227
829,563;  450,276;   -0,179;    1,136
830,126;  428,192;   -0,179;   -0,591
830,690;  546,926;   -1,997;    2,864
831,253;  468,569;   -0,543;    2,227
831,816;  515,485;   -1,906;    0,500
832,380;  469,673;    0,185;    0,864
832,943;  449,043;   -1,361;   -0,500
833,506;  460,414;    2,639;   -1,227
834,069;  603,511;    3,912;   -0,955
834,632;  446,791;    1,730;    1,318
835,195;  486,889;    1,003;    0,955
835,758;  436,804;   -0,997;    1,955
836,321;  447,902;    0,730;   -1,045
836,884;  419,181;   -0,725;   -0,955
837,447;  363,461;   -2,816;    1,773
838,010;  546,831;    0,366;    3,227
838,573;  543,565;   -1,179;    0,773
839,135;  402,299;   -1,361;   -0,955
839,698;  482,488;    1,275;    0,409
840,261;  427,767;    1,003;   -0,227
840,823;  383,865;   -0,543;    0,864
841,386;  362,326;   -0,452;   -2,409
841,948;  672,969;   -1,361;    1,773
842,511;  460,522;    0,912;    1,682
843,073;  660,619;    1,912;    0,227
843,636;  410,444;   -0,361;   -0,227
844,198;  634,178;    0,911;    0,591
844,760;  587,821;    1,093;    1,955
845,322;  390,555;    0,548;    1,136
845,885;  532,289;    0,730;    0,591
846,447;  464,478;   -1,998;    0,227
847,009;  801,303;    1,911;   -0,682
847,571;  512,037;    0,820;   -2,045
848,133;  455,498;   -1,089;   -1,864
848,695;  318,687;   -0,543;    1,409
849,257;  405,330;   -1,089;   -1,682
849,819;  562,427;   -0,998;   -0,409
850,381;  422,161;   -0,725;   -0,864
850,942;  488,077;    1,093;   -0,591
851,504;  568,266;    1,184;    0,227
852,066;  419,182;    1,275;   -1,591
852,628;  456,734;   -0,180;    1,955
853,189;  362,922;    1,638;    2,682
853,751;  367,384;   -0,907;    1,409
854,312;  530,936;   -0,453;   -1,682
854,874;  662,579;   -2,089;   -0,773
855,435;  467,222;   -0,907;   -1,682
855,997;  499,956;   -1,816;   -0,136
856,558;  627,235;    0,366;    1,773
857,119;  532,424;    0,820;    2,864
857,681;  376,794;    0,002;    0,318
858,242;  639,256;    1,911;   -2,136
858,803;  597,808;    0,456;   -0,773
859,364;  471,360;    0,184;   -4,773
859,925;  557,821;   -2,453;   -0,955
860,486;  430,646;   -0,453;   -0,955
861,047;  367,108;   -0,544;   -1,227
861,608;  419,296;   -1,089;   -0,773
862,169;  278,030;    0,638;   -0,045
862,730;  415,946;    0,456;    1,409
863,291;  460,589;   -0,635;   -0,500
863,852;  431,959;   -0,635;    1,955
864,412;  440,966;   -0,271;   -0,864
864,973;  678,427;   -0,089;    0,500
865,534;  782,071;   -1,726;    0,227
866,094;  562,623;    1,820;    0,227
866,655;  703,629;    1,274;    3,318
867,215;  512,454;    0,274;    0,136
867,776;  360,370;    0,547;   -0,136
868,336;  452,922;   -1,453;    0,136
868,897;  829,384;    2,638;    1,682
869,457;  619,936;    1,365;    0,318
870,017;  406,670;    0,547;   -1,227
870,578;  396,131;   -0,817;    0,773
871,138;  491,683;   -2,089;   -0,955
871,698;  404,690;   -0,817;   -1,318
872,258;  526,242;   -0,453;   -2,864
872,818;  668,340;    2,729;    0,045
873,378;  479,165;    0,638;    1,045
873,938;  467,899;    0,547;    0,500
874,498;  373,633;    0,274;   -1,955
875,058;  486,003;    2,183;    1,773
875,618;  483,010;    1,910;   -2,682
876,177;  517,562;    1,274;    0,136
876,737;  355,114;   -0,090;    1,955
877,297;  713,394;    0,183;    1,955
877,856;  639,037;   -0,362;    0,318
878,416;  407,135;    1,183;   -0,136
878,976;  370,778;   -1,817;    0,409
879,535;  409,693;    0,092;    3,136
880,095;  395,973;   -0,544;    0,045
880,654;  345,798;   -1,090;    1,318
881,213;  643,714;    2,456;    1,500
881,773;  484,539;    2,637;    2,682
882,332;  961,636;    3,365;    5,136
882,891;  467,825;    3,092;    2,136
883,451;  448,377;   -1,272;    1,682
884,010;  416,838;   -2,908;   -0,409
884,569;  354,663;   -0,999;   -0,045
885,128;  532,943;    2,819;   -1,864
885,687;  766,040;    4,455;    0,682
886,246;  937,592;    1,455;    2,136
886,805;  739,054;    2,455;    2,045
887,364;  398,333;   -0,999;   -0,500
887,922;  336,067;   -1,181;    0,045
888,481;  538,347;   -1,545;    0,591
889,040;  599,263;    1,183;    2,136
889,599;  474,633;    2,455;    1,409
890,157;  475,276;    1,455;    2,409
890,716;  409,101;   -0,090;    0,227
891,274;  527,380;    0,092;   -1,136
891,833;  592,751;    1,546;    0,864
892,391;  488,121;   -0,454;    0,500
892,950;  570,946;    1,819;   -0,773
893,508;  378,680;    0,455;   -0,409
894,067;  313,141;    0,637;    0,136
894,625;  411,239;   -0,636;   -1,500
895,183;  372,155;   -0,363;   -0,682
895,741;  637,616;    1,728;   -1,773
896,299;  439,805;   -0,545;   -2,409
896,858;  390,266;    0,819;   -1,591
897,416;  521,636;    2,728;   -1,318
897,974;  444,825;    1,819;    0,318
898,532;  874,195;    6,091;    2,682
899,089;  585,929;    2,091;   -0,682
899,647;  491,663;   -1,454;    1,318
900,205;  483,943;    1,182;    1,045
900,763;  472,131;   -0,454;    0,227
901,321;  420,411;    2,364;   -1,409
901,878;  267,327;   -1,000;   -0,773
902,436;  356,151;   -1,363;    1,318
902,994; 1021,795;    4,728;    3,682
903,551;  595,347;    0,728;    0,409
904,109;  461,808;    0,182;   -1,409
904,666;  422,542;    2,455;    1,045
905,224;  318,003;    0,182;   -0,409
905,781;  483,465;    0,727;   -0,318
906,338;  423,471;   -1,363;    1,045
906,895;  327,387;    0,637;    2,045
907,453;  574,848;    1,727;    1,136
908,010;  432,764;   -0,909;    0,409
908,567;  432,226;    1,273;    0,591
909,124;  289,505;    0,364;   -1,500
909,681;  351,875;   -2,909;    0,682
910,238;  375,155;    0,636;   -1,318
910,795;  284,343;   -0,273;   -1,136
911,352;  300,889;   -2,909;   -2,682
911,909;  348,798;   -1,364;   -0,864
912,466;  347,798;   -3,182;    1,500
913,022;  453,253;   -1,636;    0,500
913,579;  521,980;   -0,909;    2,045
914,136;  407,343;    1,636;    0,955
914,692;  410,343;    0,091;   -1,227
915,249;  436,798;    1,455;    0,409
915,806;  494,253;    0,182;    1,955
916,362;  400,343;    1,909;    1,864
916,918;  381,707;    2,000;    1,045
917,475;  500,616;   -1,182;    0,955
918,031;  352,434;    3,364;   -0,045
918,587;  426,980;   -0,909;   -0,318
919,144;  341,071;   -2,273;    0,227
919,700;  267,434;    1,727;    0,773
920,256;  273,980;    0,727;    0,045
920,812;  339,889;   -0,727;   -1,045
921,368;  301,071;   -1,727;   -1,045
921,924;  331,071;    0,182;   -0,136
922,480;  416,707;   -0,545;    1,227
923,036;  415,616;    1,273;    1,955
923,592;  320,798;    0,455;    0,318
924,148;  339,889;    0,455;   -0,955
924,704;  466,889;   -1,364;   -0,409
925,259;  294,980;   -0,273;    0,591
925,815;  300,889;    1,455;    0,500
926,371;  281,525;    2,909;    1,409
926,926;  424,071;    2,091;    0,591
927,482;  401,525;   -1,364;    0,773
928,037;  333,434;    0,909;    2,045
928,593;  492,162;    1,636;    1,045
929,148;  295,707;   -1,818;   -1,500
929,704;  364,525;   -1,455;   -0,500
930,259;  306,253;    0,091;   -0,136
930,814;  466,980;   -0,818;    1,955
931,369;  404,434;    1,091;   -0,773
931,925;  260,889;   -0,091;    0,136
932,480;  350,707;   -2,818;   -2,591
933,035;  641,707;    0,545;   -0,318
933,590;  553,707;    0,364;   -1,773
934,145;  263,343;   -1,364;   -0,318
934,700;  180,343;    0,455;   -0,591
935,255;  240,162;   -0,091;    0,045
935,809;  514,707;    3,182;    0,864
936,364;  244,616;   -0,455;   -0,136
936,919;  234,707;    0,455;   -1,773
937,474;  180,343;    1,455;    0,136
938,028;  187,798;   -1,636;    1,136
938,583;  520,889;    1,818;    4,682
939,138;  262,253;    2,091;    2,136
939,692;  165,980;    1,636;   -1,136
940,247;  205,980;   -0,727;   -1,045
940,801;  234,707;   -0,636;    0,227
941,355;  169,889;   -0,364;    2,591
941,910;  125,162;   -0,273;   -2,136
942,464;  151,162;   -0,818;   -0,318
943,018;  316,343;    1,000;   -0,227
943,572;  198,707;    2,545;   -0,682
944,126;  258,343;    0,091;   -0,409
944,681;  174,071;    3,091;    0,227
945,235;  132,162;    1,000;   -0,591
945,789;  115,071;    0,364;   -1,864
946,342;  293,798;    0,455;   -0,591
946,896;  144,616;   -2,273;    0,955
947,450;  120,525;    1,545;   -0,227
948,004;  290,798;    1,727;   -0,045
948,558;  169,343;    0,273;   -0,864
949,111;  169,707;   -0,273;   -0,318
949,665;  286,071;    1,636;   -0,682
950,219;  266,707;   -0,091;   -1,045
950,772;  205,071;   -1,909;    1,864
951,326;  197,798;    0,545;   -0,955
951,879;  166,616;    0,727;   -2,318
952,433;  251,616;    0,000;    2,227
952,986;  146,798;    2,909;    0,682
953,539;  124,343;   -0,273;    0,591
954,093;   97,343;    0,545;   -1,318
954,646;  170,798;    0,909;    1,318
955,199;  118,525;    0,000;   -0,500
955,752;  285,980;   -0,455;    1,773
956,305;  179,162;   -0,091;    2,955
956,858;  201,707;    0,818;   -0,318
957,411;  231,071;   -0,545;    2,136
957,964;  196,162;    1,364;    2,136
958,517;  137,071;   -1,545;    3,136
959,070;  103,343;   -0,455;    1,955
959,623;  279,798;    1,091;    1,500
960,176;  247,707;    1,727;    2,045
960,728;  214,434;   -2,727;    0,773
961,281;  168,162;    0,545;    0,500
961,834;  133,525;   -0,909;    0,864
962,386;  141,525;    1,727;    1,045
962,939;  122,253;    0,364;   -0,318
963,491;  150,616;    0,455;    1,136
964,043;  114,707;    1,182;    2,409
964,596;  223,707;   -1,000;    2,227
965,148;  160,798;   -1,000;    1,773
965,700;  113,889;    1,091;   -0,227
966,253;  218,525;   -0,636;    0,318
966,805;  179,798;   -2,273;    0,773
967,357;  137,980;    1,091;   -1,500
967,909;  213,071;    0,455;   -1,227
968,461;  141,525;    0,545;    3,136
969,013;  113,253;   -0,182;   -0,864
969,565;  214,798;   -0,455;   -1,136
970,117;  361,798;   -0,364;    1,045
970,669;  216,980;    0,182;   -0,136
971,220;   96,071;   -0,455;   -1,500
971,772;  151,525;   -0,636;   -0,318
972,324;  203,798;    0,091;   -0,500
972,876;  135,707;    0,818;   -0,045
973,427;  202,525;    1,909;   -1,045
973,979;  259,253;   -0,727;   -2,500
974,530;  141,434;    1,818;    1,318
975,082;  183,798;   -0,545;    1,682
975,633;  148,525;    1,091;    1,682
976,184;  166,525;    0,909;    0,773
976,736;  161,980;    0,091;    0,227
977,287;  183,798;   -0,909;   -0,500
977,838;  151,798;    0,909;   -0,318
978,389;  148,343;   -1,000;   -0,500
978,940;   82,980;    0,545;   -0,409
979,491;   84,071;    0,091;   -0,500
980,042;  141,707;    0,182;    3,045
980,593;  155,525;   -2,545;    0,227
981,144;  198,525;    2,545;   -0,500
981,695;  209,889;    1,455;    1,500
982,246;  178,162;   -0,273;    1,045
982,797;  105,071;   -1,727;    0,682
983,347;  190,616;    0,364;    0,591
983,898;  327,434;    3,091;    0,409
984,449;  304,980;    2,182;    0,773
984,999;  198,071;    1,455;   -1,136
985,550;  170,707;    0,182;   -0,318
986,100;   96,525;   -0,455;   -0,318
986,651;   91,980;   -0,818;    0,045
987,201;  108,253;   -1,000;   -0,591
987,751;  114,434;    0,818;    2,864
988,302;  134,980;    2,636;    1,500
988,852;  174,616;    0,455;   -1,136
989,402;  200,980;    0,091;    0,682
989,952;  221,525;   -2,182;    0,864
990,502;  125,162;   -0,091;    0,682
991,052;   68,980;   -0,727;    0,045
991,602;  102,889;   -2,909;    1,318
992,152;  129,071;    0,455;    0,682
992,702;  154,707;    1,364;   -0,045
993,252;  118,707;   -3,000;   -0,500
993,802;  178,434;   -0,273;    1,318
994,352;  145,253;   -1,545;    1,136
994,901;   94,343;   -0,182;    3,227
995,451;   85,980;   -0,182;    0,318
996,000;  105,253;    1,636;    0,318
996,550;  115,980;    2,273;    0,227
997,100;  138,980;    1,273;   -0,045
997,649;  221,071;    2,182;    0,955
998,198;  118,798;    1,727;   -1,500
998,748;  173,798;    1,091;   -2,318
999,297;  140,071;   -0,818;   -0,409
999,846;  211,162;    1,000;   -0,773
1000,395;  157,889;   -0,818;    0,500
1000,945;  225,253;    1,818;   -0,773
1001,494;  222,980;    2,364;    0,682
1002,043;  219,616;    4,636;    0,864
1002,592;  115,889;   -1,091;    1,955
1003,141;  107,616;   -0,455;   -0,682
1003,690;  214,071;    1,727;    0,500
1004,238;  137,616;    1,455;   -0,045
1004,787;   93,980;    1,364;    1,227
1005,336;  190,434;    0,364;    0,682
1005,885;  150,798;    1,364;   -2,773
1006,433;  150,616;    0,545;    0,955
1006,982;  247,616;    0,455;    1,682
1007,531;  167,162;   -1,818;   -0,227
1008,079;  149,434;   -2,273;    0,500
1008,627;  115,162;   -1,455;    0,409
1009,176;  135,434;    0,000;   -1,955
1009,724;   99,707;    1,091;    0,864
1010,273;  189,707;    1,273;    0,500
1010,821;  114,707;    0,091;    1,409
1011,369;   92,525;   -1,364;    1,318
1011,917;  101,253;   -1,364;   -0,591
1012,465;  142,798;    1,273;   -1,591
1013,013;  138,616;    2,091;   -1,682
1013,561;  207,253;    0,455;   -0,773
1014,109;  261,434;   -1,909;    1,682
1014,657;  179,434;    0,364;    0,591
1015,205;  126,434;    1,636;   -0,955
1015,753;  100,798;   -0,545;   -1,409
1016,301;  139,162;   -2,636;    3,045
1016,848;  183,798;   -1,273;    0,409
1017,396;  173,253;    2,545;    0,045
1017,944;  168,525;    1,182;    1,864
1018,491;  128,434;    0,273;    1,409
1019,039;  306,343;    0,455;    0,591
1019,586;  161,253;   -1,364;    1,682
1020,134;  148,980;    0,455;    1,500
1020,681;  208,253;    0,182;   -1,136
1021,228;  152,525;    2,909;   -2,227
1021,776;  138,253;    1,182;   -1,136
1022,323;  268,798;    0,455;    0,773
1022,870;  201,889;   -1,000;   -0,045
1023,417;  232,071;    2,636;    1,864
1023,964;  140,525;    2,636;    1,227
1024,511;  116,434;    1,000;    0,773
1025,058;  156,434;    3,182;   -0,045
1025,605;  121,707;   -2,273;    3,136
1026,152;  248,525;    1,727;   -0,591
1026,699;  156,525;    1,818;    1,318
1027,245;  149,434;   -0,091;    0,318
1027,792;  104,525;   -1,000;    1,409
1028,339;  248,253;    2,364;   -0,045
1028,885;  162,707;    1,000;   -0,227
1029,432;  135,253;   -0,091;    0,227
1029,978;  188,071;   -1,000;   -1,591
1030,525;  192,071;    1,000;    0,409
1031,071;  118,707;   -1,364;    1,136
1031,618;  289,343;    0,364;    1,682
1032,164;  185,162;   -0,091;    3,045
1032,710;  205,253;    1,636;   -1,500
1033,256;  187,253;   -0,636;   -0,136
1033,803;  102,798;   -0,545;    1,500
1034,349;   40,889;   -1,364;    0,136
1034,895;   60,889;    0,000;   -0,318
1035,441;  102,980;   -0,818;    0,318
1035,987;  132,343;   -2,364;   -0,682
1036,533;  172,343;   -1,455;   -0,955
1037,078;  298,707;    1,455;    1,682
1037,624;  205,253;    2,455;   -0,955
1038,170;  119,071;    0,455;   -0,318
1038,716;  169,889;    1,636;   -0,409
1039,261;  105,707;   -2,273;   -0,773
1039,807;  112,343;   -0,091;    3,409
1040,352;  122,707;   -1,909;   -0,318
1040,898;  116,525;   -1,545;   -0,682
1041,443;   85,343;   -1,455;   -2,591
1041,989;  272,162;    1,091;    1,591
1042,534;  154,616;   -0,364;    2,591
1043,079;   80,980;    2,909;    0,955
1043,625;  140,253;    1,818;    0,500
1044,170;  147,343;   -1,364;    1,045
1044,715;  266,434;    2,455;    0,955
1045,260;  205,889;    2,182;   -0,955
1045,805;  114,798;    1,182;   -0,591
1046,350;  100,980;    1,364;   -0,409
1046,895;  214,616;    2,909;    1,591
1047,440;  191,071;    5,364;    0,409
1047,985;  123,253;    2,818;   -0,955
1048,530;  108,707;    1,545;    1,227
1049,074;  140,889;    0,000;    0,318
1049,619;  104,434;   -1,364;    1,955
1050,164;  101,253;    0,455;    0,227
1050,708;  158,980;   -0,455;    0,045
1051,253;  300,162;    1,273;   -2,227
1051,797;  171,343;    0,818;   -1,318
1052,342;   79,343;   -1,182;    1,045
1052,886;  133,798;    0,364;   -1,409
1053,430;   80,525;   -1,364;    0,136
1053,975;  137,980;   -0,818;   -0,318
1054,519;  132,071;   -0,727;    3,227
1055,063;  168,071;    0,909;    1,318
1055,607;  161,707;   -0,182;    0,227
1056,151;  158,343;    2,909;    1,682
1056,695;  113,707;    2,273;   -1,136
1057,239;  105,525;   -1,727;   -0,682
1057,783;  128,525;    0,818;   -1,500
1058,327;  177,343;    0,000;    1,409
1058,871;  264,343;   -0,545;    1,318
1059,415;  192,616;   -0,818;   -0,045
1059,958;  271,071;    1,455;    2,591
1060,502;  117,616;   -1,000;   -0,773
1061,046;   74,616;    0,364;   -0,955
1061,589;   73,343;   -3,000;   -1,136
1062,133;   61,343;   -1,273;    1,864
1062,676;   87,525;    1,182;    0,864
1063,220;  102,343;    1,091;    0,500
1063,763;  123,525;    0,909;    1,136
1064,306;  131,162;   -0,909;    1,864
1064,849;  132,434;   -0,909;    0,591
1065,393;  119,253;    2,000;   -1,500
1065,936;  121,253;    0,182;   -0,409
1066,479;   81,071;   -1,455;    1,318
1067,022;   95,980;   -0,273;   -0,227
1067,565;   82,980;   -0,091;   -1,318
1068,108;   70,525;    0,727;   -0,591
1068,651;   58,525;   -0,636;    1,409
1069,194;   63,162;   -0,455;   -1,682
1069,736;   68,707;   -1,273;    0,955
1070,279;   59,343;   -1,364;   -0,500
1070,822;  102,980;   -2,000;   -0,318
1071,364;  181,798;   -0,364;    1,318
1071,907;   99,980;   -0,727;    3,227
1072,450;   35,525;    0,000;   -0,045
1072,992;   67,162;   -0,273;    3,136
1073,535;   95,525;    2,091;    2,136
1074,077;   61,162;   -0,727;    2,045
1074,619;   54,343;   -1,364;    0,591
1075,161;   78,162;   -1,091;    1,500
1075,704;  145,616;    1,545;    1,227
1076,246;   76,162;   -0,182;    0,682
1076,788;   43,343;   -0,364;    1,773
1077,330;   44,707;    1,273;    2,136
1077,872;   64,162;    0,909;    0,955
1078,414;  160,162;    2,727;    0,773
1078,956;   81,707;    1,273;   -0,227
1079,498;  149,525;    1,636;    0,318
1080,040;   84,162;    1,909;   -1,318
1080,581;   61,707;    1,636;   -0,318
1081,123;   35,343;    0,091;   -0,773
1081,665;   39,616;   -1,182;   -0,955
1082,206;  138,616;    1,364;   -0,500
1082,748;   87,798;    0,727;    2,045
1083,289;   50,253;   -2,000;    1,318
1083,831;   44,798;   -0,545;    0,227
1084,372;   64,798;    0,000;    0,591
1084,913;   61,798;    1,091;    0,864
1085,455;   43,707;   -1,909;   -2,045
1085,996;   35,707;   -2,273;    0,136
1086,537;   43,707;   -0,091;    0,864
1087,078;   57,253;   -0,909;   -2,136
1087,619;   83,434;   -1,273;    0,227
1088,160;   68,889;    0,000;    1,318
1088,701;   56,162;   -1,091;    0,682
1089,242;   46,071;    1,364;   -2,227
1089,783;   69,980;   -0,273;    1,409
1090,324;   58,889;    0,455;    0,682
1090,865;   36,162;    2,727;   -0,409
1091,405;   27,889;    0,727;    2,227
1091,946;   51,889;    0,182;   -0,955
1092,487;   27,525;    0,818;   -1,409
1093,027;   79,162;   -1,364;   -1,500
1093,568;   50,707;   -0,364;    1,227
1094,108;   62,434;    0,273;    1,773
1094,649;   48,889;   -1,182;    0,136
1095,189;   32,162;   -0,636;   -0,682
1095,729;   31,980;   -0,091;    0,955
1096,269;   29,434;    0,727;   -0,955
1096,810;   99,707;   -1,364;    0,500
1097,350;   70,071;    1,364;   -0,773
1097,890;   47,434;    0,364;    1,227
1098,430;  137,525;    2,364;    2,864
1098,970;  101,343;    2,182;    1,682
1099,510;   43,253;    0,545;   -2,318
1100,050;   33,071;    1,000;   -1,591
1100,589;   44,980;   -0,727;   -0,318
1101,129;   63,889;    0,818;   -0,955
1101,669;   99,162;    1,727;    2,136
1102,209;   65,798;   -0,091;    2,227
1102,748;   50,071;    0,000;    0,955
1103,288;   52,525;    1,273;   -1,227
1103,827;   48,707;    3,091;   -2,227
1104,367;   31,798;   -0,091;   -2,409
1104,906;   33,980;    1,364;   -1,136
1105,445;   52,616;    0,636;   -1,136
1105,985;   43,707;   -0,727;    1,500
1106,524;   48,343;   -1,727;   -0,682
1107,063;   41,889;   -2,727;    1,409
1107,602;   32,980;   -1,909;   -1,500
1108,141;   25,616;   -1,909;    1,500
1108,680;   51,980;   -3,455;   -0,591
1109,219;   41,889;   -0,909;   -0,500
1109,758;   32,525;    0,455;    0,682
1110,297;   33,253;    1,000;   -0,682
1110,836;   23,434;   -0,727;    0,955
1111,375;   32,253;   -2,545;    0,409
1111,913;   58,798;   -1,000;    0,773
1112,452;   43,071;   -0,273;    0,136
1112,991;   26,889;    1,091;    1,955
1113,529;   23,343;   -0,818;   -0,045
1114,068;   36,071;   -0,273;    2,955
1114,606;   23,798;   -0,364;   -0,955
1115,144;   50,434;   -1,273;    1,045
1115,683;   37,707;   -0,727;    0,318
1116,221;   51,616;   -0,455;   -0,864
1116,759;   26,071;    0,636;   -0,864
1117,297;   58,253;    0,000;    1,864
1117,836;   29,798;   -2,182;   -1,227
1118,374;   27,434;    0,182;   -0,682
1118,912;   36,071;    0,909;    2,682
1119,450;   31,616;    1,000;    0,864
1119,988;   30,798;    1,545;    2,136
1120,525;  176,798;    5,091;    3,318
1121,063;   79,343;    1,182;    1,864
1121,601;   31,525;   -0,909;   -1,227
1122,139;   22,616;   -0,727;   -2,045
1122,676;   70,889;   -0,727;    2,773
1123,214;   59,889;   -1,182;    4,409
1123,751;   25,071;    1,727;    2,227
1124,289;   38,525;   -0,091;   -0,409
1124,826;   26,071;    1,727;    0,227
1125,364;   11,980;    1,727;   -0,955
1125,901;   64,071;    1,182;    1,227
1126,438;   56,434;    0,818;    0,955
1126,975;   15,253;   -0,727;   -0,773
1127,513;   20,798;    0,273;    2,136
1128,050;   13,798;    1,636;   -0,682
1128,587;   28,071;    2,000;   -0,227
1129,124;   40,980;    0,091;    1,318
1129,661;   18,434;    0,273;    0,227
1130,198;   50,253;    1,636;    0,773
1130,734;   33,889;    0,182;    1,409
1131,271;   14,798;   -0,909;    0,864
1131,808;   40,525;    2,909;    3,045
1132,345;   22,707;    1,545;    0,318
1132,881;    4,071;   -1,545;   -1,864
1133,418;   24,616;    0,727;   -1,136
1133,954;   14,434;    2,455;   -2,682
1134,491;   27,071;    1,364;   -0,773
1135,027;   15,253;    2,364;    0,864
1135,564;   29,071;    0,273;    2,955
1136,100;   25,434;    0,364;    2,136
1136,636;   11,980;   -1,273;   -1,045
1137,172;   19,253;    0,000;   -1,045
1137,708;   14,525;   -1,364;   -1,045
1138,245;   10,071;    1,273;   -1,227
1138,781;    8,980;    1,091;   -3,318
1139,317;   16,162;    1,273;   -1,409
1139,852;   21,253;    3,091;    0,136
1140,388;   27,343;   -1,182;   -0,409
1140,924;   14,162;   -1,091;   -2,227
1141,460;    8,253;   -1,636;    0,136
1141,996;    6,616;   -1,364;    2,682
1142,531;    8,071;    1,364;    3,318
1143,067;   36,707;    1,182;    1,045
1143,602;   51,616;   -0,091;   -0,318
1144,138;   22,798;   -2,636;    1,045
1144,673;    9,253;   -1,455;    1,409
1145,209;   13,253;   -1,909;   -0,318
1145,744;    4,798;   -0,727;    0,864
1146,279;   20,798;    1,818;   -0,136
1146,815;   12,980;    1,545;   -2,682
1147,350;   17,525;   -1,364;    0,045
1147,885;    5,434;   -0,818;   -1,318
1148,420;    7,616;   -2,273;    0,773
1148,955;    6,071;   -1,727;    1,864
1149,490;    8,071;   -0,909;   -1,591
1150,025;    6,980;    0,455;   -1,773
1150,560;   23,707;    1,091;   -0,955
1151,094;   16,434;    1,455;   -0,591
1151,629;   15,253;    1,636;    0,864
1152,164;    9,889;    1,364;    1,318
1152,698;    6,343;   -0,182;   -0,136
1153,233;    1,798;    0,091;   -0,682
1153,767;    8,253;   -3,000;   -2,318
1154,302;   11,707;   -1,455;    1,773
1154,836;    8,253;   -0,455;   -2,136
1155,371;   14,071;   -1,364;    3,682
1155,905;    7,889;   -0,636;    1,682
1156,439;   10,434;   -0,636;   -0,500
1156,973;   15,798;    0,364;    0,318
1157,507;    6,616;   -0,364;    0,682
1158,042;   10,343;   -0,727;    1,045
1158,576;   11,616;    0,182;    1,773
1159,110;   10,434;   -0,818;    2,409
1159,643;   10,616;    0,636;   -0,045
1160,177;    4,253;   -1,545;    1,500

