
Integration time [ms]:   0,040
Averaging Nr. [scans]: 11
Smoothing Nr. [pixels]: 0
Data measured with spectrometer [name]: 7318044SP
Wave   ;Sample   ;Dark     ;Reference
[nm]   ;[counts] ;[counts] ;[counts] 

186,757;   32,910;   31,551;    1,318
187,357;   30,476;   22,551;    0,955
187,958;   21,122;   15,460;   -1,591
188,558;   22,632;    8,915;   -1,227
189,159;   12,939;    6,733;   -4,500
189,759;    9,481;    7,278;   -3,591
190,360;    7,912;    2,824;   -2,136
190,960;   11,249;    2,915;   -4,136
191,560;   14,083;    3,189;   -6,591
192,161;   58,549;    4,372;   -3,500
192,761;   30,135;    4,010;   -3,227
193,361;   18,814;    1,556;   -3,773
193,962;   28,467;    2,010;   -2,682
194,562;    9,504;    1,189;   -3,955
195,162;    6,746;   -2,448;   -2,227
195,762;   35,811;   -3,176;   -0,045
196,362;   24,388;    1,370;   -2,500
196,963;    9,888;    2,006;   -0,864
197,563;   17,271;    1,551;   -0,955
198,163;    8,364;    0,096;   -0,682
198,763;    8,866;    1,733;   -0,500
199,363;   15,327;    3,096;   -0,500
199,963;   13,957;    0,369;    0,409
200,563;   14,719;    2,823;   -1,409
201,163;    6,944;    3,277;   -0,227
201,763;   15,021;    3,732;    0,318
202,363;    8,590;    1,459;    1,500
202,963;   10,997;    1,459;    1,045
203,563;   26,151;    0,277;    0,500
204,162;   12,070;    2,096;   -1,864
204,762;    8,547;    0,550;    0,591
205,362;    5,410;    3,004;    1,955
205,962;   13,123;    3,096;    1,955
206,562;   10,569;    1,823;    2,318
207,161;    6,938;   -0,087;    0,318
207,761;   31,389;    1,277;    2,409
208,361;   11,894;   -0,268;    1,409
208,960;   18,285;    0,459;    1,500
209,560;   15,009;    1,277;    1,591
210,160;   21,791;    0,550;    1,864
210,759;   17,583;    4,186;    1,227
211,359;    9,503;    1,459;    1,045
211,958;   55,708;    1,277;    2,045
212,558;   54,237;    1,732;    1,864
213,157;   29,817;    1,822;    1,500
213,757;   97,519;    3,822;   -0,227
214,356;   43,114;    1,277;   -0,409
214,956;   93,946;    3,095;    0,409
215,555;   34,987;    2,095;    2,136
216,154;   18,078;   -2,723;   -0,591
216,754;   20,528;    0,277;    0,773
217,353;   25,199;   -0,268;   -1,045
217,952;   10,132;   -0,178;    0,318
218,552;   42,407;    1,368;   -0,773
219,151;   21,985;    0,277;    0,955
219,750;   18,218;    0,004;   -0,227
220,349;   12,147;   -0,451;    1,045
220,948;   58,911;   -1,360;    1,136
221,548;   27,028;    0,913;    1,227
222,147;   35,288;   -0,087;   -0,409
222,746;   86,357;   -0,451;   -0,955
223,345;   46,370;    0,731;    0,500
223,944;   51,683;   -0,451;    0,773
224,543;   57,467;    1,004;   -1,409
225,142;   45,695;    0,094;    0,136
225,741;   56,428;   -0,814;    1,045
226,340;   47,624;   -0,451;   -0,955
226,939;   99,647;   -0,996;   -0,136
227,538;   49,148;   -0,360;   -0,773
228,137;  111,807;   -0,814;    0,864
228,735;   88,622;   -0,541;    1,227
229,334;   33,980;   -0,905;   -0,227
229,933;  127,987;    0,459;    0,591
230,532;  130,501;    1,186;   -0,409
231,131;  178,845;    1,732;    0,318
231,729;  109,793;   -2,450;   -2,318
232,328;   75,602;   -0,723;   -1,500
232,927;   87,010;    1,004;   -0,500
233,525;   78,849;    3,640;    0,045
234,124;  102,955;    2,368;   -1,591
234,723;   68,249;    0,913;   -1,045
235,321;   57,654;    2,277;    0,136
235,920;   84,159;    1,186;   -1,227
236,518;  180,473;    3,459;    0,318
237,117;   86,120;    0,004;   -0,227
237,715;  103,437;    0,640;   -0,500
238,314;  126,873;   -0,087;   -2,318
238,912;  211,147;   -0,723;   -1,409
239,510;  148,318;    0,459;   -1,227
240,109;  224,081;    0,004;    3,773
240,707;  196,093;   -0,996;    1,227
241,305;  103,385;    0,550;    0,136
241,904;  164,840;   -0,178;   -2,045
242,502;  257,393;   -0,632;   -0,227
243,100;  177,613;   -0,087;   -0,955
243,698;  124,566;    0,732;    1,682
244,297;  156,256;   -0,632;    0,682
244,895;  149,830;   -0,269;   -2,318
245,493;  270,583;    2,186;   -0,591
246,091;  280,571;    1,368;   -1,318
246,689;  221,296;    1,004;    0,591
247,287;  201,565;    0,822;   -1,136
247,885;  172,436;   -1,451;    1,227
248,483;  150,471;    1,822;   -0,500
249,081;  218,940;    0,185;    1,591
249,679;  236,475;   -0,178;    1,682
250,277;  144,327;   -1,723;    0,864
250,875;  245,161;   -1,087;   -1,045
251,473;  164,851;   -1,178;    0,500
252,071;  245,562;    1,459;    1,045
252,669;  180,320;   -1,814;    0,318
253,267;  139,773;   -0,087;    0,773
253,864;  184,656;   -0,360;    0,682
254,462;  294,701;    1,640;    1,591
255,060;  150,506;   -0,269;    1,318
255,658;  143,774;    0,822;   -0,136
256,255;  195,654;    0,186;   -2,045
256,853;  233,709;   -0,269;    1,409
257,451;  204,214;    0,822;    1,864
258,048;  518,110;    1,822;    1,864
258,646;  309,426;    1,731;   -1,045
259,243;  381,981;   -0,087;    2,227
259,841;  283,049;   -0,814;    0,318
260,438;  174,438;   -0,087;    0,864
261,036;  270,441;   -1,905;    1,409
261,633;  179,325;   -0,087;    2,227
262,231;  150,495;    2,731;   -0,045
262,828;  147,877;   -0,905;    1,136
263,425;  194,741;    0,913;   -0,591
264,023;  194,870;    0,186;    0,045
264,620;  316,329;   -0,360;   -0,318
265,217;  411,595;   -2,087;    3,136
265,815;  215,298;   -1,905;    2,136
266,412;  301,691;    0,731;    0,136
267,009;  312,848;   -1,451;    0,773
267,606;  373,971;    0,822;   -0,955
268,203;  227,362;   -0,269;   -0,591
268,801;  251,045;    1,731;    0,591
269,398;  184,717;   -0,360;    2,500
269,995;  303,786;    0,277;    1,591
270,592;  266,072;   -0,632;   -0,500
271,189;  186,082;    0,186;    0,409
271,786;  166,199;   -0,632;    1,227
272,383;  354,719;   -1,087;    0,227
272,980;  240,488;    0,277;    0,318
273,577;  204,041;    0,004;    1,227
274,174;  183,416;    0,822;    2,591
274,771;  303,683;   -0,814;   -0,773
275,367;  610,220;    2,277;    1,409
275,964;  440,980;    0,731;   -0,500
276,561;  274,055;    1,549;   -1,045
277,158;  197,294;    0,095;   -1,773
277,755;  405,758;    2,185;    0,409
278,351;  321,605;   -0,451;   -1,500
278,948;  368,391;   -0,815;    0,045
279,545;  320,360;   -1,360;    2,318
280,141;  462,385;   -1,723;   -2,045
280,738;  439,587;   -0,451;   -0,136
281,334;  268,354;   -1,633;    0,591
281,931;  281,621;   -0,087;   -1,318
282,528;  374,427;    0,822;   -0,500
283,124;  436,065;   -1,087;   -0,500
283,721;  429,611;   -0,451;    1,409
284,317;  308,808;    0,185;    2,500
284,913;  457,615;   -1,360;    0,591
285,510;  658,433;    0,640;   -0,318
286,106;  496,398;   -2,269;   -0,955
286,703;  338,018;   -0,360;    1,955
287,299;  290,321;   -1,451;   -0,591
287,895;  271,239;    0,822;   -1,045
288,491;  253,627;    0,186;    2,136
289,088;  359,377;   -2,360;    2,409
289,684;  399,956;   -1,723;    1,500
290,280;  525,650;    0,368;    0,682
290,876;  481,144;    1,822;    5,500
291,472;  398,931;    1,276;    2,227
292,068;  409,676;    1,367;    0,227
292,665;  305,958;    2,095;    0,773
293,261;  227,269;    0,276;    2,136
293,857;  392,918;    2,913;    2,136
294,453;  315,894;    3,550;    0,955
295,049;  509,115;   -0,268;    1,955
295,644;  362,278;    0,095;    0,136
296,240;  248,506;   -0,905;   -0,136
296,836;  347,539;   -0,995;    0,318
297,432;  453,038;    1,096;   -0,500
298,028;  484,585;    0,732;    0,773
298,624;  362,001;    1,459;    1,864
299,220;  338,340;    2,368;    0,591
299,815;  330,737;    1,005;   -0,409
300,411;  422,479;    0,914;    1,773
301,007;  517,850;    1,368;    0,227
301,602;  367,180;   -0,541;   -2,318
302,198;  480,278;    0,732;   -0,773
302,794;  345,877;    1,187;   -0,500
303,389;  287,612;   -1,177;    1,045
303,985;  336,165;    0,550;    1,409
304,580;  448,147;    1,459;    1,591
305,176;  369,750;   -3,086;    0,136
305,771;  263,684;   -1,268;   -1,227
306,367;  621,247;    4,095;    0,136
306,962;  398,452;    0,641;    1,500
307,558;  446,087;   -0,450;    0,136
308,153;  498,026;    1,095;   -1,136
308,748;  312,464;   -0,814;    1,682
309,344;  636,066;   -0,632;   -1,318
309,939;  645,316;   -1,905;   -1,318
310,534;  369,964;   -0,086;   -1,682
311,130;  344,468;    0,459;   -2,500
311,725;  312,853;    1,004;   -0,500
312,320;  363,002;    2,459;    0,045
312,915;  445,421;    1,459;   -1,045
313,510;  628,402;    1,550;   -0,500
314,105;  375,588;    1,096;    1,409
314,700;  256,700;   -3,086;   -1,045
315,295;  332,511;   -0,904;    0,045
315,890;  283,720;    1,277;    0,864
316,485;  384,676;   -0,359;   -0,318
317,080;  290,367;   -3,086;    1,591
317,675;  578,187;    2,005;   -0,682
318,270;  772,110;    5,550;    3,318
318,865;  662,743;    3,278;    3,045
319,460;  509,542;   -0,904;    0,591
320,055;  354,628;   -0,541;   -1,227
320,650;  357,978;   -1,995;   -0,591
321,244;  363,732;   -0,177;   -1,409
321,839;  373,253;   -1,541;   -0,227
322,434;  427,093;   -1,086;   -1,591
323,029;  364,124;    1,732;    1,591
323,623;  326,464;    1,550;    0,773
324,218;  494,378;    2,368;    1,409
324,812;  435,516;    1,096;    1,591
325,407;  440,088;   -0,814;    2,045
326,002;  552,183;    0,277;   -0,409
326,596;  491,510;    0,914;    1,318
327,191;  342,625;    0,823;   -1,045
327,785;  341,237;   -0,813;   -0,227
328,379;  340,716;    1,368;    0,136
328,974;  401,626;    0,914;   -3,955
329,568;  418,792;    0,186;   -2,409
330,163;  489,675;    2,096;    1,045
330,757;  339,410;    2,459;    1,591
331,351;  286,382;    0,459;    0,682
331,945;  278,693;    0,914;    1,409
332,540;  416,930;   -1,723;   -0,591
333,134;  409,415;   -1,086;    0,773
333,728;  399,839;    0,005;    0,318
334,322;  299,712;   -1,177;   -0,864
334,916;  289,716;    0,277;    0,955
335,510;  451,287;   -0,450;   -0,136
336,105;  435,261;   -1,086;    1,591
336,699;  341,120;   -1,086;    0,591
337,293;  372,164;   -1,723;    0,318
337,887;  308,094;   -2,723;    1,955
338,481;  450,020;    0,459;    0,591
339,074;  548,349;   -0,359;    2,682
339,668;  529,608;   -1,632;    1,227
340,262; 1046,327;    1,732;    3,227
340,856;  671,832;    1,822;   -0,682
341,450;  366,491;    1,004;    1,864
342,044;  408,164;    1,459;    0,136
342,637;  542,899;    0,913;   -2,136
343,231;  525,125;   -2,360;    0,682
343,825;  416,027;   -1,086;   -0,591
344,419;  396,072;   -1,995;    0,500
345,012;  892,504;    2,459;    4,045
345,606;  704,396;    4,641;    1,591
346,199;  408,363;   -1,813;   -0,227
346,793;  528,258;    1,914;    2,045
347,386;  338,967;   -0,813;   -1,136
347,980;  252,682;   -0,268;   -0,045
348,573;  355,821;    2,278;    0,409
349,167;  629,318;    5,278;    4,773
349,760;  505,870;    2,914;    2,682
350,354;  466,202;   -0,813;    1,136
350,947;  517,167;    1,096;    1,682
351,540;  392,344;   -0,358;   -1,409
352,134;  268,962;    1,096;    1,136
352,727;  288,123;   -0,086;    1,136
353,320;  307,430;    0,005;    0,591
353,913;  250,720;   -1,995;    1,864
354,507;  442,642;    0,823;   -1,227
355,100;  317,081;    0,460;    0,864
355,693;  718,983;    2,005;    2,409
356,286;  492,505;    0,823;    2,773
356,879;  351,875;   -0,722;    1,227
357,472;  348,338;   -0,904;    1,500
358,065;  397,023;   -0,722;    2,500
358,658;  251,054;   -0,540;    2,318
359,251;  222,241;   -1,631;   -0,591
359,844;  404,924;   -1,904;   -1,136
360,437;  464,721;   -2,995;    0,045
361,030;  311,059;    1,369;   -0,682
361,623;  320,080;    2,824;    0,318
362,215;  545,379;   -0,086;    2,045
362,808;  394,941;   -2,358;   -1,682
363,401;  324,876;   -2,449;    0,136
363,994;  539,033;   -0,631;   -1,500
364,586;  341,049;    0,824;   -1,500
365,179;  292,184;   -0,449;   -1,136
365,772;  158,180;   -1,995;    2,045
366,364;  311,484;    1,915;   -3,227
366,957;  369,182;    2,279;   -0,045
367,549;  310,696;    2,188;   -0,864
368,142;  325,449;    1,825;   -1,500
368,734;  289,046;    0,734;   -2,136
369,327;  216,450;    1,643;   -0,500
369,919;  265,181;   -1,538;    0,409
370,512;  280,601;   -1,083;   -0,500
371,104;  543,102;   -0,901;    1,591
371,696;  567,471;    1,191;   -0,955
372,289;  417,578;    0,373;    1,136
372,881;  367,644;   -2,080;    1,318
373,473;  261,400;   -2,170;    1,136
374,066;  351,307;   -0,169;    0,500
374,658;  329,890;    0,378;    1,136
375,250;  264,502;    0,653;   -1,409
375,842;  324,492;    0,473;   -0,045
376,434;  280,710;   -0,435;   -0,409
377,026;  263,102;    0,204;   -2,500
377,618;  319,070;   -0,158;   -0,682
378,210;  261,295;   -0,338;   -1,955
378,802;  256,695;    0,754;   -0,591
379,394;  637,716;    1,846;    0,682
379,986;  397,185;    1,393;   -0,955
380,578;  307,929;   -0,153;    0,773
381,170;  547,730;   -0,972;    0,045
381,762;  448,159;    0,755;    1,409
382,354;  395,001;   -0,065;   -1,318
382,945;  305,760;   -2,976;    0,318
383,537;  248,662;   -2,705;   -1,955
384,129;  238,451;   -2,160;   -1,136
384,721;  356,600;   -0,252;    0,955
385,312;  293,067;   -0,161;   -0,955
385,904;  382,078;   -2,706;    1,591
386,496;  316,898;   -0,979;    1,045
387,087;  452,556;    1,022;    2,500
387,679;  391,116;   -1,160;    0,045
388,270;  372,056;    2,840;    2,045
388,862;  345,008;    1,295;   -0,318
389,453;  335,709;   -0,887;    1,045
390,045;  337,071;   -0,705;   -2,682
390,636;  231,091;    0,204;   -0,591
391,227;  300,998;   -0,523;   -0,045
391,819;  275,406;    0,204;    0,773
392,410;  536,287;    1,022;    0,045
393,001;  338,110;   -0,979;   -1,591
393,593;  405,787;    1,930;   -0,045
394,184;  452,206;    1,385;   -0,409
394,775;  327,755;    1,839;    2,136
395,366;  255,569;    1,385;    0,773
395,957;  446,202;    0,113;    0,136
396,548;  335,179;   -0,342;    2,682
397,139;  458,165;   -2,433;    0,591
397,730;  373,199;   -1,888;    0,955
398,321;  380,353;   -1,252;    0,955
398,912;  312,648;   -0,615;    0,136
399,503;  311,098;   -3,524;   -1,409
400,094;  369,959;    0,294;    1,682
400,685;  357,980;   -0,433;    0,045
401,276;  300,141;    0,930;   -0,955
401,867;  278,645;   -0,888;    0,773
402,458;  239,407;   -2,251;   -2,318
403,048;  401,573;    1,112;    0,591
403,639;  344,582;    0,840;    0,864
404,230;  460,033;    2,476;    0,318
404,821;  518,280;   -0,615;    0,045
405,411;  415,692;    1,203;   -2,591
406,002;  319,397;   -1,252;   -1,136
406,592;  550,735;    2,294;    0,045
407,183;  399,005;    0,566;   -1,500
407,774;  377,970;    3,475;   -0,136
408,364;  338,127;    0,930;    0,409
408,954;  465,791;    0,384;    1,227
409,545;  463,965;    1,021;    1,045
410,135;  416,221;    1,293;    0,500
410,726;  364,262;    1,838;    0,318
411,316;  560,439;    0,111;    0,773
411,906;  382,225;   -0,253;   -0,409
412,497;  397,856;   -1,070;   -0,045
413,087;  336,318;   -1,980;   -0,227
413,677;  266,263;   -0,707;    3,864
414,267;  257,070;    0,656;    1,409
414,857;  231,267;   -2,980;    4,227
415,448;  240,423;    0,839;    0,500
416,038;  276,346;    0,020;   -0,591
416,628;  331,528;   -0,889;    0,409
417,218;  393,563;    0,565;    3,318
417,808;  553,579;    0,202;   -0,409
418,398;  409,492;    0,020;    2,682
418,988;  290,595;    2,020;    0,591
419,578;  396,096;   -0,707;    1,409
420,168;  330,139;   -1,343;   -0,955
420,757;  505,151;   -1,343;   -1,500
421,347;  377,835;    0,111;   -0,227
421,937;  339,009;    2,292;    1,409
422,527;  494,589;    0,838;   -0,773
423,116;  643,036;   -0,253;   -0,045
423,706;  326,887;   -1,889;    0,318
424,296;  280,700;    1,384;    0,682
424,885;  430,336;   -0,071;   -3,045
425,475;  402,194;    1,474;   -2,864
426,065;  275,644;   -0,980;   -0,318
426,654;  249,299;   -0,435;   -0,318
427,244;  562,114;    0,020;    1,409
427,833;  538,823;    1,383;   -0,500
428,423;  377,360;   -0,526;    1,136
429,012;  379,795;   -0,344;   -1,136
429,601;  524,559;   -1,344;    0,136
430,191;  407,674;    1,292;    4,318
430,780;  292,001;   -0,344;   -0,409
431,369;  514,744;    0,746;   -0,045
431,959;  385,121;   -1,254;    0,500
432,548;  307,494;   -1,163;   -0,045
433,137;  228,707;   -1,254;   -1,318
433,726;  327,865;    0,292;    0,500
434,315;  361,979;   -0,526;    2,409
434,905;  482,903;   -1,254;    1,409
435,494;  487,761;    0,746;    0,955
436,083;  323,514;   -0,981;   -0,955
436,672;  426,182;    0,110;    0,500
437,261;  365,875;    0,292;   -1,955
437,850;  646,666;    1,383;    0,682
438,439;  696,217;    3,291;    1,955
439,027;  809,783;    3,655;    1,773
439,616;  743,564;    2,927;    1,227
440,205;  483,968;    0,200;   -2,136
440,794;  416,668;    2,109;   -0,045
441,383;  323,642;   -1,346;   -0,591
441,971;  277,177;   -2,436;    0,591
442,560;  303,241;    0,563;   -1,773
443,149;  173,437;    0,379;   -1,318
443,737;  256,987;   -0,074;   -2,318
444,326;  288,067;    0,018;    0,318
444,915;  350,146;   -1,982;    0,864
445,503;  357,662;   -2,891;   -0,318
446,092;  661,683;    0,382;    2,136
446,680;  587,995;    0,382;    0,318
447,269;  478,927;   -0,346;   -0,318
447,857;  450,161;    0,018;   -1,773
448,445;  396,635;    0,563;    1,318
449,034;  323,802;   -1,528;   -1,136
449,622;  319,168;   -1,073;    3,500
450,210;  685,099;    2,017;    2,227
450,799;  582,118;    0,290;   -0,591
451,387;  513,594;    1,381;   -0,591
451,975;  489,293;    2,654;    0,864
452,563;  594,790;    3,472;    2,318
453,151;  364,139;   -0,528;   -1,227
453,739;  426,155;   -1,347;    0,136
454,328;  573,665;    2,381;   -2,136
454,916;  478,254;    2,562;   -0,136
455,504;  493,397;    1,017;    1,227
456,092;  351,909;    0,017;   -1,591
456,679;  293,280;    1,472;    0,682
457,267;  816,241;    4,017;    1,045
457,855;  417,454;    1,017;    1,409
458,443;  229,880;   -0,165;    1,682
459,031;  466,114;    0,108;    2,409
459,619;  405,079;   -1,801;    2,864
460,206;  278,103;    0,835;    2,045
460,794;  278,323;   -2,983;   -0,227
461,382;  351,039;   -0,529;   -0,864
461,970;  342,219;    1,198;    1,864
462,557;  241,578;   -0,711;   -0,682
463,145;  415,821;   -3,165;   -1,682
463,732;  718,269;    2,016;   -1,045
464,320;  422,878;   -0,075;   -3,045
464,907;  613,672;    2,743;   -0,773
465,495;  499,251;    0,743;   -1,227
466,082;  393,053;   -1,984;   -0,045
466,670;  415,336;   -2,529;    1,227
467,257;  271,544;   -1,711;    2,045
467,844;  419,114;   -0,075;    0,045
468,432;  385,580;    0,834;    3,500
469,019;  315,198;    0,925;   -1,773
469,606;  422,064;    0,470;    3,682
470,193;  465,249;   -1,439;    0,227
470,780;  414,081;   -2,075;    0,864
471,368;  312,674;   -1,257;   -0,773
471,955;  456,651;    1,379;   -0,682
472,542;  398,902;    0,652;   -1,136
473,129;  244,029;   -0,166;    0,136
473,716;  260,101;    1,470;    0,591
474,303;  307,015;    0,652;   -0,864
474,890;  312,049;   -1,439;   -0,500
475,477;  438,082;   -1,621;    0,409
476,064;  309,249;    1,106;   -1,591
476,650;  467,181;    0,288;    0,318
477,237;  357,908;   -0,258;    0,955
477,824;  331,379;   -1,076;    0,864
478,411;  206,096;   -1,894;   -0,318
478,997;  209,520;    0,560;   -0,773
479,584;  135,598;    1,196;   -0,409
480,171;  398,021;   -0,440;   -0,773
480,757;  480,820;    2,651;    0,773
481,344;  318,934;    0,469;    0,409
481,931;  196,873;    1,105;    1,045
482,517;  398,966;   -1,258;    0,318
483,104;  523,506;    1,106;    2,864
483,690;  361,787;   -1,804;    0,045
484,276;  323,845;   -0,895;    0,227
484,863;  639,175;    2,469;    1,136
485,449;  408,620;   -0,077;    0,318
486,035;  344,086;   -1,986;   -0,136
486,622;  498,576;   -0,895;    0,045
487,208;  368,067;    1,378;    1,500
487,794;  243,845;    0,741;    0,318
488,380;  240,593;    0,105;   -1,409
488,967;  266,968;   -1,168;   -0,409
489,553;  284,381;   -1,895;   -1,409
490,139;  406,386;    1,559;    0,773
490,725;  276,035;    0,741;   -0,227
491,311;  345,476;    3,287;    3,045
491,897;  295,120;   -0,986;    1,500
492,483;  290,142;    0,105;    1,227
493,069;  874,311;    3,923;    0,864
493,655;  493,090;    1,650;    0,682
494,241;  318,894;    1,377;   -0,955
494,826;  346,197;    0,287;   -1,045
495,412;  438,834;    2,559;   -0,682
495,998;  304,059;   -0,805;   -0,318
496,584;  389,208;    0,377;    1,045
497,169;  400,508;    1,014;   -0,682
497,755;  308,966;    0,650;    1,227
498,341;  529,597;    0,559;    0,318
498,926;  685,092;    1,832;    1,955
499,512;  326,573;    1,286;    2,955
500,097;  334,484;    0,195;   -0,318
500,683;  361,089;   -0,350;    2,136
501,268;  281,095;   -0,169;   -0,955
501,854;  313,762;   -0,169;    1,227
502,439;  286,654;   -0,624;   -1,773
503,024;  358,418;    0,195;    0,500
503,610;  400,230;   -0,078;   -0,682
504,195;  304,441;    0,558;    1,955
504,780;  431,105;    2,922;    1,227
505,366;  551,999;    3,013;    2,864
505,951;  444,628;    0,740;    1,045
506,536;  331,158;   -3,260;   -3,682
507,121;  416,764;    0,285;   -0,318
507,706;  339,317;    2,376;    1,045
508,291;  270,085;    2,649;    1,136
508,876;  276,957;   -0,988;    2,591
509,461;  356,266;   -0,169;   -0,773
510,046;  401,438;    0,194;    0,318
510,631;  404,848;   -0,351;   -0,773
511,216;  301,702;    2,467;   -0,500
511,801;  380,711;   -0,442;    2,591
512,386;  406,595;    0,740;    0,500
512,971;  417,214;   -2,988;    0,955
513,555;  484,800;   -0,897;   -1,500
514,140;  421,092;   -0,442;   -3,136
514,725;  554,357;   -0,715;   -1,136
515,309;  435,341;   -0,533;    0,318
515,894;  312,610;   -0,624;   -2,227
516,479;  359,546;   -0,624;   -0,955
517,063;  363,704;    0,376;    1,227
517,648;  300,805;    1,012;   -1,136
518,232;  273,389;   -0,261;   -1,409
518,817;  372,939;   -0,079;    1,682
519,401;  508,741;    2,194;    0,591
519,985;  464,901;    1,103;    1,136
520,570;  308,404;    0,830;   -1,955
521,154;  428,713;    2,102;    0,591
521,738;  617,514;   -2,352;    2,409
522,323;  424,970;   -0,170;    1,682
522,907;  410,505;    0,466;   -0,136
523,491;  314,058;    0,557;    0,955
524,075;  271,244;    2,284;    0,591
524,659;  482,473;    1,466;    0,591
525,243;  415,757;    1,739;    0,409
525,827;  357,519;    0,648;   -0,045
526,411;  361,382;   -1,989;   -0,136
526,995;  465,499;   -0,352;    1,409
527,579;  520,869;   -0,443;   -1,045
528,163;  450,548;    0,375;   -1,500
528,747;  551,626;    2,466;   -0,773
529,331;  483,522;   -0,080;   -1,409
529,915;  322,918;    1,738;    0,955
530,499;  417,462;   -0,807;    1,227
531,082;  580,954;   -0,534;    1,591
531,666;  650,526;    1,374;    0,773
532,250;  532,721;    1,284;    2,682
532,833;  636,876;    0,920;    2,773
533,417;  471,791;   -1,807;    0,864
534,001;  590,751;    1,647;   -0,318
534,584;  513,807;    0,374;    0,500
535,168;  339,892;    0,465;    1,409
535,751;  698,893;    0,647;    0,045
536,334;  442,462;   -0,898;   -0,409
536,918;  277,364;    0,011;    1,591
537,501;  292,674;   -0,899;    1,318
538,085;  337,419;   -0,444;    1,045
538,668;  419,969;    0,829;    2,409
539,251;  703,610;    1,829;    3,773
539,834;  409,781;    0,101;    0,773
540,418;  531,856;   -1,990;    4,318
541,001;  715,561;   -0,990;    1,773
541,584;  484,502;    2,101;    2,227
542,167;  589,503;    1,374;    2,955
542,750;  413,255;    1,919;   -0,773
543,333;  292,432;    0,555;    2,136
543,916;  516,102;    0,192;    2,500
544,499;  449,582;   -1,354;    0,227
545,082;  522,316;    1,374;    3,591
545,665;  432,751;    1,919;    1,500
546,248;  561,159;    1,010;   -0,318
546,830;  534,418;   -0,445;    1,955
547,413;  494,205;    1,010;   -0,773
547,996;  457,602;    0,555;    0,500
548,579;  426,373;    0,919;    0,955
549,161;  653,380;    1,828;    2,682
549,744;  532,060;   -0,809;    0,409
550,326;  382,247;   -0,809;   -1,136
550,909;  850,192;    2,737;    0,591
551,492;  503,231;   -0,263;    0,227
552,074;  630,395;   -0,173;   -1,318
552,657;  654,034;    2,373;    0,045
553,239;  520,865;   -0,173;   -0,773
553,821;  391,721;   -1,082;    1,045
554,404;  642,121;    1,282;    1,136
554,986;  752,334;    0,464;    1,045
555,568;  587,075;    1,191;   -0,955
556,151;  796,897;    1,191;   -0,227
556,733;  472,503;   -0,264;   -0,864
557,315;  491,769;    0,100;    0,500
557,897;  372,121;    0,554;   -0,500
558,479;  376,945;   -1,991;    1,318
559,061;  470,479;   -0,719;   -0,864
559,643;  519,168;   -0,264;    0,045
560,225;  566,536;    1,645;    2,864
560,807;  403,532;    0,918;    0,318
561,389;  384,274;    0,554;    2,318
561,971;  472,919;    0,463;    2,136
562,553;  389,300;   -1,628;    1,591
563,135;  486,112;   -0,537;    1,136
563,717;  866,472;    3,372;    1,136
564,298;  760,135;    3,645;   -0,045
564,880;  522,974;    0,645;   -1,409
565,462;  353,702;    0,645;    1,318
566,043;  476,798;   -0,446;    2,318
566,625;  791,432;    1,918;    1,227
567,207;  606,661;    1,099;    1,682
567,788;  460,856;   -1,264;    1,500
568,370;  455,375;    1,917;   -0,500
568,951;  457,328;    0,190;    0,227
569,533;  560,412;   -0,628;   -0,500
570,114;  576,641;   -0,446;    0,682
570,695;  605,197;   -0,174;   -1,318
571,277;  588,774;   -0,265;   -1,682
571,858;  793,567;    2,008;   -1,136
572,439;  633,169;    1,554;   -1,045
573,021;  664,945;    2,099;   -2,773
573,602;  783,274;   -1,265;    0,318
574,183;  731,126;   -2,083;    2,227
574,764;  663,481;   -1,629;    0,409
575,345;  867,964;    0,917;   -0,136
575,926;  680,535;   -0,356;    0,136
576,507;  766,181;    1,099;   -0,227
577,088;  727,726;    3,099;    1,682
577,669;  918,229;    0,735;    1,955
578,250; 1099,762;    0,644;   -1,045
578,831;  875,760;   -1,356;   -2,227
579,412;  853,779;   -0,810;    0,955
579,993;  834,968;    1,008;    0,227
580,573;  754,153;   -0,629;   -0,955
581,154;  892,142;    0,735;   -0,591
581,735;  900,316;    0,644;    0,773
582,315; 1049,680;   -0,629;    2,136
582,896;  837,208;   -0,174;    1,227
583,477;  680,453;    0,189;    1,227
584,057;  828,694;    0,553;    0,955
584,638;  953,786;    2,553;    2,318
585,218; 1197,962;   -0,538;    2,682
585,799;  998,487;    0,281;   -0,227
586,379;  861,998;    0,372;    1,591
586,959;  830,128;    0,735;    0,318
587,540;  735,022;   -0,629;    2,227
588,120;  757,733;    1,007;   -0,045
588,700;  766,946;    2,553;    2,136
589,281;  946,879;    0,462;   -0,955
589,861;  803,168;    0,099;   -1,682
590,441;  661,975;    2,371;   -2,682
591,021;  758,783;   -0,265;   -2,591
591,601;  711,344;   -0,537;    0,500
592,181;  693,698;   -0,719;   -0,773
592,761;  595,419;    0,007;    1,409
593,341;  709,215;   -0,901;    0,045
593,921;  720,179;   -0,265;    1,591
594,501;  615,765;   -0,538;    1,318
595,081;  623,266;    0,917;   -0,318
595,661;  695,203;   -1,447;    0,955
596,240;  626,436;   -0,537;    0,136
596,820; 1056,569;    0,372;    1,955
597,400;  764,196;    2,008;    0,773
597,980;  654,325;    2,008;    1,045
598,559;  601,370;    2,735;   -0,227
599,139;  578,658;   -0,174;   -1,227
599,718;  579,840;   -0,174;   -0,409
600,298;  566,280;    0,735;    0,682
600,877; 1079,424;    2,917;    1,409
601,457;  770,648;    2,281;    1,136
602,036;  643,251;    0,190;    2,045
602,616;  697,959;    0,644;    1,682
603,195;  823,918;   -0,355;    3,500
603,774;  887,114;   -0,901;    2,045
604,354;  819,755;    0,826;   -0,500
604,933;  750,518;    0,463;    1,864
605,512;  846,126;    3,554;    0,591
606,091;  843,898;   -0,537;    3,773
606,671;  790,922;    0,281;    0,773
607,250;  971,018;    1,644;    3,136
607,829;  909,049;    2,372;    3,227
608,408;  740,438;    1,190;    2,591
608,987;  865,902;    1,281;    3,409
609,566;  676,569;   -1,265;   -2,500
610,145;  787,184;   -1,082;    0,682
610,723;  821,559;    4,372;    6,864
611,302;  730,606;   -0,446;    1,682
611,881; 1030,899;    5,008;   11,227
612,460;  727,634;    1,645;    3,955
613,039;  610,127;   -0,082;    2,045
613,617;  595,969;    1,736;    4,773
614,196;  618,998;    1,099;    1,227
614,775;  689,576;    1,009;    2,409
615,353;  748,001;    0,736;    0,864
615,932;  710,735;    0,100;    2,409
616,510;  689,937;    0,554;    0,591
617,089; 1220,560;    7,100;   17,591
617,667;  808,828;    2,372;    6,136
618,246;  568,707;   -1,537;    1,318
618,824;  642,080;   -3,355;   -0,955
619,402;  664,446;   -2,900;   -1,773
619,981;  732,685;   -0,173;   -1,045
620,559;  632,479;    0,009;    1,682
621,137;  646,584;   -0,718;    1,864
621,715;  556,505;   -1,173;   -0,682
622,293;  582,035;   -0,537;   -0,773
622,871;  591,951;   -0,718;    0,500
623,450;  536,527;    0,373;   -0,864
624,028;  730,840;    0,191;   -0,955
624,606;  697,722;   -1,718;    1,682
625,183;  511,502;   -1,536;   -1,136
625,761;  651,227;    1,009;    1,136
626,339;  945,188;    1,373;    2,591
626,917;  585,081;   -0,172;   -0,045
627,495;  534,544;   -0,354;    1,318
628,073;  671,778;   -0,263;    2,864
628,650;  693,659;    0,100;    2,136
629,228;  688,153;    0,373;    4,409
629,806;  489,027;    2,282;    1,136
630,383;  548,436;    1,464;   -0,318
630,961;  561,665;    2,555;   -0,955
631,539;  604,885;    2,464;    0,227
632,116; 1329,210;   11,373;   15,409
632,694;  929,896;    2,555;    6,500
633,271;  761,177;    0,828;    2,682
633,848;  867,486;    1,828;    2,045
634,426;  595,331;   -1,081;    1,773
635,003;  460,236;    1,101;   -0,409
635,580;  879,771;    1,192;    3,682
636,158;  747,298;    3,737;    1,227
636,735;  556,269;    0,555;   -0,500
637,312;  544,862;   -0,809;   -0,682
637,889;  557,590;   -4,354;   -0,682
638,466;  530,755;   -3,990;   -0,409
639,043;  581,044;    2,101;   -1,136
639,620;  496,495;   -2,262;   -0,955
640,197;  630,110;    1,100;    1,682
640,774;  451,662;   -0,172;    1,136
641,351;  531,577;    0,737;    1,136
641,928;  735,857;   -0,627;    1,409
642,505;  847,863;    0,828;   -0,500
643,082;  660,415;   -1,718;    1,227
643,658;  521,785;   -0,718;    1,500
644,235;  508,065;    1,191;    2,500
644,812;  704,526;    1,918;    0,773
645,388;  685,350;   -0,991;    1,409
645,965;  468,266;   -0,809;    1,682
646,542;  483,545;   -1,445;   -0,227
647,118;  868,007;    1,009;   -0,955
647,695;  647,286;   -0,263;    1,136
648,271;  459,656;   -0,536;    0,500
648,848;  637,935;    0,736;    2,227
649,424;  766,760;    0,827;    1,318
650,000;  583,403;   -0,354;   -1,045
650,577;  609,500;   -0,627;   -0,955
651,153;  606,598;   -1,809;    0,955
651,729;  560,695;    1,191;    0,864
652,305;  925,975;    0,645;    2,773
652,881;  886,345;   -0,082;    1,136
653,458; 1015,351;    1,100;    0,227
654,034; 1114,631;    0,282;    1,591
654,610; 1259,455;    0,554;    0,773
655,186; 1784,826;    0,645;    3,045
655,762; 1305,650;   -0,991;    0,409
656,338; 1268,839;    0,100;    0,136
656,913; 1350,118;   -0,082;    0,409
657,489; 1124,397;    0,827;   -0,318
658,065; 1242,586;   -0,173;   -1,591
658,641; 1272,229;   -0,900;   -0,864
659,217; 1187,690;   -0,991;    0,409
659,792; 1342,151;    0,645;   -0,409
660,368; 1138,248;   -2,173;   -0,682
660,944; 1174,255;   -2,082;    1,227
661,519; 1072,443;   -0,628;    0,409
662,095;  771,995;   -1,719;    0,591
662,670;  598,365;    1,281;   -0,136
663,246;  510,826;    1,009;   -0,409
663,821;  695,015;    0,281;    1,682
664,396;  640,294;    0,009;    1,864
664,972;  550,301;    0,009;   -0,500
665,547;  608,853;    1,372;    0,136
666,122;  583,859;   -1,082;    0,318
666,698;  779,048;   -0,173;    0,318
667,273;  546,963;   -0,173;    0,136
667,848;  586,061;    2,372;    1,500
668,423;  767,249;    2,190;    2,318
668,998;  606,801;    2,827;   -0,682
669,573;  561,535;   -3,264;   -1,500
670,148;  749,542;   -1,446;   -0,682
670,723;  527,821;   -1,810;    0,318
671,298;  826,191;    2,372;    1,045
671,873;  726,925;   -0,082;   -0,136
672,448;  710,659;    0,645;    0,136
673,023;  697,302;   -1,992;   -0,227
673,597;  805,763;    0,827;    2,318
674,172;  852,678;   -0,355;    0,318
674,747;  760,594;    0,372;   -1,045
675,321;  509,873;   -0,628;    3,318
675,896;  456,243;    0,645;    1,045
676,471;  685,795;    2,645;    1,591
677,045;  604,620;   -1,264;    0,682
677,620;  703,081;    0,190;    1,136
678,194;  528,270;   -2,628;    1,136
678,769;  615,185;   -1,083;   -0,318
679,343;  661,374;   -0,628;    1,773
679,917;  794,017;   -1,446;    1,955
680,492;  636,478;    0,826;    3,227
681,066;  674,212;    3,372;    0,409
681,640;  601,764;    1,463;   -0,318
682,214;  620,134;    0,735;    0,500
682,788;  620,231;   -1,356;   -0,773
683,363;  774,420;   -1,810;    1,682
683,937;  634,881;   -1,719;   -0,318
684,511;  662,251;    0,463;   -0,591
685,085;  678,076;   -1,356;    0,318
685,659;  588,264;   -2,538;    0,864
686,232;  840,271;   -0,356;   -0,318
686,806;  704,459;   -0,901;    0,409
687,380;  583,829;   -0,174;    0,591
687,954;  521,836;   -1,174;    1,136
688,528;  860,751;   -0,719;    1,955
689,101;  679,303;   -3,992;    1,045
689,675;  570,310;   -0,356;   -0,136
690,249;  841,044;   -0,719;    0,409
690,822;  825,868;    0,280;    0,318
691,396;  703,875;   -0,265;    1,227
691,969;  626,973;    1,280;    0,136
692,543;  516,161;   -0,447;   -1,955
693,116;  495,077;   -0,265;   -1,409
693,690;  598,538;    0,099;    0,500
694,263;  526,817;   -1,083;    2,955
694,836;  902,005;    1,371;    3,591
695,410;  787,194;   -0,265;    1,773
695,983;  802,655;    0,189;    0,591
696,556;  588,025;   -0,447;   -1,045
697,129;  498,668;   -0,356;    1,409
697,703;  732,129;   -1,629;    1,955
698,276;  626,954;    1,462;   -0,773
698,849;  785,506;    1,280;    1,409
699,422;  550,149;   -1,083;    0,591
699,995;  450,155;    0,007;    0,136
700,568;  593,798;   -0,629;    3,045
701,140;  612,714;   -2,811;    1,682
701,713;  786,266;   -0,174;    2,409
702,286;  674,272;   -0,538;    0,864
702,859;  755,370;   -0,902;   -0,591
703,432;  842,558;    0,825;    0,682
704,004;  712,201;    0,462;    0,318
704,577;  583,299;   -0,629;    0,136
705,150;  633,487;    0,189;    2,500
705,722;  698,221;   -0,356;   -3,227
706,295;  765,409;   -0,175;   -0,591
706,867;  637,961;   -0,175;    1,955
707,440;  735,422;   -1,720;   -0,409
708,012;  815,520;    0,462;    0,591
708,584;  724,708;    2,462;    0,227
709,157;  489,987;    1,825;   -0,591
709,729;  734,539;    2,280;    2,045
710,301;  587,910;    0,734;    0,045
710,874;  601,734;   -1,447;   -0,227
711,446;  489,286;    0,371;    0,864
712,018;  562,747;    0,098;    0,500
712,590;  511,754;   -1,993;    1,682
713,162;  796,124;    0,825;    1,318
713,734;  578,313;    1,825;   -2,045
714,306;  483,774;   -1,902;   -0,409
714,878;  553,508;    0,825;    0,864
715,450;  505,787;    0,643;    0,864
716,022;  514,702;    1,552;    1,318
716,593;  506,345;    0,189;    0,591
717,165;  553,806;   -3,175;   -1,227
717,737;  818,268;    0,280;    0,409
718,309;  588,365;    0,280;   -0,045
718,880;  514,099;   -0,539;   -1,409
719,452;  582,924;   -0,175;   -1,591
720,024;  686,203;    0,734;   -0,591
720,595;  579,391;   -2,902;    0,955
721,167;  566,034;    0,370;   -2,045
721,738;  693,132;   -0,812;   -1,045
722,309;  847,684;   -0,993;   -1,227
722,881;  579,418;   -1,357;    0,773
723,452;  649,788;   -2,630;    2,864
724,023;  658,794;   -0,721;    2,682
724,595;  728,074;    0,007;    0,682
725,166;  596,626;    0,007;   -0,409
725,737;  798,268;    1,734;    0,227
726,308;  581,730;   -0,266;    0,318
726,879;  488,736;   -1,630;    1,227
727,450;  664,106;    0,552;   -0,045
728,021;  600,204;    3,097;    0,682
728,592;  770,665;    0,734;    0,500
729,163;  856,399;    0,643;   -0,136
729,734;  837,860;    0,188;   -0,227
730,305;  689,139;    1,734;    0,136
730,876;  648,418;    0,188;    2,955
731,447;  979,789;    2,188;    2,682
732,017;  879,341;    1,097;    1,864
732,588;  668,802;    0,734;    1,227
733,159;  935,536;    0,643;   -1,045
733,729;  662,178;    0,006;    0,409
734,300;  825,640;    0,915;    0,864
734,870;  638,646;    3,461;    0,591
735,441;  623,289;    0,370;   -0,591
736,011;  604,205;    0,643;   -1,591
736,582;  613,939;   -0,812;    0,045
737,152;  748,309;   -1,721;   -2,045
737,722;  708,679;   -0,267;   -0,682
738,293;  559,867;   -1,358;    1,318
738,863;  751,056;    2,461;    2,318
739,433; 1012,335;    5,279;    0,318
740,003;  718,614;   -0,994;   -0,682
740,573;  855,257;    2,097;   -1,591
741,143;  718,536;   -1,085;    0,318
741,713;  623,907;    1,188;   -0,500
742,283;  686,731;    0,915;    1,591
742,853;  621,829;    1,915;    1,591
743,423;  448,654;    1,733;    0,045
743,993;  565,296;   -0,358;    1,500
744,563;  621,303;    0,097;   -0,864
745,133;  650,946;   -0,812;   -0,864
745,702;  518,589;   -0,267;    1,773
746,272;  740,232;   -0,176;    0,591
746,842;  761,693;   -1,358;   -0,591
747,411;  545,518;   -0,267;   -0,318
747,981;  442,888;    0,097;    0,500
748,551;  441,167;    2,278;   -1,045
749,120;  646,446;    0,642;   -0,227
749,690;  589,908;   -0,631;    2,409
750,259;  701,460;    1,369;    2,955
750,828;  763,739;    1,551;   -1,955
751,398;  519,564;    1,278;   -0,045
751,967; 1009,479;    2,187;    0,409
752,536;  652,486;   -0,813;   -0,227
753,105;  766,310;    0,096;    0,227
753,675;  600,953;    0,096;    1,773
754,244;  616,233;   -0,904;    3,591
754,813;  649,239;    0,551;    1,227
755,382;  610,700;    0,460;    0,955
755,951;  744,889;    1,551;    3,682
756,520;  854,350;   -0,085;    1,864
757,089;  963,993;    0,278;    0,500
757,658;  696,545;    1,733;    1,227
758,227;  527,188;    1,096;    0,318
758,795;  585,194;    1,187;    1,136
759,364;  578,928;   -0,086;   -0,591
759,933;  532,571;   -1,176;   -0,045
760,501;  469,850;    0,733;   -1,318
761,070;  635,948;   -2,813;   -1,409
761,639;  579,136;   -1,904;    1,318
762,207;  715,234;    1,551;   -0,955
762,776;  760,786;    0,369;    0,864
763,344;  611,792;   -0,995;    0,591
763,913;  421,526;   -0,722;    1,409
764,481;  949,442;    1,005;   -0,136
765,049;  944,357;   -1,358;    1,409
765,618;  864,364;   -0,086;    0,318
766,186;  669,370;    0,278;    0,136
766,754;  721,195;    0,005;    1,864
767,322;  605,202;   -1,995;    0,409
767,890;  552,481;   -0,722;   -1,773
768,459;  553,669;   -2,177;   -0,318
769,027;  778,858;    1,641;    3,409
769,595;  595,137;    3,278;    2,591
770,163;  693,053;    3,823;    2,955
770,730;  661,877;    0,732;   -0,136
771,298;  651,338;    0,187;   -1,409
771,866;  568,891;   -1,541;    4,955
772,434;  607,897;   -0,631;   -1,864
773,002;  812,176;    0,005;    0,682
773,569;  681,183;    0,914;    1,682
774,137;  802,099;   -0,268;   -0,045
774,705;  582,014;    0,278;   -0,136
775,272;  560,839;    0,641;    0,682
775,840;  578,845;   -0,177;    2,682
776,407;  703,488;    0,277;    1,955
776,975;  581,313;   -0,632;    0,318
777,542;  510,956;   -1,086;   -0,045
778,110;  545,508;   -1,268;   -0,045
778,677;  430,787;   -2,359;   -0,864
779,244;  503,521;    2,186;    1,045
779,812;  654,891;    1,823;    0,864
780,379;  753,989;    0,005;    1,136
780,946;  621,086;    1,005;   -0,773
781,513;  520,275;   -1,450;    0,318
782,080;  498,190;   -0,086;    2,864
782,647;  525,651;   -0,268;    3,045
783,214;  505,931;   -0,177;    3,864
783,781;  720,301;   -0,723;   -0,682
784,348;  656,671;   -0,632;    1,500
784,915;  437,314;   -3,177;    0,318
785,482;  672,502;    1,368;    2,591
786,049;  593,873;    0,186;   -0,591
786,615;  472,697;    0,277;   -0,955
787,182;  435,795;    0,186;   -0,682
787,749;  405,165;   -2,814;    1,409
788,315;  643,172;   -1,632;   -0,409
788,882;  515,996;    1,550;   -1,227
789,448;  820,548;    1,732;   -0,955
790,015;  581,737;    1,095;    3,227
790,581;  765,652;    1,459;    0,227
791,148;  582,932;    0,641;    1,045
791,714;  470,029;   -0,541;    3,136
792,280;  481,945;    0,186;    1,591
792,847;  421,679;    0,550;    2,500
793,413;  505,503;   -0,269;   -0,318
793,979;  730,146;    3,459;   -1,318
794,545; 1012,153;    4,459;    2,682
795,111;  894,341;    2,186;    1,318
795,678;  741,893;    0,731;   -1,682
796,244;  898,354;    3,368;    0,136
796,810;  742,634;    1,731;    0,773
797,375;  739,095;    0,549;   -2,136
797,941;  420,828;   -0,541;    0,591
798,507;  423,199;   -0,451;   -0,955
799,073;  468,023;   -0,360;    0,591
799,639;  461,212;   -2,632;    3,136
800,205;  420,855;    0,095;    2,682
800,770;  453,407;    0,640;    1,773
801,336;  473,413;    1,368;   -0,955
801,901; 1066,329;    4,549;    3,136
802,467;  716,063;   -0,542;    2,045
803,033;  496,069;   -0,087;    0,864
803,598;  491,621;    1,913;   -1,045
804,163;  500,628;    1,095;   -0,318
804,729;  606,725;   -0,178;    1,136
805,294;  498,096;    0,822;    2,227
805,859;  448,375;    0,731;   -0,409
806,425;  832,109;    1,186;    2,682
806,990;  802,661;    2,186;    4,318
807,555;  559,304;   -1,451;    2,591
808,120;  713,674;    0,822;   -0,409
808,685;  502,771;    0,185;   -2,500
809,250;  418,869;    0,004;   -0,500
809,815;  406,512;    1,913;    0,682
810,380;  535,973;   -0,269;    1,591
810,945;  712,797;   -1,087;    2,045
811,510;  541,259;    2,094;    1,591
812,075;  598,992;   -0,633;   -1,409
812,640;  837,272;    2,003;    1,409
813,204;  588,006;    0,822;   -0,227
813,769;  721,558;    2,094;   -0,045
814,334;  723,928;    0,458;    0,864
814,898;  442,025;    0,367;    0,591
815,463;  561,941;    1,276;   -0,773
816,027;  497,402;   -0,724;   -2,318
816,592;  415,409;    0,640;   -2,045
817,156;  598,597;    2,094;    1,136
817,721;  722,603;    4,276;    2,318
818,285;  449,974;    2,912;    1,500
818,849;  514,253;   -1,451;    1,682
819,414;  441,078;   -0,269;    2,955
819,978;  388,721;   -1,269;    1,773
820,542;  670,545;    2,003;    0,500
821,106;  498,006;   -0,815;    0,682
821,670;  719,558;   -0,815;    2,591
822,234;  496,474;   -0,270;    1,409
822,798;  396,572;    0,003;    0,500
823,362;  635,124;   -0,633;    4,227
823,926;  489,585;    0,094;    1,136
824,490;  671,137;   -0,997;   -0,682
825,054;  539,052;   -0,088;   -1,136
825,618;  435,332;   -1,542;   -1,500
826,181;  496,884;    0,458;   -1,318
826,745;  610,981;    1,367;   -1,045
827,309;  819,079;    1,185;    1,318
827,872;  691,994;    1,367;    0,955
828,436;  569,819;    1,185;   -0,773
828,999;  465,371;   -0,997;    1,227
829,563;  443,923;   -0,179;    1,136
830,126;  425,566;   -0,179;   -0,591
830,690;  537,663;   -1,997;    2,864
831,253;  452,579;   -0,543;    2,227
831,816;  502,858;   -1,906;    0,500
832,380;  457,047;    0,185;    0,864
832,943;  428,417;   -1,361;   -0,500
833,506;  451,151;    2,639;   -1,227
834,069;  592,612;    3,912;   -0,955
834,632;  431,709;    1,730;    1,318
835,195;  480,807;    1,003;    0,955
835,758;  419,722;   -0,997;    1,955
836,321;  444,183;    0,730;   -1,045
836,884;  407,917;   -0,725;   -0,955
837,447;  350,651;   -2,816;    1,773
838,010;  533,567;    0,366;    3,227
838,573;  535,755;   -1,179;    0,773
839,135;  390,944;   -1,361;   -0,955
839,698;  467,132;    1,275;    0,409
840,261;  416,229;    1,003;   -0,227
840,823;  371,145;   -0,543;    0,864
841,386;  352,242;   -0,452;   -2,409
841,948;  653,340;   -1,361;    1,773
842,511;  447,256;    0,912;    1,682
843,073;  636,989;    1,912;    0,227
843,636;  395,996;   -0,361;   -0,227
844,198;  618,548;    0,911;    0,591
844,760;  571,918;    1,093;    1,955
845,322;  372,107;    0,548;    1,136
845,885;  519,749;    0,730;    0,591
846,447;  446,847;   -1,998;    0,227
847,009;  788,581;    1,911;   -0,682
847,571;  497,315;    0,820;   -2,045
848,133;  439,503;   -1,089;   -1,864
848,695;  307,691;   -0,543;    1,409
849,257;  395,062;   -1,089;   -1,682
849,819;  534,795;   -0,998;   -0,409
850,381;  404,166;   -0,725;   -0,864
850,942;  473,990;    1,093;   -0,591
851,504;  556,088;    1,184;    0,227
852,066;  406,367;    1,275;   -1,591
852,628;  436,555;   -0,180;    1,955
853,189;  344,835;    1,638;    2,682
853,751;  359,569;   -0,907;    1,409
854,312;  505,575;   -0,453;   -1,682
854,874;  642,127;   -2,089;   -0,773
855,435;  457,406;   -0,907;   -1,682
855,997;  494,322;   -1,816;   -0,136
856,558;  619,329;    0,366;    1,773
857,119;  524,517;    0,820;    2,864
857,681;  353,433;    0,002;    0,318
858,242;  621,166;    1,911;   -2,136
858,803;  578,082;    0,456;   -0,773
859,364;  449,907;    0,184;   -4,773
859,925;  538,095;   -2,453;   -0,955
860,486;  419,102;   -0,453;   -0,955
861,047;  359,836;   -0,544;   -1,227
861,608;  408,842;   -1,089;   -0,773
862,169;  271,394;    0,638;   -0,045
862,730;  405,037;    0,456;    1,409
863,291;  443,771;   -0,635;   -0,500
863,852;  419,777;   -0,635;    1,955
864,412;  421,057;   -0,271;   -0,864
864,973;  661,154;   -0,089;    0,500
865,534;  764,797;   -1,726;    0,227
866,094;  554,258;    1,820;    0,227
866,655;  683,356;    1,274;    3,318
867,215;  505,453;    0,274;    0,136
867,776;  349,732;    0,547;   -0,136
868,336;  441,103;   -1,453;    0,136
868,897;  813,564;    2,638;    1,682
869,457;  604,843;    1,365;    0,318
870,017;  392,486;    0,547;   -1,227
870,578;  381,947;   -0,817;    0,773
871,138;  482,317;   -2,089;   -0,955
871,698;  396,233;   -0,817;   -1,318
872,258;  514,239;   -0,453;   -2,864
872,818;  656,428;    2,729;    0,045
873,378;  475,162;    0,638;    1,045
873,938;  455,623;    0,547;    0,500
874,498;  356,720;    0,274;   -1,955
875,058;  466,363;    2,183;    1,773
875,618;  462,097;    1,910;   -2,682
876,177;  498,285;    1,274;    0,136
876,737;  342,928;   -0,090;    1,955
877,297;  700,298;    0,183;    1,955
877,856;  621,578;   -0,362;    0,318
878,416;  396,312;    1,183;   -0,136
878,976;  357,409;   -1,817;    0,409
879,535;  394,507;    0,092;    3,136
880,095;  384,877;   -0,544;    0,045
880,654;  334,338;   -1,090;    1,318
881,213;  628,163;    2,456;    1,500
881,773;  476,169;    2,637;    2,682
882,332;  941,358;    3,365;    5,136
882,891;  456,455;    3,092;    2,136
883,451;  442,552;   -1,272;    1,682
884,010;  403,832;   -2,908;   -0,409
884,569;  342,202;   -0,999;   -0,045
885,128;  518,936;    2,819;   -1,864
885,687;  748,215;    4,455;    0,682
886,246;  918,585;    1,455;    2,136
886,805;  734,501;    2,455;    2,045
887,364;  398,689;   -0,999;   -0,500
887,922;  326,969;   -1,181;    0,045
888,481;  524,248;   -1,545;    0,591
889,040;  585,709;    1,183;    2,136
889,599;  464,352;    2,455;    1,409
890,157;  461,086;    1,455;    2,409
890,716;  401,001;   -0,090;    0,227
891,274;  520,372;    0,092;   -1,136
891,833;  574,742;    1,546;    0,864
892,391;  469,930;   -0,454;    0,500
892,950;  557,300;    1,819;   -0,773
893,508;  366,125;    0,455;   -0,409
894,067;  294,768;    0,637;    0,136
894,625;  395,865;   -0,636;   -1,500
895,183;  358,872;   -0,363;   -0,682
895,741;  624,333;    1,728;   -1,773
896,299;  427,612;   -0,545;   -2,409
896,858;  379,983;    0,819;   -1,591
897,416;  509,535;    2,728;   -1,318
897,974;  429,359;    1,819;    0,318
898,532;  854,820;    6,091;    2,682
899,089;  576,009;    2,091;   -0,682
899,647;  473,015;   -1,454;    1,318
900,205;  472,204;    1,182;    1,045
900,763;  460,847;   -0,454;    0,227
901,321;  414,490;    2,364;   -1,409
901,878;  256,951;   -1,000;   -0,773
902,436;  348,684;   -1,363;    1,318
902,994; 1005,418;    4,728;    3,682
903,551;  583,334;    0,728;    0,409
904,109;  450,250;    0,182;   -1,409
904,666;  418,802;    2,455;    1,045
905,224;  303,899;    0,182;   -0,409
905,781;  475,178;    0,727;   -0,318
906,338;  414,276;   -1,363;    1,045
906,895;  315,101;    0,637;    2,045
907,453;  568,107;    1,727;    1,136
908,010;  426,841;   -0,909;    0,409
908,567;  420,757;    1,273;    0,591
909,124;  274,763;    0,364;   -1,500
909,681;  341,042;   -2,909;    0,682
910,238;  365,322;    0,636;   -1,318
910,795;  277,146;   -0,273;   -1,136
911,352;  297,874;   -2,909;   -2,682
911,909;  339,692;   -1,364;   -0,864
912,466;  336,328;   -3,182;    1,500
913,022;  444,237;   -1,636;    0,500
913,579;  509,510;   -0,909;    2,045
914,136;  392,419;    1,636;    0,955
914,692;  390,056;    0,091;   -1,227
915,249;  423,601;    1,455;    0,409
915,806;  479,237;    0,182;    1,955
916,362;  388,874;    1,909;    1,864
916,918;  377,510;    2,000;    1,045
917,475;  487,965;   -1,182;    0,955
918,031;  335,965;    3,364;   -0,045
918,587;  409,965;   -0,909;   -0,318
919,144;  327,146;   -2,273;    0,227
919,700;  258,874;    1,727;    0,773
920,256;  264,874;    0,727;    0,045
920,812;  327,692;   -0,727;   -1,045
921,368;  293,328;   -1,727;   -1,045
921,924;  316,601;    0,182;   -0,136
922,480;  403,510;   -0,545;    1,227
923,036;  409,510;    1,273;    1,955
923,592;  314,510;    0,455;    0,318
924,148;  319,601;    0,455;   -0,955
924,704;  456,328;   -1,364;   -0,409
925,259;  291,510;   -0,273;    0,591
925,815;  292,237;    1,455;    0,500
926,371;  272,510;    2,909;    1,409
926,926;  417,056;    2,091;    0,591
927,482;  391,146;   -1,364;    0,773
928,037;  319,056;    0,909;    2,045
928,593;  484,601;    1,636;    1,045
929,148;  287,874;   -1,818;   -1,500
929,704;  361,419;   -1,455;   -0,500
930,259;  297,692;    0,091;   -0,136
930,814;  454,783;   -0,818;    1,955
931,369;  398,419;    1,091;   -0,773
931,925;  253,419;   -0,091;    0,136
932,480;  343,510;   -2,818;   -2,591
933,035;  633,601;    0,545;   -0,318
933,590;  541,783;    0,364;   -1,773
934,145;  257,965;   -1,364;   -0,318
934,700;  175,419;    0,455;   -0,591
935,255;  229,601;   -0,091;    0,045
935,809;  508,237;    3,182;    0,864
936,364;  235,328;   -0,455;   -0,136
936,919;  228,965;    0,455;   -1,773
937,474;  174,783;    1,455;    0,136
938,028;  185,510;   -1,636;    1,136
938,583;  512,783;    1,818;    4,682
939,138;  257,146;    2,091;    2,136
939,692;  159,692;    1,636;   -1,136
940,247;  199,237;   -0,727;   -1,045
940,801;  225,146;   -0,636;    0,227
941,355;  161,965;   -0,364;    2,591
941,910;  113,783;   -0,273;   -2,136
942,464;  143,419;   -0,818;   -0,318
943,018;  309,874;    1,000;   -0,227
943,572;  197,874;    2,545;   -0,682
944,126;  254,146;    0,091;   -0,409
944,681;  170,692;    3,091;    0,227
945,235;  126,328;    1,000;   -0,591
945,789;  108,328;    0,364;   -1,864
946,342;  289,419;    0,455;   -0,591
946,896;  143,601;   -2,273;    0,955
947,450;  122,692;    1,545;   -0,227
948,004;  283,965;    1,727;   -0,045
948,558;  174,056;    0,273;   -0,864
949,111;  166,783;   -0,273;   -0,318
949,665;  279,146;    1,636;   -0,682
950,219;  261,146;   -0,091;   -1,045
950,772;  203,692;   -1,909;    1,864
951,326;  194,510;    0,545;   -0,955
951,879;  156,146;    0,727;   -2,318
952,433;  248,146;    0,000;    2,227
952,986;  148,783;    2,909;    0,682
953,539;  127,601;   -0,273;    0,591
954,093;   94,692;    0,545;   -1,318
954,646;  163,056;    0,909;    1,318
955,199;  113,601;    0,000;   -0,500
955,752;  276,965;   -0,455;    1,773
956,305;  167,419;   -0,091;    2,955
956,858;  199,965;    0,818;   -0,318
957,411;  230,874;   -0,545;    2,136
957,964;  187,056;    1,364;    2,136
958,517;  135,510;   -1,545;    3,136
959,070;   98,783;   -0,455;    1,955
959,623;  273,874;    1,091;    1,500
960,176;  246,237;    1,727;    2,045
960,728;  208,692;   -2,727;    0,773
961,281;  164,692;    0,545;    0,500
961,834;  125,510;   -0,909;    0,864
962,386;  135,328;    1,727;    1,045
962,939;  121,419;    0,364;   -0,318
963,491;  147,965;    0,455;    1,136
964,043;  107,056;    1,182;    2,409
964,596;  212,692;   -1,000;    2,227
965,148;  154,510;   -1,000;    1,773
965,700;  109,056;    1,091;   -0,227
966,253;  215,237;   -0,636;    0,318
966,805;  180,874;   -2,273;    0,773
967,357;  137,510;    1,091;   -1,500
967,909;  208,783;    0,455;   -1,227
968,461;  143,056;    0,545;    3,136
969,013;  110,146;   -0,182;   -0,864
969,565;  212,237;   -0,455;   -1,136
970,117;  352,056;   -0,364;    1,045
970,669;  215,692;    0,182;   -0,136
971,220;   88,783;   -0,455;   -1,500
971,772;  142,601;   -0,636;   -0,318
972,324;  195,783;    0,091;   -0,500
972,876;  127,328;    0,818;   -0,045
973,427;  203,874;    1,909;   -1,045
973,979;  254,510;   -0,727;   -2,500
974,530;  136,237;    1,818;    1,318
975,082;  180,510;   -0,545;    1,682
975,633;  140,510;    1,091;    1,682
976,184;  160,237;    0,909;    0,773
976,736;  156,601;    0,091;    0,227
977,287;  177,783;   -0,909;   -0,500
977,838;  149,601;    0,909;   -0,318
978,389;  144,237;   -1,000;   -0,500
978,940;   82,146;    0,545;   -0,409
979,491;   82,056;    0,091;   -0,500
980,042;  135,601;    0,182;    3,045
980,593;  153,237;   -2,545;    0,227
981,144;  195,419;    2,545;   -0,500
981,695;  202,510;    1,455;    1,500
982,246;  176,692;   -0,273;    1,045
982,797;  105,419;   -1,727;    0,682
983,347;  185,237;    0,364;    0,591
983,898;  314,328;    3,091;    0,409
984,449;  300,419;    2,182;    0,773
984,999;  194,965;    1,455;   -1,136
985,550;  171,510;    0,182;   -0,318
986,100;   93,783;   -0,455;   -0,318
986,651;   91,783;   -0,818;    0,045
987,201;  105,237;   -1,000;   -0,591
987,751;  110,056;    0,818;    2,864
988,302;  131,146;    2,636;    1,500
988,852;  168,146;    0,455;   -1,136
989,402;  196,510;    0,091;    0,682
989,952;  215,328;   -2,182;    0,864
990,502;  119,419;   -0,091;    0,682
991,052;   65,874;   -0,727;    0,045
991,602;   98,692;   -2,909;    1,318
992,152;  126,874;    0,455;    0,682
992,702;  147,601;    1,364;   -0,045
993,252;  117,237;   -3,000;   -0,500
993,802;  179,874;   -0,273;    1,318
994,352;  140,692;   -1,545;    1,136
994,901;   89,328;   -0,182;    3,227
995,451;   81,237;   -0,182;    0,318
996,000;  102,056;    1,636;    0,318
996,550;  110,965;    2,273;    0,227
997,100;  128,874;    1,273;   -0,045
997,649;  209,965;    2,182;    0,955
998,198;  113,510;    1,727;   -1,500
998,748;  162,056;    1,091;   -2,318
999,297;  135,874;   -0,818;   -0,409
999,846;  209,692;    1,000;   -0,773
1000,395;  147,510;   -0,818;    0,500
1000,945;  215,146;    1,818;   -0,773
1001,494;  217,146;    2,364;    0,682
1002,043;  215,874;    4,636;    0,864
1002,592;  116,965;   -1,091;    1,955
1003,141;  102,056;   -0,455;   -0,682
1003,690;  208,965;    1,727;    0,500
1004,238;  133,237;    1,455;   -0,045
1004,787;   91,510;    1,364;    1,227
1005,336;  180,965;    0,364;    0,682
1005,885;  148,965;    1,364;   -2,773
1006,433;  145,510;    0,545;    0,955
1006,982;  242,328;    0,455;    1,682
1007,531;  158,237;   -1,818;   -0,227
1008,079;  141,783;   -2,273;    0,500
1008,627;  111,328;   -1,455;    0,409
1009,176;  132,419;    0,000;   -1,955
1009,724;   97,601;    1,091;    0,864
1010,273;  177,692;    1,273;    0,500
1010,821;  110,237;    0,091;    1,409
1011,369;   93,146;   -1,364;    1,318
1011,917;   99,783;   -1,364;   -0,591
1012,465;  142,146;    1,273;   -1,591
1013,013;  130,419;    2,091;   -1,682
1013,561;  201,965;    0,455;   -0,773
1014,109;  258,328;   -1,909;    1,682
1014,657;  172,965;    0,364;    0,591
1015,205;  117,874;    1,636;   -0,955
1015,753;   90,874;   -0,545;   -1,409
1016,301;  131,510;   -2,636;    3,045
1016,848;  180,965;   -1,273;    0,409
1017,396;  170,056;    2,545;    0,045
1017,944;  167,874;    1,182;    1,864
1018,491;  124,510;    0,273;    1,409
1019,039;  293,419;    0,455;    0,591
1019,586;  154,601;   -1,364;    1,682
1020,134;  144,510;    0,455;    1,500
1020,681;  198,510;    0,182;   -1,136
1021,228;  146,692;    2,909;   -2,227
1021,776;  125,601;    1,182;   -1,136
1022,323;  264,692;    0,455;    0,773
1022,870;  199,965;   -1,000;   -0,045
1023,417;  229,146;    2,636;    1,864
1023,964;  136,510;    2,636;    1,227
1024,511;  116,783;    1,000;    0,773
1025,058;  150,965;    3,182;   -0,045
1025,605;  117,419;   -2,273;    3,136
1026,152;  239,783;    1,727;   -0,591
1026,699;  153,601;    1,818;    1,318
1027,245;  143,874;   -0,091;    0,318
1027,792;  104,510;   -1,000;    1,409
1028,339;  244,146;    2,364;   -0,045
1028,885;  158,601;    1,000;   -0,227
1029,432;  128,601;   -0,091;    0,227
1029,978;  180,783;   -1,000;   -1,591
1030,525;  194,692;    1,000;    0,409
1031,071;  115,783;   -1,364;    1,136
1031,618;  281,965;    0,364;    1,682
1032,164;  185,328;   -0,091;    3,045
1032,710;  202,601;    1,636;   -1,500
1033,256;  183,874;   -0,636;   -0,136
1033,803;  102,419;   -0,545;    1,500
1034,349;   38,328;   -1,364;    0,136
1034,895;   63,692;    0,000;   -0,318
1035,441;   98,692;   -0,818;    0,318
1035,987;  122,965;   -2,364;   -0,682
1036,533;  170,146;   -1,455;   -0,955
1037,078;  294,783;    1,455;    1,682
1037,624;  203,692;    2,455;   -0,955
1038,170;  117,874;    0,455;   -0,318
1038,716;  163,146;    1,636;   -0,409
1039,261;  101,692;   -2,273;   -0,773
1039,807;  112,328;   -0,091;    3,409
1040,352;  121,237;   -1,909;   -0,318
1040,898;  110,601;   -1,545;   -0,682
1041,443;   83,874;   -1,455;   -2,591
1041,989;  267,601;    1,091;    1,591
1042,534;  147,056;   -0,364;    2,591
1043,079;   75,510;    2,909;    0,955
1043,625;  134,510;    1,818;    0,500
1044,170;  142,692;   -1,364;    1,045
1044,715;  258,328;    2,455;    0,955
1045,260;  196,146;    2,182;   -0,955
1045,805;  109,601;    1,182;   -0,591
1046,350;   95,783;    1,364;   -0,409
1046,895;  204,965;    2,909;    1,591
1047,440;  188,601;    5,364;    0,409
1047,985;  119,419;    2,818;   -0,955
1048,530;  103,965;    1,545;    1,227
1049,074;  130,237;    0,000;    0,318
1049,619;   98,965;   -1,364;    1,955
1050,164;   98,328;    0,455;    0,227
1050,708;  157,237;   -0,455;    0,045
1051,253;  294,965;    1,273;   -2,227
1051,797;  171,510;    0,818;   -1,318
1052,342;   79,874;   -1,182;    1,045
1052,886;  122,056;    0,364;   -1,409
1053,430;   73,601;   -1,364;    0,136
1053,975;  137,146;   -0,818;   -0,318
1054,519;  125,783;   -0,727;    3,227
1055,063;  159,874;    0,909;    1,318
1055,607;  159,237;   -0,182;    0,227
1056,151;  154,965;    2,909;    1,682
1056,695;  111,874;    2,273;   -1,136
1057,239;  107,965;   -1,727;   -0,682
1057,783;  128,601;    0,818;   -1,500
1058,327;  176,146;    0,000;    1,409
1058,871;  259,328;   -0,545;    1,318
1059,415;  186,874;   -0,818;   -0,045
1059,958;  264,237;    1,455;    2,591
1060,502;  114,237;   -1,000;   -0,773
1061,046;   71,510;    0,364;   -0,955
1061,589;   72,601;   -3,000;   -1,136
1062,133;   56,510;   -1,273;    1,864
1062,676;   83,328;    1,182;    0,864
1063,220;  100,146;    1,091;    0,500
1063,763;  118,510;    0,909;    1,136
1064,306;  126,783;   -0,909;    1,864
1064,849;  130,419;   -0,909;    0,591
1065,393;  114,146;    2,000;   -1,500
1065,936;  116,783;    0,182;   -0,409
1066,479;   77,237;   -1,455;    1,318
1067,022;   87,056;   -0,273;   -0,227
1067,565;   77,419;   -0,091;   -1,318
1068,108;   65,328;    0,727;   -0,591
1068,651;   59,783;   -0,636;    1,409
1069,194;   59,692;   -0,455;   -1,682
1069,736;   69,510;   -1,273;    0,955
1070,279;   64,783;   -1,364;   -0,500
1070,822;  100,601;   -2,000;   -0,318
1071,364;  176,692;   -0,364;    1,318
1071,907;   99,237;   -0,727;    3,227
1072,450;   32,783;    0,000;   -0,045
1072,992;   69,419;   -0,273;    3,136
1073,535;   98,692;    2,091;    2,136
1074,077;   62,601;   -0,727;    2,045
1074,619;   55,510;   -1,364;    0,591
1075,161;   72,965;   -1,091;    1,500
1075,704;  143,510;    1,545;    1,227
1076,246;   77,419;   -0,182;    0,682
1076,788;   43,146;   -0,364;    1,773
1077,330;   42,874;    1,273;    2,136
1077,872;   65,419;    0,909;    0,955
1078,414;  153,874;    2,727;    0,773
1078,956;   79,510;    1,273;   -0,227
1079,498;  145,328;    1,636;    0,318
1080,040;   79,692;    1,909;   -1,318
1080,581;   61,419;    1,636;   -0,318
1081,123;   32,419;    0,091;   -0,773
1081,665;   40,601;   -1,182;   -0,955
1082,206;  136,056;    1,364;   -0,500
1082,748;   89,056;    0,727;    2,045
1083,289;   46,874;   -2,000;    1,318
1083,831;   40,783;   -0,545;    0,227
1084,372;   61,056;    0,000;    0,591
1084,913;   62,965;    1,091;    0,864
1085,455;   44,874;   -1,909;   -2,045
1085,996;   32,237;   -2,273;    0,136
1086,537;   40,146;   -0,091;    0,864
1087,078;   55,783;   -0,909;   -2,136
1087,619;   82,510;   -1,273;    0,227
1088,160;   65,601;    0,000;    1,318
1088,701;   55,783;   -1,091;    0,682
1089,242;   48,601;    1,364;   -2,227
1089,783;   73,510;   -0,273;    1,409
1090,324;   60,601;    0,455;    0,682
1090,865;   40,419;    2,727;   -0,409
1091,405;   27,965;    0,727;    2,227
1091,946;   50,783;    0,182;   -0,955
1092,487;   28,692;    0,818;   -1,409
1093,027;   78,783;   -1,364;   -1,500
1093,568;   44,419;   -0,364;    1,227
1094,108;   57,601;    0,273;    1,773
1094,649;   45,601;   -1,182;    0,136
1095,189;   33,419;   -0,636;   -0,682
1095,729;   32,783;   -0,091;    0,955
1096,269;   29,783;    0,727;   -0,955
1096,810;   99,056;   -1,364;    0,500
1097,350;   67,965;    1,364;   -0,773
1097,890;   50,056;    0,364;    1,227
1098,430;  132,419;    2,364;    2,864
1098,970;   94,965;    2,182;    1,682
1099,510;   39,601;    0,545;   -2,318
1100,050;   36,965;    1,000;   -1,591
1100,589;   39,692;   -0,727;   -0,318
1101,129;   60,783;    0,818;   -0,955
1101,669;   98,874;    1,727;    2,136
1102,209;   61,874;   -0,091;    2,227
1102,748;   47,328;    0,000;    0,955
1103,288;   50,328;    1,273;   -1,227
1103,827;   47,237;    3,091;   -2,227
1104,367;   28,601;   -0,091;   -2,409
1104,906;   33,783;    1,364;   -1,136
1105,445;   54,056;    0,636;   -1,136
1105,985;   43,146;   -0,727;    1,500
1106,524;   44,965;   -1,727;   -0,682
1107,063;   39,328;   -2,727;    1,409
1107,602;   29,965;   -1,909;   -1,500
1108,141;   24,601;   -1,909;    1,500
1108,680;   48,601;   -3,455;   -0,591
1109,219;   39,965;   -0,909;   -0,500
1109,758;   36,056;    0,455;    0,682
1110,297;   34,965;    1,000;   -0,682
1110,836;   23,692;   -0,727;    0,955
1111,375;   29,692;   -2,545;    0,409
1111,913;   52,783;   -1,000;    0,773
1112,452;   41,328;   -0,273;    0,136
1112,991;   22,692;    1,091;    1,955
1113,529;   22,601;   -0,818;   -0,045
1114,068;   32,783;   -0,273;    2,955
1114,606;   24,510;   -0,364;   -0,955
1115,144;   47,419;   -1,273;    1,045
1115,683;   34,874;   -0,727;    0,318
1116,221;   52,510;   -0,455;   -0,864
1116,759;   30,510;    0,636;   -0,864
1117,297;   58,146;    0,000;    1,864
1117,836;   30,783;   -2,182;   -1,227
1118,374;   31,146;    0,182;   -0,682
1118,912;   36,237;    0,909;    2,682
1119,450;   32,146;    1,000;    0,864
1119,988;   30,783;    1,545;    2,136
1120,525;  171,874;    5,091;    3,318
1121,063;   80,056;    1,182;    1,864
1121,601;   29,965;   -0,909;   -1,227
1122,139;   21,965;   -0,727;   -2,045
1122,676;   71,237;   -0,727;    2,773
1123,214;   56,510;   -1,182;    4,409
1123,751;   25,056;    1,727;    2,227
1124,289;   38,237;   -0,091;   -0,409
1124,826;   26,419;    1,727;    0,227
1125,364;   10,510;    1,727;   -0,955
1125,901;   66,601;    1,182;    1,227
1126,438;   54,601;    0,818;    0,955
1126,975;   14,965;   -0,727;   -0,773
1127,513;   23,056;    0,273;    2,136
1128,050;   16,056;    1,636;   -0,682
1128,587;   30,146;    2,000;   -0,227
1129,124;   42,601;    0,091;    1,318
1129,661;   21,874;    0,273;    0,227
1130,198;   48,237;    1,636;    0,773
1130,734;   31,874;    0,182;    1,409
1131,271;    8,874;   -0,909;    0,864
1131,808;   42,783;    2,909;    3,045
1132,345;   23,237;    1,545;    0,318
1132,881;    7,146;   -1,545;   -1,864
1133,418;   22,783;    0,727;   -1,136
1133,954;   14,874;    2,455;   -2,682
1134,491;   31,783;    1,364;   -0,773
1135,027;   13,692;    2,364;    0,864
1135,564;   22,328;    0,273;    2,955
1136,100;   23,692;    0,364;    2,136
1136,636;   10,601;   -1,273;   -1,045
1137,172;   19,965;    0,000;   -1,045
1137,708;   14,601;   -1,364;   -1,045
1138,245;   11,965;    1,273;   -1,227
1138,781;    7,510;    1,091;   -3,318
1139,317;   17,419;    1,273;   -1,409
1139,852;   20,510;    3,091;    0,136
1140,388;   29,328;   -1,182;   -0,409
1140,924;   15,419;   -1,091;   -2,227
1141,460;    6,874;   -1,636;    0,136
1141,996;    4,146;   -1,364;    2,682
1142,531;   10,601;    1,364;    3,318
1143,067;   37,237;    1,182;    1,045
1143,602;   50,510;   -0,091;   -0,318
1144,138;   22,237;   -2,636;    1,045
1144,673;    7,056;   -1,455;    1,409
1145,209;   11,056;   -1,909;   -0,318
1145,744;    4,510;   -0,727;    0,864
1146,279;   18,419;    1,818;   -0,136
1146,815;   12,783;    1,545;   -2,682
1147,350;   16,783;   -1,364;    0,045
1147,885;    8,328;   -0,818;   -1,318
1148,420;    7,874;   -2,273;    0,773
1148,955;    7,874;   -1,727;    1,864
1149,490;   10,601;   -0,909;   -1,591
1150,025;    7,692;    0,455;   -1,773
1150,560;   15,601;    1,091;   -0,955
1151,094;   14,783;    1,455;   -0,591
1151,629;   14,965;    1,636;    0,864
1152,164;    8,146;    1,364;    1,318
1152,698;    4,783;   -0,182;   -0,136
1153,233;    1,692;    0,091;   -0,682
1153,767;    4,419;   -3,000;   -2,318
1154,302;   10,692;   -1,455;    1,773
1154,836;    9,510;   -0,455;   -2,136
1155,371;   18,692;   -1,364;    3,682
1155,905;    8,237;   -0,636;    1,682
1156,439;    7,237;   -0,636;   -0,500
1156,973;    8,328;    0,364;    0,318
1157,507;    4,056;   -0,364;    0,682
1158,042;    8,056;   -0,727;    1,045
1158,576;   12,601;    0,182;    1,773
1159,110;   13,783;   -0,818;    2,409
1159,643;   10,601;    0,636;   -0,045
1160,177;    6,419;   -1,545;    1,500

