
Integration time [ms]:   0,040
Averaging Nr. [scans]: 11
Smoothing Nr. [pixels]: 0
Data measured with spectrometer [name]: 7318044SP
Wave   ;Sample   ;Dark     ;Reference
[nm]   ;[counts] ;[counts] ;[counts] 

186,757;   33,187;   31,551;    1,318
187,357;   26,390;   22,551;    0,955
187,958;   20,854;   15,460;   -1,591
188,558;   23,091;    8,915;   -1,227
189,159;   14,852;    6,733;   -4,500
189,759;   10,576;    7,278;   -3,591
190,360;    6,644;    2,824;   -2,136
190,960;   10,162;    2,915;   -4,136
191,560;   16,814;    3,189;   -6,591
192,161;   58,368;    4,372;   -3,500
192,761;   33,499;    4,010;   -3,227
193,361;   20,813;    1,556;   -3,773
193,962;   27,195;    2,010;   -2,682
194,562;   11,779;    1,189;   -3,955
195,162;   11,113;   -2,448;   -2,227
195,762;   36,361;   -3,176;   -0,045
196,362;   23,938;    1,370;   -2,500
196,963;    7,983;    2,006;   -0,864
197,563;   17,185;    1,551;   -0,955
198,163;    8,369;    0,096;   -0,682
198,763;    9,689;    1,733;   -0,500
199,363;   18,241;    3,096;   -0,500
199,963;   12,143;    0,369;    0,409
200,563;    9,724;    2,823;   -1,409
201,163;    7,676;    3,277;   -0,227
201,763;   14,208;    3,732;    0,318
202,363;    8,322;    1,459;    1,500
202,963;   11,548;    1,459;    1,045
203,563;   26,520;    0,277;    0,500
204,162;    9,530;    2,096;   -1,864
204,762;    8,462;    0,550;    0,591
205,362;    4,962;    3,004;    1,955
205,962;   11,492;    3,096;    1,955
206,562;    8,848;    1,823;    2,318
207,161;    8,944;   -0,087;    0,318
207,761;   38,667;    1,277;    2,409
208,361;   11,990;   -0,268;    1,409
208,960;   17,655;    0,459;    1,500
209,560;   15,106;    1,277;    1,591
210,160;   19,615;    0,550;    1,864
210,759;   16,044;    4,186;    1,227
211,359;   11,691;    1,459;    1,045
211,958;   62,622;    1,277;    2,045
212,558;   55,334;    1,732;    1,864
213,157;   25,368;    1,822;    1,500
213,757;  100,161;    3,822;   -0,227
214,356;   45,575;    1,277;   -0,409
214,956;   96,225;    3,095;    0,409
215,555;   39,174;    2,095;    2,136
216,154;   19,448;   -2,723;   -0,591
216,754;   23,897;    0,277;    0,773
217,353;   35,568;   -0,268;   -1,045
217,952;    9,229;   -0,178;    0,318
218,552;   48,504;    1,368;   -0,773
219,151;   26,173;    0,277;    0,955
219,750;   20,043;    0,004;   -0,227
220,349;   16,062;   -0,451;    1,045
220,948;   60,372;   -1,360;    1,136
221,548;   30,307;    0,913;    1,227
222,147;   40,022;   -0,087;   -0,409
222,746;   94,636;   -0,451;   -0,955
223,345;   55,831;    0,731;    0,500
223,944;   58,962;   -0,451;    0,773
224,543;   69,564;    1,004;   -1,409
225,142;   54,065;    0,094;    0,136
225,741;   64,707;   -0,814;    1,045
226,340;   58,085;   -0,451;   -0,955
226,939;  110,835;   -0,996;   -0,136
227,538;   58,155;   -0,360;   -0,773
228,137;  131,813;   -0,814;    0,864
228,735;   99,355;   -0,541;    1,227
229,334;   41,077;   -0,905;   -0,227
229,933;  144,175;    0,459;    0,591
230,532;  147,962;    1,186;   -0,409
231,131;  194,760;    1,732;    0,318
231,729;  123,071;   -2,450;   -2,318
232,328;   84,244;   -0,723;   -1,500
232,927;  103,289;    1,004;   -0,500
233,525;   93,037;    3,640;    0,045
234,124;  121,234;    2,368;   -1,591
234,723;   80,255;    0,913;   -1,045
235,321;   71,023;    2,277;    0,136
235,920;   93,801;    1,186;   -1,227
236,518;  202,297;    3,459;    0,318
237,117;   99,763;    0,004;   -0,227
237,715;  119,988;    0,640;   -0,500
238,314;  143,879;   -0,087;   -2,318
238,912;  231,062;   -0,723;   -1,409
239,510;  168,324;    0,459;   -1,227
240,109;  245,723;    0,004;    3,773
240,707;  219,463;   -0,996;    1,227
241,305;  116,118;    0,550;    0,136
241,904;  186,936;   -0,178;   -2,045
242,502;  278,126;   -0,632;   -0,227
243,100;  195,801;   -0,087;   -0,955
243,698;  137,936;    0,732;    1,682
244,297;  168,716;   -0,632;    0,682
244,895;  161,745;   -0,269;   -2,318
245,493;  299,316;    2,186;   -0,591
246,091;  303,032;    1,368;   -1,318
246,689;  241,211;    1,004;    0,591
247,287;  223,299;    0,822;   -1,136
247,885;  192,715;   -1,451;    1,227
248,483;  162,113;    1,822;   -0,500
249,081;  231,310;    0,185;    1,591
249,679;  260,027;   -0,178;    1,682
250,277;  162,242;   -1,723;    0,864
250,875;  264,895;   -1,087;   -1,045
251,473;  182,494;   -1,178;    0,500
252,071;  264,568;    1,459;    1,045
252,669;  197,326;   -1,814;    0,318
253,267;  152,961;   -0,087;    0,773
253,864;  200,117;   -0,360;    0,682
254,462;  310,980;    1,640;    1,591
255,060;  161,876;   -0,269;    1,318
255,658;  155,871;    0,822;   -0,136
256,255;  208,842;    0,186;   -2,045
256,853;  243,079;   -0,269;    1,409
257,451;  214,129;    0,822;    1,864
258,048;  540,207;    1,822;    1,864
258,646;  324,432;    1,731;   -1,045
259,243;  402,351;   -0,087;    2,227
259,841;  302,510;   -0,814;    0,318
260,438;  185,353;   -0,087;    0,864
261,036;  284,720;   -1,905;    1,409
261,633;  188,695;   -0,087;    2,227
262,231;  157,501;    2,731;   -0,045
262,828;  158,701;   -0,905;    1,136
263,425;  211,020;    0,913;   -0,591
264,023;  210,694;    0,186;    0,045
264,620;  331,426;   -0,360;   -0,318
265,217;  431,601;   -2,087;    3,136
265,815;  220,486;   -1,905;    2,136
266,412;  314,516;    0,731;    0,136
267,009;  326,399;   -1,451;    0,773
267,606;  390,068;    0,822;   -0,955
268,203;  241,640;   -0,269;   -0,591
268,801;  268,142;    1,731;    0,591
269,398;  200,633;   -0,360;    2,500
269,995;  322,065;    0,277;    1,591
270,592;  280,169;   -0,632;   -0,500
271,189;  195,997;    0,186;    0,409
271,786;  177,478;   -0,632;    1,227
272,383;  377,725;   -1,087;    0,227
272,980;  261,585;    0,277;    0,318
273,577;  222,501;    0,004;    1,227
274,174;  196,513;    0,822;    2,591
274,771;  320,690;   -0,814;   -0,773
275,367;  642,226;    2,277;    1,409
275,964;  470,714;    0,731;   -0,500
276,561;  293,243;    1,549;   -1,045
277,158;  217,300;    0,095;   -1,773
277,755;  415,764;    2,185;    0,409
278,351;  333,247;   -0,451;   -1,500
278,948;  380,942;   -0,815;    0,045
279,545;  335,003;   -1,360;    2,318
280,141;  482,573;   -1,723;   -2,045
280,738;  457,684;   -0,451;   -0,136
281,334;  282,815;   -1,633;    0,591
281,931;  302,992;   -0,087;   -1,318
282,528;  398,888;    0,822;   -0,500
283,124;  451,616;   -1,087;   -0,500
283,721;  446,617;   -0,451;    1,409
284,317;  322,451;    0,185;    2,500
284,913;  474,531;   -1,360;    0,591
285,510;  687,804;    0,640;   -0,318
286,106;  511,132;   -2,269;   -0,955
286,703;  351,297;   -0,360;    1,955
287,299;  301,600;   -1,451;   -0,591
287,895;  288,427;    0,822;   -1,045
288,491;  268,815;    0,186;    2,136
289,088;  373,656;   -2,360;    2,409
289,684;  415,690;   -1,723;    1,500
290,280;  541,474;    0,368;    0,682
290,876;  496,423;    1,822;    5,500
291,472;  415,301;    1,276;    2,227
292,068;  423,047;    1,367;    0,227
292,665;  323,600;    2,095;    0,773
293,261;  242,184;    0,276;    2,136
293,857;  403,651;    2,913;    2,136
294,453;  323,718;    3,550;    0,955
295,049;  517,484;   -0,268;    1,955
295,644;  372,375;    0,095;    0,136
296,240;  250,511;   -0,905;   -0,136
296,836;  355,999;   -0,995;    0,318
297,432;  470,771;    1,096;   -0,500
298,028;  503,045;    0,732;    0,773
298,624;  375,916;    1,459;    1,864
299,220;  350,982;    2,368;    0,591
299,815;  341,197;    1,005;   -0,409
300,411;  430,666;    0,914;    1,773
301,007;  526,037;    1,368;    0,227
301,602;  375,276;   -0,541;   -2,318
302,198;  492,011;    0,732;   -0,773
302,794;  346,246;    1,187;   -0,500
303,389;  299,527;   -1,177;    1,045
303,985;  343,443;    0,550;    1,409
304,580;  456,334;    1,459;    1,591
305,176;  379,756;   -3,086;    0,136
305,771;  272,144;   -1,268;   -1,227
306,367;  616,889;    4,095;    0,136
306,962;  401,821;    0,641;    1,500
307,558;  454,274;   -0,450;    0,136
308,153;  504,668;    1,095;   -1,136
308,748;  320,469;   -0,814;    1,682
309,344;  651,526;   -0,632;   -1,318
309,939;  657,231;   -1,905;   -1,318
310,534;  381,788;   -0,086;   -1,682
311,130;  350,837;    0,459;   -2,500
311,725;  320,858;    1,004;   -0,500
312,320;  366,826;    2,459;    0,045
312,915;  459,518;    1,459;   -1,045
313,510;  649,771;    1,550;   -0,500
314,105;  383,684;    1,096;    1,409
314,700;  258,796;   -3,086;   -1,045
315,295;  342,971;   -0,904;    0,045
315,890;  296,634;    1,277;    0,864
316,485;  397,682;   -0,359;   -0,318
317,080;  305,827;   -3,086;    1,591
317,675;  594,010;    2,005;   -0,682
318,270;  783,569;    5,550;    3,318
318,865;  679,840;    3,278;    3,045
319,460;  528,730;   -0,904;    0,591
320,055;  362,724;   -0,541;   -1,227
320,650;  370,710;   -1,995;   -0,591
321,244;  375,464;   -0,177;   -1,409
321,839;  383,713;   -1,541;   -0,227
322,434;  439,371;   -1,086;   -1,591
323,029;  368,402;    1,732;    1,591
323,623;  335,106;    1,550;    0,773
324,218;  503,929;    2,368;    1,409
324,812;  445,431;    1,096;    1,591
325,407;  444,911;   -0,814;    2,045
326,002;  560,825;    0,277;   -0,409
326,596;  503,424;    0,914;    1,318
327,191;  349,266;    0,823;   -1,045
327,785;  346,879;   -0,813;   -0,227
328,379;  357,631;    1,368;    0,136
328,974;  414,723;    0,914;   -3,955
329,568;  431,434;    0,186;   -2,409
330,163;  499,681;    2,096;    1,045
330,757;  349,325;    2,459;    1,591
331,351;  298,297;    0,459;    0,682
331,945;  289,334;    0,914;    1,409
332,540;  424,754;   -1,723;   -0,591
333,134;  412,420;   -1,086;    0,773
333,728;  417,481;    0,005;    0,318
334,322;  309,626;   -1,177;   -0,864
334,916;  299,630;    0,277;    0,955
335,510;  462,293;   -0,450;   -0,136
336,105;  450,085;   -1,086;    1,591
336,699;  351,853;   -1,086;    0,591
337,293;  382,079;   -1,723;    0,318
337,887;  327,009;   -2,723;    1,955
338,481;  458,843;    0,459;    0,591
339,074;  550,628;   -0,359;    2,682
339,668;  530,977;   -1,632;    1,227
340,262; 1049,424;    1,732;    3,227
340,856;  674,201;    1,822;   -0,682
341,450;  373,770;    1,004;    1,864
342,044;  418,806;    1,459;    0,136
342,637;  548,541;    0,913;   -2,136
343,231;  533,858;   -2,360;    0,682
343,825;  431,396;   -1,086;   -0,591
344,419;  401,623;   -1,995;    0,500
345,012;  909,327;    2,459;    4,045
345,606;  715,402;    4,641;    1,591
346,199;  416,823;   -1,813;   -0,227
346,793;  537,536;    1,914;    2,045
347,386;  352,336;   -0,813;   -1,136
347,980;  256,960;   -0,268;   -0,045
348,573;  358,462;    2,278;    0,409
349,167;  639,778;    5,278;    4,773
349,760;  512,966;    2,914;    2,682
350,354;  485,115;   -0,813;    1,136
350,947;  524,172;    1,096;    1,682
351,540;  393,804;   -0,358;   -1,409
352,134;  271,421;    1,096;    1,136
352,727;  291,947;   -0,086;    1,136
353,320;  315,253;    0,005;    0,591
353,913;  258,634;   -1,995;    1,864
354,507;  447,465;    0,823;   -1,227
355,100;  324,358;    0,460;    0,864
355,693;  729,897;    2,005;    2,409
356,286;  503,055;    0,823;    2,773
356,879;  357,698;   -0,722;    1,227
357,472;  350,889;   -0,904;    1,500
358,065;  396,937;   -0,722;    2,500
358,658;  254,968;   -0,540;    2,318
359,251;  228,519;   -1,631;   -0,591
359,844;  415,656;   -1,904;   -1,136
360,437;  482,726;   -2,995;    0,045
361,030;  328,609;    1,369;   -0,682
361,623;  336,084;    2,824;    0,318
362,215;  564,202;   -0,086;    2,045
362,808;  409,491;   -2,358;   -1,682
363,401;  337,426;   -2,449;    0,136
363,994;  551,038;   -0,631;   -1,500
364,586;  348,508;    0,824;   -1,500
365,179;  296,279;   -0,449;   -1,136
365,772;  165,821;   -1,995;    2,045
366,364;  315,852;    1,915;   -3,227
366,957;  371,913;    2,279;   -0,045
367,549;  319,155;    2,188;   -0,864
368,142;  330,180;    1,825;   -1,500
368,734;  292,413;    0,734;   -2,136
369,327;  227,363;    1,643;   -0,500
369,919;  271,275;   -1,538;    0,409
370,512;  289,695;   -1,083;   -0,500
371,104;  551,831;   -0,901;    1,591
371,696;  578,381;    1,191;   -0,955
372,289;  432,942;    0,373;    1,136
372,881;  374,007;   -2,080;    1,318
373,473;  272,217;   -2,170;    1,136
374,066;  367,668;   -0,169;    0,500
374,658;  341,067;    0,378;    1,136
375,250;  272,859;    0,653;   -1,409
375,842;  326,757;    0,473;   -0,045
376,434;  288,518;   -0,435;   -0,409
377,026;  277,545;    0,204;   -2,500
377,618;  333,329;   -0,158;   -0,682
378,210;  268,916;   -0,338;   -1,955
378,802;  263,224;    0,754;   -0,591
379,394;  653,971;    1,846;    0,682
379,986;  407,530;    1,393;   -0,955
380,578;  315,183;   -0,153;    0,773
381,170;  551,893;   -0,972;    0,045
381,762;  454,960;    0,755;    1,409
382,354;  398,076;   -0,065;   -1,318
382,945;  316,837;   -2,976;    0,318
383,537;  261,740;   -2,705;   -1,955
384,129;  247,803;   -2,160;   -1,136
384,721;  363,134;   -0,252;    0,955
385,312;  301,692;   -0,161;   -0,955
385,904;  394,885;   -2,706;    1,591
386,496;  326,069;   -0,979;    1,045
387,087;  466,453;    1,022;    2,500
387,679;  403,286;   -1,160;    0,045
388,270;  383,044;    2,840;    2,045
388,862;  352,541;    1,295;   -0,318
389,453;  341,969;   -0,887;    1,045
390,045;  345,241;   -0,705;   -2,682
390,636;  238,987;    0,204;   -0,591
391,227;  305,713;   -0,523;   -0,045
391,819;  282,395;    0,204;    0,773
392,410;  537,093;    1,022;    0,045
393,001;  347,463;   -0,979;   -1,591
393,593;  410,867;    1,930;   -0,045
394,184;  470,468;    1,385;   -0,409
394,775;  343,653;    1,839;    2,136
395,366;  262,103;    1,385;    0,773
395,957;  459,008;    0,113;    0,136
396,548;  345,168;   -0,342;    2,682
397,139;  470,790;   -2,433;    0,591
397,730;  376,643;   -1,888;    0,955
398,321;  386,524;   -1,252;    0,955
398,912;  326,819;   -0,615;    0,136
399,503;  319,178;   -3,524;   -1,409
400,094;  377,221;    0,294;    1,682
400,685;  373,969;   -0,433;    0,045
401,276;  311,130;    0,930;   -0,955
401,867;  286,452;   -0,888;    0,773
402,458;  249,214;   -2,251;   -2,318
403,048;  416,653;    1,112;    0,591
403,639;  356,207;    0,840;    0,864
404,230;  466,659;    2,476;    0,318
404,821;  533,541;   -0,615;    0,045
405,411;  429,681;    1,203;   -2,591
406,002;  337,295;   -1,252;   -1,136
406,592;  572,088;    2,294;    0,045
407,183;  420,994;    0,566;   -1,500
407,774;  398,959;    3,475;   -0,136
408,364;  354,753;    0,930;    0,409
408,954;  482,963;    0,384;    1,227
409,545;  480,409;    1,021;    1,045
410,135;  431,119;    1,293;    0,500
410,726;  374,161;    1,838;    0,318
411,316;  571,793;    0,111;    0,773
411,906;  394,124;   -0,253;   -0,409
412,497;  411,755;   -1,070;   -0,045
413,087;  352,762;   -1,980;   -0,227
413,677;  276,707;   -0,707;    3,864
414,267;  267,423;    0,656;    1,409
414,857;  245,075;   -2,980;    4,227
415,448;  254,594;    0,839;    0,500
416,038;  290,063;    0,020;   -0,591
416,628;  343,608;   -0,889;    0,409
417,218;  409,281;    0,565;    3,318
417,808;  576,206;    0,202;   -0,409
418,398;  430,937;    0,020;    2,682
418,988;  298,040;    2,020;    0,591
419,578;  409,086;   -0,707;    1,409
420,168;  345,402;   -1,343;   -0,955
420,757;  520,959;   -1,343;   -1,500
421,347;  399,098;    0,111;   -0,227
421,937;  358,727;    2,292;    1,409
422,527;  514,125;    0,838;   -0,773
423,116;  666,026;   -0,253;   -0,045
423,706;  349,241;   -1,889;    0,318
424,296;  297,326;    1,384;    0,682
424,885;  456,236;   -0,071;   -3,045
425,475;  429,275;    1,474;   -2,864
426,065;  295,634;   -0,980;   -0,318
426,654;  270,744;   -0,435;   -0,318
427,244;  591,832;    0,020;    1,409
427,833;  565,268;    1,383;   -0,500
428,423;  413,532;   -0,526;    1,136
429,012;  409,694;   -0,344;   -1,136
429,601;  555,096;   -1,344;    0,136
430,191;  429,665;    1,292;    4,318
430,780;  316,537;   -0,344;   -0,409
431,369;  539,462;    0,746;   -0,045
431,959;  409,203;   -1,254;    0,500
432,548;  326,212;   -1,163;   -0,045
433,137;  255,426;   -1,254;   -1,318
433,726;  354,765;    0,292;    0,500
434,315;  387,152;   -0,526;    2,409
434,905;  515,349;   -1,254;    1,409
435,494;  516,479;    0,746;    0,955
436,083;  345,596;   -0,981;   -0,955
436,672;  456,446;    0,110;    0,500
437,261;  390,139;    0,292;   -1,955
437,850;  685,839;    1,383;    0,682
438,439;  737,390;    3,291;    1,955
439,027;  864,502;    3,655;    1,773
439,616;  782,919;    2,927;    1,227
440,205;  521,778;    0,200;   -2,136
440,794;  449,387;    2,109;   -0,045
441,383;  349,270;   -1,346;   -0,591
441,971;  303,351;   -2,436;    0,591
442,560;  330,324;    0,563;   -1,773
443,149;  197,886;    0,379;   -1,318
443,737;  282,798;   -0,074;   -2,318
444,326;  315,332;    0,018;    0,318
444,915;  387,865;   -1,982;    0,864
445,503;  394,563;   -2,891;   -0,318
446,092;  702,312;    0,382;    2,136
446,680;  629,442;    0,382;    0,318
447,269;  526,283;   -0,346;   -0,318
447,857;  497,608;    0,018;   -1,773
448,445;  435,628;    0,563;    1,318
449,034;  357,340;   -1,528;   -1,136
449,622;  355,434;   -1,073;    3,500
450,210;  744,910;    2,017;    2,227
450,799;  640,656;    0,290;   -0,591
451,387;  556,769;    1,381;   -0,591
451,975;  542,558;    2,654;    0,864
452,563;  655,692;    3,472;    2,318
453,151;  402,950;   -0,528;   -1,227
453,739;  478,784;   -1,347;    0,136
454,328;  625,113;    2,381;   -2,136
454,916;  533,883;    2,562;   -0,136
455,504;  541,754;    1,017;    1,227
456,092;  397,993;    0,017;   -1,591
456,679;  344,636;    1,472;    0,682
457,267;  883,780;    4,017;    1,045
457,855;  465,265;    1,017;    1,409
458,443;  274,419;   -0,165;    1,682
459,031;  520,289;    0,108;    2,409
459,619;  456,345;   -1,801;    2,864
460,206;  313,733;    0,835;    2,045
460,794;  320,589;   -2,983;   -0,227
461,382;  396,305;   -0,529;   -0,864
461,970;  385,758;    1,198;    1,864
462,557;  283,663;   -0,711;   -0,682
463,145;  473,178;   -3,165;   -1,682
463,732;  775,081;    2,016;   -1,045
464,320;  469,781;   -0,075;   -3,045
464,907;  670,847;    2,743;   -0,773
465,495;  558,246;    0,743;   -1,227
466,082;  438,229;   -1,984;   -0,045
466,670;  465,966;   -2,529;    1,227
467,257;  311,175;   -1,711;    2,045
467,844;  467,563;   -0,075;    0,045
468,432;  435,211;    0,834;    3,500
469,019;  365,283;    0,925;   -1,773
469,606;  468,150;    0,470;    3,682
470,193;  519,698;   -1,439;    0,227
470,780;  464,893;   -2,075;    0,864
471,368;  361,305;   -1,257;   -0,773
471,955;  512,282;    1,379;   -0,682
472,542;  451,897;    0,652;   -1,136
473,129;  285,024;   -0,166;    0,136
473,716;  302,641;    1,470;    0,591
474,303;  353,555;    0,652;   -0,864
474,890;  358,953;   -1,439;   -0,500
475,477;  494,895;   -1,621;    0,409
476,064;  361,608;    1,106;   -1,591
476,650;  524,448;    0,288;    0,318
477,237;  414,903;   -0,258;    0,955
477,824;  382,011;   -1,076;    0,864
478,411;  247,455;   -1,894;   -0,318
478,997;  250,788;    0,560;   -0,773
479,584;  174,684;    1,196;   -0,409
480,171;  453,834;   -0,440;   -0,773
480,757;  542,270;    2,651;    0,773
481,344;  371,384;    0,469;    0,409
481,931;  234,688;    1,105;    1,045
482,517;  453,325;   -1,258;    0,318
483,104;  590,047;    1,106;    2,864
483,690;  417,328;   -1,804;    0,045
484,276;  386,023;   -0,895;    0,227
484,863;  719,170;    2,469;    1,136
485,449;  479,161;   -0,077;    0,318
486,035;  413,718;   -1,986;   -0,136
486,622;  580,663;   -0,895;    0,045
487,208;  445,244;    1,378;    1,500
487,794;  307,113;    0,741;    0,318
488,380;  307,952;    0,105;   -1,409
488,967;  334,328;   -1,168;   -0,409
489,553;  353,014;   -1,895;   -1,409
490,139;  481,655;    1,559;    0,773
490,725;  331,304;    0,741;   -0,227
491,311;  407,472;    3,287;    3,045
491,897;  344,116;   -0,986;    1,500
492,483;  334,684;    0,105;    1,227
493,069;  951,490;    3,923;    0,864
493,655;  547,450;    1,650;    0,682
494,241;  365,526;    1,377;   -0,955
494,826;  396,920;    0,287;   -1,045
495,412;  502,285;    2,559;   -0,682
495,998;  348,419;   -0,805;   -0,318
496,584;  442,749;    0,377;    1,045
497,169;  448,868;    1,014;   -0,682
497,755;  344,235;    0,650;    1,227
498,341;  575,684;    0,559;    0,318
498,926;  742,816;    1,832;    1,955
499,512;  369,389;    1,286;    2,955
500,097;  371,481;    0,195;   -0,318
500,683;  399,904;   -0,350;    2,136
501,268;  316,092;   -0,169;   -0,955
501,854;  337,577;   -0,169;    1,227
502,439;  315,560;   -0,624;   -1,773
503,024;  393,052;    0,195;    0,500
503,610;  428,409;   -0,078;   -0,682
504,195;  318,438;    0,558;    1,955
504,780;  449,557;    2,922;    1,227
505,366;  576,996;    3,013;    2,864
505,951;  473,261;    0,740;    1,045
506,536;  356,156;   -3,260;   -3,682
507,121;  438,125;    0,285;   -0,318
507,706;  365,678;    2,376;    1,045
508,291;  282,809;    2,649;    1,136
508,876;  287,410;   -0,988;    2,591
509,461;  369,173;   -0,169;   -0,773
510,046;  416,072;    0,194;    0,318
510,631;  415,391;   -0,351;   -0,773
511,216;  308,154;    2,467;   -0,500
511,801;  393,890;   -0,442;    2,591
512,386;  426,684;    0,740;    0,500
512,971;  435,939;   -2,988;    0,955
513,555;  491,070;   -0,897;   -1,500
514,140;  428,544;   -0,442;   -3,136
514,725;  559,537;   -0,715;   -1,136
515,309;  438,975;   -0,533;    0,318
515,894;  318,063;   -0,624;   -2,227
516,479;  364,635;   -0,624;   -0,955
517,063;  368,884;    0,376;    1,227
517,648;  303,985;    1,012;   -1,136
518,232;  278,751;   -0,261;   -1,409
518,817;  381,847;   -0,079;    1,682
519,401;  513,103;    2,194;    0,591
519,985;  469,445;    1,103;    1,136
520,570;  310,675;    0,830;   -1,955
521,154;  431,257;    2,102;    0,591
521,738;  619,149;   -2,352;    2,409
522,323;  424,695;   -0,170;    1,682
522,907;  412,140;    0,466;   -0,136
523,491;  314,693;    0,557;    0,955
524,075;  282,698;    2,284;    0,591
524,659;  493,381;    1,466;    0,591
525,243;  423,120;    1,739;    0,409
525,827;  355,790;    0,648;   -0,045
526,411;  357,563;   -1,989;   -0,136
526,995;  467,406;   -0,352;    1,409
527,579;  527,777;   -0,443;   -1,045
528,163;  448,274;    0,375;   -1,500
528,747;  551,897;    2,466;   -0,773
529,331;  491,158;   -0,080;   -1,409
529,915;  332,189;    1,738;    0,955
530,499;  422,007;   -0,807;    1,227
531,082;  583,317;   -0,534;    1,591
531,666;  659,707;    1,374;    0,773
532,250;  541,447;    1,284;    2,682
532,833;  635,966;    0,920;    2,773
533,417;  477,063;   -1,807;    0,864
534,001;  599,568;    1,647;   -0,318
534,584;  521,625;    0,374;    0,500
535,168;  341,619;    0,465;    1,409
535,751;  693,711;    0,647;    0,045
536,334;  437,553;   -0,898;   -0,409
536,918;  278,818;    0,011;    1,591
537,501;  294,673;   -0,899;    1,318
538,085;  341,146;   -0,444;    1,045
538,668;  422,878;    0,829;    2,409
539,251;  698,882;    1,829;    3,773
539,834;  411,145;    0,101;    0,773
540,418;  538,856;   -1,990;    4,318
541,001;  712,652;   -0,990;    1,773
541,584;  481,684;    2,101;    2,227
542,167;  595,231;    1,374;    2,955
542,750;  413,892;    1,919;   -0,773
543,333;  292,887;    0,555;    2,136
543,916;  514,557;    0,192;    2,500
544,499;  456,128;   -1,354;    0,227
545,082;  532,771;    1,374;    3,591
545,665;  437,933;    1,919;    1,500
546,248;  559,432;    1,010;   -0,318
546,830;  539,145;   -0,445;    1,955
547,413;  500,387;    1,010;   -0,773
547,996;  461,693;    0,555;    0,500
548,579;  420,828;    0,919;    0,955
549,161;  654,107;    1,828;    2,682
549,744;  535,788;   -0,809;    0,409
550,326;  392,975;   -0,809;   -1,136
550,909;  857,374;    2,737;    0,591
551,492;  501,686;   -0,263;    0,227
552,074;  626,942;   -0,173;   -1,318
552,657;  658,671;    2,373;    0,045
553,239;  523,775;   -0,173;   -0,773
553,821;  391,813;   -1,082;    1,045
554,404;  654,758;    1,282;    1,136
554,986;  754,517;    0,464;    1,045
555,568;  588,258;    1,191;   -0,955
556,151;  797,171;    1,191;   -0,227
556,733;  478,413;   -0,264;   -0,864
557,315;  499,679;    0,100;    0,500
557,897;  371,213;    0,554;   -0,500
558,479;  385,765;   -1,991;    1,318
559,061;  475,298;   -0,719;   -0,864
559,643;  519,351;   -0,264;    0,045
560,225;  563,810;    1,645;    2,864
560,807;  405,442;    0,918;    0,318
561,389;  385,730;    0,554;    2,318
561,971;  480,376;    0,463;    2,136
562,553;  395,029;   -1,628;    1,591
563,135;  488,477;   -0,537;    1,136
563,717;  874,837;    3,372;    1,136
564,298;  767,319;    3,645;   -0,045
564,880;  519,704;    0,645;   -1,409
565,462;  350,340;    0,645;    1,318
566,043;  480,981;   -0,446;    2,318
566,625;  799,888;    1,918;    1,227
567,207;  606,390;    1,099;    1,682
567,788;  456,403;   -1,264;    1,500
568,370;  458,740;    1,917;   -0,500
568,951;  465,057;    0,190;    0,227
569,533;  568,686;   -0,628;   -0,500
570,114;  582,006;   -0,446;    0,682
570,695;  611,381;   -0,174;   -1,318
571,277;  590,686;   -0,265;   -1,682
571,858;  796,296;    2,008;   -1,136
572,439;  630,080;    1,554;   -1,045
573,021;  666,675;    2,099;   -2,773
573,602;  779,095;   -1,265;    0,318
574,183;  732,401;   -2,083;    2,227
574,764;  672,665;   -1,629;    0,409
575,345;  872,512;    0,917;   -0,136
575,926;  697,173;   -0,356;    0,136
576,507;  776,547;    1,099;   -0,227
577,088;  725,182;    3,099;    1,682
577,669;  914,413;    0,735;    1,955
578,250; 1099,492;    0,644;   -1,045
578,831;  874,762;   -1,356;   -2,227
579,412;  866,690;   -0,810;    0,955
579,993;  843,152;    1,008;    0,227
580,573;  760,065;   -0,629;   -0,955
581,154;  898,053;    0,735;   -0,591
581,735;  904,228;    0,644;    0,773
582,315; 1061,228;   -0,629;    2,136
582,896;  852,665;   -0,174;    1,227
583,477;  691,274;    0,189;    1,227
584,057;  836,696;    0,553;    0,955
584,638;  962,516;    2,553;    2,318
585,218; 1199,600;   -0,538;    2,682
585,799; 1003,489;    0,281;   -0,227
586,379;  863,182;    0,372;    1,591
586,959;  841,403;    0,735;    0,318
587,540;  745,115;   -0,629;    2,227
588,120;  762,645;    1,007;   -0,045
588,700;  771,676;    2,553;    2,136
589,281;  963,517;    0,462;   -0,955
589,861;  816,807;    0,099;   -1,682
590,441;  665,432;    2,371;   -2,682
591,021;  767,967;   -0,265;   -2,591
591,601;  715,256;   -0,537;    0,500
592,181;  696,519;   -0,719;   -0,773
592,761;  588,967;    0,007;    1,409
593,341;  712,036;   -0,901;    0,045
593,921;  729,272;   -0,265;    1,591
594,501;  625,767;   -0,538;    1,318
595,081;  625,995;    0,917;   -0,318
595,661;  699,023;   -1,447;    0,955
596,240;  634,256;   -0,537;    0,136
596,820; 1059,571;    0,372;    1,955
597,400;  770,471;    2,008;    0,773
597,980;  664,145;    2,008;    1,045
598,559;  610,372;    2,735;   -0,227
599,139;  587,660;   -0,174;   -1,227
599,718;  583,388;   -0,174;   -0,409
600,298;  576,191;    0,735;    0,682
600,877; 1082,971;    2,917;    1,409
601,457;  772,104;    2,281;    1,136
602,036;  647,708;    0,190;    2,045
602,616;  708,143;    0,644;    1,682
603,195;  826,465;   -0,355;    3,500
603,774;  886,207;   -0,901;    2,045
604,354;  817,212;    0,826;   -0,500
604,933;  749,793;    0,463;    1,864
605,512;  846,582;    3,554;    0,591
606,091;  849,719;   -0,537;    3,773
606,671;  791,379;    0,281;    0,773
607,250;  970,384;    1,644;    3,136
607,829;  907,596;    2,372;    3,227
608,408;  741,894;    1,190;    2,591
608,987;  864,176;    1,281;    3,409
609,566;  679,662;   -1,265;   -2,500
610,145;  784,640;   -1,082;    0,682
610,723;  827,561;    4,372;    6,864
611,302;  742,607;   -0,446;    1,682
611,881; 1036,083;    5,008;   11,227
612,460;  734,999;    1,645;    3,955
613,039;  611,220;   -0,082;    2,045
613,617;  601,335;    1,736;    4,773
614,196;  616,454;    1,099;    1,227
614,775;  689,032;    1,009;    2,409
615,353;  754,820;    0,736;    0,864
615,932;  707,463;    0,100;    2,409
616,510;  689,756;    0,554;    0,591
617,089; 1216,743;    7,100;   17,591
617,667;  808,921;    2,372;    6,136
618,246;  566,435;   -1,537;    1,318
618,824;  648,809;   -3,355;   -0,955
619,402;  670,629;   -2,900;   -1,773
619,981;  729,959;   -0,173;   -1,045
620,559;  640,480;    0,009;    1,682
621,137;  656,495;   -0,718;    1,864
621,715;  565,506;   -1,173;   -0,682
622,293;  589,855;   -0,537;   -0,773
622,871;  593,406;   -0,718;    0,500
623,450;  536,709;    0,373;   -0,864
624,028;  738,933;    0,191;   -0,955
624,606;  704,359;   -1,718;    1,682
625,183;  506,049;   -1,536;   -1,136
625,761;  650,591;    1,009;    1,136
626,339;  951,008;    1,373;    2,591
626,917;  598,718;   -0,172;   -0,045
627,495;  538,908;   -0,354;    1,318
628,073;  673,506;   -0,263;    2,864
628,650;  693,296;    0,100;    2,136
629,228;  681,700;    0,373;    4,409
629,806;  493,847;    2,282;    1,136
630,383;  553,619;    1,464;   -0,318
630,961;  553,938;    2,555;   -0,955
631,539;  603,340;    2,464;    0,227
632,116; 1333,120;   11,373;   15,409
632,694;  938,261;    2,555;    6,500
633,271;  766,359;    0,828;    2,682
633,848;  869,669;    1,828;    2,045
634,426;  592,696;   -1,081;    1,773
635,003;  454,600;    1,101;   -0,409
635,580;  876,680;    1,192;    3,682
636,158;  741,208;    3,737;    1,227
636,735;  557,269;    0,555;   -0,500
637,312;  544,954;   -0,809;   -0,682
637,889;  551,318;   -4,354;   -0,682
638,466;  528,574;   -3,990;   -0,409
639,043;  583,862;    2,101;   -1,136
639,620;  499,404;   -2,262;   -0,955
640,197;  636,747;    1,100;    1,682
640,774;  458,753;   -0,172;    1,136
641,351;  535,396;    0,737;    1,136
641,928;  733,312;   -0,627;    1,409
642,505;  849,409;    0,828;   -0,500
643,082;  666,507;   -1,718;    1,227
643,658;  536,513;   -0,718;    1,500
644,235;  519,520;    1,191;    2,500
644,812;  707,799;    1,918;    0,773
645,388;  689,260;   -0,991;    1,409
645,965;  469,176;   -0,809;    1,682
646,542;  487,183;   -1,445;   -0,227
647,118;  867,371;    1,009;   -0,955
647,695;  661,196;   -0,263;    1,136
648,271;  469,202;   -0,536;    0,500
648,848;  637,027;    0,736;    2,227
649,424;  764,397;    0,827;    1,318
650,000;  580,586;   -0,354;   -1,045
650,577;  608,774;   -0,627;   -0,955
651,153;  611,235;   -1,809;    0,955
651,729;  558,696;    1,191;    0,864
652,305;  924,521;    0,645;    2,773
652,881;  883,619;   -0,082;    1,136
653,458; 1019,625;    1,100;    0,227
654,034; 1130,995;    0,282;    1,591
654,610; 1275,638;    0,554;    0,773
655,186; 1786,190;    0,645;    3,045
655,762; 1315,561;   -0,991;    0,409
656,338; 1274,113;    0,100;    0,136
656,913; 1374,574;   -0,082;    0,409
657,489; 1141,580;    0,827;   -0,318
658,065; 1247,041;   -0,173;   -1,591
658,641; 1277,230;   -0,900;   -0,864
659,217; 1189,418;   -0,991;    0,409
659,792; 1339,879;    0,645;   -0,409
660,368; 1145,068;   -2,173;   -0,682
660,944; 1178,529;   -2,082;    1,227
661,519; 1064,081;   -0,628;    0,409
662,095;  773,087;   -1,719;    0,591
662,670;  615,094;    1,281;   -0,136
663,246;  519,101;    1,009;   -0,409
663,821;  695,107;    0,281;    1,682
664,396;  636,932;    0,009;    1,864
664,972;  545,666;    0,009;   -0,500
665,547;  603,400;    1,372;    0,136
666,122;  574,406;   -1,082;    0,318
666,698;  781,595;   -0,173;    0,318
667,273;  549,510;   -0,173;    0,136
667,848;  584,790;    2,372;    1,500
668,423;  767,342;    2,190;    2,318
668,998;  609,803;    2,827;   -0,682
669,573;  565,173;   -3,264;   -1,500
670,148;  766,543;   -1,446;   -0,682
670,723;  533,368;   -1,810;    0,318
671,298;  820,102;    2,372;    1,045
671,873;  724,017;   -0,082;   -0,136
672,448;  710,297;    0,645;    0,136
673,023;  703,394;   -1,992;   -0,227
673,597;  806,946;    0,827;    2,318
674,172;  861,044;   -0,355;    0,318
674,747;  772,141;    0,372;   -1,045
675,321;  519,875;   -0,628;    3,318
675,896;  457,336;    0,645;    1,045
676,471;  694,252;    2,645;    1,591
677,045;  609,258;   -1,264;    0,682
677,620;  703,629;    0,190;    1,136
678,194;  526,726;   -2,628;    1,136
678,769;  612,551;   -1,083;   -0,318
679,343;  667,830;   -0,628;    1,773
679,917;  795,473;   -1,446;    1,955
680,492;  644,571;    0,826;    3,227
681,066;  672,395;    3,372;    0,409
681,640;  602,675;    1,463;   -0,318
682,214;  618,590;    0,735;    0,500
682,788;  622,961;   -1,356;   -0,773
683,363;  775,240;   -1,810;    1,682
683,937;  647,428;   -1,719;   -0,318
684,511;  679,435;    0,463;   -0,591
685,085;  687,351;   -1,356;    0,318
685,659;  594,903;   -2,538;    0,864
686,232;  832,000;   -0,356;   -0,318
686,806;  707,825;   -0,901;    0,409
687,380;  590,831;   -0,174;    0,591
687,954;  526,838;   -1,174;    1,136
688,528;  864,572;   -0,719;    1,955
689,101;  685,851;   -3,992;    1,045
689,675;  576,858;   -0,356;   -0,136
690,249;  835,682;   -0,719;    0,409
690,822;  825,871;    0,280;    0,318
691,396;  703,787;   -0,265;    1,227
691,969;  631,975;    1,280;    0,136
692,543;  524,527;   -0,447;   -1,955
693,116;  500,715;   -0,265;   -1,409
693,690;  597,358;    0,099;    0,500
694,263;  530,638;   -1,083;    2,955
694,836;  900,553;    1,371;    3,591
695,410;  787,378;   -0,265;    1,773
695,983;  805,112;    0,189;    0,591
696,556;  592,482;   -0,447;   -1,045
697,129;  506,216;   -0,356;    1,409
697,703;  739,586;   -1,629;    1,955
698,276;  622,411;    1,462;   -0,773
698,849;  791,236;    1,280;    1,409
699,422;  546,606;   -1,083;    0,591
699,995;  451,976;    0,007;    0,136
700,568;  603,710;   -0,629;    3,045
701,140;  618,898;   -2,811;    1,682
701,713;  791,814;   -0,174;    2,409
702,286;  676,911;   -0,538;    0,864
702,859;  755,282;   -0,902;   -0,591
703,432;  843,652;    0,825;    0,682
704,004;  713,931;    0,462;    0,318
704,577;  583,392;   -0,629;    0,136
705,150;  637,763;    0,189;    2,500
705,722;  702,042;   -0,356;   -3,227
706,295;  767,230;   -0,175;   -0,591
706,867;  649,600;   -0,175;    1,955
707,440;  737,062;   -1,720;   -0,409
708,012;  817,341;    0,462;    0,591
708,584;  724,620;    2,462;    0,227
709,157;  495,990;    1,825;   -0,591
709,729;  734,815;    2,280;    2,045
710,301;  583,185;    0,734;    0,045
710,874;  601,737;   -1,447;   -0,227
711,446;  491,471;    0,371;    0,864
712,018;  569,296;    0,098;    0,500
712,590;  518,757;   -1,993;    1,682
713,162;  799,855;    0,825;    1,318
713,734;  574,134;    1,825;   -2,045
714,306;  486,322;   -1,902;   -0,409
714,878;  550,056;    0,825;    0,864
715,450;  505,972;    0,643;    0,864
716,022;  519,342;    1,552;    1,318
716,593;  508,803;    0,189;    0,591
717,165;  555,355;   -3,175;   -1,227
717,737;  828,544;    0,280;    0,409
718,309;  592,823;    0,280;   -0,045
718,880;  515,648;   -0,539;   -1,409
719,452;  590,200;   -0,175;   -1,591
720,024;  691,843;    0,734;   -0,591
720,595;  580,940;   -2,902;    0,955
721,167;  567,856;    0,370;   -2,045
721,738;  694,499;   -0,812;   -1,045
722,309;  851,596;   -0,993;   -1,227
722,881;  575,421;   -1,357;    0,773
723,452;  657,246;   -2,630;    2,864
724,023;  662,252;   -0,721;    2,682
724,595;  729,713;    0,007;    0,682
725,166;  601,265;    0,007;   -0,409
725,737;  799,454;    1,734;    0,227
726,308;  581,733;   -0,266;    0,318
726,879;  495,467;   -1,630;    1,227
727,450;  666,292;    0,552;   -0,045
728,021;  598,117;    3,097;    0,682
728,592;  772,214;    0,734;    0,500
729,163;  860,493;    0,643;   -0,136
729,734;  842,409;    0,188;   -0,227
730,305;  690,506;    1,734;    0,136
730,876;  646,422;    0,188;    2,955
731,447;  978,520;    2,188;    2,682
732,017;  875,344;    1,097;    1,864
732,588;  672,169;    0,734;    1,227
733,159;  929,994;    0,643;   -1,045
733,729;  656,455;    0,006;    0,409
734,300;  828,553;    0,915;    0,864
734,870;  637,832;    3,461;    0,591
735,441;  618,657;    0,370;   -0,591
736,011;  604,663;    0,643;   -1,591
736,582;  612,670;   -0,812;    0,045
737,152;  754,494;   -1,721;   -2,045
737,722;  720,047;   -0,267;   -0,682
738,293;  565,417;   -1,358;    1,318
738,863;  759,605;    2,461;    2,318
739,433; 1018,521;    5,279;    0,318
740,003;  724,618;   -0,994;   -0,682
740,573;  853,534;    2,097;   -1,591
741,143;  719,541;   -1,085;    0,318
741,713;  629,456;    1,188;   -0,500
742,283;  696,554;    0,915;    1,591
742,853;  627,651;    1,915;    1,591
743,423;  457,476;    1,733;    0,045
743,993;  569,664;   -0,358;    1,500
744,563;  628,853;    0,097;   -0,864
745,133;  657,132;   -0,812;   -0,864
745,702;  518,866;   -0,267;    1,773
746,272;  738,327;   -0,176;    0,591
746,842;  765,515;   -1,358;   -0,591
747,411;  551,067;   -0,267;   -0,318
747,981;  456,347;    0,097;    0,500
748,551;  444,353;    2,278;   -1,045
749,120;  644,178;    0,642;   -0,227
749,690;  591,276;   -0,631;    2,409
750,259;  699,828;    1,369;    2,955
750,828;  761,107;    1,551;   -1,955
751,398;  534,841;    1,278;   -0,045
751,967; 1013,575;    2,187;    0,409
752,536;  658,036;   -0,813;   -0,227
753,105;  779,406;    0,096;    0,227
753,675;  610,503;    0,096;    1,773
754,244;  621,146;   -0,904;    3,591
754,813;  657,426;    0,551;    1,227
755,382;  614,432;    0,460;    0,955
755,951;  747,257;    1,551;    3,682
756,520;  859,354;   -0,085;    1,864
757,089;  958,997;    0,278;    0,500
757,658;  694,913;    1,733;    1,227
758,227;  525,283;    1,096;    0,318
758,795;  588,108;    1,187;    1,136
759,364;  593,115;   -0,086;   -0,591
759,933;  535,303;   -1,176;   -0,045
760,501;  470,401;    0,733;   -1,318
761,070;  636,862;   -2,813;   -1,409
761,639;  591,141;   -1,904;    1,318
762,207;  718,875;    1,551;   -0,955
762,776;  759,427;    0,369;    0,864
763,344;  608,888;   -0,995;    0,591
763,913;  418,349;   -0,722;    1,409
764,481;  963,174;    1,005;   -0,136
765,049;  951,089;   -1,358;    1,409
765,618;  862,005;   -0,086;    0,318
766,186;  664,012;    0,278;    0,136
766,754;  719,109;    0,005;    1,864
767,322;  602,116;   -1,995;    0,409
767,890;  553,304;   -0,722;   -1,773
768,459;  552,856;   -2,177;   -0,318
769,027;  778,408;    1,641;    3,409
769,595;  597,233;    3,278;    2,591
770,163;  692,603;    3,823;    2,955
770,730;  668,519;    0,732;   -0,136
771,298;  649,616;    0,187;   -1,409
771,866;  571,805;   -1,541;    4,955
772,434;  600,993;   -0,631;   -1,864
773,002;  815,363;    0,005;    0,682
773,569;  687,279;    0,914;    1,682
774,137;  800,195;   -0,268;   -0,045
774,705;  583,656;    0,278;   -0,136
775,272;  557,844;    0,641;    0,682
775,840;  579,487;   -0,177;    2,682
776,407;  701,039;    0,277;    1,955
776,975;  576,137;   -0,632;    0,318
777,542;  506,871;   -1,086;   -0,045
778,110;  543,513;   -1,268;   -0,045
778,677;  428,247;   -2,359;   -0,864
779,244;  509,890;    2,186;    1,045
779,812;  662,533;    1,823;    0,864
780,379;  754,176;    0,005;    1,136
780,946;  616,274;    1,005;   -0,773
781,513;  518,189;   -1,450;    0,318
782,080;  501,105;   -0,086;    2,864
782,647;  529,021;   -0,268;    3,045
783,214;  505,209;   -0,177;    3,864
783,781;  720,579;   -0,723;   -0,682
784,348;  652,677;   -0,632;    1,500
784,915;  430,411;   -3,177;    0,318
785,482;  669,235;    1,368;    2,591
786,049;  592,878;    0,186;   -0,591
786,615;  471,612;    0,277;   -0,955
787,182;  435,073;    0,186;   -0,682
787,749;  414,443;   -2,814;    1,409
788,315;  654,450;   -1,632;   -0,409
788,882;  526,911;    1,550;   -1,227
789,448;  825,918;    1,732;   -0,955
790,015;  578,379;    1,095;    3,227
790,581;  771,749;    1,459;    0,227
791,148;  578,028;    0,641;    1,045
791,714;  466,126;   -0,541;    3,136
792,280;  482,769;    0,186;    1,591
792,847;  423,503;    0,550;    2,500
793,413;  514,782;   -0,269;   -0,318
793,979;  736,970;    3,459;   -1,318
794,545; 1017,250;    4,459;    2,682
795,111;  893,984;    2,186;    1,318
795,678;  739,626;    0,731;   -1,682
796,244;  903,269;    3,368;    0,136
796,810;  747,640;    1,731;    0,773
797,375;  738,646;    0,549;   -2,136
797,941;  416,562;   -0,541;    0,591
798,507;  434,387;   -0,451;   -0,955
799,073;  478,393;   -0,360;    0,591
799,639;  464,672;   -2,632;    3,136
800,205;  423,315;    0,095;    2,682
800,770;  463,322;    0,640;    1,773
801,336;  476,692;    1,368;   -0,955
801,901; 1069,244;    4,549;    3,136
802,467;  712,433;   -0,542;    2,045
803,033;  501,712;   -0,087;    0,864
803,598;  499,355;    1,913;   -1,045
804,163;  499,907;    1,095;   -0,318
804,729;  606,368;   -0,178;    1,136
805,294;  498,920;    0,822;    2,227
805,859;  443,927;    0,731;   -0,409
806,425;  830,388;    1,186;    2,682
806,990;  806,667;    2,186;    4,318
807,555;  556,765;   -1,451;    2,591
808,120;  706,862;    0,822;   -0,409
808,685;  508,323;    0,185;   -2,500
809,250;  415,057;    0,004;   -0,500
809,815;  400,155;    1,913;    0,682
810,380;  532,525;   -0,269;    1,591
810,945;  711,622;   -1,087;    2,045
811,510;  540,265;    2,094;    1,591
812,075;  603,635;   -0,633;   -1,409
812,640;  843,915;    2,003;    1,409
813,204;  588,739;    0,822;   -0,227
813,769;  733,291;    2,094;   -0,045
814,334;  730,480;    0,458;    0,864
814,898;  453,668;    0,367;    0,591
815,463;  562,129;    1,276;   -0,773
816,027;  497,591;   -0,724;   -2,318
816,592;  419,052;    0,640;   -2,045
817,156;  602,240;    2,094;    1,136
817,721;  721,883;    4,276;    2,318
818,285;  449,344;    2,912;    1,500
818,849;  519,714;   -1,451;    1,682
819,414;  444,630;   -0,269;    2,955
819,978;  390,000;   -1,269;    1,773
820,542;  679,370;    2,003;    0,500
821,106;  513,741;   -0,815;    0,682
821,670;  732,474;   -0,815;    2,591
822,234;  504,754;   -0,270;    1,409
822,798;  401,033;    0,003;    0,500
823,362;  643,858;   -0,633;    4,227
823,926;  498,410;    0,094;    1,136
824,490;  681,689;   -0,997;   -0,682
825,054;  543,514;   -0,088;   -1,136
825,618;  436,339;   -1,542;   -1,500
826,181;  503,254;    0,458;   -1,318
826,745;  622,170;    1,367;   -1,045
827,309;  824,722;    1,185;    1,318
827,872;  685,456;    1,367;    0,955
828,436;  563,008;    1,185;   -0,773
828,999;  459,924;   -0,997;    1,227
829,563;  444,203;   -0,179;    1,136
830,126;  424,573;   -0,179;   -0,591
830,690;  537,398;   -1,997;    2,864
831,253;  450,495;   -0,543;    2,227
831,816;  500,229;   -1,906;    0,500
832,380;  464,599;    0,185;    0,864
832,943;  436,151;   -1,361;   -0,500
833,506;  445,613;    2,639;   -1,227
834,069;  589,710;    3,912;   -0,955
834,632;  429,535;    1,730;    1,318
835,195;  482,905;    1,003;    0,955
835,758;  426,366;   -0,997;    1,955
836,321;  450,464;    0,730;   -1,045
836,884;  410,561;   -0,725;   -0,955
837,447;  346,113;   -2,816;    1,773
838,010;  535,483;    0,366;    3,227
838,573;  536,763;   -1,179;    0,773
839,135;  391,133;   -1,361;   -0,955
839,698;  472,503;    1,275;    0,409
840,261;  419,237;    1,003;   -0,227
840,823;  372,062;   -0,543;    0,864
841,386;  353,341;   -0,452;   -2,409
841,948;  664,711;   -1,361;    1,773
842,511;  444,172;    0,912;    1,682
843,073;  639,815;    1,912;    0,227
843,636;  399,367;   -0,361;   -0,227
844,198;  610,010;    0,911;    0,591
844,760;  573,017;    1,093;    1,955
845,322;  381,114;    0,548;    1,136
845,885;  509,575;    0,730;    0,591
846,447;  443,946;   -1,998;    0,227
847,009;  786,861;    1,911;   -0,682
847,571;  502,595;    0,820;   -2,045
848,133;  448,602;   -1,089;   -1,864
848,695;  309,790;   -0,543;    1,409
849,257;  396,797;   -1,089;   -1,682
849,819;  534,349;   -0,998;   -0,409
850,381;  407,174;   -0,725;   -0,864
850,942;  475,998;    1,093;   -0,591
851,504;  557,550;    1,184;    0,227
852,066;  409,557;    1,275;   -1,591
852,628;  442,836;   -0,180;    1,955
853,189;  353,479;    1,638;    2,682
853,751;  354,031;   -0,907;    1,409
854,312;  512,674;   -0,453;   -1,682
854,874;  642,044;   -2,089;   -0,773
855,435;  450,778;   -0,907;   -1,682
855,997;  488,148;   -1,816;   -0,136
856,558;  613,064;    0,366;    1,773
857,119;  517,071;    0,820;    2,864
857,681;  359,350;    0,002;    0,318
858,242;  624,175;    1,911;   -2,136
858,803;  580,272;    0,456;   -0,773
859,364;  452,461;    0,184;   -4,773
859,925;  538,831;   -2,453;   -0,955
860,486;  408,837;   -0,453;   -0,955
861,047;  358,935;   -0,544;   -1,227
861,608;  411,760;   -1,089;   -0,773
862,169;  271,766;    0,638;   -0,045
862,730;  403,318;    0,456;    1,409
863,291;  447,052;   -0,635;   -0,500
863,852;  425,422;   -0,635;    1,955
864,412;  428,065;   -0,271;   -0,864
864,973;  656,435;   -0,089;    0,500
865,534;  767,806;   -1,726;    0,227
866,094;  550,812;    1,820;    0,227
866,655;  690,728;    1,274;    3,318
867,215;  502,916;    0,274;    0,136
867,776;  350,196;    0,547;   -0,136
868,336;  438,384;   -1,453;    0,136
868,897;  818,936;    2,638;    1,682
869,457;  608,124;    1,365;    0,318
870,017;  394,949;    0,547;   -1,227
870,578;  384,956;   -0,817;    0,773
871,138;  478,871;   -2,089;   -0,955
871,698;  396,878;   -0,817;   -1,318
872,258;  508,521;   -0,453;   -2,864
872,818;  656,800;    2,729;    0,045
873,378;  475,170;    0,638;    1,045
873,938;  459,904;    0,547;    0,500
874,498;  364,365;    0,274;   -1,955
875,058;  473,645;    2,183;    1,773
875,618;  465,742;    1,910;   -2,682
876,177;  506,658;    1,274;    0,136
876,737;  341,301;   -0,090;    1,955
877,297;  701,671;    0,183;    1,955
877,856;  630,132;   -0,362;    0,318
878,416;  400,684;    1,183;   -0,136
878,976;  355,145;   -1,817;    0,409
879,535;  396,152;    0,092;    3,136
880,095;  382,431;   -0,544;    0,045
880,654;  336,165;   -1,090;    1,318
881,213;  633,263;    2,456;    1,500
881,773;  475,542;    2,637;    2,682
882,332;  949,730;    3,365;    5,136
882,891;  457,282;    3,092;    2,136
883,451;  446,107;   -1,272;    1,682
884,010;  413,386;   -2,908;   -0,409
884,569;  353,393;   -0,999;   -0,045
885,128;  522,127;    2,819;   -1,864
885,687;  745,315;    4,455;    0,682
886,246;  918,685;    1,455;    2,136
886,805;  732,510;    2,455;    2,045
887,364;  395,426;   -0,999;   -0,500
887,922;  325,614;   -1,181;    0,045
888,481;  521,712;   -1,545;    0,591
889,040;  589,173;    1,183;    2,136
889,599;  468,998;    2,455;    1,409
890,157;  465,913;    1,455;    2,409
890,716;  402,556;   -0,090;    0,227
891,274;  515,381;    0,092;   -1,136
891,833;  579,478;    1,546;    0,864
892,391;  481,758;   -0,454;    0,500
892,950;  559,673;    1,819;   -0,773
893,508;  375,225;    0,455;   -0,409
894,067;  299,323;    0,637;    0,136
894,625;  402,693;   -0,636;   -1,500
895,183;  363,336;   -0,363;   -0,682
895,741;  624,797;    1,728;   -1,773
896,299;  430,076;   -0,545;   -2,409
896,858;  382,810;    0,819;   -1,591
897,416;  511,726;    2,728;   -1,318
897,974;  435,187;    1,819;    0,318
898,532;  856,376;    6,091;    2,682
899,089;  578,382;    2,091;   -0,682
899,647;  474,480;   -1,454;    1,318
900,205;  472,941;    1,182;    1,045
900,763;  459,675;   -0,454;    0,227
901,321;  415,590;    2,364;   -1,409
901,878;  260,688;   -1,000;   -0,773
902,436;  345,967;   -1,363;    1,318
902,994; 1003,792;    4,728;    3,682
903,551;  582,707;    0,728;    0,409
904,109;  453,805;    0,182;   -1,409
904,666;  412,084;    2,455;    1,045
905,224;  304,818;    0,182;   -0,409
905,781;  478,461;    0,727;   -0,318
906,338;  411,922;   -1,363;    1,045
906,895;  315,747;    0,637;    2,045
907,453;  567,481;    1,727;    1,136
908,010;  435,760;   -0,909;    0,409
908,567;  423,676;    1,273;    0,591
909,124;  278,319;    0,364;   -1,500
909,681;  341,962;   -2,909;    0,682
910,238;  363,423;    0,636;   -1,318
910,795;  273,702;   -0,273;   -1,136
911,352;  295,975;   -2,909;   -2,682
911,909;  340,520;   -1,364;   -0,864
912,466;  339,157;   -3,182;    1,500
913,022;  446,702;   -1,636;    0,500
913,579;  511,429;   -0,909;    2,045
914,136;  397,793;    1,636;    0,955
914,692;  397,611;    0,091;   -1,227
915,249;  432,066;    1,455;    0,409
915,806;  494,066;    0,182;    1,955
916,362;  392,520;    1,909;    1,864
916,918;  371,338;    2,000;    1,045
917,475;  487,338;   -1,182;    0,955
918,031;  341,975;    3,364;   -0,045
918,587;  415,975;   -0,909;   -0,318
919,144;  323,884;   -2,273;    0,227
919,700;  261,793;    1,727;    0,773
920,256;  270,975;    0,727;    0,045
920,812;  328,793;   -0,727;   -1,045
921,368;  296,066;   -1,727;   -1,045
921,924;  327,793;    0,182;   -0,136
922,480;  406,702;   -0,545;    1,227
923,036;  408,975;    1,273;    1,955
923,592;  313,702;    0,455;    0,318
924,148;  324,520;    0,455;   -0,955
924,704;  456,066;   -1,364;   -0,409
925,259;  290,884;   -0,273;    0,591
925,815;  296,429;    1,455;    0,500
926,371;  277,884;    2,909;    1,409
926,926;  415,975;    2,091;    0,591
927,482;  393,520;   -1,364;    0,773
928,037;  319,975;    0,909;    2,045
928,593;  482,884;    1,636;    1,045
929,148;  287,975;   -1,818;   -1,500
929,704;  361,884;   -1,455;   -0,500
930,259;  297,429;    0,091;   -0,136
930,814;  459,429;   -0,818;    1,955
931,369;  398,338;    1,091;   -0,773
931,925;  249,611;   -0,091;    0,136
932,480;  343,520;   -2,818;   -2,591
933,035;  626,338;    0,545;   -0,318
933,590;  538,247;    0,364;   -1,773
934,145;  257,247;   -1,364;   -0,318
934,700;  178,429;    0,455;   -0,591
935,255;  231,611;   -0,091;    0,045
935,809;  506,884;    3,182;    0,864
936,364;  236,793;   -0,455;   -0,136
936,919;  228,884;    0,455;   -1,773
937,474;  173,520;    1,455;    0,136
938,028;  185,793;   -1,636;    1,136
938,583;  509,338;    1,818;    4,682
939,138;  256,702;    2,091;    2,136
939,692;  159,157;    1,636;   -1,136
940,247;  201,793;   -0,727;   -1,045
940,801;  228,611;   -0,636;    0,227
941,355;  162,157;   -0,364;    2,591
941,910;  117,975;   -0,273;   -2,136
942,464;  144,157;   -0,818;   -0,318
943,018;  310,611;    1,000;   -0,227
943,572;  201,157;    2,545;   -0,682
944,126;  259,338;    0,091;   -0,409
944,681;  167,429;    3,091;    0,227
945,235;  126,429;    1,000;   -0,591
945,789;  107,702;    0,364;   -1,864
946,342;  289,157;    0,455;   -0,591
946,896;  146,793;   -2,273;    0,955
947,450;  124,247;    1,545;   -0,227
948,004;  286,702;    1,727;   -0,045
948,558;  169,429;    0,273;   -0,864
949,111;  166,793;   -0,273;   -0,318
949,665;  280,702;    1,636;   -0,682
950,219;  267,520;   -0,091;   -1,045
950,772;  205,066;   -1,909;    1,864
951,326;  192,520;    0,545;   -0,955
951,879;  156,066;    0,727;   -2,318
952,433;  249,975;    0,000;    2,227
952,986;  140,702;    2,909;    0,682
953,539;  123,066;   -0,273;    0,591
954,093;   96,884;    0,545;   -1,318
954,646;  165,975;    0,909;    1,318
955,199;  115,429;    0,000;   -0,500
955,752;  280,793;   -0,455;    1,773
956,305;  173,975;   -0,091;    2,955
956,858;  195,338;    0,818;   -0,318
957,411;  231,247;   -0,545;    2,136
957,964;  190,429;    1,364;    2,136
958,517;  131,066;   -1,545;    3,136
959,070;   97,429;   -0,455;    1,955
959,623;  274,247;    1,091;    1,500
960,176;  247,247;    1,727;    2,045
960,728;  211,429;   -2,727;    0,773
961,281;  172,611;    0,545;    0,500
961,834;  127,975;   -0,909;    0,864
962,386;  135,429;    1,727;    1,045
962,939;  122,611;    0,364;   -0,318
963,491;  148,611;    0,455;    1,136
964,043;  114,611;    1,182;    2,409
964,596;  219,338;   -1,000;    2,227
965,148;  159,247;   -1,000;    1,773
965,700;  108,975;    1,091;   -0,227
966,253;  213,520;   -0,636;    0,318
966,805;  181,157;   -2,273;    0,773
967,357;  137,066;    1,091;   -1,500
967,909;  208,247;    0,455;   -1,227
968,461;  139,975;    0,545;    3,136
969,013;  107,157;   -0,182;   -0,864
969,565;  217,066;   -0,455;   -1,136
970,117;  356,611;   -0,364;    1,045
970,669;  210,429;    0,182;   -0,136
971,220;   89,520;   -0,455;   -1,500
971,772;  142,884;   -0,636;   -0,318
972,324;  201,157;    0,091;   -0,500
972,876;  129,611;    0,818;   -0,045
973,427;  200,884;    1,909;   -1,045
973,979;  253,247;   -0,727;   -2,500
974,530;  136,702;    1,818;    1,318
975,082;  178,520;   -0,545;    1,682
975,633;  141,702;    1,091;    1,682
976,184;  159,066;    0,909;    0,773
976,736;  161,429;    0,091;    0,227
977,287;  180,702;   -0,909;   -0,500
977,838;  147,793;    0,909;   -0,318
978,389;  147,157;   -1,000;   -0,500
978,940;   79,793;    0,545;   -0,409
979,491;   79,157;    0,091;   -0,500
980,042;  134,520;    0,182;    3,045
980,593;  151,157;   -2,545;    0,227
981,144;  193,611;    2,545;   -0,500
981,695;  203,975;    1,455;    1,500
982,246;  176,611;   -0,273;    1,045
982,797;  107,157;   -1,727;    0,682
983,347;  189,520;    0,364;    0,591
983,898;  324,793;    3,091;    0,409
984,449;  304,066;    2,182;    0,773
984,999;  193,975;    1,455;   -1,136
985,550;  166,702;    0,182;   -0,318
986,100;   92,520;   -0,455;   -0,318
986,651;   92,702;   -0,818;    0,045
987,201;  104,429;   -1,000;   -0,591
987,751;  110,793;    0,818;    2,864
988,302;  135,429;    2,636;    1,500
988,852;  173,247;    0,455;   -1,136
989,402;  199,247;    0,091;    0,682
989,952;  226,066;   -2,182;    0,864
990,502;  124,975;   -0,091;    0,682
991,052;   71,975;   -0,727;    0,045
991,602;   98,702;   -2,909;    1,318
992,152;  127,247;    0,455;    0,682
992,702;  149,157;    1,364;   -0,045
993,252;  111,975;   -3,000;   -0,500
993,802;  173,702;   -0,273;    1,318
994,352;  136,702;   -1,545;    1,136
994,901;   87,702;   -0,182;    3,227
995,451;   88,247;   -0,182;    0,318
996,000;  102,793;    1,636;    0,318
996,550;  116,157;    2,273;    0,227
997,100;  136,066;    1,273;   -0,045
997,649;  210,520;    2,182;    0,955
998,198;  114,247;    1,727;   -1,500
998,748;  166,338;    1,091;   -2,318
999,297;  135,520;   -0,818;   -0,409
999,846;  206,611;    1,000;   -0,773
1000,395;  151,520;   -0,818;    0,500
1000,945;  220,247;    1,818;   -0,773
1001,494;  218,247;    2,364;    0,682
1002,043;  218,338;    4,636;    0,864
1002,592;  114,338;   -1,091;    1,955
1003,141;  103,429;   -0,455;   -0,682
1003,690;  207,429;    1,727;    0,500
1004,238;  130,975;    1,455;   -0,045
1004,787;   90,520;    1,364;    1,227
1005,336;  184,520;    0,364;    0,682
1005,885;  149,429;    1,364;   -2,773
1006,433;  145,157;    0,545;    0,955
1006,982;  248,338;    0,455;    1,682
1007,531;  165,702;   -1,818;   -0,227
1008,079;  142,884;   -2,273;    0,500
1008,627;  111,338;   -1,455;    0,409
1009,176;  130,066;    0,000;   -1,955
1009,724;   98,338;    1,091;    0,864
1010,273;  185,793;    1,273;    0,500
1010,821;  114,157;    0,091;    1,409
1011,369;   95,157;   -1,364;    1,318
1011,917;   99,429;   -1,364;   -0,591
1012,465;  142,611;    1,273;   -1,591
1013,013;  131,338;    2,091;   -1,682
1013,561;  206,338;    0,455;   -0,773
1014,109;  254,793;   -1,909;    1,682
1014,657;  176,611;    0,364;    0,591
1015,205;  119,793;    1,636;   -0,955
1015,753;   96,338;   -0,545;   -1,409
1016,301;  133,793;   -2,636;    3,045
1016,848;  180,793;   -1,273;    0,409
1017,396;  169,702;    2,545;    0,045
1017,944;  164,884;    1,182;    1,864
1018,491;  126,793;    0,273;    1,409
1019,039;  294,884;    0,455;    0,591
1019,586;  159,520;   -1,364;    1,682
1020,134;  145,520;    0,455;    1,500
1020,681;  199,429;    0,182;   -1,136
1021,228;  146,429;    2,909;   -2,227
1021,776;  127,520;    1,182;   -1,136
1022,323;  266,520;    0,455;    0,773
1022,870;  197,066;   -1,000;   -0,045
1023,417;  229,157;    2,636;    1,864
1023,964;  137,884;    2,636;    1,227
1024,511;  117,520;    1,000;    0,773
1025,058;  152,157;    3,182;   -0,045
1025,605;  118,157;   -2,273;    3,136
1026,152;  239,702;    1,727;   -0,591
1026,699;  151,066;    1,818;    1,318
1027,245;  140,157;   -0,091;    0,318
1027,792;  103,793;   -1,000;    1,409
1028,339;  244,247;    2,364;   -0,045
1028,885;  157,066;    1,000;   -0,227
1029,432;  129,793;   -0,091;    0,227
1029,978;  179,338;   -1,000;   -1,591
1030,525;  192,429;    1,000;    0,409
1031,071;  114,429;   -1,364;    1,136
1031,618;  286,338;    0,364;    1,682
1032,164;  185,429;   -0,091;    3,045
1032,710;  204,429;    1,636;   -1,500
1033,256;  182,429;   -0,636;   -0,136
1033,803;  103,702;   -0,545;    1,500
1034,349;   39,338;   -1,364;    0,136
1034,895;   64,066;    0,000;   -0,318
1035,441;  101,157;   -0,818;    0,318
1035,987;  126,702;   -2,364;   -0,682
1036,533;  167,702;   -1,455;   -0,955
1037,078;  300,338;    1,455;    1,682
1037,624;  205,338;    2,455;   -0,955
1038,170;  116,157;    0,455;   -0,318
1038,716;  166,611;    1,636;   -0,409
1039,261;  101,702;   -2,273;   -0,773
1039,807;  112,429;   -0,091;    3,409
1040,352;  118,702;   -1,909;   -0,318
1040,898;  111,520;   -1,545;   -0,682
1041,443;   83,157;   -1,455;   -2,591
1041,989;  268,247;    1,091;    1,591
1042,534;  148,338;   -0,364;    2,591
1043,079;   81,429;    2,909;    0,955
1043,625;  139,066;    1,818;    0,500
1044,170;  139,429;   -1,364;    1,045
1044,715;  263,611;    2,455;    0,955
1045,260;  199,338;    2,182;   -0,955
1045,805;  111,793;    1,182;   -0,591
1046,350;   97,793;    1,364;   -0,409
1046,895;  204,247;    2,909;    1,591
1047,440;  187,884;    5,364;    0,409
1047,985;  122,702;    2,818;   -0,955
1048,530;  107,338;    1,545;    1,227
1049,074;  134,702;    0,000;    0,318
1049,619;  106,793;   -1,364;    1,955
1050,164;  103,793;    0,455;    0,227
1050,708;  161,793;   -0,455;    0,045
1051,253;  293,793;    1,273;   -2,227
1051,797;  171,702;    0,818;   -1,318
1052,342;   82,793;   -1,182;    1,045
1052,886;  129,702;    0,364;   -1,409
1053,430;   74,702;   -1,364;    0,136
1053,975;  133,157;   -0,818;   -0,318
1054,519;  129,975;   -0,727;    3,227
1055,063;  163,884;    0,909;    1,318
1055,607;  160,611;   -0,182;    0,227
1056,151;  154,793;    2,909;    1,682
1056,695;  109,702;    2,273;   -1,136
1057,239;   99,066;   -1,727;   -0,682
1057,783;  127,793;    0,818;   -1,500
1058,327;  174,338;    0,000;    1,409
1058,871;  265,429;   -0,545;    1,318
1059,415;  187,247;   -0,818;   -0,045
1059,958;  266,247;    1,455;    2,591
1060,502;  116,793;   -1,000;   -0,773
1061,046;   75,520;    0,364;   -0,955
1061,589;   73,702;   -3,000;   -1,136
1062,133;   58,884;   -1,273;    1,864
1062,676;   84,520;    1,182;    0,864
1063,220;  101,884;    1,091;    0,500
1063,763;  118,066;    0,909;    1,136
1064,306;  130,338;   -0,909;    1,864
1064,849;  133,702;   -0,909;    0,591
1065,393;  115,975;    2,000;   -1,500
1065,936;  116,429;    0,182;   -0,409
1066,479;   79,702;   -1,455;    1,318
1067,022;   94,157;   -0,273;   -0,227
1067,565;   83,247;   -0,091;   -1,318
1068,108;   65,884;    0,727;   -0,591
1068,651;   54,338;   -0,636;    1,409
1069,194;   57,066;   -0,455;   -1,682
1069,736;   65,793;   -1,273;    0,955
1070,279;   57,884;   -1,364;   -0,500
1070,822;  100,884;   -2,000;   -0,318
1071,364;  172,520;   -0,364;    1,318
1071,907;   98,884;   -0,727;    3,227
1072,450;   31,702;    0,000;   -0,045
1072,992;   62,247;   -0,273;    3,136
1073,535;   96,066;    2,091;    2,136
1074,077;   63,884;   -0,727;    2,045
1074,619;   51,157;   -1,364;    0,591
1075,161;   72,247;   -1,091;    1,500
1075,704;  145,702;    1,545;    1,227
1076,246;   76,975;   -0,182;    0,682
1076,788;   43,520;   -0,364;    1,773
1077,330;   43,429;    1,273;    2,136
1077,872;   62,520;    0,909;    0,955
1078,414;  155,702;    2,727;    0,773
1078,956;   82,702;    1,273;   -0,227
1079,498;  145,247;    1,636;    0,318
1080,040;   79,793;    1,909;   -1,318
1080,581;   60,702;    1,636;   -0,318
1081,123;   32,429;    0,091;   -0,773
1081,665;   39,066;   -1,182;   -0,955
1082,206;  134,611;    1,364;   -0,500
1082,748;   84,702;    0,727;    2,045
1083,289;   47,702;   -2,000;    1,318
1083,831;   39,793;   -0,545;    0,227
1084,372;   64,066;    0,000;    0,591
1084,913;   59,066;    1,091;    0,864
1085,455;   42,247;   -1,909;   -2,045
1085,996;   32,702;   -2,273;    0,136
1086,537;   44,157;   -0,091;    0,864
1087,078;   57,157;   -0,909;   -2,136
1087,619;   86,157;   -1,273;    0,227
1088,160;   67,975;    0,000;    1,318
1088,701;   58,884;   -1,091;    0,682
1089,242;   47,793;    1,364;   -2,227
1089,783;   69,247;   -0,273;    1,409
1090,324;   55,975;    0,455;    0,682
1090,865;   37,338;    2,727;   -0,409
1091,405;   29,975;    0,727;    2,227
1091,946;   51,611;    0,182;   -0,955
1092,487;   29,247;    0,818;   -1,409
1093,027;   77,611;   -1,364;   -1,500
1093,568;   49,247;   -0,364;    1,227
1094,108;   58,884;    0,273;    1,773
1094,649;   43,702;   -1,182;    0,136
1095,189;   34,247;   -0,636;   -0,682
1095,729;   33,611;   -0,091;    0,955
1096,269;   30,247;    0,727;   -0,955
1096,810;   96,975;   -1,364;    0,500
1097,350;   66,247;    1,364;   -0,773
1097,890;   46,520;    0,364;    1,227
1098,430;  132,338;    2,364;    2,864
1098,970;   96,429;    2,182;    1,682
1099,510;   41,975;    0,545;   -2,318
1100,050;   36,611;    1,000;   -1,591
1100,589;   43,520;   -0,727;   -0,318
1101,129;   62,338;    0,818;   -0,955
1101,669;  103,884;    1,727;    2,136
1102,209;   66,338;   -0,091;    2,227
1102,748;   48,066;    0,000;    0,955
1103,288;   53,429;    1,273;   -1,227
1103,827;   44,975;    3,091;   -2,227
1104,367;   32,702;   -0,091;   -2,409
1104,906;   32,429;    1,364;   -1,136
1105,445;   53,702;    0,636;   -1,136
1105,985;   41,429;   -0,727;    1,500
1106,524;   47,793;   -1,727;   -0,682
1107,063;   41,793;   -2,727;    1,409
1107,602;   33,066;   -1,909;   -1,500
1108,141;   25,611;   -1,909;    1,500
1108,680;   48,611;   -3,455;   -0,591
1109,219;   40,157;   -0,909;   -0,500
1109,758;   34,429;    0,455;    0,682
1110,297;   35,520;    1,000;   -0,682
1110,836;   24,884;   -0,727;    0,955
1111,375;   29,793;   -2,545;    0,409
1111,913;   55,247;   -1,000;    0,773
1112,452;   38,611;   -0,273;    0,136
1112,991;   24,520;    1,091;    1,955
1113,529;   25,884;   -0,818;   -0,045
1114,068;   34,429;   -0,273;    2,955
1114,606;   22,884;   -0,364;   -0,955
1115,144;   45,520;   -1,273;    1,045
1115,683;   34,975;   -0,727;    0,318
1116,221;   52,429;   -0,455;   -0,864
1116,759;   29,066;    0,636;   -0,864
1117,297;   57,702;    0,000;    1,864
1117,836;   31,247;   -2,182;   -1,227
1118,374;   32,975;    0,182;   -0,682
1118,912;   35,884;    0,909;    2,682
1119,450;   33,611;    1,000;    0,864
1119,988;   33,793;    1,545;    2,136
1120,525;  175,975;    5,091;    3,318
1121,063;   78,793;    1,182;    1,864
1121,601;   28,793;   -0,909;   -1,227
1122,139;   22,884;   -0,727;   -2,045
1122,676;   71,066;   -0,727;    2,773
1123,214;   59,247;   -1,182;    4,409
1123,751;   25,520;    1,727;    2,227
1124,289;   39,066;   -0,091;   -0,409
1124,826;   25,975;    1,727;    0,227
1125,364;   12,975;    1,727;   -0,955
1125,901;   69,520;    1,182;    1,227
1126,438;   57,884;    0,818;    0,955
1126,975;   14,520;   -0,727;   -0,773
1127,513;   21,157;    0,273;    2,136
1128,050;   13,247;    1,636;   -0,682
1128,587;   24,884;    2,000;   -0,227
1129,124;   38,884;    0,091;    1,318
1129,661;   19,611;    0,273;    0,227
1130,198;   51,520;    1,636;    0,773
1130,734;   32,338;    0,182;    1,409
1131,271;   10,429;   -0,909;    0,864
1131,808;   42,702;    2,909;    3,045
1132,345;   20,793;    1,545;    0,318
1132,881;    7,338;   -1,545;   -1,864
1133,418;   26,429;    0,727;   -1,136
1133,954;   17,247;    2,455;   -2,682
1134,491;   25,429;    1,364;   -0,773
1135,027;   15,793;    2,364;    0,864
1135,564;   26,793;    0,273;    2,955
1136,100;   22,157;    0,364;    2,136
1136,636;   11,611;   -1,273;   -1,045
1137,172;   22,429;    0,000;   -1,045
1137,708;   14,338;   -1,364;   -1,045
1138,245;   12,520;    1,273;   -1,227
1138,781;    8,338;    1,091;   -3,318
1139,317;   13,247;    1,273;   -1,409
1139,852;   22,793;    3,091;    0,136
1140,388;   30,338;   -1,182;   -0,409
1140,924;   19,157;   -1,091;   -2,227
1141,460;    8,611;   -1,636;    0,136
1141,996;    4,975;   -1,364;    2,682
1142,531;    7,247;    1,364;    3,318
1143,067;   39,066;    1,182;    1,045
1143,602;   51,793;   -0,091;   -0,318
1144,138;   23,702;   -2,636;    1,045
1144,673;    8,429;   -1,455;    1,409
1145,209;   14,066;   -1,909;   -0,318
1145,744;    9,793;   -0,727;    0,864
1146,279;   21,884;    1,818;   -0,136
1146,815;   12,611;    1,545;   -2,682
1147,350;   19,338;   -1,364;    0,045
1147,885;    5,066;   -0,818;   -1,318
1148,420;    9,338;   -2,273;    0,773
1148,955;    9,611;   -1,727;    1,864
1149,490;   10,884;   -0,909;   -1,591
1150,025;    9,338;    0,455;   -1,773
1150,560;   21,975;    1,091;   -0,955
1151,094;   15,884;    1,455;   -0,591
1151,629;   14,066;    1,636;    0,864
1152,164;    8,429;    1,364;    1,318
1152,698;    6,884;   -0,182;   -0,136
1153,233;    2,338;    0,091;   -0,682
1153,767;    3,520;   -3,000;   -2,318
1154,302;   12,884;   -1,455;    1,773
1154,836;    9,247;   -0,455;   -2,136
1155,371;   10,429;   -1,364;    3,682
1155,905;   10,520;   -0,636;    1,682
1156,439;    9,520;   -0,636;   -0,500
1156,973;   10,884;    0,364;    0,318
1157,507;    7,066;   -0,364;    0,682
1158,042;    9,429;   -0,727;    1,045
1158,576;   11,884;    0,182;    1,773
1159,110;   13,884;   -0,818;    2,409
1159,643;    7,884;    0,636;   -0,045
1160,177;    3,793;   -1,545;    1,500

