
Integration time [ms]:   0,040
Averaging Nr. [scans]: 11
Smoothing Nr. [pixels]: 0
Data measured with spectrometer [name]: 7318044SP
Wave   ;Sample   ;Dark     ;Reference
[nm]   ;[counts] ;[counts] ;[counts] 

186,757;   24,692;   31,551;    1,318
187,357;   60,215;   22,551;    0,955
187,958;   39,480;   15,460;   -1,591
188,558;   82,092;    8,915;   -1,227
189,159;   58,796;    6,733;   -4,500
189,759;   25,335;    7,278;   -3,591
190,360;   27,287;    2,824;   -2,136
190,960;   65,572;    2,915;   -4,136
191,560;   66,315;    3,189;   -6,591
192,161;  302,834;    4,372;   -3,500
192,761;  162,561;    4,010;   -3,227
193,361;  108,027;    1,556;   -3,773
193,962;  158,838;    2,010;   -2,682
194,562;   79,317;    1,189;   -3,955
195,162;  105,426;   -2,448;   -2,227
195,762;  263,088;   -3,176;   -0,045
196,362;  202,776;    1,370;   -2,500
196,963;   82,486;    2,006;   -0,864
197,563;  156,529;    1,551;   -0,955
198,163;   98,725;    0,096;   -0,682
198,763;  116,699;    1,733;   -0,500
199,363;  216,710;    3,096;   -0,500
199,963;  169,029;    0,369;    0,409
200,563;  137,085;    2,823;   -1,409
201,163;  121,723;    3,277;   -0,227
201,763;  201,725;    3,732;    0,318
202,363;  145,262;    1,459;    1,500
202,963;  246,923;    1,459;    1,045
203,563;  346,605;    0,277;    0,500
204,162;  198,259;    2,096;   -1,864
204,762;  199,465;    0,550;    0,591
205,362;  165,300;    3,004;    1,955
205,962;  250,196;    3,096;    1,955
206,562;  239,672;    1,823;    2,318
207,161;  205,147;   -0,087;    0,318
207,761;  359,787;    1,277;    2,409
208,361;  238,313;   -0,268;    1,409
208,960;  328,085;    0,459;    1,500
209,560;  382,228;    1,277;    1,591
210,160;  370,941;    0,550;    1,864
210,759;  332,240;    4,186;    1,227
211,359;  329,587;    1,459;    1,045
211,958;  571,431;    1,277;    2,045
212,558;  641,905;    1,732;    1,864
213,157;  487,938;    1,822;    1,500
213,757;  872,112;    3,822;   -0,227
214,356;  591,978;    1,277;   -0,409
214,956;  894,125;    3,095;    0,409
215,555;  538,838;    2,095;    2,136
216,154;  477,044;   -2,723;   -0,591
216,754;  480,627;    0,277;    0,773
217,353;  588,627;   -0,268;   -1,045
217,952;  457,426;   -0,178;    0,318
218,552;  669,226;    1,368;   -0,773
219,151;  551,120;    0,277;    0,955
219,750;  556,817;    0,004;   -0,227
220,349;  618,110;   -0,451;    1,045
220,948;  718,669;   -1,360;    1,136
221,548;  655,337;    0,913;    1,227
222,147;  757,544;   -0,087;   -0,409
222,746; 1029,997;   -0,451;   -0,955
223,345;  880,269;    0,731;    0,500
223,944;  878,323;   -0,451;    0,773
224,543;  990,835;    1,004;   -1,409
225,142; 1110,784;    0,094;    0,136
225,741;  994,897;   -0,814;    1,045
226,340;  985,919;   -0,451;   -0,955
226,939; 1363,854;   -0,996;   -0,136
227,538; 1203,612;   -0,360;   -0,773
228,137; 1397,068;   -0,814;    0,864
228,735; 1385,451;   -0,541;    1,227
229,334; 1183,760;   -0,905;   -0,227
229,933; 1558,135;    0,459;    0,591
230,532; 1645,357;    1,186;   -0,409
231,131; 1700,256;    1,732;    0,318
231,729; 1689,318;   -2,450;   -2,318
232,328; 1669,077;   -0,723;   -1,500
232,927; 1682,070;    1,004;   -0,500
233,525; 1729,137;    3,640;    0,045
234,124; 1901,605;    2,368;   -1,591
234,723; 1853,276;    0,913;   -1,045
235,321; 1928,229;    2,277;    0,136
235,920; 2065,664;    1,186;   -1,227
236,518; 2304,071;    3,459;    0,318
237,117; 2305,840;    0,004;   -0,227
237,715; 2392,263;    0,640;   -0,500
238,314; 2425,392;   -0,087;   -2,318
238,912; 2561,871;   -0,723;   -1,409
239,510; 2480,218;    0,459;   -1,227
240,109; 2646,696;    0,004;    3,773
240,707; 2611,125;   -0,996;    1,227
241,305; 2742,747;    0,550;    0,136
241,904; 2920,111;   -0,178;   -2,045
242,502; 2948,328;   -0,632;   -0,227
243,100; 2823,573;   -0,087;   -0,955
243,698; 2975,178;    0,732;    1,682
244,297; 3059,651;   -0,632;    0,682
244,895; 2968,902;   -0,269;   -2,318
245,493; 3209,693;    2,186;   -0,591
246,091; 3180,743;    1,368;   -1,318
246,689; 3117,489;    1,004;    0,591
247,287; 3192,756;    0,822;   -1,136
247,885; 3360,932;   -1,451;    1,227
248,483; 3411,478;    1,822;   -0,500
249,081; 3493,557;    0,185;    1,591
249,679; 3587,473;   -0,178;    1,682
250,277; 3737,425;   -1,723;    0,864
250,875; 3704,281;   -1,087;   -1,045
251,473; 3696,845;   -1,178;    0,500
252,071; 3840,750;    1,459;    1,045
252,669; 3913,595;   -1,814;    0,318
253,267; 4019,240;   -0,087;    0,773
253,864; 3916,392;   -0,360;    0,682
254,462; 3976,624;    1,640;    1,591
255,060; 3851,898;   -0,269;    1,318
255,658; 3998,959;    0,822;   -0,136
256,255; 4335,684;    0,186;   -2,045
256,853; 4262,659;   -0,269;    1,409
257,451; 4213,003;    0,822;    1,864
258,048; 4592,550;    1,822;    1,864
258,646; 4229,461;    1,731;   -1,045
259,243; 4376,023;   -0,087;    2,227
259,841; 4350,280;   -0,814;    0,318
260,438; 4259,799;   -0,087;    0,864
261,036; 4707,384;   -1,905;    1,409
261,633; 4669,922;   -0,087;    2,227
262,231; 4498,493;    2,731;   -0,045
262,828; 4540,058;   -0,905;    1,136
263,425; 4544,587;    0,913;   -0,591
264,023; 4736,080;    0,186;    0,045
264,620; 4399,952;   -0,360;   -0,318
265,217; 4665,395;   -2,087;    3,136
265,815; 4696,594;   -1,905;    2,136
266,412; 4623,722;    0,731;    0,136
267,009; 4609,112;   -1,451;    0,773
267,606; 4646,370;    0,822;   -0,955
268,203; 4518,334;   -0,269;   -0,591
268,801; 4694,184;    1,731;    0,591
269,398; 4881,264;   -0,360;    2,500
269,995; 4859,968;    0,277;    1,591
270,592; 4686,966;   -0,632;   -0,500
271,189; 4802,289;    0,186;    0,409
271,786; 4904,411;   -0,632;    1,227
272,383; 4909,710;   -1,087;    0,227
272,980; 4938,142;    0,277;    0,318
273,577; 5234,279;    0,004;    1,227
274,174; 4877,956;    0,822;    2,591
274,771; 4850,141;   -0,814;   -0,773
275,367; 5089,206;    2,277;    1,409
275,964; 5024,033;    0,731;   -0,500
276,561; 5053,267;    1,549;   -1,045
277,158; 5148,564;    0,095;   -1,773
277,755; 5295,739;    2,185;    0,409
278,351; 4812,206;   -0,451;   -1,500
278,948; 5034,461;   -0,815;    0,045
279,545; 4987,524;   -1,360;    2,318
280,141; 5552,986;   -1,723;   -2,045
280,738; 5350,451;   -0,451;   -0,136
281,334; 5407,719;   -1,633;    0,591
281,931; 4961,904;   -0,087;   -1,318
282,528; 5069,111;    0,822;   -0,500
283,124; 5581,987;   -1,087;   -0,500
283,721; 5453,614;   -0,451;    1,409
284,317; 5307,934;    0,185;    2,500
284,913; 5739,462;   -1,360;    0,591
285,510; 5946,917;    0,640;   -0,318
286,106; 5887,041;   -2,269;   -0,955
286,703; 5483,855;   -0,360;    1,955
287,299; 5653,553;   -1,451;   -0,591
287,895; 5792,794;    0,822;   -1,045
288,491; 6199,174;    0,186;    2,136
289,088; 6040,983;   -2,360;    2,409
289,684; 6059,868;   -1,723;    1,500
290,280; 6078,951;    0,368;    0,682
290,876; 6139,037;    1,822;    5,500
291,472; 6070,861;    1,276;    2,227
292,068; 6100,186;    1,367;    0,227
292,665; 5835,826;    2,095;    0,773
293,261; 5638,070;    0,276;    2,136
293,857; 5915,260;    2,913;    2,136
294,453; 5859,608;    3,550;    0,955
295,049; 5771,308;   -0,268;    1,955
295,644; 5809,222;    0,095;    0,136
296,240; 5709,693;   -0,905;   -0,136
296,836; 5794,009;   -0,995;    0,318
297,432; 5982,729;    1,096;   -0,500
298,028; 6074,414;    0,732;    0,773
298,624; 6308,590;    1,459;    1,864
299,220; 6445,550;    2,368;    0,591
299,815; 6196,922;    1,005;   -0,409
300,411; 6054,490;    0,914;    1,773
301,007; 6065,014;    1,368;    0,227
301,602; 6033,766;   -0,541;   -2,318
302,198; 6202,472;    0,732;   -0,773
302,794; 6410,763;    1,187;   -0,500
303,389; 6467,708;   -1,177;    1,045
303,985; 6517,810;    0,550;    1,409
304,580; 6532,054;    1,459;    1,591
305,176; 6490,284;   -3,086;    0,136
305,771; 6373,142;   -1,268;   -1,227
306,367; 6426,625;    4,095;    0,136
306,962; 6616,311;    0,641;    1,500
307,558; 6330,081;   -0,450;    0,136
308,153; 6283,448;    1,095;   -1,136
308,748; 6444,898;   -0,814;    1,682
309,344; 6479,286;   -0,632;   -1,318
309,939; 6609,749;   -1,905;   -1,318
310,534; 6746,426;   -0,086;   -1,682
311,130; 6627,200;    0,459;   -2,500
311,725; 6389,416;    1,004;   -0,500
312,320; 6680,614;    2,459;    0,045
312,915; 6640,862;    1,459;   -1,045
313,510; 6726,604;    1,550;   -0,500
314,105; 7024,213;    1,096;    1,409
314,700; 6516,338;   -3,086;   -1,045
315,295; 6315,781;   -0,904;    0,045
315,890; 5989,166;    1,277;    0,864
316,485; 6217,470;   -0,359;   -0,318
317,080; 6321,911;   -3,086;    1,591
317,675; 6735,323;    2,005;   -0,682
318,270; 6379,198;    5,550;    3,318
318,865; 6379,489;    3,278;    3,045
319,460; 6227,469;   -0,904;    0,591
320,055; 6383,540;   -0,541;   -1,227
320,650; 6153,972;   -1,995;   -0,591
321,244; 6187,629;   -0,177;   -1,409
321,839; 6853,556;   -1,541;   -0,227
322,434; 6767,159;   -1,086;   -1,591
323,029; 6523,857;    1,732;    1,591
323,623; 6426,262;    1,550;    0,773
324,218; 6330,804;    2,368;    1,409
324,812; 6238,926;    1,096;    1,591
325,407; 6091,742;   -0,814;    2,045
326,002; 6048,862;    0,277;   -0,409
326,596; 6312,575;    0,914;    1,318
327,191; 6413,500;    0,823;   -1,045
327,785; 6119,121;   -0,813;   -0,227
328,379; 6331,161;    1,368;    0,136
328,974; 6131,094;    0,914;   -3,955
329,568; 6366,114;    0,186;   -2,409
330,163; 6259,935;    2,096;    1,045
330,757; 6469,482;    2,459;    1,591
331,351; 5998,436;    0,459;    0,682
331,945; 6232,781;    0,914;    1,409
332,540; 5977,781;   -1,723;   -0,591
333,134; 6078,966;   -1,086;    0,773
333,728; 6233,575;    0,005;    0,318
334,322; 6444,767;   -1,177;   -0,864
334,916; 5891,557;    0,277;    0,955
335,510; 6193,679;   -0,450;   -0,136
336,105; 6420,864;   -1,086;    1,591
336,699; 6157,908;   -1,086;    0,591
337,293; 6111,479;   -1,723;    0,318
337,887; 6177,365;   -2,723;    1,955
338,481; 6268,915;    0,459;    0,591
339,074; 6457,303;   -0,359;    2,682
339,668; 6325,189;   -1,632;    1,227
340,262; 6644,154;    1,732;    3,227
340,856; 6183,166;    1,822;   -0,682
341,450; 5701,340;    1,004;    1,864
342,044; 6292,479;    1,459;    0,136
342,637; 6170,060;    0,913;   -2,136
343,231; 6077,142;   -2,360;    0,682
343,825; 6013,745;   -1,086;   -0,591
344,419; 6037,125;   -1,995;    0,500
345,012; 6072,043;    2,459;    4,045
345,606; 6021,493;    4,641;    1,591
346,199; 5862,575;   -1,813;   -0,227
346,793; 5581,462;    1,914;    2,045
347,386; 5697,921;   -0,813;   -1,136
347,980; 5665,889;   -0,268;   -0,045
348,573; 5584,524;    2,278;    0,409
349,167; 5474,196;    5,278;    4,773
349,760; 5751,911;    2,914;    2,682
350,354; 5663,257;   -0,813;    1,136
350,947; 5535,439;    1,096;    1,682
351,540; 5278,409;   -0,358;   -1,409
352,134; 5214,844;    1,096;    1,136
352,727; 5289,345;   -0,086;    1,136
353,320; 5207,503;    0,005;    0,591
353,913; 5046,325;   -1,995;    1,864
354,507; 5231,324;    0,823;   -1,227
355,100; 5263,526;    0,460;    0,864
355,693; 4861,936;    2,005;    2,409
356,286; 4848,590;    0,823;    2,773
356,879; 5050,783;   -0,722;    1,227
357,472; 4770,115;   -0,904;    1,500
358,065; 4972,841;   -0,722;    2,500
358,658; 4895,165;   -0,540;    2,318
359,251; 4620,946;   -1,631;   -0,591
359,844; 4366,442;   -1,904;   -1,136
360,437; 4530,828;   -2,995;    0,045
361,030; 4724,286;    1,369;   -0,682
361,623; 4426,263;    2,824;    0,318
362,215; 4488,830;   -0,086;    2,045
362,808; 4391,628;   -2,358;   -1,682
363,401; 4496,205;   -2,449;    0,136
363,994; 4439,438;   -0,631;   -1,500
364,586; 4325,724;    0,824;   -1,500
365,179; 4442,354;   -0,449;   -1,136
365,772; 4034,892;   -1,995;    2,045
366,364; 4255,921;    1,915;   -3,227
366,957; 4475,134;    2,279;   -0,045
367,549; 4420,470;    2,188;   -0,864
368,142; 4220,386;    1,825;   -1,500
368,734; 4340,788;    0,734;   -2,136
369,327; 4346,775;    1,643;   -0,500
369,919; 4284,815;   -1,538;    0,409
370,512; 4220,089;   -1,083;   -0,500
371,104; 4063,380;   -0,901;    1,591
371,696; 4204,288;    1,191;   -0,955
372,289; 4224,700;    0,373;    1,136
372,881; 4320,126;   -2,080;    1,318
373,473; 4212,570;   -2,170;    1,136
374,066; 4136,420;   -0,169;    0,500
374,658; 4062,266;    0,378;    1,136
375,250; 4266,728;    0,653;   -1,409
375,842; 4176,634;    0,473;   -0,045
376,434; 4076,555;   -0,435;   -0,409
377,026; 4484,012;    0,204;   -2,500
377,618; 4389,200;   -0,158;   -0,682
378,210; 4266,306;   -0,338;   -1,955
378,802; 4142,309;    0,754;   -0,591
379,394; 4224,025;    1,846;    0,682
379,986; 4570,265;    1,393;   -0,955
380,578; 4604,394;   -0,153;    0,773
381,170; 4233,354;   -0,972;    0,045
381,762; 4171,881;    0,755;    1,409
382,354; 4286,611;   -0,065;   -1,318
382,945; 4353,856;   -2,976;    0,318
383,537; 4462,343;   -2,705;   -1,955
384,129; 4492,443;   -2,160;   -1,136
384,721; 4607,094;   -0,252;    0,955
385,312; 4536,761;   -0,161;   -0,955
385,904; 4645,836;   -2,706;    1,591
386,496; 4156,919;   -0,979;    1,045
387,087; 4324,045;    1,022;    2,500
387,679; 4287,853;   -1,160;    0,045
388,270; 4415,733;    2,840;    2,045
388,862; 4481,279;    1,295;   -0,318
389,453; 4338,555;   -0,887;    1,045
390,045; 4563,076;   -0,705;   -2,682
390,636; 4511,005;    0,204;   -0,591
391,227; 4387,468;   -0,523;   -0,045
391,819; 4519,518;    0,204;    0,773
392,410; 4569,505;    1,022;    0,045
393,001; 4519,673;   -0,979;   -1,591
393,593; 4699,420;    1,930;   -0,045
394,184; 4614,272;    1,385;   -0,409
394,775; 4462,824;    1,839;    2,136
395,366; 4651,828;    1,385;    0,773
395,957; 4634,584;    0,113;    0,136
396,548; 4873,194;   -0,342;    2,682
397,139; 5116,115;   -2,433;    0,591
397,730; 4917,113;   -1,888;    0,955
398,321; 4936,943;   -1,252;    0,955
398,912; 4925,638;   -0,615;    0,136
399,503; 5027,517;   -3,524;   -1,409
400,094; 4624,700;    0,294;    1,682
400,685; 4544,405;   -0,433;    0,045
401,276; 4560,734;    0,930;   -0,955
401,867; 4774,474;   -0,888;    0,773
402,458; 4838,929;   -2,251;   -2,318
403,048; 4862,799;    1,112;    0,591
403,639; 4552,826;    0,840;    0,864
404,230; 4847,150;    2,476;    0,318
404,821; 4813,608;   -0,615;    0,045
405,411; 4880,027;    1,203;   -2,591
406,002; 4545,332;   -1,252;   -1,136
406,592; 4540,598;    2,294;    0,045
407,183; 4727,285;    0,566;   -1,500
407,774; 4617,319;    3,475;   -0,136
408,364; 4840,280;    0,930;    0,409
408,954; 4629,507;    0,384;    1,227
409,545; 4647,380;    1,021;    1,045
410,135; 4279,773;    1,293;    0,500
410,726; 4406,146;    1,838;    0,318
411,316; 4731,332;    0,111;    0,773
411,906; 4451,496;   -0,253;   -0,409
412,497; 4108,476;   -1,070;   -0,045
413,087; 4531,851;   -1,980;   -0,227
413,677; 4820,352;   -0,707;    3,864
414,267; 4695,402;    0,656;    1,409
414,857; 4693,927;   -2,980;    4,227
415,448; 4910,783;    0,839;    0,500
416,038; 4703,169;    0,020;   -0,591
416,628; 4665,771;   -0,889;    0,409
417,218; 4388,489;    0,565;    3,318
417,808; 4560,014;    0,202;   -0,409
418,398; 4827,474;    0,020;    2,682
418,988; 4792,812;    2,020;    0,591
419,578; 4962,308;   -0,707;    1,409
420,168; 5216,913;   -1,343;   -0,955
420,757; 4926,716;   -1,343;   -1,500
421,347; 4682,043;    0,111;   -0,227
421,937; 4789,486;    2,292;    1,409
422,527; 4783,882;    0,838;   -0,773
423,116; 4666,971;   -0,253;   -0,045
423,706; 4878,435;   -1,889;    0,318
424,296; 4806,926;    1,384;    0,682
424,885; 5164,653;   -0,071;   -3,045
425,475; 5363,467;    1,474;   -2,864
426,065; 5289,074;   -0,980;   -0,318
426,654; 5004,456;   -0,435;   -0,318
427,244; 5185,418;    0,020;    1,409
427,833; 4768,092;    1,383;   -0,500
428,423; 5043,817;   -0,526;    1,136
429,012; 5591,409;   -0,344;   -1,136
429,601; 5248,447;   -1,344;    0,136
430,191; 5397,770;    1,292;    4,318
430,780; 5075,210;   -0,344;   -0,409
431,369; 5138,156;    0,746;   -0,045
431,959; 5565,906;   -1,254;    0,500
432,548; 5348,148;   -1,163;   -0,045
433,137; 5432,562;   -1,254;   -1,318
433,726; 5858,547;    0,292;    0,500
434,315; 5412,629;   -0,526;    2,409
434,905; 5522,188;   -1,254;    1,409
435,494; 5495,399;    0,746;    0,955
436,083; 5773,521;   -0,981;   -0,955
436,672; 5645,391;    0,110;    0,500
437,261; 5404,688;    0,292;   -1,955
437,850; 5546,121;    1,383;    0,682
438,439; 5487,777;    3,291;    1,955
439,027; 5433,902;    3,655;    1,773
439,616; 5674,830;    2,927;    1,227
440,205; 5487,611;    0,200;   -2,136
440,794; 5491,283;    2,109;   -0,045
441,383; 5647,342;   -1,346;   -0,591
441,971; 5534,780;   -2,436;    0,591
442,560; 5387,543;    0,563;   -1,773
443,149; 5187,360;    0,379;   -1,318
443,737; 5349,527;   -0,074;   -2,318
444,326; 5549,306;    0,018;    0,318
444,915; 5579,149;   -1,982;    0,864
445,503; 5870,625;   -2,891;   -0,318
446,092; 5393,296;    0,382;    2,136
446,680; 5775,837;    0,382;    0,318
447,269; 5888,374;   -0,346;   -0,318
447,857; 5705,095;    0,018;   -1,773
448,445; 5816,627;    0,563;    1,318
449,034; 5993,034;   -1,528;   -1,136
449,622; 6054,925;   -1,073;    3,500
450,210; 5620,858;    2,017;    2,227
450,799; 5988,365;    0,290;   -0,591
451,387; 5903,878;    1,381;   -0,591
451,975; 5686,718;    2,654;    0,864
452,563; 5814,571;    3,472;    2,318
453,151; 5758,127;   -0,528;   -1,227
453,739; 5692,345;   -1,347;    0,136
454,328; 5635,198;    2,381;   -2,136
454,916; 5431,108;    2,562;   -0,136
455,504; 5592,227;    1,017;    1,227
456,092; 5697,674;    0,017;   -1,591
456,679; 5619,321;    1,472;    0,682
457,267; 5765,497;    4,017;    1,045
457,855; 5781,252;    1,017;    1,409
458,443; 5521,899;   -0,165;    1,682
459,031; 5732,085;    0,108;    2,409
459,619; 6024,938;   -1,801;    2,864
460,206; 6029,978;    0,835;    2,045
460,794; 6110,289;   -2,983;   -0,227
461,382; 6306,668;   -0,529;   -0,864
461,970; 5988,620;    1,198;    1,864
462,557; 6035,772;   -0,711;   -0,682
463,145; 6186,587;   -3,165;   -1,682
463,732; 6297,360;    2,016;   -1,045
464,320; 6186,850;   -0,075;   -3,045
464,907; 5987,174;    2,743;   -0,773
465,495; 5868,263;    0,743;   -1,227
466,082; 5977,929;   -1,984;   -0,045
466,670; 5856,219;   -2,529;    1,227
467,257; 6213,944;   -1,711;    2,045
467,844; 6401,983;   -0,075;    0,045
468,432; 6428,934;    0,834;    3,500
469,019; 6070,483;    0,925;   -1,773
469,606; 6412,664;    0,470;    3,682
470,193; 6301,429;   -1,439;    0,227
470,780; 6018,668;   -2,075;    0,864
471,368; 6263,087;   -1,257;   -0,773
471,955; 6087,435;    1,379;   -0,682
472,542; 5827,161;    0,652;   -1,136
473,129; 6000,573;   -0,166;    0,136
473,716; 5829,314;    1,470;    0,591
474,303; 5922,823;    0,652;   -0,864
474,890; 6128,525;   -1,439;   -0,500
475,477; 6193,624;   -1,621;    0,409
476,064; 6108,089;    1,106;   -1,591
476,650; 6002,114;    0,288;    0,318
477,237; 5903,205;   -0,258;    0,955
477,824; 6032,391;   -1,076;    0,864
478,411; 6017,283;   -1,894;   -0,318
478,997; 6157,040;    0,560;   -0,773
479,584; 6181,826;    1,196;   -0,409
480,171; 6743,593;   -0,440;   -0,773
480,757; 6523,482;    2,651;    0,773
481,344; 6697,259;    0,469;    0,409
481,931; 6262,285;    1,105;    1,045
482,517; 6995,731;   -1,258;    0,318
483,104; 7343,620;    1,106;    2,864
483,690; 7473,019;   -1,804;    0,045
484,276; 7671,091;   -0,895;    0,227
484,863; 7505,695;    2,469;    1,136
485,449; 7915,850;   -0,077;    0,318
486,035; 7870,800;   -1,986;   -0,136
486,622; 8243,006;   -0,895;    0,045
487,208; 8170,724;    1,378;    1,500
487,794; 8063,033;    0,741;    0,318
488,380; 8153,613;    0,105;   -1,409
488,967; 8211,984;   -1,168;   -0,409
489,553; 8284,485;   -1,895;   -1,409
490,139; 8411,515;    1,559;    0,773
490,725; 8000,877;    0,741;   -0,227
491,311; 7739,218;    3,287;    3,045
491,897; 7255,890;   -0,986;    1,500
492,483; 7209,584;    0,105;    1,227
493,069; 7268,337;    3,923;    0,864
493,655; 7129,465;    1,650;    0,682
494,241; 7054,624;    1,377;   -0,955
494,826; 7380,413;    0,287;   -1,045
495,412; 6913,528;    2,559;   -0,682
495,998; 7092,313;   -0,805;   -0,318
496,584; 7128,214;    0,377;    1,045
497,169; 7077,441;    1,014;   -0,682
497,755; 7068,752;    0,650;    1,227
498,341; 7552,187;    0,559;    0,318
498,926; 7192,594;    1,832;    1,955
499,512; 7333,251;    1,286;    2,955
500,097; 7300,151;    0,195;   -0,318
500,683; 7284,736;   -0,350;    2,136
501,268; 7597,905;   -0,169;   -0,955
501,854; 7408,296;   -0,169;    1,227
502,439; 7333,779;   -0,624;   -1,773
503,024; 7437,124;    0,195;    0,500
503,610; 7490,749;   -0,078;   -0,682
504,195; 7483,661;    0,558;    1,955
504,780; 7625,104;    2,922;    1,227
505,366; 7514,942;    3,013;    2,864
505,951; 7262,657;    0,740;    1,045
506,536; 7314,156;   -3,260;   -3,682
507,121; 7310,492;    0,285;   -0,318
507,706; 7712,346;    2,376;    1,045
508,291; 7949,184;    2,649;    1,136
508,876; 7498,283;   -0,988;    2,591
509,461; 7102,853;   -0,169;   -0,773
510,046; 7432,860;    0,194;    0,318
510,631; 7649,356;   -0,351;   -0,773
511,216; 7372,346;    2,467;   -0,500
511,801; 7712,258;   -0,442;    2,591
512,386; 7860,548;    0,740;    0,500
512,971; 7836,758;   -2,988;    0,955
513,555; 7501,085;   -0,897;   -1,500
514,140; 8102,979;   -0,442;   -3,136
514,725; 8040,364;   -0,715;   -1,136
515,309; 8167,112;   -0,533;    0,318
515,894; 7791,470;   -0,624;   -2,227
516,479; 8128,376;   -0,624;   -0,955
517,063; 7932,724;    0,376;    1,227
517,648; 8099,468;    1,012;   -1,136
518,232; 7710,497;   -0,261;   -1,409
518,817; 8054,890;   -0,079;    1,682
519,401; 8251,977;    2,194;    0,591
519,985; 7814,306;    1,103;    1,136
520,570; 7707,725;    0,830;   -1,955
521,154; 7969,534;    2,102;    0,591
521,738; 8094,653;   -2,352;    2,409
522,323; 8576,008;   -0,170;    1,682
522,907; 8318,411;    0,466;   -0,136
523,491; 8106,265;    0,557;    0,955
524,075; 8114,568;    2,284;    0,591
524,659; 8195,815;    1,466;    0,591
525,243; 7803,129;    1,739;    0,409
525,827; 7943,434;    0,648;   -0,045
526,411; 8557,360;   -1,989;   -0,136
526,995; 8751,515;   -0,352;    1,409
527,579; 8425,105;   -0,443;   -1,045
528,163; 8640,833;    0,375;   -1,500
528,747; 8645,471;    2,466;   -0,773
529,331; 8862,315;   -0,080;   -1,409
529,915; 8966,275;    1,738;    0,955
530,499; 8939,160;   -0,807;    1,227
531,082; 8711,323;   -0,534;    1,591
531,666; 8308,741;    1,374;    0,773
532,250; 8784,683;    1,284;    2,682
532,833; 9003,355;    0,920;    2,773
533,417; 8888,342;   -1,807;    0,864
534,001; 8819,470;    1,647;   -0,318
534,584; 9395,288;    0,374;    0,500
535,168; 9250,143;    0,465;    1,409
535,751; 9283,201;    0,647;    0,045
536,334; 8825,308;   -0,898;   -0,409
536,918; 9321,205;    0,011;    1,591
537,501; 9338,856;   -0,899;    1,318
538,085; 9346,272;   -0,444;    1,045
538,668; 9384,029;    0,829;    2,409
539,251; 9682,605;    1,829;    3,773
539,834; 9723,769;    0,101;    0,773
540,418; 9686,822;   -1,990;    4,318
541,001; 9724,036;   -0,990;    1,773
541,584; 9698,326;    2,101;    2,227
542,167; 9418,772;    1,374;    2,955
542,750; 9481,903;    1,919;   -0,773
543,333; 9118,360;    0,555;    2,136
543,916; 9774,518;    0,192;    2,500
544,499;10181,491;   -1,354;    0,227
545,082;10209,048;    1,374;    3,591
545,665;10321,492;    1,919;    1,500
546,248;10529,269;    1,010;   -0,318
546,830;10240,338;   -0,445;    1,955
547,413;10562,162;    1,010;   -0,773
547,996;11011,079;    0,555;    0,500
548,579;10772,468;    0,919;    0,955
549,161;10612,480;    1,828;    2,682
549,744;10393,233;   -0,809;    0,409
550,326;10825,650;   -0,809;   -1,136
550,909;10659,822;    2,737;    0,591
551,492;11033,670;   -0,263;    0,227
552,074;10839,244;   -0,173;   -1,318
552,657;11294,747;    2,373;    0,045
553,239;11096,745;   -0,173;   -0,773
553,821;11029,933;   -1,082;    1,045
554,404;10601,923;    1,282;    1,136
554,986;10874,156;    0,464;    1,045
555,568;11342,518;    1,191;   -0,955
556,151;10771,366;    1,191;   -0,227
556,733;10943,521;   -0,264;   -0,864
557,315;11291,566;    0,100;    0,500
557,897;11014,889;    0,554;   -0,500
558,479;11135,331;   -1,991;    1,318
559,061;11260,140;   -0,719;   -0,864
559,643;11524,466;   -0,264;    0,045
560,225;11780,166;    1,645;    2,864
560,807;11788,466;    0,918;    0,318
561,389;11382,331;    0,554;    2,318
561,971;11898,084;    0,463;    2,136
562,553;11824,964;   -1,628;    1,591
563,135;11908,862;   -0,537;    1,136
563,717;11570,856;    3,372;    1,136
564,298;12110,150;    3,645;   -0,045
564,880;11835,241;    0,645;   -1,409
565,462;11902,969;    0,645;    1,318
566,043;12820,147;   -0,446;    2,318
566,625;12421,984;    1,918;    1,227
567,207;12234,197;    1,099;    1,682
567,788;13030,378;   -1,264;    1,500
568,370;13620,074;    1,917;   -0,500
568,951;13345,042;    0,190;    0,227
569,533;13987,815;   -0,628;   -0,500
570,114;14319,915;   -0,446;    0,682
570,695;14649,467;   -0,174;   -1,318
571,277;14848,246;   -0,265;   -1,682
571,858;15381,454;    2,008;   -1,136
572,439;15986,398;    1,554;   -1,045
573,021;16019,807;    2,099;   -2,773
573,602;16354,138;   -1,265;    0,318
574,183;17014,692;   -2,083;    2,227
574,764;16966,905;   -1,629;    0,409
575,345;17311,702;    0,917;   -0,136
575,926;17709,254;   -0,356;    0,136
576,507;17680,792;    1,099;   -0,227
577,088;18541,041;    3,099;    1,682
577,669;18488,211;    0,735;    1,955
578,250;19061,237;    0,644;   -1,045
578,831;19395,858;   -1,356;   -2,227
579,412;19485,241;   -0,810;    0,955
579,993;20273,707;    1,008;    0,227
580,573;20569,713;   -0,629;   -0,955
581,154;19620,126;    0,735;   -0,591
581,735;20340,751;    0,644;    0,773
582,315;19897,660;   -0,629;    2,136
582,896;20136,177;   -0,174;    1,227
583,477;19696,916;    0,189;    1,227
584,057;19876,138;    0,553;    0,955
584,638;20129,071;    2,553;    2,318
585,218;20187,538;   -0,538;    2,682
585,799;20289,983;    0,281;   -0,227
586,379;20332,041;    0,372;    1,591
586,959;19436,285;    0,735;    0,318
587,540;19017,204;   -0,629;    2,227
588,120;18701,621;    1,007;   -0,045
588,700;18049,069;    2,553;    2,136
589,281;18357,301;    0,462;   -0,955
589,861;18262,214;    0,099;   -1,682
590,441;18148,264;    2,371;   -2,682
591,021;17322,271;   -0,265;   -2,591
591,601;17633,467;   -0,537;    0,500
592,181;17719,020;   -0,719;   -0,773
592,761;17115,395;    0,007;    1,409
593,341;17162,280;   -0,901;    0,045
593,921;17190,290;   -0,265;    1,591
594,501;17086,128;   -0,538;    1,318
595,081;16915,896;    0,917;   -0,318
595,661;17255,669;   -1,447;    0,955
596,240;17730,128;   -0,537;    0,136
596,820;17295,503;    0,372;    1,955
597,400;17342,930;    2,008;    0,773
597,980;17596,663;    2,008;    1,045
598,559;17674,077;    2,735;   -0,227
599,139;17484,875;   -0,174;   -1,227
599,718;17371,148;   -0,174;   -0,409
600,298;17588,010;    0,735;    0,682
600,877;17836,153;    2,917;    1,409
601,457;18048,619;    2,281;    1,136
602,036;17990,758;    0,190;    2,045
602,616;18037,136;    0,644;    1,682
603,195;18359,274;   -0,355;    3,500
603,774;18018,775;   -0,901;    2,045
604,354;17857,714;    0,826;   -0,500
604,933;17514,159;    0,463;    1,864
605,512;17657,453;    3,554;    0,591
606,091;17696,379;   -0,537;    3,773
606,671;18399,758;    0,281;    0,773
607,250;17733,630;    1,644;    3,136
607,829;17862,964;    2,372;    3,227
608,408;17776,665;    1,190;    2,591
608,987;16990,964;    1,281;    3,409
609,566;17210,923;   -1,265;   -2,500
610,145;17342,503;   -1,082;    0,682
610,723;17708,726;    4,372;    6,864
611,302;17098,221;   -0,446;    1,682
611,881;16720,437;    5,008;   11,227
612,460;17397,994;    1,645;    3,955
613,039;17728,478;   -0,082;    2,045
613,617;16683,369;    1,736;    4,773
614,196;16814,291;    1,099;    1,227
614,775;17156,946;    1,009;    2,409
615,353;17116,307;    0,736;    0,864
615,932;16973,591;    0,100;    2,409
616,510;17493,601;    0,554;    0,591
617,089;17141,238;    7,100;   17,591
617,667;17016,754;    2,372;    6,136
618,246;16853,727;   -1,537;    1,318
618,824;16966,993;   -3,355;   -0,955
619,402;16597,065;   -2,900;   -1,773
619,981;16987,578;   -0,173;   -1,045
620,559;16946,265;    0,009;    1,682
621,137;16586,949;   -0,718;    1,864
621,715;16501,808;   -1,173;   -0,682
622,293;16468,579;   -0,537;   -0,773
622,871;16934,476;   -0,718;    0,500
623,450;16604,991;    0,373;   -0,864
624,028;16567,762;    0,191;   -0,955
624,606;16238,899;   -1,718;    1,682
625,183;16505,679;   -1,536;   -1,136
625,761;16250,515;    1,009;    1,136
626,339;16534,237;    1,373;    2,591
626,917;16826,903;   -0,172;   -0,045
627,495;16887,690;   -0,354;    1,318
628,073;16417,627;   -0,263;    2,864
628,650;16153,706;    0,100;    2,136
629,228;16542,362;    0,373;    4,409
629,806;16077,123;    2,282;    1,136
630,383;16278,868;    1,464;   -0,318
630,961;16192,875;    2,555;   -0,955
631,539;15977,608;    2,464;    0,227
632,116;15493,238;   11,373;   15,409
632,694;15950,467;    2,555;    6,500
633,271;16083,627;    0,828;    2,682
633,848;16142,733;    1,828;    2,045
634,426;16114,515;   -1,081;    1,773
635,003;15393,247;    1,101;   -0,409
635,580;15633,502;    1,192;    3,682
636,158;16072,689;    3,737;    1,227
636,735;16077,561;    0,555;   -0,500
637,312;16184,434;   -0,809;   -0,682
637,889;16253,311;   -4,354;   -0,682
638,466;15853,068;   -3,990;   -0,409
639,043;15864,082;    2,101;   -1,136
639,620;16101,985;   -2,262;   -0,955
640,197;16360,647;    1,100;    1,682
640,774;16541,919;   -0,172;    1,136
641,351;16834,009;    0,737;    1,136
641,928;16408,917;   -0,627;    1,409
642,505;16116,916;    0,828;   -0,500
643,082;16198,461;   -1,718;    1,227
643,658;15458,460;   -0,718;    1,500
644,235;16033,550;    1,191;    2,500
644,812;16237,185;    1,918;    0,773
645,388;16055,548;   -0,991;    1,409
645,965;16097,002;   -0,809;    1,682
646,542;16132,910;   -1,445;   -0,227
647,118;16217,091;    1,009;   -0,955
647,695;16414,090;   -0,263;    1,136
648,271;16394,907;   -0,536;    0,500
648,848;16576,452;    0,736;    2,227
649,424;16491,360;    0,827;    1,318
650,000;16213,450;   -0,354;   -1,045
650,577;16106,722;   -0,627;   -0,955
651,153;16439,812;   -1,809;    0,955
651,729;17146,720;    1,191;    0,864
652,305;17212,174;    0,645;    2,773
652,881;20011,809;   -0,082;    1,136
653,458;24531,445;    1,100;    0,227
654,034;27071,444;    0,282;    1,591
654,610;27976,716;    0,554;    0,773
655,186;29001,442;    0,645;    3,045
655,762;28595,896;   -0,991;    0,409
656,338;28621,622;    0,100;    0,136
656,913;29468,530;   -0,082;    0,409
657,489;28772,166;    0,827;   -0,318
658,065;28812,983;   -0,173;   -1,591
658,641;29415,346;   -0,900;   -0,864
659,217;28826,799;   -0,991;    0,409
659,792;28300,708;    0,645;   -0,409
660,368;28623,525;   -2,173;   -0,682
660,944;28696,433;   -2,082;    1,227
661,519;25637,614;   -0,628;    0,409
662,095;21703,886;   -1,719;    0,591
662,670;18620,430;    1,281;   -0,136
663,246;17957,611;    1,009;   -0,409
663,821;17498,429;    0,281;    1,682
664,396;17028,519;    0,009;    1,864
664,972;17230,063;    0,009;   -0,500
665,547;17531,517;    1,372;    0,136
666,122;17510,516;   -1,082;    0,318
666,698;17706,151;   -0,173;    0,318
667,273;17141,423;   -0,173;    0,136
667,848;17808,513;    2,372;    1,500
668,423;17603,512;    2,190;    2,318
668,998;17976,784;    2,827;   -0,682
669,573;18453,329;   -3,264;   -1,500
670,148;18315,328;   -1,446;   -0,682
670,723;18053,327;   -1,810;    0,318
671,298;18452,690;    2,372;    1,045
671,873;18476,325;   -0,082;   -0,136
672,448;18409,961;    0,645;    0,136
673,023;18727,505;   -1,992;   -0,227
673,597;18986,050;    0,827;    2,318
674,172;18848,413;   -0,355;    0,318
674,747;18418,503;    0,372;   -1,045
675,321;18160,865;   -0,628;    3,318
675,896;17843,046;    0,645;    1,045
676,471;18631,318;    2,645;    1,591
677,045;18406,408;   -1,264;    0,682
677,620;18454,044;    0,190;    1,136
678,194;18774,770;   -2,628;    1,136
678,769;18454,951;   -1,083;   -0,318
679,343;18690,223;   -0,628;    1,773
679,917;18596,858;   -1,446;    1,955
680,492;18598,403;    0,826;    3,227
681,066;18686,947;    3,372;    0,409
681,640;18725,765;    1,463;   -0,318
682,214;19394,855;    0,735;    0,500
682,788;18992,308;   -1,356;   -0,773
683,363;18870,671;   -1,810;    1,682
683,937;18638,943;   -1,719;   -0,318
684,511;19270,124;    0,463;   -0,591
685,085;19037,396;   -1,356;    0,318
685,659;18751,758;   -2,538;    0,864
686,232;19007,030;   -0,356;   -0,318
686,806;18832,120;   -0,901;    0,409
687,380;19345,938;   -0,174;    0,591
687,954;19545,937;   -1,174;    1,136
688,528;19272,572;   -0,719;    1,955
689,101;19937,571;   -3,992;    1,045
689,675;19606,025;   -0,356;   -0,136
690,249;18963,479;   -0,719;    0,409
690,822;19322,296;    0,280;    0,318
691,396;19478,386;   -0,265;    1,227
691,969;19023,385;    1,280;    0,136
692,543;19445,930;   -0,447;   -1,955
693,116;19098,383;   -0,265;   -1,409
693,690;19045,291;    0,099;    0,500
694,263;19496,291;   -1,083;    2,955
694,836;19528,108;    1,371;    3,591
695,410;18411,380;   -0,265;    1,773
695,983;18771,379;    0,189;    0,591
696,556;18788,196;   -0,447;   -1,045
697,129;19094,104;   -0,356;    1,409
697,703;18739,831;   -1,629;    1,955
698,276;18849,557;    1,462;   -0,773
698,849;18707,192;    1,280;    1,409
699,422;19012,101;   -1,083;    0,591
699,995;18796,009;    0,007;    0,136
700,568;19163,553;   -0,629;    3,045
701,140;19182,280;   -2,811;    1,682
701,713;19013,006;   -0,174;    2,409
702,286;18798,551;   -0,538;    0,864
702,859;18697,732;   -0,902;   -0,591
703,432;18101,458;    0,825;    0,682
704,004;18395,912;    0,462;    0,318
704,577;18253,729;   -0,629;    0,136
705,150;18760,092;    0,189;    2,500
705,722;18659,727;   -0,356;   -3,227
706,295;18460,090;   -0,175;   -0,591
706,867;18381,544;   -0,175;    1,955
707,440;18581,997;   -1,720;   -0,409
708,012;18786,451;    0,462;    0,591
708,584;18715,177;    2,462;    0,227
709,157;18960,267;    1,825;   -0,591
709,729;18751,721;    2,280;    2,045
710,301;19468,538;    0,734;    0,045
710,874;19453,810;   -1,447;   -0,227
711,446;18451,991;    0,371;    0,864
712,018;18360,445;    0,098;    0,500
712,590;18174,717;   -1,993;    1,682
713,162;18668,443;    0,825;    1,318
713,734;18923,988;    1,825;   -2,045
714,306;18841,078;   -1,902;   -0,409
714,878;17743,440;    0,825;    0,864
715,450;18479,348;    0,643;    0,864
716,022;18773,620;    1,552;    1,318
716,593;18911,438;    0,189;    0,591
717,165;18788,437;   -3,175;   -1,227
717,737;18570,527;    0,280;    0,409
718,309;18355,162;    0,280;   -0,045
718,880;18360,798;   -0,539;   -1,409
719,452;18518,251;   -0,175;   -1,591
720,024;18235,887;    0,734;   -0,591
720,595;18728,977;   -2,902;    0,955
721,167;18399,249;    0,370;   -2,045
721,738;17955,339;   -0,812;   -1,045
722,309;18023,974;   -0,993;   -1,227
722,881;17853,973;   -1,357;    0,773
723,452;18399,518;   -2,630;    2,864
724,023;18577,062;   -0,721;    2,682
724,595;18419,607;    0,007;    0,682
725,166;18200,424;    0,007;   -0,409
725,737;17931,332;    1,734;    0,227
726,308;18038,604;   -0,266;    0,318
726,879;18425,422;   -1,630;    1,227
727,450;18280,784;    0,552;   -0,045
728,021;18294,874;    3,097;    0,682
728,592;18167,055;    0,734;    0,500
729,163;18499,873;    0,643;   -0,136
729,734;18475,417;    0,188;   -0,227
730,305;18814,689;    1,734;    0,136
730,876;19071,870;    0,188;    2,955
731,447;18877,778;    2,188;    2,682
732,017;19037,959;    1,097;    1,864
732,588;18654,049;    0,734;    1,227
733,159;18829,594;    0,643;   -1,045
733,729;18638,775;    0,006;    0,409
734,300;18099,046;    0,915;    0,864
734,870;18495,318;    3,461;    0,591
735,441;18982,590;    0,370;   -0,591
736,011;18815,953;    0,643;   -1,591
736,582;18805,952;   -0,812;    0,045
737,152;18328,224;   -1,721;   -2,045
737,722;18786,586;   -0,267;   -0,682
738,293;18575,222;   -1,358;    1,318
738,863;18513,857;    2,461;    2,318
739,433;18378,311;    5,279;    0,318
740,003;18931,765;   -0,994;   -0,682
740,573;18445,309;    2,097;   -1,591
741,143;18475,036;   -1,085;    0,318
741,713;19110,671;    1,188;   -0,500
742,283;18897,852;    0,915;    1,591
742,853;18710,942;    1,915;    1,591
743,423;18263,941;    1,733;    0,045
743,993;18334,304;   -0,358;    1,500
744,563;17820,394;    0,097;   -0,864
745,133;17814,757;   -0,812;   -0,864
745,702;18439,210;   -0,267;    1,773
746,272;17756,846;   -0,176;    0,591
746,842;17566,572;   -1,358;   -0,591
747,411;17969,753;   -0,267;   -0,318
747,981;18104,480;    0,097;    0,500
748,551;18156,751;    2,278;   -1,045
749,120;18043,296;    0,642;   -0,227
749,690;18357,113;   -0,631;    2,409
750,259;18646,203;    1,369;    2,955
750,828;18519,202;    1,551;   -1,955
751,398;18755,565;    1,278;   -0,045
751,967;18382,564;    2,187;    0,409
752,536;18571,927;   -0,813;   -0,227
753,105;19001,017;    0,096;    0,227
753,675;18730,743;    0,096;    1,773
754,244;18642,470;   -0,904;    3,591
754,813;18683,923;    0,551;    1,227
755,382;18338,559;    0,460;    0,955
755,951;18797,376;    1,551;    3,682
756,520;18438,012;   -0,085;    1,864
757,089;18916,829;    0,278;    0,500
757,658;19005,101;    1,733;    1,227
758,227;19023,464;    1,096;    0,318
758,795;19204,463;    1,187;    1,136
759,364;19496,916;   -0,086;   -0,591
759,933;18567,370;   -1,176;   -0,045
760,501;18202,278;    0,733;   -1,318
761,070;18593,277;   -2,813;   -1,409
761,639;19208,185;   -1,904;    1,318
762,207;18618,730;    1,551;   -0,955
762,776;18553,547;    0,369;    0,864
763,344;18552,910;   -0,995;    0,591
763,913;17687,909;   -0,722;    1,409
764,481;18440,090;    1,005;   -0,136
765,049;18298,271;   -1,358;    1,409
765,618;18168,088;   -0,086;    0,318
766,186;18282,724;    0,278;    0,136
766,754;18452,359;    0,005;    1,864
767,322;17556,086;   -1,995;    0,409
767,890;17570,085;   -0,722;   -1,773
768,459;18005,993;   -2,177;   -0,318
769,027;18155,810;    1,641;    3,409
769,595;17260,173;    3,278;    2,591
770,163;17639,263;    3,823;    2,955
770,730;17487,989;    0,732;   -0,136
771,298;17394,170;    0,187;   -1,409
771,866;17472,079;   -1,541;    4,955
772,434;17743,623;   -0,631;   -1,864
773,002;17926,440;    0,005;    0,682
773,569;17649,167;    0,914;    1,682
774,137;17496,711;   -0,268;   -0,045
774,705;18193,892;    0,278;   -0,136
775,272;17753,619;    0,641;    0,682
775,840;17630,709;   -0,177;    2,682
776,407;17141,799;    0,277;    1,955
776,975;16765,616;   -0,632;    0,318
777,542;17656,251;   -1,086;   -0,045
778,110;17566,251;   -1,268;   -0,045
778,677;17232,886;   -2,359;   -0,864
779,244;17043,158;    2,186;    1,045
779,812;17088,157;    1,823;    0,864
780,379;17006,883;    0,005;    1,136
780,946;17211,246;    1,005;   -0,773
781,513;17473,972;   -1,450;    0,318
782,080;16916,608;   -0,086;    2,864
782,647;17557,516;   -0,268;    3,045
783,214;17228,606;   -0,177;    3,864
783,781;16893,969;   -0,723;   -0,682
784,348;16778,786;   -0,632;    1,500
784,915;17131,876;   -3,177;    0,318
785,482;16984,421;    1,368;    2,591
786,049;17360,238;    0,186;   -0,591
786,615;17457,601;    0,277;   -0,955
787,182;17228,145;    0,186;   -0,682
787,749;16950,781;   -2,814;    1,409
788,315;16380,325;   -1,632;   -0,409
788,882;16659,597;    1,550;   -1,227
789,448;17249,596;    1,732;   -0,955
790,015;17291,232;    1,095;    3,227
790,581;16895,867;    1,459;    0,227
791,148;16782,503;    0,641;    1,045
791,714;16962,684;   -0,541;    3,136
792,280;16737,319;    0,186;    1,591
792,847;16391,046;    0,550;    2,500
793,413;16807,136;   -0,269;   -0,318
793,979;16424,407;    3,459;   -1,318
794,545;16592,497;    4,459;    2,682
795,111;16125,497;    2,186;    1,318
795,678;16193,041;    0,731;   -1,682
796,244;15920,858;    3,368;    0,136
796,810;16378,948;    1,731;    0,773
797,375;16136,129;    0,549;   -2,136
797,941;16154,492;   -0,541;    0,591
798,507;16288,582;   -0,451;   -0,955
799,073;15884,399;   -0,360;    0,591
799,639;15976,308;   -2,632;    3,136
800,205;16009,489;    0,095;    2,682
800,770;15648,579;    0,640;    1,773
801,336;15632,123;    1,368;   -0,955
801,901;15479,213;    4,549;    3,136
802,467;15987,940;   -0,542;    2,045
803,033;15385,757;   -0,087;    0,864
803,598;15540,756;    1,913;   -1,045
804,163;15628,937;    1,095;   -0,318
804,729;15584,936;   -0,178;    1,136
805,294;15836,026;    0,822;    2,227
805,859;15629,298;    0,731;   -0,409
806,425;15261,570;    1,186;    2,682
806,990;14970,932;    2,186;    4,318
807,555;15328,659;   -1,451;    2,591
808,120;15279,931;    0,822;   -0,409
808,685;15355,475;    0,185;   -2,500
809,250;14930,383;    0,004;   -0,500
809,815;15125,201;    1,913;    0,682
810,380;15619,836;   -0,269;    1,591
810,945;16092,653;   -1,087;    2,045
811,510;15428,289;    2,094;    1,591
812,075;15142,379;   -0,633;   -1,409
812,640;15183,651;    2,003;    1,409
813,204;15300,559;    0,822;   -0,227
813,769;15695,649;    2,094;   -0,045
814,334;15247,194;    0,458;    0,864
814,898;15295,738;    0,367;    0,591
815,463;15102,101;    1,276;   -0,773
816,027;15081,827;   -0,724;   -2,318
816,592;15254,008;    0,640;   -2,045
817,156;14849,371;    2,094;    1,136
817,721;14771,097;    4,276;    2,318
818,285;14746,915;    2,912;    1,500
818,849;15286,005;   -1,451;    1,682
819,414;15192,367;   -0,269;    2,955
819,978;14825,366;   -1,269;    1,773
820,542;15369,093;    2,003;    0,500
821,106;15171,274;   -0,815;    0,682
821,670;15211,091;   -0,815;    2,591
822,234;15011,181;   -0,270;    1,409
822,798;14546,453;    0,003;    0,500
823,362;14571,816;   -0,633;    4,227
823,926;14052,997;    0,094;    1,136
824,490;14225,814;   -0,997;   -0,682
825,054;14586,449;   -0,088;   -1,136
825,618;14376,539;   -1,542;   -1,500
826,181;14328,902;    0,458;   -1,318
826,745;14291,538;    1,367;   -1,045
827,309;14595,446;    1,185;    1,318
827,872;14102,263;    1,367;    0,955
828,436;15003,171;    1,185;   -0,773
828,999;15149,443;   -0,997;    1,227
829,563;14148,988;   -0,179;    1,136
830,126;13987,896;   -0,179;   -0,591
830,690;14053,895;   -1,997;    2,864
831,253;13595,258;   -0,543;    2,227
831,816;13806,893;   -1,906;    0,500
832,380;13797,620;    0,185;    0,864
832,943;14033,164;   -1,361;   -0,500
833,506;13574,254;    2,639;   -1,227
834,069;14311,162;    3,912;   -0,955
834,632;14431,980;    1,730;    1,318
835,195;14357,524;    1,003;    0,955
835,758;13706,069;   -0,997;    1,955
836,321;13556,250;    0,730;   -1,045
836,884;13652,249;   -0,725;   -0,955
837,447;13731,339;   -2,816;    1,773
838,010;13962,520;    0,366;    3,227
838,573;14253,337;   -1,179;    0,773
839,135;14301,245;   -1,361;   -0,955
839,698;13766,608;    1,275;    0,409
840,261;13325,789;    1,003;   -0,227
840,823;13236,424;   -0,543;    0,864
841,386;13525,333;   -0,452;   -2,409
841,948;13439,423;   -1,361;    1,773
842,511;13238,694;    0,912;    1,682
843,073;13385,785;    1,912;    0,227
843,636;13192,147;   -0,361;   -0,227
844,198;13129,146;    0,911;    0,591
844,760;13260,418;    1,093;    1,955
845,322;13005,963;    0,548;    1,136
845,885;13354,598;    0,730;    0,591
846,447;13781,688;   -1,998;    0,227
847,009;13428,778;    1,911;   -0,682
847,571;13676,232;    0,820;   -2,045
848,133;13802,322;   -1,089;   -1,864
848,695;13641,412;   -0,543;    1,409
849,257;13259,593;   -1,089;   -1,682
849,819;13440,319;   -0,998;   -0,409
850,381;13463,955;   -0,725;   -0,864
850,942;13745,408;    1,093;   -0,591
851,504;13712,317;    1,184;    0,227
852,066;13710,043;    1,275;   -1,591
852,628;13356,042;   -0,180;    1,955
853,189;12971,768;    1,638;    2,682
853,751;13122,768;   -0,907;    1,409
854,312;12960,767;   -0,453;   -1,682
854,874;13396,493;   -2,089;   -0,773
855,435;13827,765;   -0,907;   -1,682
855,997;14018,309;   -1,816;   -0,136
856,558;13359,490;    0,366;    1,773
857,119;13452,490;    0,820;    2,864
857,681;13173,670;    0,002;    0,318
858,242;13235,760;    1,911;   -2,136
858,803;13670,214;    0,456;   -0,773
859,364;14162,577;    0,184;   -4,773
859,925;13629,212;   -2,453;   -0,955
860,486;13542,939;   -0,453;   -0,955
861,047;13302,483;   -0,544;   -1,227
861,608;13142,755;   -1,089;   -0,773
862,169;13309,845;    0,638;   -0,045
862,730;13047,662;    0,456;    1,409
863,291;13283,207;   -0,635;   -0,500
863,852;13577,933;   -0,635;    1,955
864,412;13189,478;   -0,271;   -0,864
864,973;11980,932;   -0,089;    0,500
865,534;11872,567;   -1,726;    0,227
866,094;13108,930;    1,820;    0,227
866,655;12867,202;    1,274;    3,318
867,215;13157,928;    0,274;    0,136
867,776;13005,745;    0,547;   -0,136
868,336;13091,381;   -1,453;    0,136
868,897;12720,289;    2,638;    1,682
869,457;12512,834;    1,365;    0,318
870,017;12727,469;    0,547;   -1,227
870,578;13195,468;   -0,817;    0,773
871,138;12836,285;   -2,089;   -0,955
871,698;12443,194;   -0,817;   -1,318
872,258;12340,920;   -0,453;   -2,864
872,818;12738,465;    2,729;    0,045
873,378;12715,009;    0,638;    1,045
873,938;12361,736;    0,547;    0,500
874,498;12643,098;    0,274;   -1,955
875,058;12592,643;    2,183;    1,773
875,618;12458,187;    1,910;   -2,682
876,177;12419,914;    1,274;    0,136
876,737;12063,367;   -0,090;    1,955
877,297;12142,639;    0,183;    1,955
877,856;12157,638;   -0,362;    0,318
878,416;12100,728;    1,183;   -0,136
878,976;12270,637;   -1,817;    0,409
879,535;12460,636;    0,092;    3,136
880,095;12298,908;   -0,544;    0,045
880,654;12415,998;   -1,090;    1,318
881,213;12531,451;    2,456;    1,500
881,773;12165,632;    2,637;    2,682
882,332;12533,177;    3,365;    5,136
882,891;12416,449;    3,092;    2,136
883,451;12822,539;   -1,272;    1,682
884,010;12322,629;   -2,908;   -0,409
884,569;12434,537;   -0,999;   -0,045
885,128;12557,081;    2,819;   -1,864
885,687;12658,353;    4,455;    0,682
886,246;12428,170;    1,455;    2,136
886,805;12209,442;    2,455;    2,045
887,364;12412,805;   -0,999;   -0,500
887,922;12775,804;   -1,181;    0,045
888,481;12305,531;   -1,545;    0,591
889,040;12609,711;    1,183;    2,136
889,599;13153,983;    2,455;    1,409
890,157;13262,619;    1,455;    2,409
890,716;12927,800;   -0,090;    0,227
891,274;12727,253;    0,092;   -1,136
891,833;13131,162;    1,546;    0,864
892,391;13019,070;   -0,454;    0,500
892,950;13105,978;    1,819;   -0,773
893,508;13443,159;    0,455;   -0,409
894,067;12879,249;    0,637;    0,136
894,625;12823,430;   -0,636;   -1,500
895,183;13030,429;   -0,363;   -0,682
895,741;12950,610;    1,728;   -1,773
896,299;12812,336;   -0,545;   -2,409
896,858;12989,063;    0,819;   -1,591
897,416;13161,425;    2,728;   -1,318
897,974;12976,243;    1,819;    0,318
898,532;13140,878;    6,091;    2,682
899,089;13053,605;    2,091;   -0,682
899,647;13095,604;   -1,454;    1,318
900,205;12866,057;    1,182;    1,045
900,763;13078,420;   -0,454;    0,227
901,321;13115,965;    2,364;   -1,409
901,878;12618,327;   -1,000;   -0,773
902,436;12541,963;   -1,363;    1,318
902,994;12967,598;    4,728;    3,682
903,551;12464,052;    0,728;    0,409
904,109;12850,960;    0,182;   -1,409
904,666;12514,414;    2,455;    1,045
905,224;12381,595;    0,182;   -0,409
905,781;12202,139;    0,727;   -0,318
906,338;12250,775;   -1,363;    1,045
906,895;12199,319;    0,637;    2,045
907,453;12194,864;    1,727;    1,136
908,010;12206,227;   -0,909;    0,409
908,567;11940,226;    1,273;    0,591
909,124;11468,589;    0,364;   -1,500
909,681;11530,224;   -2,909;    0,682
910,238;11736,496;    0,636;   -1,318
910,795;12079,677;   -0,273;   -1,136
911,352;11775,313;   -2,909;   -2,682
911,909;11292,131;   -1,364;   -0,864
912,466;11750,949;   -3,182;    1,500
913,022;11355,131;   -1,636;    0,500
913,579;11738,586;   -0,909;    2,045
914,136;11500,131;    1,636;    0,955
914,692;11835,495;    0,091;   -1,227
915,249;11461,586;    1,455;    0,409
915,806;11690,495;    0,182;    1,955
916,362;11540,404;    1,909;    1,864
916,918;11156,859;    2,000;    1,045
917,475;11181,949;   -1,182;    0,955
918,031;11240,495;    3,364;   -0,045
918,587;10797,677;   -0,909;   -0,318
919,144;11069,949;   -2,273;    0,227
919,700;11390,404;    1,727;    0,773
920,256;11034,586;    0,727;    0,045
920,812;10765,859;   -0,727;   -1,045
921,368;10824,949;   -1,727;   -1,045
921,924;10514,495;    0,182;   -0,136
922,480;10191,768;   -0,545;    1,227
923,036;10791,131;    1,273;    1,955
923,592;10796,495;    0,455;    0,318
924,148;10802,586;    0,455;   -0,955
924,704;10254,313;   -1,364;   -0,409
925,259;10559,677;   -0,273;    0,591
925,815;10399,040;    1,455;    0,500
926,371; 9967,404;    2,909;    1,409
926,926; 9961,313;    2,091;    0,591
927,482; 9706,040;   -1,364;    0,773
928,037; 9665,677;    0,909;    2,045
928,593; 9996,131;    1,636;    1,045
929,148; 9898,040;   -1,818;   -1,500
929,704; 9494,586;   -1,455;   -0,500
930,259; 9761,222;    0,091;   -0,136
930,814; 8964,677;   -0,818;    1,955
931,369; 8730,677;    1,091;   -0,773
931,925; 8683,949;   -0,091;    0,136
932,480; 8665,222;   -2,818;   -2,591
933,035; 8651,222;    0,545;   -0,318
933,590; 8485,313;    0,364;   -1,773
934,145; 8216,040;   -1,364;   -0,318
934,700; 8614,677;    0,455;   -0,591
935,255; 8480,313;   -0,091;    0,045
935,809; 7869,131;    3,182;    0,864
936,364; 7093,222;   -0,455;   -0,136
936,919; 7139,131;    0,455;   -1,773
937,474; 7075,313;    1,455;    0,136
938,028; 6910,768;   -1,636;    1,136
938,583; 6442,222;    1,818;    4,682
939,138; 6781,859;    2,091;    2,136
939,692; 6303,586;    1,636;   -1,136
940,247; 6072,495;   -0,727;   -1,045
940,801; 5700,222;   -0,636;    0,227
941,355; 5633,404;   -0,364;    2,591
941,910; 5325,131;   -0,273;   -2,136
942,464; 5493,313;   -0,818;   -0,318
943,018; 5307,768;    1,000;   -0,227
943,572; 5339,859;    2,545;   -0,682
944,126; 4766,768;    0,091;   -0,409
944,681; 4707,495;    3,091;    0,227
945,235; 4754,768;    1,000;   -0,591
945,789; 4764,222;    0,364;   -1,864
946,342; 4887,404;    0,455;   -0,591
946,896; 4823,677;   -2,273;    0,955
947,450; 4631,495;    1,545;   -0,227
948,004; 4851,677;    1,727;   -0,045
948,558; 4971,131;    0,273;   -0,864
949,111; 4984,859;   -0,273;   -0,318
949,665; 5005,404;    1,636;   -0,682
950,219; 4931,859;   -0,091;   -1,045
950,772; 5181,586;   -1,909;    1,864
951,326; 5144,949;    0,545;   -0,955
951,879; 5430,495;    0,727;   -2,318
952,433; 5530,040;    0,000;    2,227
952,986; 5453,677;    2,909;    0,682
953,539; 5537,859;   -0,273;    0,591
954,093; 5522,131;    0,545;   -1,318
954,646; 5781,131;    0,909;    1,318
955,199; 5681,404;    0,000;   -0,500
955,752; 5514,404;   -0,455;    1,773
956,305; 5671,859;   -0,091;    2,955
956,858; 5985,404;    0,818;   -0,318
957,411; 6303,040;   -0,545;    2,136
957,964; 6187,040;    1,364;    2,136
958,517; 6300,495;   -1,545;    3,136
959,070; 6149,495;   -0,455;    1,955
959,623; 6161,222;    1,091;    1,500
960,176; 5957,131;    1,727;    2,045
960,728; 5990,949;   -2,727;    0,773
961,281; 6161,222;    0,545;    0,500
961,834; 6365,495;   -0,909;    0,864
962,386; 6295,768;    1,727;    1,045
962,939; 6230,222;    0,364;   -0,318
963,491; 6512,404;    0,455;    1,136
964,043; 6382,495;    1,182;    2,409
964,596; 6562,313;   -1,000;    2,227
965,148; 6464,859;   -1,000;    1,773
965,700; 6363,313;    1,091;   -0,227
966,253; 6572,859;   -0,636;    0,318
966,805; 6302,404;   -2,273;    0,773
967,357; 6479,949;    1,091;   -1,500
967,909; 6356,131;    0,455;   -1,227
968,461; 6684,040;    0,545;    3,136
969,013; 6580,131;   -0,182;   -0,864
969,565; 6698,859;   -0,455;   -1,136
970,117; 6369,040;   -0,364;    1,045
970,669; 6478,040;    0,182;   -0,136
971,220; 6486,313;   -0,455;   -1,500
971,772; 6307,040;   -0,636;   -0,318
972,324; 6447,313;    0,091;   -0,500
972,876; 6467,495;    0,818;   -0,045
973,427; 6566,313;    1,909;   -1,045
973,979; 6488,859;   -0,727;   -2,500
974,530; 6757,495;    1,818;    1,318
975,082; 6788,677;   -0,545;    1,682
975,633; 6517,859;    1,091;    1,682
976,184; 6678,313;    0,909;    0,773
976,736; 6299,404;    0,091;    0,227
977,287; 5942,768;   -0,909;   -0,500
977,838; 6283,222;    0,909;   -0,318
978,389; 6387,222;   -1,000;   -0,500
978,940; 6211,677;    0,545;   -0,409
979,491; 6255,222;    0,091;   -0,500
980,042; 6171,768;    0,182;    3,045
980,593; 6310,495;   -2,545;    0,227
981,144; 6221,222;    2,545;   -0,500
981,695; 6043,040;    1,455;    1,500
982,246; 6069,495;   -0,273;    1,045
982,797; 6454,222;   -1,727;    0,682
983,347; 6543,404;    0,364;    0,591
983,898; 6635,404;    3,091;    0,409
984,449; 6275,131;    2,182;    0,773
984,999; 6394,495;    1,455;   -1,136
985,550; 5965,404;    0,182;   -0,318
986,100; 6083,495;   -0,455;   -0,318
986,651; 6093,768;   -0,818;    0,045
987,201; 6018,677;   -1,000;   -0,591
987,751; 6111,677;    0,818;    2,864
988,302; 6045,768;    2,636;    1,500
988,852; 6117,313;    0,455;   -1,136
989,402; 5997,131;    0,091;    0,682
989,952; 5820,131;   -2,182;    0,864
990,502; 6079,313;   -0,091;    0,682
991,052; 6078,586;   -0,727;    0,045
991,602; 5835,495;   -2,909;    1,318
992,152; 5758,222;    0,455;    0,682
992,702; 5709,859;    1,364;   -0,045
993,252; 5542,677;   -3,000;   -0,500
993,802; 5562,677;   -0,273;    1,318
994,352; 5959,949;   -1,545;    1,136
994,901; 6164,677;   -0,182;    3,227
995,451; 5926,131;   -0,182;    0,318
996,000; 6034,586;    1,636;    0,318
996,550; 5626,131;    2,273;    0,227
997,100; 5577,768;    1,273;   -0,045
997,649; 5871,404;    2,182;    0,955
998,198; 5325,677;    1,727;   -1,500
998,748; 5489,222;    1,091;   -2,318
999,297; 5500,040;   -0,818;   -0,409
999,846; 5446,404;    1,000;   -0,773
1000,395; 5513,131;   -0,818;    0,500
1000,945; 5243,859;    1,818;   -0,773
1001,494; 5358,131;    2,364;    0,682
1002,043; 5397,404;    4,636;    0,864
1002,592; 5252,131;   -1,091;    1,955
1003,141; 5354,040;   -0,455;   -0,682
1003,690; 5070,131;    1,727;    0,500
1004,238; 5255,313;    1,455;   -0,045
1004,787; 4752,495;    1,364;    1,227
1005,336; 4856,677;    0,364;    0,682
1005,885; 5097,677;    1,364;   -2,773
1006,433; 5378,404;    0,545;    0,955
1006,982; 5159,586;    0,455;    1,682
1007,531; 5140,949;   -1,818;   -0,227
1008,079; 5152,313;   -2,273;    0,500
1008,627; 5318,677;   -1,455;    0,409
1009,176; 4873,495;    0,000;   -1,955
1009,724; 4918,768;    1,091;    0,864
1010,273; 4835,313;    1,273;    0,500
1010,821; 5047,586;    0,091;    1,409
1011,369; 4693,222;   -1,364;    1,318
1011,917; 4576,768;   -1,364;   -0,591
1012,465; 4891,131;    1,273;   -1,591
1013,013; 5055,040;    2,091;   -1,682
1013,561; 4780,131;    0,455;   -0,773
1014,109; 4756,495;   -1,909;    1,682
1014,657; 4618,495;    0,364;    0,591
1015,205; 4773,677;    1,636;   -0,955
1015,753; 4875,313;   -0,545;   -1,409
1016,301; 4867,040;   -2,636;    3,045
1016,848; 4803,768;   -1,273;    0,409
1017,396; 4807,859;    2,545;    0,045
1017,944; 4946,949;    1,182;    1,864
1018,491; 4688,313;    0,273;    1,409
1019,039; 4625,131;    0,455;    0,591
1019,586; 4661,404;   -1,364;    1,682
1020,134; 4781,040;    0,455;    1,500
1020,681; 4754,768;    0,182;   -1,136
1021,228; 4795,495;    2,909;   -2,227
1021,776; 4538,949;    1,182;   -1,136
1022,323; 4689,404;    0,455;    0,773
1022,870; 4580,859;   -1,000;   -0,045
1023,417; 4417,859;    2,636;    1,864
1023,964; 4633,495;    2,636;    1,227
1024,511; 4363,131;    1,000;    0,773
1025,058; 4102,313;    3,182;   -0,045
1025,605; 4136,677;   -2,273;    3,136
1026,152; 4325,040;    1,727;   -0,591
1026,699; 4013,404;    1,818;    1,318
1027,245; 4182,586;   -0,091;    0,318
1027,792; 4441,313;   -1,000;    1,409
1028,339; 4223,949;    2,364;   -0,045
1028,885; 4032,859;    1,000;   -0,227
1029,432; 3957,495;   -0,091;    0,227
1029,978; 3976,131;   -1,000;   -1,591
1030,525; 3873,586;    1,000;    0,409
1031,071; 4139,586;   -1,364;    1,136
1031,618; 4148,040;    0,364;    1,682
1032,164; 3940,313;   -0,091;    3,045
1032,710; 3977,040;    1,636;   -1,500
1033,256; 3866,313;   -0,636;   -0,136
1033,803; 3852,677;   -0,545;    1,500
1034,349; 3526,495;   -1,364;    0,136
1034,895; 3674,768;    0,000;   -0,318
1035,441; 3617,222;   -0,818;    0,318
1035,987; 3593,313;   -2,364;   -0,682
1036,533; 3534,222;   -1,455;   -0,955
1037,078; 3718,222;    1,455;    1,682
1037,624; 3509,404;    2,455;   -0,955
1038,170; 3550,495;    0,455;   -0,318
1038,716; 3420,949;    1,636;   -0,409
1039,261; 3330,677;   -2,273;   -0,773
1039,807; 3236,222;   -0,091;    3,409
1040,352; 3275,859;   -1,909;   -0,318
1040,898; 3319,586;   -1,545;   -0,682
1041,443; 3215,768;   -1,455;   -2,591
1041,989; 3161,404;    1,091;    1,591
1042,534; 3077,313;   -0,364;    2,591
1043,079; 3213,040;    2,909;    0,955
1043,625; 2957,222;    1,818;    0,500
1044,170; 2970,768;   -1,364;    1,045
1044,715; 3195,859;    2,455;    0,955
1045,260; 3004,131;    2,182;   -0,955
1045,805; 3059,495;    1,182;   -0,591
1046,350; 2988,313;    1,364;   -0,409
1046,895; 2910,586;    2,909;    1,591
1047,440; 2860,768;    5,364;    0,409
1047,985; 2751,495;    2,818;   -0,955
1048,530; 2660,404;    1,545;    1,227
1049,074; 2716,131;    0,000;    0,318
1049,619; 2670,222;   -1,364;    1,955
1050,164; 2469,586;    0,455;    0,227
1050,708; 2499,040;   -0,455;    0,045
1051,253; 2847,586;    1,273;   -2,227
1051,797; 2583,404;    0,818;   -1,318
1052,342; 2597,313;   -1,182;    1,045
1052,886; 2577,040;    0,364;   -1,409
1053,430; 2440,313;   -1,364;    0,136
1053,975; 2447,404;   -0,818;   -0,318
1054,519; 2428,768;   -0,727;    3,227
1055,063; 2423,404;    0,909;    1,318
1055,607; 2298,677;   -0,182;    0,227
1056,151; 2313,222;    2,909;    1,682
1056,695; 2243,404;    2,273;   -1,136
1057,239; 2302,495;   -1,727;   -0,682
1057,783; 2301,495;    0,818;   -1,500
1058,327; 2234,131;    0,000;    1,409
1058,871; 2465,040;   -0,545;    1,318
1059,415; 2161,859;   -0,818;   -0,045
1059,958; 2423,949;    1,455;    2,591
1060,502; 2138,768;   -1,000;   -0,773
1061,046; 2049,040;    0,364;   -0,955
1061,589; 2024,313;   -3,000;   -1,136
1062,133; 1899,859;   -1,273;    1,864
1062,676; 1854,586;    1,182;    0,864
1063,220; 1844,586;    1,091;    0,500
1063,763; 1857,404;    0,909;    1,136
1064,306; 1923,859;   -0,909;    1,864
1064,849; 1814,949;   -0,909;    0,591
1065,393; 1820,495;    2,000;   -1,500
1065,936; 1934,404;    0,182;   -0,409
1066,479; 1833,131;   -1,455;    1,318
1067,022; 1829,768;   -0,273;   -0,227
1067,565; 1737,495;   -0,091;   -1,318
1068,108; 1774,677;    0,727;   -0,591
1068,651; 1736,949;   -0,636;    1,409
1069,194; 1666,859;   -0,455;   -1,682
1069,736; 1651,313;   -1,273;    0,955
1070,279; 1648,495;   -1,364;   -0,500
1070,822; 1700,495;   -2,000;   -0,318
1071,364; 1764,495;   -0,364;    1,318
1071,907; 1586,677;   -0,727;    3,227
1072,450; 1496,313;    0,000;   -0,045
1072,992; 1488,677;   -0,273;    3,136
1073,535; 1630,949;    2,091;    2,136
1074,077; 1431,949;   -0,727;    2,045
1074,619; 1384,495;   -1,364;    0,591
1075,161; 1423,313;   -1,091;    1,500
1075,704; 1613,404;    1,545;    1,227
1076,246; 1407,222;   -0,182;    0,682
1076,788; 1336,586;   -0,364;    1,773
1077,330; 1409,313;    1,273;    2,136
1077,872; 1370,222;    0,909;    0,955
1078,414; 1595,586;    2,727;    0,773
1078,956; 1323,949;    1,273;   -0,227
1079,498; 1593,495;    1,636;    0,318
1080,040; 1308,313;    1,909;   -1,318
1080,581; 1249,495;    1,636;   -0,318
1081,123; 1175,586;    0,091;   -0,773
1081,665; 1223,859;   -1,182;   -0,955
1082,206; 1516,495;    1,364;   -0,500
1082,748; 1371,222;    0,727;    2,045
1083,289; 1245,313;   -2,000;    1,318
1083,831; 1159,131;   -0,545;    0,227
1084,372; 1194,040;    0,000;    0,591
1084,913; 1207,040;    1,091;    0,864
1085,455; 1185,586;   -1,909;   -2,045
1085,996; 1159,949;   -2,273;    0,136
1086,537; 1166,131;   -0,091;    0,864
1087,078; 1205,222;   -0,909;   -2,136
1087,619; 1246,131;   -1,273;    0,227
1088,160; 1158,859;    0,000;    1,318
1088,701; 1148,859;   -1,091;    0,682
1089,242; 1094,586;    1,364;   -2,227
1089,783; 1189,586;   -0,273;    1,409
1090,324; 1149,040;    0,455;    0,682
1090,865; 1036,586;    2,727;   -0,409
1091,405; 1005,040;    0,727;    2,227
1091,946; 1037,040;    0,182;   -0,955
1092,487;  973,313;    0,818;   -1,409
1093,027; 1131,586;   -1,364;   -1,500
1093,568;  987,040;   -0,364;    1,227
1094,108; 1081,949;    0,273;    1,773
1094,649; 1032,404;   -1,182;    0,136
1095,189;  959,040;   -0,636;   -0,682
1095,729;  905,495;   -0,091;    0,955
1096,269;  920,677;    0,727;   -0,955
1096,810; 1230,040;   -1,364;    0,500
1097,350; 1047,768;    1,364;   -0,773
1097,890;  960,677;    0,364;    1,227
1098,430; 1211,677;    2,364;    2,864
1098,970; 1076,222;    2,182;    1,682
1099,510;  958,586;    0,545;   -2,318
1100,050;  885,040;    1,000;   -1,591
1100,589;  847,040;   -0,727;   -0,318
1101,129;  976,949;    0,818;   -0,955
1101,669; 1118,222;    1,727;    2,136
1102,209;  945,859;   -0,091;    2,227
1102,748;  903,040;    0,000;    0,955
1103,288;  885,677;    1,273;   -1,227
1103,827;  912,131;    3,091;   -2,227
1104,367;  800,404;   -0,091;   -2,409
1104,906;  765,495;    1,364;   -1,136
1105,445;  835,222;    0,636;   -1,136
1105,985;  772,949;   -0,727;    1,500
1106,524;  828,949;   -1,727;   -0,682
1107,063;  806,131;   -2,727;    1,409
1107,602;  785,131;   -1,909;   -1,500
1108,141;  702,495;   -1,909;    1,500
1108,680;  801,313;   -3,455;   -0,591
1109,219;  729,949;   -0,909;   -0,500
1109,758;  744,131;    0,455;    0,682
1110,297;  715,586;    1,000;   -0,682
1110,836;  671,768;   -0,727;    0,955
1111,375;  844,677;   -2,545;    0,409
1111,913;  857,222;   -1,000;    0,773
1112,452;  784,313;   -0,273;    0,136
1112,991;  671,768;    1,091;    1,955
1113,529;  634,859;   -0,818;   -0,045
1114,068;  703,131;   -0,273;    2,955
1114,606;  586,131;   -0,364;   -0,955
1115,144;  758,131;   -1,273;    1,045
1115,683;  689,040;   -0,727;    0,318
1116,221;  742,768;   -0,455;   -0,864
1116,759;  654,586;    0,636;   -0,864
1117,297;  870,404;    0,000;    1,864
1117,836;  672,040;   -2,182;   -1,227
1118,374;  675,768;    0,182;   -0,682
1118,912;  596,495;    0,909;    2,682
1119,450;  591,768;    1,000;    0,864
1119,988;  655,859;    1,545;    2,136
1120,525; 1125,677;    5,091;    3,318
1121,063;  813,495;    1,182;    1,864
1121,601;  616,131;   -0,909;   -1,227
1122,139;  571,313;   -0,727;   -2,045
1122,676;  778,677;   -0,727;    2,773
1123,214;  710,495;   -1,182;    4,409
1123,751;  511,131;    1,727;    2,227
1124,289;  654,586;   -0,091;   -0,409
1124,826;  509,495;    1,727;    0,227
1125,364;  433,859;    1,727;   -0,955
1125,901;  622,131;    1,182;    1,227
1126,438;  748,131;    0,818;    0,955
1126,975;  465,313;   -0,727;   -0,773
1127,513;  546,677;    0,273;    2,136
1128,050;  438,949;    1,636;   -0,682
1128,587;  546,131;    2,000;   -0,227
1129,124;  589,495;    0,091;    1,318
1129,661;  457,768;    0,273;    0,227
1130,198;  632,404;    1,636;    0,773
1130,734;  575,677;    0,182;    1,409
1131,271;  424,131;   -0,909;    0,864
1131,808;  612,313;    2,909;    3,045
1132,345;  473,131;    1,545;    0,318
1132,881;  340,131;   -1,545;   -1,864
1133,418;  488,859;    0,727;   -1,136
1133,954;  429,495;    2,455;   -2,682
1134,491;  509,131;    1,364;   -0,773
1135,027;  398,313;    2,364;    0,864
1135,564;  491,313;    0,273;    2,955
1136,100;  475,131;    0,364;    2,136
1136,636;  362,222;   -1,273;   -1,045
1137,172;  475,949;    0,000;   -1,045
1137,708;  373,495;   -1,364;   -1,045
1138,245;  388,677;    1,273;   -1,227
1138,781;  337,949;    1,091;   -3,318
1139,317;  426,677;    1,273;   -1,409
1139,852;  390,495;    3,091;    0,136
1140,388;  539,677;   -1,182;   -0,409
1140,924;  401,495;   -1,091;   -2,227
1141,460;  326,859;   -1,636;    0,136
1141,996;  250,495;   -1,364;    2,682
1142,531;  314,222;    1,364;    3,318
1143,067;  559,495;    1,182;    1,045
1143,602;  631,859;   -0,091;   -0,318
1144,138;  453,222;   -2,636;    1,045
1144,673;  291,131;   -1,455;    1,409
1145,209;  376,949;   -1,909;   -0,318
1145,744;  288,495;   -0,727;    0,864
1146,279;  455,313;    1,818;   -0,136
1146,815;  349,222;    1,545;   -2,682
1147,350;  400,495;   -1,364;    0,045
1147,885;  282,313;   -0,818;   -1,318
1148,420;  290,313;   -2,273;    0,773
1148,955;  255,222;   -1,727;    1,864
1149,490;  297,040;   -0,909;   -1,591
1150,025;  281,859;    0,455;   -1,773
1150,560;  410,495;    1,091;   -0,955
1151,094;  381,222;    1,455;   -0,591
1151,629;  381,404;    1,636;    0,864
1152,164;  278,495;    1,364;    1,318
1152,698;  223,313;   -0,182;   -0,136
1153,233;  189,859;    0,091;   -0,682
1153,767;  253,131;   -3,000;   -2,318
1154,302;  300,404;   -1,455;    1,773
1154,836;  305,313;   -0,455;   -2,136
1155,371;  367,677;   -1,364;    3,682
1155,905;  314,949;   -0,636;    1,682
1156,439;  262,040;   -0,636;   -0,500
1156,973;  309,222;    0,364;    0,318
1157,507;  227,949;   -0,364;    0,682
1158,042;  259,586;   -0,727;    1,045
1158,576;  329,495;    0,182;    1,773
1159,110;  306,222;   -0,818;    2,409
1159,643;  270,949;    0,636;   -0,045
1160,177;  189,222;   -1,545;    1,500

