
Integration time [ms]:   0,040
Averaging Nr. [scans]: 11
Smoothing Nr. [pixels]: 0
Data measured with spectrometer [name]: 7318044SP
Wave   ;Sample   ;Dark     ;Reference
[nm]   ;[counts] ;[counts] ;[counts] 

186,757;   39,929;   31,551;    1,318
187,357;   40,606;   22,551;    0,955
187,958;   30,899;   15,460;   -1,591
188,558;   36,192;    8,915;   -1,227
189,159;   23,986;    6,733;   -4,500
189,759;   16,433;    7,278;   -3,591
190,360;   14,113;    2,824;   -2,136
190,960;   20,330;    2,915;   -4,136
191,560;   21,722;    3,189;   -6,591
192,161;  111,008;    4,372;   -3,500
192,761;   61,083;    4,010;   -3,227
193,361;   39,530;    1,556;   -3,773
193,962;   57,386;    2,010;   -2,682
194,562;   21,924;    1,189;   -3,955
195,162;   18,142;   -2,448;   -2,227
195,762;   73,274;   -3,176;   -0,045
196,362;   49,701;    1,370;   -2,500
196,963;   17,793;    2,006;   -0,864
197,563;   32,742;    1,551;   -0,955
198,163;   19,475;    0,096;   -0,682
198,763;   25,114;    1,733;   -0,500
199,363;   42,582;    3,096;   -0,500
199,963;   31,388;    0,369;    0,409
200,563;   26,368;    2,823;   -1,409
201,163;   20,545;    3,277;   -0,227
201,763;   33,246;    3,732;    0,318
202,363;   21,564;    1,459;    1,500
202,963;   33,198;    1,459;    1,045
203,563;   65,505;    0,277;    0,500
204,162;   34,345;    2,096;   -1,864
204,762;   25,299;    0,550;    0,591
205,362;   12,753;    3,004;    1,955
205,962;   35,358;    3,096;    1,955
206,562;   31,162;    1,823;    2,318
207,161;   22,538;   -0,087;    0,318
207,761;   82,164;    1,277;    2,409
208,361;   33,264;   -0,268;    1,409
208,960;   48,684;    0,459;    1,500
209,560;   43,588;    1,277;    1,591
210,160;   61,514;    0,550;    1,864
210,759;   44,736;    4,186;    1,227
211,359;   37,758;    1,459;    1,045
211,958;  128,530;    1,277;    2,045
212,558;  129,498;    1,732;    1,864
213,157;   73,203;    1,822;    1,500
213,757;  206,517;    3,822;   -0,227
214,356;  104,253;    1,277;   -0,409
214,956;  209,097;    3,095;    0,409
215,555;   92,907;    2,095;    2,136
216,154;   61,273;   -2,723;   -0,591
216,754;   61,171;    0,277;    0,773
217,353;   86,513;   -0,268;   -1,045
217,952;   30,471;   -0,178;    0,318
218,552;  115,204;    1,368;   -0,773
219,151;   71,269;    0,277;    0,955
219,750;   62,464;    0,004;   -0,227
220,349;   54,956;   -0,451;    1,045
220,948;  140,030;   -1,360;    1,136
221,548;   78,899;    0,913;    1,227
222,147;  105,966;   -0,087;   -0,409
222,746;  213,650;   -0,451;   -0,955
223,345;  138,131;    0,731;    0,500
223,944;  148,575;   -0,451;    0,773
224,543;  162,324;    1,004;   -1,409
225,142;  163,781;    0,094;    0,136
225,741;  159,337;   -0,814;    1,045
226,340;  144,729;   -0,451;   -0,955
226,939;  258,864;   -0,996;   -0,136
227,538;  146,141;   -0,360;   -0,773
228,137;  271,002;   -0,814;    0,864
228,735;  229,633;   -0,541;    1,227
229,334;  126,713;   -0,905;   -0,227
229,933;  303,364;    0,459;    0,591
230,532;  324,482;    1,186;   -0,409
231,131;  398,987;    1,732;    0,318
231,729;  278,519;   -2,450;   -2,318
232,328;  217,047;   -0,723;   -1,500
232,927;  236,226;    1,004;   -0,500
233,525;  225,268;    3,640;    0,045
234,124;  273,662;    2,368;   -1,591
234,723;  197,795;    0,913;   -1,045
235,321;  193,969;    2,277;    0,136
235,920;  242,797;    1,186;   -1,227
236,518;  402,789;    3,459;    0,318
237,117;  246,267;    0,004;   -0,227
237,715;  264,262;    0,640;   -0,500
238,314;  319,043;   -0,087;   -2,318
238,912;  462,409;   -0,723;   -1,409
239,510;  341,206;    0,459;   -1,227
240,109;  458,458;    0,004;    3,773
240,707;  422,847;   -0,996;    1,227
241,305;  277,158;    0,550;    0,136
241,904;  392,067;   -0,178;   -2,045
242,502;  504,083;   -0,632;   -0,227
243,100;  391,343;   -0,087;   -0,955
243,698;  327,702;    0,732;    1,682
244,297;  366,082;   -0,632;    0,682
244,895;  370,231;   -0,269;   -2,318
245,493;  556,919;    2,186;   -0,591
246,091;  556,441;    1,368;   -1,318
246,689;  493,436;    1,004;    0,591
247,287;  448,156;    0,822;   -1,136
247,885;  404,807;   -1,451;    1,227
248,483;  372,422;    1,822;   -0,500
249,081;  464,361;    0,185;    1,591
249,679;  499,432;   -0,178;    1,682
250,277;  362,316;   -1,723;    0,864
250,875;  511,711;   -1,087;   -1,045
251,473;  402,819;   -1,178;    0,500
252,071;  510,422;    1,459;    1,045
252,669;  419,029;   -1,814;    0,318
253,267;  369,482;   -0,087;    0,773
253,864;  420,338;   -0,360;    0,682
254,462;  592,064;    1,640;    1,591
255,060;  362,674;   -0,269;    1,318
255,658;  352,938;    0,822;   -0,136
256,255;  442,060;    0,186;   -2,045
256,853;  488,898;   -0,269;    1,409
257,451;  462,363;    0,822;    1,864
258,048;  913,518;    1,822;    1,864
258,646;  595,786;    1,731;   -1,045
259,243;  703,444;   -0,087;    2,227
259,841;  575,942;   -0,814;    0,318
260,438;  410,084;   -0,087;    0,864
261,036;  543,726;   -1,905;    1,409
261,633;  437,858;   -0,087;    2,227
262,231;  391,379;    2,731;   -0,045
262,828;  401,598;   -0,905;    1,136
263,425;  460,871;    0,913;   -0,591
264,023;  462,220;    0,186;    0,045
264,620;  622,048;   -0,360;   -0,318
265,217;  755,853;   -2,087;    3,136
265,815;  467,077;   -1,905;    2,136
266,412;  599,409;    0,731;    0,136
267,009;  628,721;   -1,451;    0,773
267,606;  716,514;    0,822;   -0,955
268,203;  500,658;   -0,269;   -0,591
268,801;  555,753;    1,731;    0,591
269,398;  453,734;   -0,360;    2,500
269,995;  615,325;    0,277;    1,591
270,592;  545,170;   -0,632;   -0,500
271,189;  455,554;    0,186;    0,409
271,786;  431,424;   -0,632;    1,227
272,383;  700,009;   -1,087;    0,227
272,980;  539,912;    0,277;    0,318
273,577;  488,561;    0,004;    1,227
274,174;  452,856;    0,822;    2,591
274,771;  596,938;   -0,814;   -0,773
275,367; 1009,646;    2,277;    1,409
275,964;  811,259;    0,731;   -0,500
276,561;  583,681;    1,549;   -1,045
277,158;  499,432;    0,095;   -1,773
277,755;  762,088;    2,185;    0,409
278,351;  619,326;   -0,451;   -1,500
278,948;  700,445;   -0,815;    0,045
279,545;  622,110;   -1,360;    2,318
280,141;  860,251;   -1,723;   -2,045
280,738;  785,564;   -0,451;   -0,136
281,334;  560,916;   -1,633;    0,591
281,931;  585,453;   -0,087;   -1,318
282,528;  700,155;    0,822;   -0,500
283,124;  800,337;   -1,087;   -0,500
283,721;  787,704;   -0,451;    1,409
284,317;  611,370;    0,185;    2,500
284,913;  822,440;   -1,360;    0,591
285,510; 1113,622;    0,640;   -0,318
286,106;  903,370;   -2,269;   -0,955
286,703;  646,518;   -0,360;    1,955
287,299;  591,396;   -1,451;   -0,591
287,895;  579,778;    0,822;   -1,045
288,491;  575,098;    0,186;    2,136
289,088;  716,144;   -2,360;    2,409
289,684;  761,847;   -1,723;    1,500
290,280;  921,962;    0,368;    0,682
290,876;  880,314;    1,822;    5,500
291,472;  763,980;    1,276;    2,227
292,068;  774,744;    1,367;    0,227
292,665;  627,487;    2,095;    0,773
293,261;  503,110;    0,276;    2,136
293,857;  727,042;    2,913;    2,136
294,453;  638,540;    3,550;    0,955
295,049;  863,162;   -0,268;    1,955
295,644;  675,945;    0,095;    0,136
296,240;  534,671;   -0,905;   -0,136
296,836;  685,009;   -0,995;    0,318
297,432;  835,279;    1,096;   -0,500
298,028;  889,737;    0,732;    0,773
298,624;  716,571;    1,459;    1,864
299,220;  677,430;    2,368;    0,591
299,815;  666,952;    1,005;   -0,409
300,411;  777,344;    0,914;    1,773
301,007;  913,903;    1,368;    0,227
301,602;  722,018;   -0,541;   -2,318
302,198;  852,123;    0,732;   -0,773
302,794;  684,140;    1,187;   -0,500
303,389;  636,883;   -1,177;    1,045
303,985;  706,624;    0,550;    1,409
304,580;  826,316;    1,459;    1,591
305,176;  719,887;   -3,086;    0,136
305,771;  594,028;   -1,268;   -1,227
306,367; 1017,154;    4,095;    0,136
306,962;  765,927;    0,641;    1,500
307,558;  791,742;   -0,450;    0,136
308,153;  886,165;    1,095;   -1,136
308,748;  656,768;   -0,814;    1,682
309,344; 1067,974;   -0,632;   -1,318
309,939; 1083,019;   -1,905;   -1,318
310,534;  739,678;   -0,086;   -1,682
311,130;  696,322;    0,459;   -2,500
311,725;  641,456;    1,004;   -0,500
312,320;  715,118;    2,459;    0,045
312,915;  841,502;    1,459;   -1,045
313,510; 1072,554;    1,550;   -0,500
314,105;  780,925;    1,096;    1,409
314,700;  595,240;   -3,086;   -1,045
315,295;  684,044;   -0,904;    0,045
315,890;  601,553;    1,277;    0,864
316,485;  731,103;   -0,359;   -0,318
317,080;  643,120;   -3,086;    1,591
317,675;  988,305;    2,005;   -0,682
318,270; 1196,968;    5,550;    3,318
318,865; 1092,417;    3,278;    3,045
319,460;  891,834;   -0,904;    0,591
320,055;  725,186;   -0,541;   -1,227
320,650;  715,249;   -1,995;   -0,591
321,244;  732,758;   -0,177;   -1,409
321,839;  791,255;   -1,541;   -0,227
322,434;  849,936;   -1,086;   -1,591
323,029;  732,360;    1,732;    1,591
323,623;  683,859;    1,550;    0,773
324,218;  866,323;    2,368;    1,409
324,812;  792,691;    1,096;    1,591
325,407;  813,289;   -0,814;    2,045
326,002;  925,752;    0,277;   -0,409
326,596;  865,224;    0,914;    1,318
327,191;  696,908;    0,823;   -1,045
327,785;  666,406;   -0,813;   -0,227
328,379;  716,364;    1,368;    0,136
328,974;  752,366;    0,914;   -3,955
329,568;  790,516;    0,186;   -2,409
330,163;  867,099;    2,096;    1,045
330,757;  701,571;    2,459;    1,591
331,351;  630,697;    0,459;    0,682
331,945;  627,862;    0,914;    1,409
332,540;  791,702;   -1,723;   -0,591
333,134;  773,489;   -1,086;    0,773
333,728;  748,791;    0,005;    0,318
334,322;  651,264;   -1,177;   -0,864
334,916;  611,909;    0,277;    0,955
335,510;  813,506;   -0,450;   -0,136
336,105;  817,453;   -1,086;    1,591
336,699;  682,082;   -1,086;    0,591
337,293;  717,715;   -1,723;    0,318
337,887;  645,756;   -2,723;    1,955
338,481;  827,062;    0,459;    0,591
339,074;  942,813;   -0,359;    2,682
339,668;  902,694;   -1,632;    1,227
340,262; 1537,496;    1,732;    3,227
340,856; 1095,051;    1,822;   -0,682
341,450;  701,734;    1,004;    1,864
342,044;  765,533;    1,459;    0,136
342,637;  938,549;    0,913;   -2,136
343,231;  949,366;   -2,360;    0,682
343,825;  768,622;   -1,086;   -0,591
344,419;  745,712;   -1,995;    0,500
345,012; 1341,030;    2,459;    4,045
345,606; 1118,178;    4,641;    1,591
346,199;  762,747;   -1,813;   -0,227
346,793;  913,174;    1,914;    2,045
347,386;  697,047;   -0,813;   -1,136
347,980;  553,112;   -0,268;   -0,045
348,573;  686,025;    2,278;    0,409
349,167; 1002,019;    5,278;    4,773
349,760;  898,759;    2,914;    2,682
350,354;  838,603;   -0,813;    1,136
350,947;  894,352;    1,096;    1,682
351,540;  710,616;   -0,358;   -1,409
352,134;  553,124;    1,096;    1,136
352,727;  593,722;   -0,086;    1,136
353,320;  631,425;    0,005;    0,591
353,913;  547,913;   -1,995;    1,864
354,507;  784,394;    0,823;   -1,227
355,100;  633,726;    0,460;    0,864
355,693; 1087,985;    2,005;    2,409
356,286;  820,210;    0,823;    2,773
356,879;  655,224;   -0,722;    1,227
357,472;  631,878;   -0,904;    1,500
358,065;  708,064;   -0,722;    2,500
358,658;  532,037;   -0,540;    2,318
359,251;  475,411;   -1,631;   -0,591
359,844;  707,230;   -1,904;   -1,136
360,437;  797,190;   -2,995;    0,045
361,030;  616,682;    1,369;   -0,682
361,623;  617,814;    2,824;    0,318
362,215;  874,868;   -0,086;    2,045
362,808;  710,355;   -2,358;   -1,682
363,401;  621,042;   -2,449;    0,136
363,994;  881,175;   -0,631;   -1,500
364,586;  625,114;    0,824;   -1,500
365,179;  558,566;   -0,449;   -1,136
365,772;  404,379;   -1,995;    2,045
366,364;  585,075;    1,915;   -3,227
366,957;  666,650;    2,279;   -0,045
367,549;  586,679;    2,188;   -0,864
368,142;  596,547;    1,825;   -1,500
368,734;  553,375;    0,734;   -2,136
369,327;  458,456;    1,643;   -0,500
369,919;  518,280;   -1,538;    0,409
370,512;  555,755;   -1,083;   -0,500
371,104;  846,207;   -0,901;    1,591
371,696;  892,851;    1,191;   -0,955
372,289;  722,516;    0,373;    1,136
372,881;  666,008;   -2,080;    1,318
373,473;  528,606;   -2,170;    1,136
374,066;  647,959;   -0,169;    0,500
374,658;  609,298;    0,378;    1,136
375,250;  526,240;    0,653;   -1,409
375,842;  599,303;    0,473;   -0,045
376,434;  551,365;   -0,435;   -0,409
377,026;  552,594;    0,204;   -2,500
377,618;  605,701;   -0,158;   -0,682
378,210;  530,871;   -0,338;   -1,955
378,802;  494,119;    0,754;   -0,591
379,394;  975,519;    1,846;    0,682
379,986;  696,726;    1,393;   -0,955
380,578;  586,757;   -0,153;    0,773
381,170;  867,636;   -0,972;    0,045
381,762;  745,319;    0,755;    1,409
382,354;  693,191;   -0,065;   -1,318
382,945;  586,171;   -2,976;    0,318
383,537;  511,529;   -2,705;   -1,955
384,129;  515,386;   -2,160;   -1,136
384,721;  665,413;   -0,252;    0,955
385,312;  559,348;   -0,161;   -0,955
385,904;  694,097;   -2,706;    1,591
386,496;  581,553;   -0,979;    1,045
387,087;  750,776;    1,022;    2,500
387,679;  678,622;   -1,160;    0,045
388,270;  679,046;    2,840;    2,045
388,862;  623,587;    1,295;   -0,318
389,453;  588,716;   -0,887;    1,045
390,045;  618,714;   -0,705;   -2,682
390,636;  496,206;    0,204;   -0,591
391,227;  559,568;   -0,523;   -0,045
391,819;  557,021;    0,204;    0,773
392,410;  855,238;    1,022;    0,045
393,001;  625,433;   -0,979;   -1,591
393,593;  723,423;    1,930;   -0,045
394,184;  778,171;    1,385;   -0,409
394,775;  606,723;    1,839;    2,136
395,366;  538,986;    1,385;    0,773
395,957;  779,523;    0,113;    0,136
396,548;  643,751;   -0,342;    2,682
397,139;  800,812;   -2,433;    0,591
397,730;  686,701;   -1,888;    0,955
398,321;  684,828;   -1,252;    0,955
398,912;  612,872;   -0,615;    0,136
399,503;  625,408;   -3,524;   -1,409
400,094;  669,949;    0,294;    1,682
400,685;  672,717;   -0,433;    0,045
401,276;  574,675;    0,930;   -0,955
401,867;  567,230;   -0,888;    0,773
402,458;  519,117;   -2,251;   -2,318
403,048;  727,722;    1,112;    0,591
403,639;  634,921;    0,840;    0,864
404,230;  802,098;    2,476;    0,318
404,821;  861,227;   -0,615;    0,045
405,411;  736,505;    1,203;   -2,591
406,002;  609,461;   -1,252;   -1,136
406,592;  905,230;    2,294;    0,045
407,183;  719,588;    0,566;   -1,500
407,774;  678,245;    3,475;   -0,136
408,364;  644,923;    0,930;    0,409
408,954;  795,797;    0,384;    1,227
409,545;  803,782;    1,021;    1,045
410,135;  719,930;    1,293;    0,500
410,726;  670,014;    1,838;    0,318
411,316;  904,276;    0,111;    0,773
411,906;  670,758;   -0,253;   -0,409
412,497;  679,201;   -1,070;   -0,045
413,087;  619,306;   -1,980;   -0,227
413,677;  559,561;   -0,707;    3,864
414,267;  537,538;    0,656;    1,409
414,857;  506,752;   -2,980;    4,227
415,448;  527,152;    0,839;    0,500
416,038;  559,180;    0,020;   -0,591
416,628;  624,182;   -0,889;    0,409
417,218;  714,618;    0,565;    3,318
417,808;  905,559;    0,202;   -0,409
418,398;  719,657;    0,020;    2,682
418,988;  577,954;    2,020;    0,591
419,578;  700,773;   -0,707;    1,409
420,168;  658,587;   -1,343;   -0,955
420,757;  848,699;   -1,343;   -1,500
421,347;  703,525;    0,111;   -0,227
421,937;  653,238;    2,292;    1,409
422,527;  824,943;    0,838;   -0,773
423,116;  998,471;   -0,253;   -0,045
423,706;  634,084;   -1,889;    0,318
424,296;  565,073;    1,384;    0,682
424,885;  779,710;   -0,071;   -3,045
425,475;  743,880;    1,474;   -2,864
426,065;  581,780;   -0,980;   -0,318
426,654;  547,728;   -0,435;   -0,318
427,244;  931,903;    0,020;    1,409
427,833;  895,138;    1,383;   -0,500
428,423;  709,122;   -0,526;    1,136
429,012;  736,720;   -0,344;   -1,136
429,601;  889,705;   -1,344;    0,136
430,191;  738,296;    1,292;    4,318
430,780;  579,677;   -0,344;   -0,409
431,369;  884,710;    0,746;   -0,045
431,959;  758,647;   -1,254;    0,500
432,548;  640,938;   -1,163;   -0,045
433,137;  536,819;   -1,254;   -1,318
433,726;  677,135;    0,292;    0,500
434,315;  691,908;   -0,526;    2,409
434,905;  840,940;   -1,254;    1,409
435,494;  878,654;    0,746;    0,955
436,083;  679,069;   -0,981;   -0,955
436,672;  769,405;    0,110;    0,500
437,261;  710,429;    0,292;   -1,955
437,850; 1088,920;    1,383;    0,682
438,439; 1127,296;    3,291;    1,955
439,027; 1249,611;    3,655;    1,773
439,616; 1186,718;    2,927;    1,227
440,205;  882,071;    0,200;   -2,136
440,794;  774,381;    2,109;   -0,045
441,383;  665,693;   -1,346;   -0,591
441,971;  588,036;   -2,436;    0,591
442,560;  613,256;    0,563;   -1,773
443,149;  479,931;    0,379;   -1,318
443,737;  585,569;   -0,074;   -2,318
444,326;  614,635;    0,018;    0,318
444,915;  692,883;   -1,982;    0,864
445,503;  711,279;   -2,891;   -0,318
446,092; 1050,595;    0,382;    2,136
446,680;  983,674;    0,382;    0,318
447,269;  880,538;   -0,346;   -0,318
447,857;  832,007;    0,018;   -1,773
448,445;  751,864;    0,563;    1,318
449,034;  695,289;   -1,528;   -1,136
449,622;  677,749;   -1,073;    3,500
450,210; 1141,613;    2,017;    2,227
450,799; 1020,377;    0,290;   -0,591
451,387;  907,785;    1,381;   -0,591
451,975;  894,181;    2,654;    0,864
452,563; 1038,993;    3,472;    2,318
453,151;  717,510;   -0,528;   -1,227
453,739;  815,998;   -1,347;    0,136
454,328; 1016,927;    2,381;   -2,136
454,916;  885,014;    2,562;   -0,136
455,504;  879,936;    1,017;    1,227
456,092;  724,233;    0,017;   -1,591
456,679;  640,338;    1,472;    0,682
457,267; 1308,626;    4,017;    1,045
457,855;  799,142;    1,017;    1,409
458,443;  552,814;   -0,165;    1,682
459,031;  903,917;    0,108;    2,409
459,619;  823,573;   -1,801;    2,864
460,206;  640,986;    0,835;    2,045
460,794;  653,426;   -2,983;   -0,227
461,382;  756,314;   -0,529;   -0,864
461,970;  711,583;    1,198;    1,864
462,557;  607,574;   -0,711;   -0,682
463,145;  843,423;   -3,165;   -1,682
463,732; 1190,774;    2,016;   -1,045
464,320;  835,176;   -0,075;   -3,045
464,907; 1073,763;    2,743;   -0,773
465,495;  929,924;    0,743;   -1,227
466,082;  786,344;   -1,984;   -0,045
466,670;  797,728;   -2,529;    1,227
467,257;  644,054;   -1,711;    2,045
467,844;  827,922;   -0,075;    0,045
468,432;  801,308;    0,834;    3,500
469,019;  693,000;    0,925;   -1,773
469,606;  820,459;    0,470;    3,682
470,193;  890,102;   -1,439;    0,227
470,780;  839,856;   -2,075;    0,864
471,368;  706,408;   -1,257;   -0,773
471,955;  874,996;    1,379;   -0,682
472,542;  791,590;    0,652;   -1,136
473,129;  591,935;   -0,166;    0,136
473,716;  611,806;    1,470;    0,591
474,303;  674,271;    0,652;   -0,864
474,890;  695,340;   -1,439;   -0,500
475,477;  848,952;   -1,621;    0,409
476,064;  690,287;    1,106;   -1,591
476,650;  861,422;    0,288;    0,318
477,237;  762,332;   -0,258;    0,955
477,824;  712,638;   -1,076;    0,864
478,411;  558,980;   -1,894;   -0,318
478,997;  557,738;    0,560;   -0,773
479,584;  447,350;    1,196;   -0,409
480,171;  823,104;   -0,440;   -0,773
480,757;  939,431;    2,651;    0,773
481,344;  726,113;    0,469;    0,409
481,931;  532,631;    1,105;    1,045
482,517;  841,906;   -1,258;    0,318
483,104; 1000,984;    1,106;    2,864
483,690;  822,091;   -1,804;    0,045
484,276;  776,300;   -0,895;    0,227
484,863; 1171,141;    2,469;    1,136
485,449;  886,850;   -0,077;    0,318
486,035;  799,600;   -1,986;   -0,136
486,622; 1009,398;   -0,895;    0,045
487,208;  861,289;    1,378;    1,500
487,794;  705,027;    0,741;    0,318
488,380;  709,433;    0,105;   -1,409
488,967;  738,912;   -1,168;   -0,409
489,553;  752,920;   -1,895;   -1,409
490,139;  909,656;    1,559;    0,773
490,725;  720,956;    0,741;   -0,227
491,311;  790,109;    3,287;    3,045
491,897;  674,034;   -0,986;    1,500
492,483;  673,715;    0,105;    1,227
493,069; 1426,963;    3,923;    0,864
493,655;  930,156;    1,650;    0,682
494,241;  728,400;    1,377;   -0,955
494,826;  786,006;    0,287;   -1,045
495,412;  893,553;    2,559;   -0,682
495,998;  718,550;   -0,805;   -0,318
496,584;  824,756;    0,377;    1,045
497,169;  800,994;    1,014;   -0,682
497,755;  680,728;    0,650;    1,227
498,341; 1004,898;    0,559;    0,318
498,926; 1191,345;    1,832;    1,955
499,512;  757,946;    1,286;    2,955
500,097;  733,130;    0,195;   -0,318
500,683;  763,157;   -0,350;    2,136
501,268;  668,079;   -0,169;   -0,955
501,854;  706,777;   -0,169;    1,227
502,439;  641,834;   -0,624;   -1,773
503,024;  774,181;    0,195;    0,500
503,610;  826,894;   -0,078;   -0,682
504,195;  653,954;    0,558;    1,955
504,780;  822,827;    2,922;    1,227
505,366;  989,523;    3,013;    2,864
505,951;  848,419;    0,740;    1,045
506,536;  729,389;   -3,260;   -3,682
507,121;  806,055;    0,285;   -0,318
507,706;  727,889;    2,376;    1,045
508,291;  626,697;    2,649;    1,136
508,876;  637,263;   -0,988;    2,591
509,461;  730,242;   -0,169;   -0,773
510,046;  798,587;    0,194;    0,318
510,631;  774,860;   -0,351;   -0,773
511,216;  655,478;    2,467;   -0,500
511,801;  780,585;   -0,442;    2,591
512,386;  805,719;    0,740;    0,500
512,971;  831,595;   -2,988;    0,955
513,555;  904,220;   -0,897;   -1,500
514,140;  846,349;   -0,442;   -3,136
514,725;  987,971;   -0,715;   -1,136
515,309;  849,031;   -0,533;    0,318
515,894;  688,205;   -0,624;   -2,227
516,479;  731,985;   -0,624;   -0,955
517,063;  742,665;    0,376;    1,227
517,648;  691,959;    1,012;   -1,136
518,232;  649,675;   -0,261;   -1,409
518,817;  753,138;   -0,079;    1,682
519,401;  937,377;    2,194;    0,591
519,985;  834,880;    1,103;    1,136
520,570;  648,250;    0,830;   -1,955
521,154;  822,595;    2,102;    0,591
521,738; 1078,198;   -2,352;    2,409
522,323;  877,472;   -0,170;    1,682
522,907;  837,089;    0,466;   -0,136
523,491;  705,923;    0,557;    0,955
524,075;  642,114;    2,284;    0,591
524,659;  886,480;    1,466;    0,591
525,243;  800,321;    1,739;    0,409
525,827;  724,663;    0,648;   -0,045
526,411;  747,753;   -1,989;   -0,136
526,995;  898,440;   -0,352;    1,409
527,579;  947,818;   -0,443;   -1,045
528,163;  874,723;    0,375;   -1,500
528,747; 1035,060;    2,466;   -0,773
529,331;  955,581;   -0,080;   -1,409
529,915;  727,280;    1,738;    0,955
530,499;  845,097;   -0,807;    1,227
531,082; 1009,626;   -0,534;    1,591
531,666; 1093,589;    1,374;    0,773
532,250;  978,705;    1,284;    2,682
532,833; 1115,561;    0,920;    2,773
533,417;  888,301;   -1,807;    0,864
534,001; 1033,857;    1,647;   -0,318
534,584;  944,243;    0,374;    0,500
535,168;  738,323;    0,465;    1,409
535,751; 1160,960;    0,647;    0,045
536,334;  832,644;   -0,898;   -0,409
536,918;  711,812;    0,011;    1,591
537,501;  702,522;   -0,899;    1,318
538,085;  759,923;   -0,444;    1,045
538,668;  822,477;    0,829;    2,409
539,251; 1188,031;    1,829;    3,773
539,834;  869,101;    0,101;    0,773
540,418; 1011,342;   -1,990;    4,318
541,001; 1226,843;   -0,990;    1,773
541,584;  927,817;    2,101;    2,227
542,167; 1049,274;    1,374;    2,955
542,750;  871,141;    1,919;   -0,773
543,333;  683,951;    0,555;    2,136
543,916;  983,018;    0,192;    2,500
544,499;  874,523;   -1,354;    0,227
545,082;  979,629;    1,374;    3,591
545,665;  877,861;    1,919;    1,500
546,248; 1021,496;    1,010;   -0,318
546,830;  997,013;   -0,445;    1,955
547,413;  972,679;    1,010;   -0,773
547,996;  971,200;    0,555;    0,500
548,579;  861,925;    0,919;    0,955
549,161; 1150,848;    1,828;    2,682
549,744; 1019,482;   -0,809;    0,409
550,326;  875,219;   -0,809;   -1,136
550,909; 1413,201;    2,737;    0,591
551,492; 1023,915;   -0,263;    0,227
552,074; 1147,063;   -0,173;   -1,318
552,657; 1180,067;    2,373;    0,045
553,239; 1001,730;   -0,173;   -0,773
553,821;  884,533;   -1,082;    1,045
554,404; 1155,423;    1,282;    1,136
554,986; 1287,305;    0,464;    1,045
555,568; 1122,331;    1,191;   -0,955
556,151; 1357,249;    1,191;   -0,227
556,733;  978,733;   -0,264;   -0,864
557,315;  991,811;    0,100;    0,500
557,897;  835,243;    0,554;   -0,500
558,479;  834,528;   -1,991;    1,318
559,061;  950,232;   -0,719;   -0,864
559,643; 1043,702;   -0,264;    0,045
560,225; 1092,164;    1,645;    2,864
560,807;  929,247;    0,918;    0,318
561,389;  882,277;    0,554;    2,318
561,971;  963,569;    0,463;    2,136
562,553;  913,876;   -1,628;    1,591
563,135;  998,498;   -0,537;    1,136
563,717; 1427,400;    3,372;    1,136
564,298; 1303,637;    3,645;   -0,045
564,880; 1033,771;    0,645;   -1,409
565,462;  859,317;    0,645;    1,318
566,043; 1093,235;   -0,446;    2,318
566,625; 1378,866;    1,918;    1,227
567,207; 1136,779;    1,099;    1,682
567,788; 1018,624;   -1,264;    1,500
568,370; 1075,664;    1,917;   -0,500
568,951; 1019,659;    0,190;    0,227
569,533; 1157,919;   -0,628;   -0,500
570,114; 1234,466;   -0,446;    0,682
570,695; 1252,945;   -0,174;   -1,318
571,277; 1227,100;   -0,265;   -1,682
571,858; 1456,139;    2,008;   -1,136
572,439; 1369,341;    1,554;   -1,045
573,021; 1386,078;    2,099;   -2,773
573,602; 1509,100;   -1,265;    0,318
574,183; 1477,622;   -2,083;    2,227
574,764; 1459,968;   -1,629;    0,409
575,345; 1633,208;    0,917;   -0,136
575,926; 1524,894;   -0,356;    0,136
576,507; 1603,186;    1,099;   -0,227
577,088; 1626,457;    3,099;    1,682
577,669; 1798,919;    0,735;    1,955
578,250; 1992,531;    0,644;   -1,045
578,831; 1802,527;   -1,356;   -2,227
579,412; 1714,019;   -0,810;    0,955
579,993; 1844,215;    1,008;    0,227
580,573; 1810,313;   -0,629;   -0,955
581,154; 1752,745;    0,735;   -0,591
581,735; 1793,549;    0,644;    0,773
582,315; 1833,003;   -0,629;    2,136
582,896; 1837,513;   -0,174;    1,227
583,477; 1675,095;    0,189;    1,227
584,057; 1771,668;    0,553;    0,955
584,638; 1870,851;    2,553;    2,318
585,218; 2113,021;   -0,538;    2,682
585,799; 1952,344;    0,281;   -0,227
586,379; 1812,093;    0,372;    1,591
586,959; 1738,262;    0,735;    0,318
587,540; 1616,052;   -0,629;    2,227
588,120; 1577,929;    1,007;   -0,045
588,700; 1530,718;    2,553;    2,136
589,281; 1744,855;    0,462;   -0,955
589,861; 1602,434;    0,099;   -1,682
590,441; 1497,956;    2,371;   -2,682
591,021; 1495,210;   -0,265;   -2,591
591,601; 1495,331;   -0,537;    0,500
592,181; 1532,402;   -0,719;   -0,773
592,761; 1319,937;    0,007;    1,409
593,341; 1475,437;   -0,901;    0,045
593,921; 1447,092;   -0,265;    1,591
594,501; 1322,627;   -0,538;    1,318
595,081; 1325,174;    0,917;   -0,318
595,661; 1492,048;   -1,447;    0,955
596,240; 1463,787;   -0,537;    0,136
596,820; 1814,597;    0,372;    1,955
597,400; 1495,852;    2,008;    0,773
597,980; 1440,565;    2,008;    1,045
598,559; 1418,200;    2,735;   -0,227
599,139; 1364,050;   -0,174;   -1,227
599,718; 1369,595;   -0,174;   -0,409
600,298; 1400,747;    0,735;    0,682
600,877; 1860,126;    2,917;    1,409
601,457; 1645,300;    2,281;    1,136
602,036; 1484,235;    0,190;    2,045
602,616; 1483,741;    0,644;    1,682
603,195; 1630,476;   -0,355;    3,500
603,774; 1629,143;   -0,901;    2,045
604,354; 1561,333;    0,826;   -0,500
604,933; 1468,860;    0,463;    1,864
605,512; 1638,257;    3,554;    0,591
606,091; 1634,256;   -0,537;    3,773
606,671; 1598,576;    0,281;    0,773
607,250; 1731,223;    1,644;    3,136
607,829; 1689,829;    2,372;    3,227
608,408; 1537,880;    1,190;    2,591
608,987; 1595,170;    1,281;    3,409
609,566; 1409,963;   -1,265;   -2,500
610,145; 1503,190;   -1,082;    0,682
610,723; 1589,576;    4,372;    6,864
611,302; 1447,941;   -0,446;    1,682
611,881; 1706,074;    5,008;   11,227
612,460; 1455,907;    1,645;    3,955
613,039; 1413,439;   -0,082;    2,045
613,617; 1294,670;    1,736;    4,773
614,196; 1309,908;    1,099;    1,227
614,775; 1428,336;    1,009;    2,409
615,353; 1475,548;    0,736;    0,864
615,932; 1400,199;    0,100;    2,409
616,510; 1448,785;    0,554;    0,591
617,089; 1987,031;    7,100;   17,591
617,667; 1555,931;    2,372;    6,136
618,246; 1216,142;   -1,537;    1,318
618,824; 1338,071;   -3,355;   -0,955
619,402; 1345,803;   -2,900;   -1,773
619,981; 1447,371;   -0,173;   -1,045
620,559; 1387,776;    0,009;    1,682
621,137; 1415,261;   -0,718;    1,864
621,715; 1192,284;   -1,173;   -0,682
622,293; 1230,072;   -0,537;   -0,773
622,871; 1364,357;   -0,718;    0,500
623,450; 1237,235;    0,373;   -0,864
624,028; 1438,500;    0,191;   -0,955
624,606; 1390,353;   -1,718;    1,682
625,183; 1220,004;   -1,536;   -1,136
625,761; 1313,271;    1,009;    1,136
626,339; 1691,105;    1,373;    2,591
626,917; 1328,797;   -0,172;   -0,045
627,495; 1298,360;   -0,354;    1,318
628,073; 1367,828;   -0,263;    2,864
628,650; 1360,953;    0,100;    2,136
629,228; 1386,943;    0,373;    4,409
629,806; 1160,963;    2,282;    1,136
630,383; 1224,417;    1,464;   -0,318
630,961; 1228,329;    2,555;   -0,955
631,539; 1236,678;    2,464;    0,227
632,116; 2005,965;   11,373;   15,409
632,694; 1592,700;    2,555;    6,500
633,271; 1405,806;    0,828;    2,682
633,848; 1530,334;    1,828;    2,045
634,426; 1253,115;   -1,081;    1,773
635,003; 1104,559;    1,101;   -0,409
635,580; 1550,719;    1,192;    3,682
636,158; 1375,502;    3,737;    1,227
636,735; 1162,444;    0,555;   -0,500
637,312; 1181,450;   -0,809;   -0,682
637,889; 1187,086;   -4,354;   -0,682
638,466; 1185,415;   -3,990;   -0,409
639,043; 1209,172;    2,101;   -1,136
639,620; 1150,620;   -2,262;   -0,955
640,197; 1307,944;    1,100;    1,682
640,774; 1170,594;   -0,172;    1,136
641,351; 1247,244;    0,737;    1,136
641,928; 1407,530;   -0,627;    1,409
642,505; 1560,179;    0,828;   -0,500
643,082; 1377,465;   -1,718;    1,227
643,658; 1121,115;   -0,718;    1,500
644,235; 1169,128;    1,191;    2,500
644,812; 1383,232;    1,918;    0,773
645,388; 1327,518;   -0,991;    1,409
645,965; 1087,349;   -0,809;    1,682
646,542; 1091,908;   -1,445;   -0,227
647,118; 1562,921;    1,009;   -0,955
647,695; 1348,025;   -0,263;    1,136
648,271; 1108,675;   -0,536;    0,500
648,848; 1290,779;    0,736;    2,227
649,424; 1428,247;    0,827;    1,318
650,000; 1186,078;   -0,354;   -1,045
650,577; 1247,091;   -0,627;   -0,955
651,153; 1303,105;   -1,809;    0,955
651,729; 1249,300;    1,191;    0,864
652,305; 1607,949;    0,645;    2,773
652,881; 1734,508;   -0,082;    1,136
653,458; 2193,703;    1,100;    0,227
654,034; 2544,989;    0,282;    1,591
654,610; 2624,184;    0,554;    0,773
655,186; 3051,743;    0,645;    3,045
655,762; 2681,119;   -0,991;    0,409
656,338; 2639,133;    0,100;    0,136
656,913; 2840,328;   -0,082;    0,409
657,489; 2618,523;    0,827;   -0,318
658,065; 2708,536;   -0,173;   -1,591
658,641; 2844,640;   -0,900;   -0,864
659,217; 2669,653;   -0,991;    0,409
659,792; 2584,939;    0,645;   -0,409
660,368; 2567,316;   -2,173;   -0,682
660,944; 2712,966;   -2,082;    1,227
661,519; 2359,797;   -0,628;    0,409
662,095; 1787,356;   -1,719;    0,591
662,670; 1348,187;    1,281;   -0,136
663,246; 1297,928;    1,009;   -0,409
663,821; 1442,032;    0,281;    1,682
664,396; 1295,863;    0,009;    1,864
664,972; 1238,604;    0,009;   -0,500
665,547; 1362,890;    1,372;    0,136
666,122; 1303,721;   -1,082;    0,318
666,698; 1502,461;   -0,173;    0,318
667,273; 1206,020;   -0,173;    0,136
667,848; 1302,488;    2,372;    1,500
668,423; 1472,683;    2,190;    2,318
668,998; 1338,332;    2,827;   -0,682
669,573; 1311,618;   -3,264;   -1,500
670,148; 1517,086;   -1,446;   -0,682
670,723; 1243,281;   -1,810;    0,318
671,298; 1606,931;    2,372;    1,045
671,873; 1468,308;   -0,082;   -0,136
672,448; 1467,957;    0,645;    0,136
673,023; 1464,607;   -1,992;   -0,227
673,597; 1613,893;    0,827;    2,318
674,172; 1636,997;   -0,355;    0,318
674,747; 1515,283;    0,372;   -1,045
675,321; 1259,660;   -0,628;    3,318
675,896; 1160,855;    0,645;    1,045
676,471; 1397,141;    2,645;    1,591
677,045; 1312,063;   -1,264;    0,682
677,620; 1392,258;    0,190;    1,136
678,194; 1291,089;   -2,628;    1,136
678,769; 1324,830;   -1,083;   -0,318
679,343; 1393,116;   -0,628;    1,773
679,917; 1529,765;   -1,446;    1,955
680,492; 1349,597;    0,826;    3,227
681,066; 1395,246;    3,372;    0,409
681,640; 1337,078;    1,463;   -0,318
682,214; 1387,727;    0,735;    0,500
682,788; 1369,650;   -1,356;   -0,773
683,363; 1504,845;   -1,810;    1,682
683,937; 1352,949;   -1,719;   -0,318
684,511; 1453,689;    0,463;   -0,591
685,085; 1444,339;   -1,356;    0,318
685,659; 1311,170;   -2,538;    0,864
686,232; 1582,365;   -0,356;   -0,318
686,806; 1461,015;   -0,901;    0,409
687,380; 1410,301;   -0,174;    0,591
687,954; 1370,041;   -1,174;    1,136
688,528; 1639,236;   -0,719;    1,955
689,101; 1556,613;   -3,992;    1,045
689,675; 1390,535;   -0,356;   -0,136
690,249; 1601,094;   -0,719;    0,409
690,822; 1618,744;    0,280;    0,318
691,396; 1469,939;   -0,265;    1,227
691,969; 1365,316;    1,280;    0,136
692,543; 1342,965;   -0,447;   -1,955
693,116; 1216,797;   -0,265;   -1,409
693,690; 1312,082;    0,099;    0,500
694,263; 1348,641;   -1,083;    2,955
694,836; 1699,745;    1,371;    3,591
695,410; 1515,486;   -0,265;    1,773
695,983; 1514,681;    0,189;    0,591
696,556; 1321,785;   -0,447;   -1,045
697,129; 1296,253;   -0,356;    1,409
697,703; 1458,811;   -1,629;    1,955
698,276; 1386,188;    1,462;   -0,773
698,849; 1515,383;    1,280;    1,409
699,422; 1283,942;   -1,083;    0,591
699,995; 1151,319;    0,007;    0,136
700,568; 1332,241;   -0,629;    3,045
701,140; 1356,163;   -2,811;    1,682
701,713; 1530,267;   -0,174;    2,409
702,286; 1408,917;   -0,538;    0,864
702,859; 1478,385;   -0,902;   -0,591
703,432; 1504,307;    0,825;    0,682
704,004; 1407,866;    0,462;    0,318
704,577; 1259,606;   -0,629;    0,136
705,150; 1302,347;    0,189;    2,500
705,722; 1413,451;   -0,356;   -3,227
706,295; 1473,737;   -0,175;   -0,591
706,867; 1302,750;   -0,175;    1,955
707,440; 1461,400;   -1,720;   -0,409
708,012; 1541,958;    0,462;    0,591
708,584; 1407,426;    2,462;    0,227
709,157; 1251,530;    1,825;   -0,591
709,729; 1472,362;    2,280;    2,045
710,301; 1437,466;    0,734;    0,045
710,874; 1409,933;   -1,447;   -0,227
711,446; 1169,219;    0,371;    0,864
712,018; 1272,051;    0,098;    0,500
712,590; 1208,882;   -1,993;    1,682
713,162; 1540,532;    0,825;    1,318
713,734; 1345,090;    1,825;   -2,045
714,306; 1264,467;   -1,902;   -0,409
714,878; 1245,390;    0,825;    0,864
715,450; 1258,585;    0,643;    0,864
716,022; 1283,234;    1,552;    1,318
716,593; 1267,702;    0,189;    0,591
717,165; 1333,897;   -3,175;   -1,227
717,737; 1574,092;    0,280;    0,409
718,309; 1354,832;    0,280;   -0,045
718,880; 1264,209;   -0,539;   -1,409
719,452; 1353,859;   -0,175;   -1,591
720,024; 1384,054;    0,734;   -0,591
720,595; 1305,340;   -2,902;    0,955
721,167; 1267,626;    0,370;   -2,045
721,738; 1355,275;   -0,812;   -1,045
722,309; 1473,652;   -0,993;   -1,227
722,881; 1226,484;   -1,357;    0,773
723,452; 1371,133;   -2,630;    2,864
724,023; 1401,146;   -0,721;    2,682
724,595; 1460,705;    0,007;    0,682
725,166; 1257,809;    0,007;   -0,409
725,737; 1497,186;    1,734;    0,227
726,308; 1310,654;   -0,266;    0,318
726,879; 1201,849;   -1,630;    1,227
727,450; 1404,680;    0,552;   -0,045
728,021; 1284,330;    3,097;    0,682
728,592; 1477,889;    0,734;    0,500
729,163; 1595,084;    0,643;   -0,136
729,734; 1586,551;    0,188;   -0,227
730,305; 1387,565;    1,734;    0,136
730,876; 1357,760;    0,188;    2,955
731,447; 1728,136;    2,188;    2,682
732,017; 1602,695;    1,097;    1,864
732,588; 1425,617;    0,734;    1,227
733,159; 1666,085;    0,643;   -1,045
733,729; 1367,189;    0,006;    0,409
734,300; 1504,384;    0,915;    0,864
734,870; 1353,852;    3,461;    0,591
735,441; 1341,774;    0,370;   -0,591
736,011; 1273,878;    0,643;   -1,591
736,582; 1305,073;   -0,812;    0,045
737,152; 1406,996;   -1,721;   -2,045
737,722; 1390,464;   -0,267;   -0,682
738,293; 1236,477;   -1,358;    1,318
738,863; 1436,490;    2,461;    2,318
739,433; 1733,140;    5,279;    0,318
740,003; 1469,062;   -0,994;   -0,682
740,573; 1576,348;    2,097;   -1,591
741,143; 1452,906;   -1,085;    0,318
741,713; 1359,738;    1,188;   -0,500
742,283; 1403,297;    0,915;    1,591
742,853; 1315,855;    1,915;    1,591
743,423; 1138,778;    1,733;    0,045
743,993; 1249,518;   -0,358;    1,500
744,563; 1229,349;    0,097;   -0,864
745,133; 1277,181;   -0,812;   -0,864
745,702; 1235,103;   -0,267;    1,773
746,272; 1414,753;   -0,176;    0,591
746,842; 1431,039;   -1,358;   -0,591
747,411; 1239,234;   -0,267;   -0,318
747,981; 1142,610;    0,097;    0,500
748,551; 1153,533;    2,278;   -1,045
749,120; 1323,637;    0,642;   -0,227
749,690; 1286,559;   -0,631;    2,409
750,259; 1421,118;    1,369;    2,955
750,828; 1471,586;    1,551;   -1,955
751,398; 1241,872;    1,278;   -0,045
751,967; 1721,430;    2,187;    0,409
752,536; 1364,262;   -0,813;   -0,227
753,105; 1502,548;    0,096;    0,227
753,675; 1297,924;    0,096;    1,773
754,244; 1313,210;   -0,904;    3,591
754,813; 1336,860;    0,551;    1,227
755,382; 1288,055;    0,460;    0,955
755,951; 1440,432;    1,551;    3,682
756,520; 1529,445;   -0,085;    1,864
757,089; 1719,004;    0,278;    0,500
757,658; 1403,744;    1,733;    1,227
758,227; 1233,030;    1,096;    0,318
758,795; 1314,225;    1,187;    1,136
759,364; 1370,602;   -0,086;   -0,591
759,933; 1203,433;   -1,176;   -0,045
760,501; 1142,628;    0,733;   -1,318
761,070; 1328,551;   -2,813;   -1,409
761,639; 1409,473;   -1,904;    1,318
762,207; 1421,759;    1,551;   -0,955
762,776; 1465,954;    0,369;    0,864
763,344; 1303,967;   -0,995;    0,591
763,913; 1040,617;   -0,722;    1,409
764,481; 1676,176;    1,005;   -0,136
765,049; 1644,098;   -1,358;    1,409
765,618; 1541,020;   -0,086;    0,318
766,186; 1367,124;    0,278;    0,136
766,754; 1385,592;    0,005;    1,864
767,322; 1189,423;   -1,995;    0,409
767,890; 1146,528;   -0,722;   -1,773
768,459; 1228,450;   -2,177;   -0,318
769,027; 1467,372;    1,641;    3,409
769,595; 1236,567;    3,278;    2,591
770,163; 1302,489;    3,823;    2,955
770,730; 1300,775;    0,732;   -0,136
771,298; 1278,880;    0,187;   -1,409
771,866; 1231,347;   -1,541;    4,955
772,434; 1253,815;   -0,631;   -1,864
773,002; 1504,919;    0,005;    0,682
773,569; 1363,932;    0,914;    1,682
774,137; 1483,764;   -0,268;   -0,045
774,705; 1316,141;    0,278;   -0,136
775,272; 1217,517;    0,641;    0,682
775,840; 1282,803;   -0,177;    2,682
776,407; 1359,089;    0,277;    1,955
776,975; 1168,921;   -0,632;    0,318
777,542; 1189,843;   -1,086;   -0,045
778,110; 1219,584;   -1,268;   -0,045
778,677; 1078,688;   -2,359;   -0,864
779,244; 1149,337;    2,186;    1,045
779,812; 1339,805;    1,823;    0,864
780,379; 1417,727;    0,005;    1,136
780,946; 1255,468;    1,005;   -0,773
781,513; 1197,117;   -1,450;    0,318
782,080; 1114,676;   -0,086;    2,864
782,647; 1180,144;   -0,268;    3,045
783,214; 1134,248;   -0,177;    3,864
783,781; 1363,898;   -0,723;   -0,682
784,348; 1292,820;   -0,632;    1,500
784,915; 1069,015;   -3,177;    0,318
785,482; 1307,301;    1,368;    2,591
786,049; 1294,132;    0,186;   -0,591
786,615; 1179,691;    0,277;   -0,955
787,182; 1107,068;    0,186;   -0,682
787,749; 1098,445;   -2,814;    1,409
788,315; 1273,276;   -1,632;   -0,409
788,882; 1192,653;    1,550;   -1,227
789,448; 1501,484;    1,732;   -0,955
790,015; 1254,861;    1,095;    3,227
790,581; 1444,056;    1,459;    0,227
791,148; 1219,069;    0,641;    1,045
791,714; 1142,901;   -0,541;    3,136
792,280; 1131,641;    0,186;    1,591
792,847; 1065,109;    0,550;    2,500
793,413; 1157,395;   -0,269;   -0,318
793,979; 1327,681;    3,459;   -1,318
794,545; 1673,967;    4,459;    2,682
795,111; 1511,707;    2,186;    1,318
795,678; 1342,175;    0,731;   -1,682
796,244; 1534,825;    3,368;    0,136
796,810; 1399,474;    1,731;    0,773
797,375; 1400,760;    0,549;   -2,136
797,941; 1012,410;   -0,541;    0,591
798,507; 1001,696;   -0,451;   -0,955
799,073; 1041,072;   -0,360;    0,591
799,639; 1075,904;   -2,632;    3,136
800,205; 1022,735;    0,095;    2,682
800,770; 1018,567;    0,640;    1,773
801,336; 1003,034;    1,368;   -0,955
801,901; 1693,957;    4,549;    3,136
802,467; 1327,334;   -0,542;    2,045
803,033; 1043,347;   -0,087;    0,864
803,598; 1047,178;    1,913;   -1,045
804,163; 1073,100;    1,095;   -0,318
804,729; 1196,205;   -0,178;    1,136
805,294; 1090,854;    0,822;    2,227
805,859;  988,776;    0,731;   -0,409
806,425; 1426,426;    1,186;    2,682
806,990; 1406,985;    2,186;    4,318
807,555; 1133,725;   -1,451;    2,591
808,120; 1313,102;    0,822;   -0,409
808,685; 1053,206;    0,185;   -2,500
809,250;  934,128;    0,004;   -0,500
809,815;  965,505;    1,913;    0,682
810,380; 1131,700;   -0,269;    1,591
810,945; 1309,895;   -1,087;    2,045
811,510; 1139,000;    2,094;    1,591
812,075; 1156,467;   -0,633;   -1,409
812,640; 1433,299;    2,003;    1,409
813,204; 1157,130;    0,822;   -0,227
813,769; 1351,961;    2,094;   -0,045
814,334; 1326,157;    0,458;    0,864
814,898; 1029,806;    0,367;    0,591
815,463; 1129,092;    1,276;   -0,773
816,027; 1056,560;   -0,724;   -2,318
816,592; 1007,028;    0,640;   -2,045
817,156; 1153,495;    2,094;    1,136
817,721; 1261,872;    4,276;    2,318
818,285;  967,613;    2,912;    1,500
818,849; 1062,626;   -1,451;    1,682
819,414;  982,457;   -0,269;    2,955
819,978;  922,016;   -1,269;    1,773
820,542; 1298,211;    2,003;    0,500
821,106; 1107,497;   -0,815;    0,682
821,670; 1323,237;   -0,815;    2,591
822,234; 1069,796;   -0,270;    1,409
822,798;  930,355;    0,003;    0,500
823,362; 1237,641;   -0,633;    4,227
823,926; 1002,108;    0,094;    1,136
824,490; 1230,849;   -0,997;   -0,682
825,054; 1104,226;   -0,088;   -1,136
825,618;  949,875;   -1,542;   -1,500
826,181; 1009,798;    0,458;   -1,318
826,745; 1135,356;    1,367;   -1,045
827,309; 1388,824;    1,185;    1,318
827,872; 1235,565;    1,367;    0,955
828,436; 1120,578;    1,185;   -0,773
828,999; 1021,046;   -0,997;    1,227
829,563;  991,786;   -0,179;    1,136
830,126;  948,254;   -0,179;   -0,591
830,690; 1028,449;   -1,997;    2,864
831,253;  940,371;   -0,543;    2,227
831,816; 1008,475;   -1,906;    0,500
832,380;  932,670;    0,185;    0,864
832,943;  917,138;   -1,361;   -0,500
833,506;  948,879;    2,639;   -1,227
834,069; 1131,983;    3,912;   -0,955
834,632;  974,087;    1,730;    1,318
835,195; 1015,645;    1,003;    0,955
835,758;  946,113;   -0,997;    1,955
836,321;  913,126;    0,730;   -1,045
836,884;  895,049;   -0,725;   -0,955
837,447;  848,607;   -2,816;    1,773
838,010; 1039,439;    0,366;    3,227
838,573; 1071,816;   -1,179;    0,773
839,135;  944,829;   -1,361;   -0,955
839,698;  968,115;    1,275;    0,409
840,261;  911,037;    1,003;   -0,227
840,823;  849,778;   -0,543;    0,864
841,386;  831,336;   -0,452;   -2,409
841,948; 1191,077;   -1,361;    1,773
842,511;  927,454;    0,912;    1,682
843,073; 1180,649;    1,912;    0,227
843,636;  903,935;   -0,361;   -0,227
844,198; 1154,220;    0,911;    0,591
844,760; 1113,325;    1,093;    1,955
845,322;  865,883;    0,548;    1,136
845,885; 1026,351;    0,730;    0,591
846,447;  958,455;   -1,998;    0,227
847,009; 1330,377;    1,911;   -0,682
847,571;  990,118;    0,820;   -2,045
848,133;  942,858;   -1,089;   -1,864
848,695;  795,326;   -0,543;    1,409
849,257;  880,976;   -1,089;   -1,682
849,819; 1065,262;   -0,998;   -0,409
850,381;  919,093;   -0,725;   -0,864
850,942;  994,379;    1,093;   -0,591
851,504; 1058,847;    1,184;    0,227
852,066;  915,042;    1,275;   -1,591
852,628;  942,146;   -0,180;    1,955
853,189;  801,432;    1,638;    2,682
853,751;  827,263;   -0,907;    1,409
854,312; 1026,458;   -0,453;   -1,682
854,874; 1182,744;   -2,089;   -0,773
855,435;  956,030;   -0,907;   -1,682
855,997; 1031,134;   -1,816;   -0,136
856,558; 1132,238;    0,366;    1,773
857,119; 1008,615;    0,820;    2,864
857,681;  832,356;    0,002;    0,318
858,242; 1104,914;    1,911;   -2,136
858,803; 1107,655;    0,456;   -0,773
859,364;  983,032;    0,184;   -4,773
859,925; 1059,500;   -2,453;   -0,955
860,486;  928,149;   -0,453;   -0,955
861,047;  827,162;   -0,544;   -1,227
861,608;  879,085;   -1,089;   -0,773
862,169;  755,098;    0,638;   -0,045
862,730;  877,020;    0,456;    1,409
863,291;  924,397;   -0,635;   -0,500
863,852;  902,683;   -0,635;    1,955
864,412;  878,151;   -0,271;   -0,864
864,973; 1125,618;   -0,089;    0,500
865,534; 1287,995;   -1,726;    0,227
866,094; 1046,281;    1,820;    0,227
866,655; 1182,204;    1,274;    3,318
867,215;  986,944;    0,274;    0,136
867,776;  842,775;    0,547;   -0,136
868,336;  921,425;   -1,453;    0,136
868,897; 1351,711;    2,638;    1,682
869,457; 1114,997;    1,365;    0,318
870,017;  894,192;    0,547;   -1,227
870,578;  875,205;   -0,817;    0,773
871,138;  939,673;   -2,089;   -0,955
871,698;  826,868;   -0,817;   -1,318
872,258;  967,972;   -0,453;   -2,864
872,818; 1172,894;    2,729;    0,045
873,378;  947,635;    0,638;    1,045
873,938;  911,194;    0,547;    0,500
874,498;  804,116;    0,274;   -1,955
875,058;  896,129;    2,183;    1,773
875,618;  904,779;    1,910;   -2,682
876,177;  954,701;    1,274;    0,136
876,737;  736,532;   -0,090;    1,955
877,297; 1172,364;    0,183;    1,955
877,856; 1100,013;   -0,362;    0,318
878,416;  832,390;    1,183;   -0,136
878,976;  794,767;   -1,817;    0,409
879,535;  839,598;    0,092;    3,136
880,095;  826,793;   -0,544;    0,045
880,654;  737,807;   -1,090;    1,318
881,213; 1103,274;    2,456;    1,500
881,773;  922,742;    2,637;    2,682
882,332; 1504,846;    3,365;    5,136
882,891;  898,223;    3,092;    2,136
883,451;  903,782;   -1,272;    1,682
884,010;  840,977;   -2,908;   -0,409
884,569;  775,445;   -0,999;   -0,045
885,128;  995,912;    2,819;   -1,864
885,687; 1290,744;    4,455;    0,682
886,246; 1477,848;    1,455;    2,136
886,805; 1220,497;    2,455;    2,045
887,364;  843,329;   -0,999;   -0,500
887,922;  745,342;   -1,181;    0,045
888,481;  947,264;   -1,545;    0,591
889,040; 1077,005;    1,183;    2,136
889,599;  928,654;    2,455;    1,409
890,157;  918,849;    1,455;    2,409
890,716;  860,408;   -0,090;    0,227
891,274;  975,967;    0,092;   -1,136
891,833; 1059,162;    1,546;    0,864
892,391;  908,630;   -0,454;    0,500
892,950; 1045,097;    1,819;   -0,773
893,508;  823,292;    0,455;   -0,409
894,067;  713,760;    0,637;    0,136
894,625;  840,319;   -0,636;   -1,500
895,183;  788,423;   -0,363;   -0,682
895,741; 1119,982;    1,728;   -1,773
896,299;  887,177;   -0,545;   -2,409
896,858;  803,735;    0,819;   -1,591
897,416;  951,385;    2,728;   -1,318
897,974;  859,125;    1,819;    0,318
898,532; 1358,502;    6,091;    2,682
899,089; 1019,970;    2,091;   -0,682
899,647;  908,165;   -1,454;    1,318
900,205;  930,360;    1,182;    1,045
900,763;  919,282;   -0,454;    0,227
901,321;  858,023;    2,364;   -1,409
901,878;  668,036;   -1,000;   -0,773
902,436;  755,049;   -1,363;    1,318
902,994; 1557,062;    4,728;    3,682
903,551; 1068,076;    0,728;    0,409
904,109;  920,453;    0,182;   -1,409
904,666;  858,375;    2,455;    1,045
905,224;  720,297;    0,182;   -0,409
905,781;  911,492;    0,727;   -0,318
906,338;  828,869;   -1,363;    1,045
906,895;  702,791;    0,637;    2,045
907,453; 1020,077;    1,727;    1,136
908,010;  853,454;   -0,909;    0,409
908,567;  821,649;    1,273;    0,591
909,124;  635,571;    0,364;   -1,500
909,681;  715,221;   -2,909;    0,682
910,238;  765,871;    0,636;   -1,318
910,795;  679,975;   -0,273;   -1,136
911,352;  693,429;   -2,909;   -2,682
911,909;  730,066;   -1,364;   -0,864
912,466;  741,066;   -3,182;    1,500
913,022;  827,793;   -1,636;    0,500
913,579;  920,793;   -0,909;    2,045
914,136;  787,611;    1,636;    0,955
914,692;  809,702;    0,091;   -1,227
915,249;  810,702;    1,455;    0,409
915,806;  895,793;    0,182;    1,955
916,362;  779,157;    1,909;    1,864
916,918;  723,247;    2,000;    1,045
917,475;  911,884;   -1,182;    0,955
918,031;  723,247;    3,364;   -0,045
918,587;  806,247;   -0,909;   -0,318
919,144;  693,247;   -2,273;    0,227
919,700;  632,611;    1,727;    0,773
920,256;  623,338;    0,727;    0,045
920,812;  687,157;   -0,727;   -1,045
921,368;  637,066;   -1,727;   -1,045
921,924;  651,520;    0,182;   -0,136
922,480;  767,520;   -0,545;    1,227
923,036;  773,429;    1,273;    1,955
923,592;  653,793;    0,455;    0,318
924,148;  688,975;    0,455;   -0,955
924,704;  842,884;   -1,364;   -0,409
925,259;  645,975;   -0,273;    0,591
925,815;  624,157;    1,455;    0,500
926,371;  598,611;    2,909;    1,409
926,926;  769,611;    2,091;    0,591
927,482;  746,429;   -1,364;    0,773
928,037;  651,429;    0,909;    2,045
928,593;  858,884;    1,636;    1,045
929,148;  608,157;   -1,818;   -1,500
929,704;  689,157;   -1,455;   -0,500
930,259;  585,429;    0,091;   -0,136
930,814;  804,066;   -0,818;    1,955
931,369;  732,520;    1,091;   -0,773
931,925;  527,429;   -0,091;    0,136
932,480;  637,520;   -2,818;   -2,591
933,035; 1005,884;    0,545;   -0,318
933,590;  902,793;    0,364;   -1,773
934,145;  507,975;   -1,364;   -0,318
934,700;  415,884;    0,455;   -0,591
935,255;  484,793;   -0,091;    0,045
935,809;  828,066;    3,182;    0,864
936,364;  467,975;   -0,455;   -0,136
936,919;  466,066;    0,455;   -1,773
937,474;  387,066;    1,455;    0,136
938,028;  407,520;   -1,636;    1,136
938,583;  800,520;    1,818;    4,682
939,138;  469,066;    2,091;    2,136
939,692;  347,066;    1,636;   -1,136
940,247;  399,520;   -0,727;   -1,045
940,801;  448,884;   -0,636;    0,227
941,355;  356,702;   -0,364;    2,591
941,910;  277,338;   -0,273;   -2,136
942,464;  314,157;   -0,818;   -0,318
943,018;  550,702;    1,000;   -0,227
943,572;  389,702;    2,545;   -0,682
944,126;  451,247;    0,091;   -0,409
944,681;  333,520;    3,091;    0,227
945,235;  282,429;    1,000;   -0,591
945,789;  245,975;    0,364;   -1,864
946,342;  513,975;    0,455;   -0,591
946,896;  298,793;   -2,273;    0,955
947,450;  275,157;    1,545;   -0,227
948,004;  503,247;    1,727;   -0,045
948,558;  328,975;    0,273;   -0,864
949,111;  322,520;   -0,273;   -0,318
949,665;  504,066;    1,636;   -0,682
950,219;  467,066;   -0,091;   -1,045
950,772;  386,520;   -1,909;    1,864
951,326;  382,975;    0,545;   -0,955
951,879;  319,520;    0,727;   -2,318
952,433;  445,157;    0,000;    2,227
952,986;  292,066;    2,909;    0,682
953,539;  257,338;   -0,273;    0,591
954,093;  213,975;    0,545;   -1,318
954,646;  338,793;    0,909;    1,318
955,199;  270,702;    0,000;   -0,500
955,752;  466,429;   -0,455;    1,773
956,305;  322,520;   -0,091;    2,955
956,858;  366,702;    0,818;   -0,318
957,411;  422,066;   -0,545;    2,136
957,964;  344,702;    1,364;    2,136
958,517;  267,702;   -1,545;    3,136
959,070;  224,157;   -0,455;    1,955
959,623;  475,611;    1,091;    1,500
960,176;  427,429;    1,727;    2,045
960,728;  396,975;   -2,727;    0,773
961,281;  340,157;    0,545;    0,500
961,834;  271,429;   -0,909;    0,864
962,386;  277,066;    1,727;    1,045
962,939;  244,338;    0,364;   -0,318
963,491;  290,793;    0,455;    1,136
964,043;  233,702;    1,182;    2,409
964,596;  394,429;   -1,000;    2,227
965,148;  300,793;   -1,000;    1,773
965,700;  230,066;    1,091;   -0,227
966,253;  380,520;   -0,636;    0,318
966,805;  338,702;   -2,273;    0,773
967,357;  275,975;    1,091;   -1,500
967,909;  373,429;    0,455;   -1,227
968,461;  276,338;    0,545;    3,136
969,013;  232,702;   -0,182;   -0,864
969,565;  372,338;   -0,455;   -1,136
970,117;  579,247;   -0,364;    1,045
970,669;  377,157;    0,182;   -0,136
971,220;  197,429;   -0,455;   -1,500
971,772;  276,975;   -0,636;   -0,318
972,324;  360,157;    0,091;   -0,500
972,876;  276,520;    0,818;   -0,045
973,427;  379,066;    1,909;   -1,045
973,979;  437,066;   -0,727;   -2,500
974,530;  265,247;    1,818;    1,318
975,082;  320,975;   -0,545;    1,682
975,633;  275,520;    1,091;    1,682
976,184;  317,611;    0,909;    0,773
976,736;  312,702;    0,091;    0,227
977,287;  333,247;   -0,909;   -0,500
977,838;  296,429;    0,909;   -0,318
978,389;  300,793;   -1,000;   -0,500
978,940;  189,793;    0,545;   -0,409
979,491;  183,975;    0,091;   -0,500
980,042;  273,157;    0,182;    3,045
980,593;  283,066;   -2,545;    0,227
981,144;  362,975;    2,545;   -0,500
981,695;  389,793;    1,455;    1,500
982,246;  347,066;   -0,273;    1,045
982,797;  229,611;   -1,727;    0,682
983,347;  352,884;    0,364;    0,591
983,898;  533,338;    3,091;    0,409
984,449;  494,338;    2,182;    0,773
984,999;  354,157;    1,455;   -1,136
985,550;  316,975;    0,182;   -0,318
986,100;  199,157;   -0,455;   -0,318
986,651;  195,611;   -0,818;    0,045
987,201;  225,520;   -1,000;   -0,591
987,751;  235,520;    0,818;    2,864
988,302;  270,429;    2,636;    1,500
988,852;  317,066;    0,455;   -1,136
989,402;  367,975;    0,091;    0,682
989,952;  392,066;   -2,182;    0,864
990,502;  253,338;   -0,091;    0,682
991,052;  173,066;   -0,727;    0,045
991,602;  216,520;   -2,909;    1,318
992,152;  258,611;    0,455;    0,682
992,702;  292,611;    1,364;   -0,045
993,252;  240,429;   -3,000;   -0,500
993,802;  325,247;   -0,273;    1,318
994,352;  284,157;   -1,545;    1,136
994,901;  198,793;   -0,182;    3,227
995,451;  190,884;   -0,182;    0,318
996,000;  216,520;    1,636;    0,318
996,550;  229,793;    2,273;    0,227
997,100;  269,611;    1,273;   -0,045
997,649;  382,066;    2,182;    0,955
998,198;  232,157;    1,727;   -1,500
998,748;  321,520;    1,091;   -2,318
999,297;  273,157;   -0,818;   -0,409
999,846;  389,157;    1,000;   -0,773
1000,395;  302,611;   -0,818;    0,500
1000,945;  399,611;    1,818;   -0,773
1001,494;  399,702;    2,364;    0,682
1002,043;  380,247;    4,636;    0,864
1002,592;  232,975;   -1,091;    1,955
1003,141;  228,338;   -0,455;   -0,682
1003,690;  367,975;    1,727;    0,500
1004,238;  264,611;    1,455;   -0,045
1004,787;  193,247;    1,364;    1,227
1005,336;  346,247;    0,364;    0,682
1005,885;  300,520;    1,364;   -2,773
1006,433;  295,793;    0,545;    0,955
1006,982;  454,611;    0,455;    1,682
1007,531;  318,611;   -1,818;   -0,227
1008,079;  281,247;   -2,273;    0,500
1008,627;  227,066;   -1,455;    0,409
1009,176;  254,702;    0,000;   -1,955
1009,724;  207,338;    1,091;    0,864
1010,273;  341,429;    1,273;    0,500
1010,821;  240,429;    0,091;    1,409
1011,369;  204,702;   -1,364;    1,318
1011,917;  223,247;   -1,364;   -0,591
1012,465;  288,702;    1,273;   -1,591
1013,013;  278,702;    2,091;   -1,682
1013,561;  369,975;    0,455;   -0,773
1014,109;  449,520;   -1,909;    1,682
1014,657;  344,884;    0,364;    0,591
1015,205;  252,793;    1,636;   -0,955
1015,753;  207,793;   -0,545;   -1,409
1016,301;  273,702;   -2,636;    3,045
1016,848;  338,429;   -1,273;    0,409
1017,396;  328,247;    2,545;    0,045
1017,944;  326,066;    1,182;    1,864
1018,491;  254,429;    0,273;    1,409
1019,039;  517,702;    0,455;    0,591
1019,586;  310,702;   -1,364;    1,682
1020,134;  295,884;    0,455;    1,500
1020,681;  365,611;    0,182;   -1,136
1021,228;  283,793;    2,909;   -2,227
1021,776;  265,429;    1,182;   -1,136
1022,323;  456,429;    0,455;    0,773
1022,870;  376,066;   -1,000;   -0,045
1023,417;  419,338;    2,636;    1,864
1023,964;  273,429;    2,636;    1,227
1024,511;  252,157;    1,000;    0,773
1025,058;  287,611;    3,182;   -0,045
1025,605;  243,429;   -2,273;    3,136
1026,152;  424,884;    1,727;   -0,591
1026,699;  301,157;    1,818;    1,318
1027,245;  286,520;   -0,091;    0,318
1027,792;  227,429;   -1,000;    1,409
1028,339;  428,066;    2,364;   -0,045
1028,885;  306,975;    1,000;   -0,227
1029,432;  256,611;   -0,091;    0,227
1029,978;  353,884;   -1,000;   -1,591
1030,525;  352,975;    1,000;    0,409
1031,071;  240,884;   -1,364;    1,136
1031,618;  487,247;    0,364;    1,682
1032,164;  342,702;   -0,091;    3,045
1032,710;  378,702;    1,636;   -1,500
1033,256;  352,702;   -0,636;   -0,136
1033,803;  225,793;   -0,545;    1,500
1034,349;  112,702;   -1,364;    0,136
1034,895;  150,884;    0,000;   -0,318
1035,441;  216,702;   -0,818;    0,318
1035,987;  258,338;   -2,364;   -0,682
1036,533;  321,429;   -1,455;   -0,955
1037,078;  491,975;    1,455;    1,682
1037,624;  359,975;    2,455;   -0,955
1038,170;  245,702;    0,455;   -0,318
1038,716;  319,520;    1,636;   -0,409
1039,261;  217,429;   -2,273;   -0,773
1039,807;  231,338;   -0,091;    3,409
1040,352;  255,066;   -1,909;   -0,318
1040,898;  243,429;   -1,545;   -0,682
1041,443;  189,702;   -1,455;   -2,591
1041,989;  454,338;    1,091;    1,591
1042,534;  279,611;   -0,364;    2,591
1043,079;  182,429;    2,909;    0,955
1043,625;  276,066;    1,818;    0,500
1044,170;  283,702;   -1,364;    1,045
1044,715;  449,884;    2,455;    0,955
1045,260;  365,429;    2,182;   -0,955
1045,805;  234,429;    1,182;   -0,591
1046,350;  208,975;    1,364;   -0,409
1046,895;  362,247;    2,909;    1,591
1047,440;  345,793;    5,364;    0,409
1047,985;  244,702;    2,818;   -0,955
1048,530;  222,611;    1,545;    1,227
1049,074;  268,611;    0,000;    0,318
1049,619;  215,611;   -1,364;    1,955
1050,164;  208,157;    0,455;    0,227
1050,708;  291,247;   -0,455;    0,045
1051,253;  494,611;    1,273;   -2,227
1051,797;  321,884;    0,818;   -1,318
1052,342;  180,793;   -1,182;    1,045
1052,886;  261,520;    0,364;   -1,409
1053,430;  165,702;   -1,364;    0,136
1053,975;  253,975;   -0,818;   -0,318
1054,519;  253,066;   -0,727;    3,227
1055,063;  307,157;    0,909;    1,318
1055,607;  295,066;   -0,182;    0,227
1056,151;  293,975;    2,909;    1,682
1056,695;  220,429;    2,273;   -1,136
1057,239;  217,884;   -1,727;   -0,682
1057,783;  255,066;    0,818;   -1,500
1058,327;  316,611;    0,000;    1,409
1058,871;  432,066;   -0,545;    1,318
1059,415;  327,884;   -0,818;   -0,045
1059,958;  451,611;    1,455;    2,591
1060,502;  241,611;   -1,000;   -0,773
1061,046;  168,157;    0,364;   -0,955
1061,589;  162,338;   -3,000;   -1,136
1062,133;  134,429;   -1,273;    1,864
1062,676;  171,066;    1,182;    0,864
1063,220;  206,157;    1,091;    0,500
1063,763;  232,611;    0,909;    1,136
1064,306;  248,702;   -0,909;    1,864
1064,849;  250,429;   -0,909;    0,591
1065,393;  227,611;    2,000;   -1,500
1065,936;  223,247;    0,182;   -0,409
1066,479;  162,611;   -1,455;    1,318
1067,022;  186,247;   -0,273;   -0,227
1067,565;  160,157;   -0,091;   -1,318
1068,108;  140,429;    0,727;   -0,591
1068,651;  122,702;   -0,636;    1,409
1069,194;  130,520;   -0,455;   -1,682
1069,736;  145,793;   -1,273;    0,955
1070,279;  129,157;   -1,364;   -0,500
1070,822;  205,793;   -2,000;   -0,318
1071,364;  312,975;   -0,364;    1,318
1071,907;  193,157;   -0,727;    3,227
1072,450;   78,338;    0,000;   -0,045
1072,992;  137,702;   -0,273;    3,136
1073,535;  194,702;    2,091;    2,136
1074,077;  132,247;   -0,727;    2,045
1074,619;  127,793;   -1,364;    0,591
1075,161;  155,338;   -1,091;    1,500
1075,704;  257,702;    1,545;    1,227
1076,246;  147,338;   -0,182;    0,682
1076,788;   95,975;   -0,364;    1,773
1077,330;   94,793;    1,273;    2,136
1077,872;  133,611;    0,909;    0,955
1078,414;  277,157;    2,727;    0,773
1078,956;  159,702;    1,273;   -0,227
1079,498;  266,611;    1,636;    0,318
1080,040;  162,702;    1,909;   -1,318
1080,581;  131,975;    1,636;   -0,318
1081,123;   81,520;    0,091;   -0,773
1081,665;   92,611;   -1,182;   -0,955
1082,206;  240,066;    1,364;   -0,500
1082,748;  170,975;    0,727;    2,045
1083,289;  102,520;   -2,000;    1,318
1083,831;   96,793;   -0,545;    0,227
1084,372;  135,702;    0,000;    0,591
1084,913;  133,793;    1,091;    0,864
1085,455;   90,975;   -1,909;   -2,045
1085,996;   82,975;   -2,273;    0,136
1086,537;  112,247;   -0,091;    0,864
1087,078;  126,157;   -0,909;   -2,136
1087,619;  163,338;   -1,273;    0,227
1088,160;  137,611;    0,000;    1,318
1088,701;  116,702;   -1,091;    0,682
1089,242;  106,066;    1,364;   -2,227
1089,783;  142,611;   -0,273;    1,409
1090,324;  121,975;    0,455;    0,682
1090,865;   88,157;    2,727;   -0,409
1091,405;   68,157;    0,727;    2,227
1091,946;  107,884;    0,182;   -0,955
1092,487;   68,611;    0,818;   -1,409
1093,027;  150,520;   -1,364;   -1,500
1093,568;   97,975;   -0,364;    1,227
1094,108;  120,884;    0,273;    1,773
1094,649;  103,066;   -1,182;    0,136
1095,189;   77,247;   -0,636;   -0,682
1095,729;   75,157;   -0,091;    0,955
1096,269;   65,975;    0,727;   -0,955
1096,810;  181,611;   -1,364;    0,500
1097,350;  136,157;    1,364;   -0,773
1097,890;   98,429;    0,364;    1,227
1098,430;  227,429;    2,364;    2,864
1098,970;  176,793;    2,182;    1,682
1099,510;   92,520;    0,545;   -2,318
1100,050;   77,338;    1,000;   -1,591
1100,589;   86,793;   -0,727;   -0,318
1101,129;  122,247;    0,818;   -0,955
1101,669;  193,338;    1,727;    2,136
1102,209;  131,520;   -0,091;    2,227
1102,748;   97,793;    0,000;    0,955
1103,288;  105,520;    1,273;   -1,227
1103,827;  103,066;    3,091;   -2,227
1104,367;   72,429;   -0,091;   -2,409
1104,906;   73,975;    1,364;   -1,136
1105,445;  105,702;    0,636;   -1,136
1105,985;   91,066;   -0,727;    1,500
1106,524;   99,157;   -1,727;   -0,682
1107,063;   90,338;   -2,727;    1,409
1107,602;   68,157;   -1,909;   -1,500
1108,141;   56,429;   -1,909;    1,500
1108,680;  105,520;   -3,455;   -0,591
1109,219;   81,975;   -0,909;   -0,500
1109,758;   78,338;    0,455;    0,682
1110,297;   71,429;    1,000;   -0,682
1110,836;   54,066;   -0,727;    0,955
1111,375;   76,066;   -2,545;    0,409
1111,913;  107,611;   -1,000;    0,773
1112,452;   86,247;   -0,273;    0,136
1112,991;   56,793;    1,091;    1,955
1113,529;   53,429;   -0,818;   -0,045
1114,068;   69,611;   -0,273;    2,955
1114,606;   47,884;   -0,364;   -0,955
1115,144;   98,429;   -1,273;    1,045
1115,683;   77,338;   -0,727;    0,318
1116,221;  100,157;   -0,455;   -0,864
1116,759;   62,520;    0,636;   -0,864
1117,297;  120,793;    0,000;    1,864
1117,836;   69,338;   -2,182;   -1,227
1118,374;   68,247;    0,182;   -0,682
1118,912;   73,611;    0,909;    2,682
1119,450;   64,611;    1,000;    0,864
1119,988;   65,702;    1,545;    2,136
1120,525;  276,975;    5,091;    3,318
1121,063;  141,066;    1,182;    1,864
1121,601;   66,611;   -0,909;   -1,227
1122,139;   50,247;   -0,727;   -2,045
1122,676;  131,611;   -0,727;    2,773
1123,214;  109,975;   -1,182;    4,409
1123,751;   51,975;    1,727;    2,227
1124,289;   79,793;   -0,091;   -0,409
1124,826;   54,066;    1,727;    0,227
1125,364;   26,611;    1,727;   -0,955
1125,901;  108,975;    1,182;    1,227
1126,438;  106,702;    0,818;    0,955
1126,975;   29,611;   -0,727;   -0,773
1127,513;   45,247;    0,273;    2,136
1128,050;   31,611;    1,636;   -0,682
1128,587;   53,884;    2,000;   -0,227
1129,124;   72,247;    0,091;    1,318
1129,661;   39,975;    0,273;    0,227
1130,198;   93,702;    1,636;    0,773
1130,734;   63,429;    0,182;    1,409
1131,271;   29,157;   -0,909;    0,864
1131,808;   82,157;    2,909;    3,045
1132,345;   46,702;    1,545;    0,318
1132,881;   17,157;   -1,545;   -1,864
1133,418;   52,429;    0,727;   -1,136
1133,954;   35,611;    2,455;   -2,682
1134,491;   56,157;    1,364;   -0,773
1135,027;   32,247;    2,364;    0,864
1135,564;   53,520;    0,273;    2,955
1136,100;   48,975;    0,364;    2,136
1136,636;   22,429;   -1,273;   -1,045
1137,172;   38,247;    0,000;   -1,045
1137,708;   27,520;   -1,364;   -1,045
1138,245;   25,429;    1,273;   -1,227
1138,781;   18,247;    1,091;   -3,318
1139,317;   35,338;    1,273;   -1,409
1139,852;   39,611;    3,091;    0,136
1140,388;   57,793;   -1,182;   -0,409
1140,924;   30,066;   -1,091;   -2,227
1141,460;   18,975;   -1,636;    0,136
1141,996;    7,975;   -1,364;    2,682
1142,531;   16,611;    1,364;    3,318
1143,067;   72,793;    1,182;    1,045
1143,602;   95,611;   -0,091;   -0,318
1144,138;   49,793;   -2,636;    1,045
1144,673;   17,793;   -1,455;    1,409
1145,209;   30,975;   -1,909;   -0,318
1145,744;   13,975;   -0,727;    0,864
1146,279;   45,975;    1,818;   -0,136
1146,815;   25,884;    1,545;   -2,682
1147,350;   40,975;   -1,364;    0,045
1147,885;   19,611;   -0,818;   -1,318
1148,420;   18,520;   -2,273;    0,773
1148,955;   15,975;   -1,727;    1,864
1149,490;   21,702;   -0,909;   -1,591
1150,025;   12,884;    0,455;   -1,773
1150,560;   41,066;    1,091;   -0,955
1151,094;   34,702;    1,455;   -0,591
1151,629;   32,338;    1,636;    0,864
1152,164;   16,338;    1,364;    1,318
1152,698;   12,066;   -0,182;   -0,136
1153,233;    3,611;    0,091;   -0,682
1153,767;   14,520;   -3,000;   -2,318
1154,302;   20,520;   -1,455;    1,773
1154,836;   20,702;   -0,455;   -2,136
1155,371;   28,066;   -1,364;    3,682
1155,905;   17,793;   -0,636;    1,682
1156,439;   19,793;   -0,636;   -0,500
1156,973;   25,702;    0,364;    0,318
1157,507;   13,066;   -0,364;    0,682
1158,042;   19,247;   -0,727;    1,045
1158,576;   22,338;    0,182;    1,773
1159,110;   24,793;   -0,818;    2,409
1159,643;   18,884;    0,636;   -0,045
1160,177;   10,884;   -1,545;    1,500

