
Integration time [ms]:   0,040
Averaging Nr. [scans]: 11
Smoothing Nr. [pixels]: 0
Data measured with spectrometer [name]: 7318044SP
Wave   ;Sample   ;Dark     ;Reference
[nm]   ;[counts] ;[counts] ;[counts] 

186,757;   36,634;   31,551;    1,318
187,357;   32,471;   22,551;    0,955
187,958;   20,117;   15,460;   -1,591
188,558;   22,629;    8,915;   -1,227
189,159;   17,479;    6,733;   -4,500
189,759;   13,294;    7,278;   -3,591
190,360;    9,632;    2,824;   -2,136
190,960;   11,601;    2,915;   -4,136
191,560;   11,519;    3,189;   -6,591
192,161;   57,879;    4,372;   -3,500
192,761;   33,816;    4,010;   -3,227
193,361;   21,675;    1,556;   -3,773
193,962;   31,154;    2,010;   -2,682
194,562;   10,664;    1,189;   -3,955
195,162;   10,370;   -2,448;   -2,227
195,762;   36,439;   -3,176;   -0,045
196,362;   23,017;    1,370;   -2,500
196,963;   11,063;    2,006;   -0,864
197,563;   19,359;    1,551;   -0,955
198,163;    7,181;    0,096;   -0,682
198,763;   10,682;    1,733;   -0,500
199,363;   18,780;    3,096;   -0,500
199,963;   13,139;    0,369;    0,409
200,563;   12,357;    2,823;   -1,409
201,163;    8,219;    3,277;   -0,227
201,763;   14,569;    3,732;    0,318
202,363;    4,501;    1,459;    1,500
202,963;   10,274;    1,459;    1,045
203,563;   30,427;    0,277;    0,500
204,162;   13,347;    2,096;   -1,864
204,762;   11,372;    0,550;    0,591
205,362;    9,689;    3,004;    1,955
205,962;   16,580;    3,096;    1,955
206,562;   13,483;    1,823;    2,318
207,161;    9,491;   -0,087;    0,318
207,761;   34,757;    1,277;    2,409
208,361;   13,261;   -0,268;    1,409
208,960;   17,835;    0,459;    1,500
209,560;   16,198;    1,277;    1,591
210,160;   22,069;    0,550;    1,864
210,759;   14,770;    4,186;    1,227
211,359;    9,875;    1,459;    1,045
211,958;   59,805;    1,277;    2,045
212,558;   56,607;    1,732;    1,864
213,157;   28,096;    1,822;    1,500
213,757;   97,709;    3,822;   -0,227
214,356;   40,576;    1,277;   -0,409
214,956;   92,588;    3,095;    0,409
215,555;   37,086;    2,095;    2,136
216,154;   19,814;   -2,723;   -0,591
216,754;   18,536;    0,277;    0,773
217,353;   29,206;   -0,268;   -1,045
217,952;   10,960;   -0,178;    0,318
218,552;   44,145;    1,368;   -0,773
219,151;   26,087;    0,277;    0,955
219,750;   19,776;    0,004;   -0,227
220,349;   16,612;   -0,451;    1,045
220,948;   59,650;   -1,360;    1,136
221,548;   30,856;    0,913;    1,227
222,147;   35,207;   -0,087;   -0,409
222,746;   88,642;   -0,451;   -0,955
223,345;   53,837;    0,731;    0,500
223,944;   55,603;   -0,451;    0,773
224,543;   62,750;    1,004;   -1,409
225,142;   49,526;    0,094;    0,136
225,741;   62,712;   -0,814;    1,045
226,340;   57,272;   -0,451;   -0,955
226,939;  107,474;   -0,996;   -0,136
227,538;   52,341;   -0,360;   -0,773
228,137;  125,997;   -0,814;    0,864
228,735;   96,449;   -0,541;    1,227
229,334;   36,535;   -0,905;   -0,227
229,933;  139,724;    0,459;    0,591
230,532;  143,873;    1,186;   -0,409
231,131;  192,580;    1,732;    0,318
231,729;  118,074;   -2,450;   -2,318
232,328;   79,428;   -0,723;   -1,500
232,927;   98,472;    1,004;   -0,500
233,525;   85,949;    3,640;    0,045
234,124;  116,599;    2,368;   -1,591
234,723;   74,530;    0,913;   -1,045
235,321;   72,027;    2,277;    0,136
235,920;   92,349;    1,186;   -1,227
236,518;  191,391;    3,459;    0,318
237,117;   94,949;    0,004;   -0,227
237,715;  111,445;    0,640;   -0,500
238,314;  136,972;   -0,087;   -2,318
238,912;  225,337;   -0,723;   -1,409
239,510;  164,508;    0,459;   -1,227
240,109;  239,542;    0,004;    3,773
240,707;  210,282;   -0,996;    1,227
241,305;  110,029;    0,550;    0,136
241,904;  183,029;   -0,178;   -2,045
242,502;  268,582;   -0,632;   -0,227
243,100;  189,622;   -0,087;   -0,955
243,698;  135,391;    0,732;    1,682
244,297;  164,901;   -0,632;    0,682
244,895;  163,749;   -0,269;   -2,318
245,493;  294,411;    2,186;   -0,591
246,091;  299,036;    1,368;   -1,318
246,689;  241,215;    1,004;    0,591
247,287;  216,848;    0,822;   -1,136
247,885;  184,447;   -1,451;    1,227
248,483;  155,753;    1,822;   -0,500
249,081;  229,588;    0,185;    1,591
249,679;  256,397;   -0,178;    1,682
250,277;  159,974;   -1,723;    0,864
250,875;  257,988;   -1,087;   -1,045
251,473;  177,861;   -1,178;    0,500
252,071;  256,299;    1,459;    1,045
252,669;  189,603;   -1,814;    0,318
253,267;  150,149;   -0,087;    0,773
253,864;  197,848;   -0,360;    0,682
254,462;  311,803;    1,640;    1,591
255,060;  160,789;   -0,269;    1,318
255,658;  159,694;    0,822;   -0,136
256,255;  204,663;    0,186;   -2,045
256,853;  244,447;   -0,269;    1,409
257,451;  213,315;    0,822;    1,864
258,048;  535,483;    1,822;    1,864
258,646;  324,073;    1,731;   -1,045
259,243;  394,538;   -0,087;    2,227
259,841;  295,605;   -0,814;    0,318
260,438;  182,994;   -0,087;    0,864
261,036;  279,814;   -1,905;    1,409
261,633;  189,426;   -0,087;    2,227
262,231;  162,596;    2,731;   -0,045
262,828;  163,704;   -0,905;    1,136
263,425;  203,296;    0,913;   -0,591
264,023;  207,516;    0,186;    0,045
264,620;  327,613;   -0,360;   -0,318
265,217;  429,242;   -2,087;    3,136
265,815;  221,947;   -1,905;    2,136
266,412;  316,884;    0,731;    0,136
267,009;  322,130;   -1,451;    0,773
267,606;  390,982;    0,822;   -0,955
268,203;  244,007;   -0,269;   -0,591
268,801;  267,419;    1,731;    0,591
269,398;  196,183;   -0,360;    2,500
269,995;  325,249;    0,277;    1,591
270,592;  275,445;   -0,632;   -0,500
271,189;  197,639;    0,186;    0,409
271,786;  177,572;   -0,632;    1,227
272,383;  371,001;   -1,087;    0,227
272,980;  254,589;    0,277;    0,318
273,577;  217,503;    0,004;    1,227
274,174;  202,424;    0,822;    2,591
274,771;  319,694;   -0,814;   -0,773
275,367;  640,319;    2,277;    1,409
275,964;  465,807;    0,731;   -0,500
276,561;  288,975;    1,549;   -1,045
277,158;  210,669;    0,095;   -1,773
277,755;  415,952;    2,185;    0,409
278,351;  332,525;   -0,451;   -1,500
278,948;  385,948;   -0,815;    0,045
279,545;  339,008;   -1,360;    2,318
280,141;  488,031;   -1,723;   -2,045
280,738;  459,870;   -0,451;   -0,136
281,334;  281,911;   -1,633;    0,591
281,931;  292,362;   -0,087;   -1,318
282,528;  393,623;    0,822;   -0,500
283,124;  457,166;   -1,087;   -0,500
283,721;  447,806;   -0,451;    1,409
284,317;  327,549;    0,185;    2,500
284,913;  481,174;   -1,360;    0,591
285,510;  688,083;    0,640;   -0,318
286,106;  512,866;   -2,269;   -0,955
286,703;  353,212;   -0,360;    1,955
287,299;  300,423;   -1,451;   -0,591
287,895;  283,432;    0,822;   -1,045
288,491;  264,365;    0,186;    2,136
289,088;  377,843;   -2,360;    2,409
289,684;  416,421;   -1,723;    1,500
290,280;  544,660;    0,368;    0,682
290,876;  499,882;    1,822;    5,500
291,472;  414,398;    1,276;    2,227
292,068;  434,962;    1,367;    0,227
292,665;  323,150;    2,095;    0,773
293,261;  244,281;    0,276;    2,136
293,857;  404,836;    2,913;    2,136
294,453;  331,084;    3,550;    0,955
295,049;  521,120;   -0,268;    1,955
295,644;  371,194;    0,095;    0,136
296,240;  251,784;   -0,905;   -0,136
296,836;  358,816;   -0,995;    0,318
297,432;  476,132;    1,096;   -0,500
298,028;  499,861;    0,732;    0,773
298,624;  375,278;    1,459;    1,864
299,220;  356,253;    2,368;    0,591
299,815;  343,924;    1,005;   -0,409
300,411;  434,574;    0,914;    1,773
301,007;  535,489;    1,368;    0,227
301,602;  378,820;   -0,541;   -2,318
302,198;  498,280;    0,732;   -0,773
302,794;  361,880;    1,187;   -0,500
303,389;  304,707;   -1,177;    1,045
303,985;  350,077;    0,550;    1,409
304,580;  464,696;    1,459;    1,591
305,176;  380,392;   -3,086;    0,136
305,771;  271,689;   -1,268;   -1,227
306,367;  628,617;    4,095;    0,136
306,962;  412,729;    0,641;    1,500
307,558;  459,000;   -0,450;    0,136
308,153;  507,667;    1,095;   -1,136
308,748;  322,559;   -0,814;    1,682
309,344;  661,981;   -0,632;   -1,318
309,939;  669,594;   -1,905;   -1,318
310,534;  384,788;   -0,086;   -1,682
311,130;  357,200;    0,459;   -2,500
311,725;  319,221;    1,004;   -0,500
312,320;  375,825;    2,459;    0,045
312,915;  464,336;    1,459;   -1,045
313,510;  650,225;    1,550;   -0,500
314,105;  384,863;    1,096;    1,409
314,700;  268,794;   -3,086;   -1,045
315,295;  346,878;   -0,904;    0,045
315,890;  301,724;    1,277;    0,864
316,485;  403,409;   -0,359;   -0,318
317,080;  312,462;   -3,086;    1,591
317,675;  601,009;    2,005;   -0,682
318,270;  792,657;    5,550;    3,318
318,865;  685,291;    3,278;    3,045
319,460;  529,637;   -0,904;    0,591
320,055;  368,993;   -0,541;   -1,227
320,650;  374,979;   -1,995;   -0,591
321,244;  381,916;   -0,177;   -1,409
321,839;  393,802;   -1,541;   -0,227
322,434;  443,006;   -1,086;   -1,591
323,029;  371,399;    1,732;    1,591
323,623;  341,195;    1,550;    0,773
324,218;  512,835;    2,368;    1,409
324,812;  450,247;    1,096;    1,591
325,407;  452,183;   -0,814;    2,045
326,002;  572,642;    0,277;   -0,409
326,596;  509,422;    0,914;    1,318
327,191;  356,356;    0,823;   -1,045
327,785;  351,786;   -0,813;   -0,227
328,379;  363,902;    1,368;    0,136
328,974;  424,266;    0,914;   -3,955
329,568;  437,341;    0,186;   -2,409
330,163;  505,042;    2,096;    1,045
330,757;  351,689;    2,459;    1,591
331,351;  302,114;    0,459;    0,682
331,945;  294,060;    0,914;    1,409
332,540;  425,935;   -1,723;   -0,591
333,134;  421,148;   -1,086;    0,773
333,728;  421,298;    0,005;    0,318
334,322;  317,261;   -1,177;   -0,864
334,916;  307,631;    0,277;    0,955
335,510;  468,019;   -0,450;   -0,136
336,105;  459,901;   -1,086;    1,591
336,699;  353,307;   -1,086;    0,591
337,293;  387,170;   -1,723;    0,318
337,887;  327,280;   -2,723;    1,955
338,481;  471,661;    0,459;    0,591
339,074;  567,719;   -0,359;    2,682
339,668;  537,250;   -1,632;    1,227
340,262; 1061,697;    1,732;    3,227
340,856;  689,293;    1,822;   -0,682
341,450;  377,499;    1,004;    1,864
342,044;  425,625;    1,459;    0,136
342,637;  560,996;    0,913;   -2,136
343,231;  544,135;   -2,360;    0,682
343,825;  439,395;   -1,086;   -0,591
344,419;  407,985;   -1,995;    0,500
345,012;  914,234;    2,459;    4,045
345,606;  722,944;    4,641;    1,591
346,199;  423,001;   -1,813;   -0,227
346,793;  543,532;    1,914;    2,045
347,386;  354,879;   -0,813;   -1,136
347,980;  261,501;   -0,268;   -0,045
348,573;  365,729;    2,278;    0,409
349,167;  642,316;    5,278;    4,773
349,760;  515,413;    2,914;    2,682
350,354;  479,833;   -0,813;    1,136
350,947;  527,891;    1,096;    1,682
351,540;  403,977;   -0,358;   -1,409
352,134;  280,323;    1,096;    1,136
352,727;  301,578;   -0,086;    1,136
353,320;  323,974;    0,005;    0,591
353,913;  269,173;   -1,995;    1,864
354,507;  463,914;    0,823;   -1,227
355,100;  333,898;    0,460;    0,864
355,693;  736,980;    2,005;    2,409
356,286;  510,503;    0,823;    2,773
356,879;  359,237;   -0,722;    1,227
357,472;  358,973;   -0,904;    1,500
358,065;  407,020;   -0,722;    2,500
358,658;  263,598;   -0,540;    2,318
359,251;  233,512;   -1,631;   -0,591
359,844;  423,103;   -1,904;   -1,136
360,437;  486,811;   -2,995;    0,045
361,030;  325,512;    1,369;   -0,682
361,623;  334,985;    2,824;    0,318
362,215;  561,377;   -0,086;    2,045
362,808;  411,575;   -2,358;   -1,682
363,401;  333,326;   -2,449;    0,136
363,994;  556,665;   -0,631;   -1,500
364,586;  354,587;    0,824;   -1,500
365,179;  301,267;   -0,449;   -1,136
365,772;  172,086;   -1,995;    2,045
366,364;  319,386;    1,915;   -3,227
366,957;  377,080;    2,279;   -0,045
367,549;  323,867;    2,188;   -0,864
368,142;  335,163;    1,825;   -1,500
368,734;  304,756;    0,734;   -2,136
369,327;  235,523;    1,643;   -0,500
369,919;  274,615;   -1,538;    0,409
370,512;  295,941;   -1,083;   -0,500
371,104;  558,981;   -0,901;    1,591
371,696;  582,070;    1,191;   -0,955
372,289;  435,354;    0,373;    1,136
372,881;  380,321;   -2,080;    1,318
373,473;  273,343;   -2,170;    1,136
374,066;  368,146;   -0,169;    0,500
374,658;  344,531;    0,378;    1,136
375,250;  274,310;    0,653;   -1,409
375,842;  331,828;    0,473;   -0,045
376,434;  288,940;   -0,435;   -0,409
377,026;  276,586;    0,204;   -2,500
377,618;  330,081;   -0,158;   -0,682
378,210;  277,200;   -0,338;   -1,955
378,802;  269,861;    0,754;   -0,591
379,394;  651,417;    1,846;    0,682
379,986;  409,698;    1,393;   -0,955
380,578;  317,894;   -0,153;    0,773
381,170;  558,520;   -0,972;    0,045
381,762;  458,868;    0,755;    1,409
382,354;  411,904;   -0,065;   -1,318
382,945;  315,132;   -2,976;    0,318
383,537;  258,957;   -2,705;   -1,955
384,129;  253,031;   -2,160;   -1,136
384,721;  371,638;   -0,252;    0,955
385,312;  305,926;   -0,161;   -0,955
385,904;  402,117;   -2,706;    1,591
386,496;  329,662;   -0,979;    1,045
387,087;  465,679;    1,022;    2,500
387,679;  407,601;   -1,160;    0,045
388,270;  394,448;    2,840;    2,045
388,862;  356,855;    1,295;   -0,318
389,453;  336,919;   -0,887;    1,045
390,045;  350,282;   -0,705;   -2,682
390,636;  241,208;    0,204;   -0,591
391,227;  312,027;   -0,523;   -0,045
391,819;  288,891;    0,204;    0,773
392,410;  552,591;    1,022;    0,045
393,001;  352,238;   -0,979;   -1,591
393,593;  417,643;    1,930;   -0,045
394,184;  470,517;    1,385;   -0,409
394,775;  342,702;    1,839;    2,136
395,366;  264,059;    1,385;    0,773
395,957;  461,143;    0,113;    0,136
396,548;  349,213;   -0,342;    2,682
397,139;  478,378;   -2,433;    0,591
397,730;  389,416;   -1,888;    0,955
398,321;  394,390;   -1,252;    0,955
398,912;  327,594;   -0,615;    0,136
399,503;  326,135;   -3,524;   -1,409
400,094;  385,088;    0,294;    1,682
400,685;  371,653;   -0,433;    0,045
401,276;  311,449;    0,930;   -0,955
401,867;  291,409;   -0,888;    0,773
402,458;  255,716;   -2,251;   -2,318
403,048;  412,610;    1,112;    0,591
403,639;  353,163;    0,840;    0,864
404,230;  473,253;    2,476;    0,318
404,821;  534,408;   -0,615;    0,045
405,411;  428,912;    1,203;   -2,591
406,002;  336,798;   -1,252;   -1,136
406,592;  576,138;    2,294;    0,045
407,183;  429,956;    0,566;   -1,500
407,774;  399,738;    3,475;   -0,136
408,364;  355,440;    0,930;    0,409
408,954;  484,923;    0,384;    1,227
409,545;  483,279;    1,021;    1,045
410,135;  434,536;    1,293;    0,500
410,726;  380,945;    1,838;    0,318
411,316;  582,756;    0,111;    0,773
411,906;  401,907;   -0,253;   -0,409
412,497;  412,353;   -1,070;   -0,045
413,087;  350,452;   -1,980;   -0,227
413,677;  274,582;   -0,707;    3,864
414,267;  271,297;    0,656;    1,409
414,857;  244,041;   -2,980;    4,227
415,448;  252,466;    0,839;    0,500
416,038;  293,753;    0,020;   -0,591
416,628;  342,392;   -0,889;    0,409
417,218;  409,974;    0,565;    3,318
417,808;  575,990;    0,202;   -0,409
418,398;  429,630;    0,020;    2,682
418,988;  304,825;    2,020;    0,591
419,578;  411,961;   -0,707;    1,409
420,168;  344,003;   -1,343;   -0,955
420,757;  515,194;   -1,343;   -1,500
421,347;  400,157;    0,111;   -0,227
421,937;  355,150;    2,292;    1,409
422,527;  512,276;    0,838;   -0,773
423,116;  671,265;   -0,253;   -0,045
423,706;  344,117;   -1,889;    0,318
424,296;  295,385;    1,384;    0,682
424,885;  454,021;   -0,071;   -3,045
425,475;  427,334;    1,474;   -2,864
426,065;  299,421;   -0,980;   -0,318
426,654;  269,533;   -0,435;   -0,318
427,244;  585,619;    0,020;    1,409
427,833;  556,145;    1,383;   -0,500
428,423;  403,412;   -0,526;    1,136
429,012;  395,121;   -0,344;   -1,136
429,601;  548,705;   -1,344;    0,136
430,191;  423,181;    1,292;    4,318
430,780;  306,598;   -0,344;   -0,409
431,369;  539,708;    0,746;   -0,045
431,959;  398,540;   -1,254;    0,500
432,548;  323,731;   -1,163;   -0,045
433,137;  251,036;   -1,254;   -1,318
433,726;  355,103;    0,292;    0,500
434,315;  377,490;   -0,526;    2,409
434,905;  503,235;   -1,254;    1,409
435,494;  512,818;    0,746;    0,955
436,083;  346,388;   -0,981;   -0,955
436,672;  445,239;    0,110;    0,500
437,261;  387,661;    0,292;   -1,955
437,850;  677,360;    1,383;    0,682
438,439;  727,732;    3,291;    1,955
439,027;  848,753;    3,655;    1,773
439,616;  773,717;    2,927;    1,227
440,205;  504,301;    0,200;   -2,136
440,794;  434,276;    2,109;   -0,045
441,383;  344,797;   -1,346;   -0,591
441,971;  299,514;   -2,436;    0,591
442,560;  323,488;    0,563;   -1,773
443,149;  184,977;    0,379;   -1,318
443,737;  272,694;   -0,074;   -2,318
444,326;  309,224;    0,018;    0,318
444,915;  379,575;   -1,982;    0,864
445,503;  386,636;   -2,891;   -0,318
446,092;  693,203;    0,382;    2,136
446,680;  613,062;    0,382;    0,318
447,269;  510,449;   -0,346;   -0,318
447,857;  481,866;    0,018;   -1,773
448,445;  420,613;    0,563;    1,318
449,034;  349,234;   -1,528;   -1,136
449,622;  351,873;   -1,073;    3,500
450,210;  720,080;    2,017;    2,227
450,799;  616,827;    0,290;   -0,591
451,387;  539,031;    1,381;   -0,591
451,975;  520,638;    2,654;    0,864
452,563;  632,770;    3,472;    2,318
453,151;  390,394;   -0,528;   -1,227
453,739;  460,140;   -1,347;    0,136
454,328;  607,285;    2,381;   -2,136
454,916;  513,148;    2,562;   -0,136
455,504;  522,745;    1,017;    1,227
456,092;  379,347;    0,017;   -1,591
456,679;  323,990;    1,472;    0,682
457,267;  857,681;    4,017;    1,045
457,855;  446,530;    1,017;    1,409
458,443;  254,140;   -0,165;    1,682
459,031;  503,645;    0,108;    2,409
459,619;  438,973;   -1,801;    2,864
460,206;  301,362;    0,835;    2,045
460,794;  307,037;   -2,983;   -0,227
461,382;  383,028;   -0,529;   -0,864
461,970;  374,844;    1,198;    1,864
462,557;  267,658;   -0,711;   -0,682
463,145;  452,446;   -3,165;   -1,682
463,732;  754,805;    2,016;   -1,045
464,320;  450,961;   -0,075;   -3,045
464,907;  645,027;    2,743;   -0,773
465,495;  531,519;    0,743;   -1,227
466,082;  417,590;   -1,984;   -0,045
466,670;  442,328;   -2,529;    1,227
467,257;  295,628;   -1,711;    2,045
467,844;  448,290;   -0,075;    0,045
468,432;  415,301;    0,834;    3,500
469,019;  349,285;    0,925;   -1,773
469,606;  454,150;    0,470;    3,682
470,193;  497,973;   -1,439;    0,227
470,780;  446,167;   -2,075;    0,864
471,368;  337,671;   -1,257;   -0,773
471,955;  490,101;    1,379;   -0,682
472,542;  432,900;    0,652;   -1,136
473,129;  267,389;   -0,166;    0,136
473,716;  288,097;    1,470;    0,591
474,303;  334,648;    0,652;   -0,864
474,890;  343,957;   -1,439;   -0,500
475,477;  476,264;   -1,621;    0,409
476,064;  341,070;    1,106;   -1,591
476,650;  497,363;    0,288;    0,318
477,237;  394,090;   -0,258;    0,955
477,824;  355,380;   -1,076;    0,864
478,411;  228,369;   -1,894;   -0,318
478,997;  235,159;    0,560;   -0,773
479,584;  156,693;    1,196;   -0,409
480,171;  422,388;   -0,440;   -0,773
480,757;  513,826;    2,651;    0,773
481,344;  347,938;    0,469;    0,409
481,931;  217,610;    1,105;    1,045
482,517;  432,064;   -1,258;    0,318
483,104;  563,056;    1,106;    2,864
483,690;  395,973;   -1,804;    0,045
484,276;  362,306;   -0,895;    0,227
484,863;  690,271;    2,469;    1,136
485,449;  454,264;   -0,077;    0,318
486,035;  387,730;   -1,986;   -0,136
486,622;  547,219;   -0,895;    0,045
487,208;  413,347;    1,378;    1,500
487,794;  283,581;    0,741;    0,318
488,380;  276,057;    0,105;   -1,409
488,967;  301,980;   -1,168;   -0,409
489,553;  320,847;   -1,895;   -1,409
490,139;  448,942;    1,559;    0,773
490,725;  307,229;    0,741;   -0,227
491,311;  388,669;    3,287;    3,045
491,897;  322,677;   -0,986;    1,500
492,483;  316,245;    0,105;    1,227
493,069;  926,687;    3,923;    0,864
493,655;  519,012;    1,650;    0,682
494,241;  347,634;    1,377;   -0,955
494,826;  379,390;    0,287;   -1,045
495,412;  473,663;    2,559;   -0,682
495,998;  329,710;   -0,805;   -0,318
496,584;  427,858;    0,377;    1,045
497,169;  431,432;    1,014;   -0,682
497,755;  328,801;    0,650;    1,227
498,341;  558,611;    0,559;    0,318
498,926;  727,653;    1,832;    1,955
499,512;  354,322;    1,286;    2,955
500,097;  363,503;    0,195;   -0,318
500,683;  387,107;   -0,350;    2,136
501,268;  298,840;   -0,169;   -0,955
501,854;  332,690;   -0,169;    1,227
502,439;  306,129;   -0,624;   -1,773
503,024;  386,074;    0,195;    0,500
503,610;  423,431;   -0,078;   -0,682
504,195;  318,098;    0,558;    1,955
504,780;  448,215;    2,922;    1,227
505,366;  576,835;    3,013;    2,864
505,951;  469,287;    0,740;    1,045
506,536;  356,635;   -3,260;   -3,682
507,121;  441,422;    0,285;   -0,318
507,706;  357,793;    2,376;    1,045
508,291;  286,107;    2,649;    1,136
508,876;  286,257;   -0,988;    2,591
509,461;  371,836;   -0,169;   -0,773
510,046;  417,554;    0,194;    0,318
510,631;  421,053;   -0,351;   -0,773
511,216;  313,908;    2,467;   -0,500
511,801;  396,097;   -0,442;    2,591
512,386;  424,074;    0,740;    0,500
512,971;  435,786;   -2,988;    0,955
513,555;  498,188;   -0,897;   -1,500
514,140;  435,845;   -0,442;   -3,136
514,725;  571,657;   -0,715;   -1,136
515,309;  447,914;   -0,533;    0,318
515,894;  326,728;   -0,624;   -2,227
516,479;  373,028;   -0,624;   -0,955
517,063;  378,276;    0,376;    1,227
517,648;  315,924;    1,012;   -1,136
518,232;  287,511;   -0,261;   -1,409
518,817;  382,152;   -0,079;    1,682
519,401;  527,680;    2,194;    0,591
519,985;  480,204;    1,103;    1,136
520,570;  316,708;    0,830;   -1,955
521,154;  435,836;    2,102;    0,591
521,738;  628,366;   -2,352;    2,409
522,323;  439,365;   -0,170;    1,682
522,907;  431,084;    0,466;   -0,136
523,491;  328,365;    0,557;    0,955
524,075;  288,279;    2,284;    0,591
524,659;  498,870;    1,466;    0,591
525,243;  430,973;    1,739;    0,409
525,827;  369,917;    0,648;   -0,045
526,411;  370,507;   -1,989;   -0,136
526,995;  471,896;   -0,352;    1,409
527,579;  534,905;   -0,443;   -1,045
528,163;  459,040;    0,375;   -1,500
528,747;  570,572;    2,466;   -0,773
529,331;  499,832;   -0,080;   -1,409
529,915;  336,956;    1,738;    0,955
530,499;  435,046;   -0,807;    1,227
531,082;  597,991;   -0,534;    1,591
531,666;  668,566;    1,374;    0,773
532,250;  551,849;    1,284;    2,682
532,833;  651,370;    0,920;    2,773
533,417;  486,285;   -1,807;    0,864
534,001;  613,701;    1,647;   -0,318
534,584;  529,576;    0,374;    0,500
535,168;  351,298;    0,465;    1,409
535,751;  705,297;    0,647;    0,045
536,334;  446,048;   -0,898;   -0,409
536,918;  288,859;    0,011;    1,591
537,501;  303,442;   -0,899;    1,318
538,085;  354,370;   -0,444;    1,045
538,668;  431,557;    0,829;    2,409
539,251;  717,379;    1,829;    3,773
539,834;  425,005;    0,101;    0,773
540,418;  552,536;   -1,990;    4,318
541,001;  727,968;   -0,990;    1,773
541,584;  505,276;    2,101;    2,227
542,167;  605,093;    1,374;    2,955
542,750;  426,573;    1,919;   -0,773
543,333;  302,025;    0,555;    2,136
543,916;  533,602;    0,192;    2,500
544,499;  461,083;   -1,354;    0,227
545,082;  539,454;    1,374;    3,591
545,665;  445,161;    1,919;    1,500
546,248;  576,934;    1,010;   -0,318
546,830;  551,283;   -0,445;    1,955
547,413;  507,889;    1,010;   -0,773
547,996;  469,833;    0,555;    0,500
548,579;  430,241;    0,919;    0,955
549,161;  662,612;    1,828;    2,682
549,744;  546,748;   -0,809;    0,409
550,326;  403,572;   -0,809;   -1,136
550,909;  872,427;    2,737;    0,591
551,492;  515,828;   -0,263;    0,227
552,074;  641,176;   -0,173;   -1,318
552,657;  669,360;    2,373;    0,045
553,239;  537,919;   -0,173;   -0,773
553,821;  401,320;   -1,082;    1,045
554,404;  662,265;    1,282;    1,136
554,986;  774,116;    0,464;    1,045
555,568;  601,675;    1,191;   -0,955
556,151;  805,952;    1,191;   -0,227
556,733;  482,012;   -0,264;   -0,864
557,315;  499,189;    0,100;    0,500
557,897;  375,814;    0,554;   -0,500
558,479;  395,547;   -1,991;    1,318
559,061;  480,264;   -0,719;   -0,864
559,643;  529,317;   -0,264;    0,045
560,225;  576,319;    1,645;    2,864
560,807;  417,953;    0,918;    0,318
561,389;  403,696;    0,554;    2,318
561,971;  491,980;    0,463;    2,136
562,553;  409,813;   -1,628;    1,591
563,135;  502,897;   -0,537;    1,136
563,717;  890,348;    3,372;    1,136
564,298;  786,921;    3,645;   -0,045
564,880;  537,400;    0,645;   -1,409
565,462;  362,855;    0,645;    1,318
566,043;  494,494;   -0,446;    2,318
566,625;  809,582;    1,918;    1,227
567,207;  621,903;    1,099;    1,682
567,788;  478,735;   -1,264;    1,500
568,370;  480,256;    1,917;   -0,500
568,951;  476,117;    0,190;    0,227
569,533;  578,203;   -0,628;   -0,500
570,114;  589,610;   -0,446;    0,682
570,695;  634,079;   -0,174;   -1,318
571,277;  605,748;   -0,265;   -1,682
571,858;  814,085;    2,008;   -1,136
572,439;  649,595;    1,554;   -1,045
573,021;  687,284;    2,099;   -2,773
573,602;  803,703;   -1,265;    0,318
574,183;  743,919;   -2,083;    2,227
574,764;  688,001;   -1,629;    0,409
575,345;  899,122;    0,917;   -0,136
575,926;  708,236;   -0,356;    0,136
576,507;  794,155;    1,099;   -0,227
577,088;  755,609;    3,099;    1,682
577,669;  938,932;    0,735;    1,955
578,250; 1129,828;    0,644;   -1,045
578,831;  909,374;   -1,356;   -2,227
579,412;  895,664;   -0,810;    0,955
579,993;  870,580;    1,008;    0,227
580,573;  788,129;   -0,629;   -0,955
581,154;  918,845;    0,735;   -0,591
581,735;  932,201;    0,644;    0,773
582,315; 1080,474;   -0,629;    2,136
582,896;  881,819;   -0,174;    1,227
583,477;  711,611;    0,189;    1,227
584,057;  846,761;    0,553;    0,955
584,638;  980,944;    2,553;    2,318
585,218; 1229,210;   -0,538;    2,682
585,799; 1031,826;    0,281;   -0,227
586,379;  885,791;    0,372;    1,591
586,959;  862,558;    0,735;    0,318
587,540;  766,636;   -0,629;    2,227
588,120;  774,258;    1,007;   -0,045
588,700;  793,378;    2,553;    2,136
589,281;  973,855;    0,462;   -0,955
589,861;  829,963;    0,099;   -1,682
590,441;  681,951;    2,371;   -2,682
591,021;  779,395;   -0,265;   -2,591
591,601;  736,136;   -0,537;    0,500
592,181;  718,854;   -0,719;   -0,773
592,761;  610,761;    0,007;    1,409
593,341;  733,372;   -0,901;    0,045
593,921;  741,153;   -0,265;    1,591
594,501;  639,649;   -0,538;    1,318
595,081;  640,422;    0,917;   -0,318
595,661;  716,723;   -1,447;    0,955
596,240;  647,683;   -0,537;    0,136
596,820; 1075,996;    0,372;    1,955
597,400;  781,080;    2,008;    0,773
597,980;  672,935;    2,008;    1,045
598,559;  626,981;    2,735;   -0,227
599,139;  611,542;   -0,174;   -1,227
599,718;  601,997;   -0,174;   -0,409
600,298;  588,345;    0,735;    0,682
600,877; 1112,216;    2,917;    1,409
601,457;  779,529;    2,281;    1,136
602,036;  660,406;    0,190;    2,045
602,616;  716,750;    0,644;    1,682
603,195;  840,344;   -0,355;    3,500
603,774;  904,178;   -0,901;    2,045
604,354;  835,182;    0,826;   -0,500
604,933;  768,856;    0,463;    1,864
605,512;  870,371;    3,554;    0,591
606,091;  868,052;   -0,537;    3,773
606,671;  807,349;    0,281;    0,773
607,250;  993,081;    1,644;    3,136
607,829;  930,838;    2,372;    3,227
608,408;  759,591;    1,190;    2,591
608,987;  887,235;    1,281;    3,409
609,566;  699,362;   -1,265;   -2,500
610,145;  803,608;   -1,082;    0,682
610,723;  844,711;    4,372;    6,864
611,302;  744,574;   -0,446;    1,682
611,881; 1044,686;    5,008;   11,227
612,460;  752,512;    1,645;    3,955
613,039;  625,822;   -0,082;    2,045
613,617;  619,486;    1,736;    4,773
614,196;  642,876;    1,099;    1,227
614,775;  704,543;    1,009;    2,409
615,353;  767,240;    0,736;    0,864
615,932;  734,156;    0,100;    2,409
616,510;  717,541;    0,554;    0,591
617,089; 1239,982;    7,100;   17,591
617,667;  833,523;    2,372;    6,136
618,246;  593,855;   -1,537;    1,318
618,824;  666,319;   -3,355;   -0,955
619,402;  689,867;   -2,900;   -1,773
619,981;  751,014;   -0,173;   -1,045
620,559;  654,262;    0,009;    1,682
621,137;  672,459;   -0,718;    1,864
621,715;  573,743;   -1,173;   -0,682
622,293;  596,183;   -0,537;   -0,773
622,871;  613,734;   -0,718;    0,500
623,450;  551,309;    0,373;   -0,864
624,028;  761,169;    0,191;   -0,955
624,606;  716,140;   -1,718;    1,682
625,183;  523,193;   -1,536;   -1,136
625,761;  669,099;    1,009;    1,136
626,339;  978,607;    1,373;    2,591
626,917;  610,861;   -0,172;   -0,045
627,495;  556,142;   -0,354;    1,318
628,073;  682,375;   -0,263;    2,864
628,650;  699,530;    0,100;    2,136
629,228;  700,299;    0,373;    4,409
629,806;  515,445;    2,282;    1,136
630,383;  572,398;    1,464;   -0,318
630,961;  568,264;    2,555;   -0,955
631,539;  624,755;    2,464;    0,227
632,116; 1343,264;   11,373;   15,409
632,694;  948,312;    2,555;    6,500
633,271;  785,863;    0,828;    2,682
633,848;  884,447;    1,828;    2,045
634,426;  601,745;   -1,081;    1,773
635,003;  473,101;    1,101;   -0,409
635,580;  903,727;    1,192;    3,682
636,158;  761,892;    3,737;    1,227
636,735;  570,046;    0,555;   -0,500
637,312;  563,186;   -0,809;   -0,682
637,889;  568,276;   -4,354;   -0,682
638,466;  547,074;   -3,990;   -0,409
639,043;  605,542;    2,101;   -1,136
639,620;  512,720;   -2,262;   -0,955
640,197;  651,615;    1,100;    1,682
640,774;  471,440;   -0,172;    1,136
641,351;  551,901;    0,737;    1,136
641,928;  749,726;   -0,627;    1,409
642,505;  872,187;    0,828;   -0,500
643,082;  685,740;   -1,718;    1,227
643,658;  541,928;   -0,718;    1,500
644,235;  523,480;    1,191;    2,500
644,812;  725,760;    1,918;    0,773
645,388;  700,312;   -0,991;    1,409
645,965;  484,682;   -0,809;    1,682
646,542;  497,507;   -1,445;   -0,227
647,118;  890,969;    1,009;   -0,955
647,695;  672,703;   -0,263;    1,136
648,271;  482,709;   -0,536;    0,500
648,848;  657,716;    0,736;    2,227
649,424;  782,268;    0,827;    1,318
650,000;  599,457;   -0,354;   -1,045
650,577;  627,736;   -0,627;   -0,955
651,153;  635,198;   -1,809;    0,955
651,729;  576,022;    1,191;    0,864
652,305;  937,666;    0,645;    2,773
652,881;  914,945;   -0,082;    1,136
653,458; 1045,861;    1,100;    0,227
654,034; 1164,958;    0,282;    1,591
654,610; 1299,056;    0,554;    0,773
655,186; 1820,427;    0,645;    3,045
655,762; 1332,979;   -0,991;    0,409
656,338; 1304,804;    0,100;    0,136
656,913; 1405,719;   -0,082;    0,409
657,489; 1168,999;    0,827;   -0,318
658,065; 1277,097;   -0,173;   -1,591
658,641; 1315,921;   -0,900;   -0,864
659,217; 1225,746;   -0,991;    0,409
659,792; 1378,480;    0,645;   -0,409
660,368; 1183,396;   -2,173;   -0,682
660,944; 1210,403;   -2,082;    1,227
661,519; 1099,592;   -0,628;    0,409
662,095;  794,962;   -1,719;    0,591
662,670;  628,605;    1,281;   -0,136
663,246;  536,430;    1,009;   -0,409
663,821;  712,346;    0,281;    1,682
664,396;  659,080;    0,009;    1,864
664,972;  558,905;    0,009;   -0,500
665,547;  623,366;    1,372;    0,136
666,122;  591,918;   -1,082;    0,318
666,698;  798,834;   -0,173;    0,318
667,273;  559,113;   -0,173;    0,136
667,848;  603,211;    2,372;    1,500
668,423;  784,763;    2,190;    2,318
668,998;  623,225;    2,827;   -0,682
669,573;  584,504;   -3,264;   -1,500
670,148;  779,147;   -1,446;   -0,682
670,723;  548,699;   -1,810;    0,318
671,298;  855,706;    2,372;    1,045
671,873;  750,895;   -0,082;   -0,136
672,448;  727,265;    0,645;    0,136
673,023;  718,363;   -1,992;   -0,227
673,597;  823,551;    0,827;    2,318
674,172;  870,740;   -0,355;    0,318
674,747;  781,746;    0,372;   -1,045
675,321;  536,026;   -0,628;    3,318
675,896;  476,124;    0,645;    1,045
676,471;  708,858;    2,645;    1,591
677,045;  624,410;   -1,264;    0,682
677,620;  726,962;    0,190;    1,136
678,194;  552,696;   -2,628;    1,136
678,769;  626,612;   -1,083;   -0,318
679,343;  684,528;   -0,628;    1,773
679,917;  809,716;   -1,446;    1,955
680,492;  656,996;    0,826;    3,227
681,066;  694,093;    3,372;    0,409
681,640;  617,645;    1,463;   -0,318
682,214;  637,652;    0,735;    0,500
682,788;  637,113;   -1,356;   -0,773
683,363;  795,484;   -1,810;    1,682
683,937;  662,218;   -1,719;   -0,318
684,511;  683,497;    0,463;   -0,591
685,085;  695,868;   -1,356;    0,318
685,659;  602,056;   -2,538;    0,864
686,232;  856,063;   -0,356;   -0,318
686,806;  732,524;   -0,901;    0,409
687,380;  617,076;   -0,174;    0,591
687,954;  549,174;   -1,174;    1,136
688,528;  881,363;   -0,719;    1,955
689,101;  699,642;   -3,992;    1,045
689,675;  592,467;   -0,356;   -0,136
690,249;  847,474;   -0,719;    0,409
690,822;  839,117;    0,280;    0,318
691,396;  723,760;   -0,265;    1,227
691,969;  640,039;    1,280;    0,136
692,543;  537,319;   -0,447;   -1,955
693,116;  519,871;   -0,265;   -1,409
693,690;  614,878;    0,099;    0,500
694,263;  550,612;   -1,083;    2,955
694,836;  921,528;    1,371;    3,591
695,410;  802,716;   -0,265;    1,773
695,983;  826,541;    0,189;    0,591
696,556;  613,002;   -0,447;   -1,045
697,129;  522,918;   -0,356;    1,409
697,703;  750,834;   -1,629;    1,955
698,276;  643,750;    1,462;   -0,773
698,849;  803,120;    1,280;    1,409
699,422;  572,854;   -1,083;    0,591
699,995;  466,316;    0,007;    0,136
700,568;  605,595;   -0,629;    3,045
701,140;  630,965;   -2,811;    1,682
701,713;  794,790;   -0,174;    2,409
702,286;  683,706;   -0,538;    0,864
702,859;  772,804;   -0,902;   -0,591
703,432;  863,447;    0,825;    0,682
704,004;  734,272;    0,462;    0,318
704,577;  603,369;   -0,629;    0,136
705,150;  653,467;    0,189;    2,500
705,722;  711,928;   -0,356;   -3,227
706,295;  787,299;   -0,175;   -0,591
706,867;  662,306;   -0,175;    1,955
707,440;  745,130;   -1,720;   -0,409
708,012;  833,137;    0,462;    0,591
708,584;  738,962;    2,462;    0,227
709,157;  509,696;    1,825;   -0,591
709,729;  751,885;    2,280;    2,045
710,301;  598,255;    0,734;    0,045
710,874;  617,898;   -1,447;   -0,227
711,446;  503,723;    0,371;    0,864
712,018;  578,912;    0,098;    0,500
712,590;  526,464;   -1,993;    1,682
713,162;  818,561;    0,825;    1,318
713,734;  592,659;    1,825;   -2,045
714,306;  503,848;   -1,902;   -0,409
714,878;  566,763;    0,825;    0,864
715,450;  520,225;    0,643;    0,864
716,022;  538,141;    1,552;    1,318
716,593;  520,693;    0,189;    0,591
717,165;  580,336;   -3,175;   -1,227
717,737;  847,706;    0,280;    0,409
718,309;  611,349;    0,280;   -0,045
718,880;  532,174;   -0,539;   -1,409
719,452;  604,999;   -0,175;   -1,591
720,024;  709,642;    0,734;   -0,591
720,595;  597,013;   -2,902;    0,955
721,167;  586,747;    0,370;   -2,045
721,738;  706,481;   -0,812;   -1,045
722,309;  858,669;   -0,993;   -1,227
722,881;  583,040;   -1,357;    0,773
723,452;  668,592;   -2,630;    2,864
724,023;  687,235;   -0,721;    2,682
724,595;  746,696;    0,007;    0,682
725,166;  606,430;    0,007;   -0,409
725,737;  818,073;    1,734;    0,227
726,308;  600,171;   -0,266;    0,318
726,879;  505,996;   -1,630;    1,227
727,450;  695,093;    0,552;   -0,045
728,021;  616,282;    3,097;    0,682
728,592;  789,471;    0,734;    0,500
729,163;  874,841;    0,643;   -0,136
729,734;  857,939;    0,188;   -0,227
730,305;  710,854;    1,734;    0,136
730,876;  667,679;    0,188;    2,955
731,447; 1006,322;    2,188;    2,682
732,017;  895,056;    1,097;    1,864
732,588;  683,700;    0,734;    1,227
733,159;  946,979;    0,643;   -1,045
733,729;  681,168;    0,006;    0,409
734,300;  846,629;    0,915;    0,864
734,870;  654,817;    3,461;    0,591
735,441;  631,006;    0,370;   -0,591
736,011;  616,831;    0,643;   -1,591
736,582;  621,019;   -0,812;    0,045
737,152;  770,481;   -1,721;   -2,045
737,722;  740,669;   -0,267;   -0,682
738,293;  574,221;   -1,358;    1,318
738,863;  763,774;    2,461;    2,318
739,433; 1034,417;    5,279;    0,318
740,003;  741,605;   -0,994;   -0,682
740,573;  873,339;    2,097;   -1,591
741,143;  737,164;   -1,085;    0,318
741,713;  634,080;    1,188;   -0,500
742,283;  710,450;    0,915;    1,591
742,853;  652,003;    1,915;    1,591
743,423;  464,373;    1,733;    0,045
743,993;  587,925;   -0,358;    1,500
744,563;  646,386;    0,097;   -0,864
745,133;  669,120;   -0,812;   -0,864
745,702;  538,673;   -0,267;    1,773
746,272;  772,770;   -0,176;    0,591
746,842;  787,595;   -1,358;   -0,591
747,411;  572,147;   -0,267;   -0,318
747,981;  465,336;    0,097;    0,500
748,551;  460,706;    2,278;   -1,045
749,120;  667,713;    0,642;   -0,227
749,690;  606,356;   -0,631;    2,409
750,259;  720,817;    1,369;    2,955
750,828;  786,642;    1,551;   -1,955
751,398;  544,922;    1,278;   -0,045
751,967; 1028,838;    2,187;    0,409
752,536;  665,572;   -0,813;   -0,227
753,105;  787,851;    0,096;    0,227
753,675;  626,222;    0,096;    1,773
754,244;  630,683;   -0,904;    3,591
754,813;  665,235;    0,551;    1,227
755,382;  625,151;    0,460;    0,955
755,951;  764,430;    1,551;    3,682
756,520;  874,801;   -0,085;    1,864
757,089;  984,898;    0,278;    0,500
757,658;  711,451;    1,733;    1,227
758,227;  536,185;    1,096;    0,318
758,795;  589,009;    1,187;    1,136
759,364;  601,925;   -0,086;   -0,591
759,933;  546,932;   -1,176;   -0,045
760,501;  485,211;    0,733;   -1,318
761,070;  651,036;   -2,813;   -1,409
761,639;  601,952;   -1,904;    1,318
762,207;  735,323;    1,551;   -0,955
762,776;  783,420;    0,369;    0,864
763,344;  627,518;   -0,995;    0,591
763,913;  432,979;   -0,722;    1,409
764,481;  973,804;    1,005;   -0,136
765,049;  972,629;   -1,358;    1,409
765,618;  885,636;   -0,086;    0,318
766,186;  686,915;    0,278;    0,136
766,754;  735,922;    0,005;    1,864
767,322;  614,201;   -1,995;    0,409
767,890;  561,844;   -0,722;   -1,773
768,459;  565,488;   -2,177;   -0,318
769,027;  792,131;    1,641;    3,409
769,595;  613,319;    3,278;    2,591
770,163;  713,962;    3,823;    2,955
770,730;  685,969;    0,732;   -0,136
771,298;  664,612;    0,187;   -1,409
771,866;  589,801;   -1,541;    4,955
772,434;  619,080;   -0,631;   -1,864
773,002;  828,178;    0,005;    0,682
773,569;  703,275;    0,914;    1,682
774,137;  819,737;   -0,268;   -0,045
774,705;  605,380;    0,278;   -0,136
775,272;  576,478;    0,641;    0,682
775,840;  595,757;   -0,177;    2,682
776,407;  717,673;    0,277;    1,955
776,975;  593,225;   -0,632;    0,318
777,542;  525,232;   -1,086;   -0,045
778,110;  561,693;   -1,268;   -0,045
778,677;  444,518;   -2,359;   -0,864
779,244;  529,888;    2,186;    1,045
779,812;  683,713;    1,823;    0,864
780,379;  774,720;    0,005;    1,136
780,946;  635,636;    1,005;   -0,773
781,513;  540,461;   -1,450;    0,318
782,080;  514,831;   -0,086;    2,864
782,647;  538,111;   -0,268;    3,045
783,214;  519,481;   -0,177;    3,864
783,781;  734,306;   -0,723;   -0,682
784,348;  673,858;   -0,632;    1,500
784,915;  455,683;   -3,177;    0,318
785,482;  690,053;    1,368;    2,591
786,049;  613,424;    0,186;   -0,591
786,615;  497,249;    0,277;   -0,955
787,182;  446,437;    0,186;   -0,682
787,749;  422,898;   -2,814;    1,409
788,315;  670,451;   -1,632;   -0,409
788,882;  538,548;    1,550;   -1,227
789,448;  836,646;    1,732;   -0,955
790,015;  600,198;    1,095;    3,227
790,581;  790,478;    1,459;    0,227
791,148;  603,030;    0,641;    1,045
791,714;  481,582;   -0,541;    3,136
792,280;  491,316;    0,186;    1,591
792,847;  431,505;    0,550;    2,500
793,413;  524,511;   -0,269;   -0,318
793,979;  746,336;    3,459;   -1,318
794,545; 1036,070;    4,459;    2,682
795,111;  907,895;    2,186;    1,318
795,678;  756,356;    0,731;   -1,682
796,244;  914,999;    3,368;    0,136
796,810;  757,461;    1,731;    0,773
797,375;  756,831;    0,549;   -2,136
797,941;  437,292;   -0,541;    0,591
798,507;  449,390;   -0,451;   -0,955
799,073;  489,306;   -0,360;    0,591
799,639;  475,676;   -2,632;    3,136
800,205;  436,228;    0,095;    2,682
800,770;  473,053;    0,640;    1,773
801,336;  490,878;    1,368;   -0,955
801,901; 1088,249;    4,549;    3,136
802,467;  734,437;   -0,542;    2,045
803,033;  520,989;   -0,087;    0,864
803,598;  513,905;    1,913;   -1,045
804,163;  509,457;    1,095;   -0,318
804,729;  617,191;   -0,178;    1,136
805,294;  515,562;    0,822;    2,227
805,859;  458,841;    0,731;   -0,409
806,425;  855,121;    1,186;    2,682
806,990;  829,582;    2,186;    4,318
807,555;  571,134;   -1,451;    2,591
808,120;  720,323;    0,822;   -0,409
808,685;  518,420;    0,185;   -2,500
809,250;  427,336;    0,004;   -0,500
809,815;  413,434;    1,913;    0,682
810,380;  542,532;   -0,269;    1,591
810,945;  727,993;   -1,087;    2,045
811,510;  549,818;    2,094;    1,591
812,075;  613,279;   -0,633;   -1,409
812,640;  857,922;    2,003;    1,409
813,204;  609,020;    0,822;   -0,227
813,769;  747,027;    2,094;   -0,045
814,334;  743,306;    0,458;    0,864
814,898;  464,404;    0,367;    0,591
815,463;  571,410;    1,276;   -0,773
816,027;  516,417;   -0,724;   -2,318
816,592;  430,242;    0,640;   -2,045
817,156;  612,976;    2,094;    1,136
817,721;  736,528;    4,276;    2,318
818,285;  466,808;    2,912;    1,500
818,849;  528,451;   -1,451;    1,682
819,414;  452,003;   -0,269;    2,955
819,978;  406,646;   -1,269;    1,773
820,542;  685,471;    2,003;    0,500
821,106;  514,114;   -0,815;    0,682
821,670;  743,030;   -0,815;    2,591
822,234;  517,764;   -0,270;    1,409
822,798;  411,316;    0,003;    0,500
823,362;  650,414;   -0,633;    4,227
823,926;  502,057;    0,094;    1,136
824,490;  687,427;   -0,997;   -0,682
825,054;  555,343;   -0,088;   -1,136
825,618;  452,441;   -1,542;   -1,500
826,181;  515,357;    0,458;   -1,318
826,745;  626,636;    1,367;   -1,045
827,309;  833,006;    1,185;    1,318
827,872;  703,104;    1,367;    0,955
828,436;  582,293;    1,185;   -0,773
828,999;  474,845;   -0,997;    1,227
829,563;  458,488;   -0,179;    1,136
830,126;  437,131;   -0,179;   -0,591
830,690;  541,320;   -1,997;    2,864
831,253;  463,144;   -0,543;    2,227
831,816;  515,515;   -1,906;    0,500
832,380;  473,794;    0,185;    0,864
832,943;  441,983;   -1,361;   -0,500
833,506;  453,535;    2,639;   -1,227
834,069;  607,451;    3,912;   -0,955
834,632;  445,821;    1,730;    1,318
835,195;  492,464;    1,003;    0,955
835,758;  433,926;   -0,997;    1,955
836,321;  455,387;    0,730;   -1,045
836,884;  425,848;   -0,725;   -0,955
837,447;  369,128;   -2,816;    1,773
838,010;  550,862;    0,366;    3,227
838,573;  548,959;   -1,179;    0,773
839,135;  396,784;   -1,361;   -0,955
839,698;  488,336;    1,275;    0,409
840,261;  429,889;    1,003;   -0,227
840,823;  379,895;   -0,543;    0,864
841,386;  367,084;   -0,452;   -2,409
841,948;  678,091;   -1,361;    1,773
842,511;  456,552;    0,912;    1,682
843,073;  659,831;    1,912;    0,227
843,636;  412,929;   -0,361;   -0,227
844,198;  636,208;    0,911;    0,591
844,760;  588,852;    1,093;    1,955
845,322;  395,767;    0,548;    1,136
845,885;  533,138;    0,730;    0,591
846,447;  463,235;   -1,998;    0,227
847,009;  796,242;    1,911;   -0,682
847,571;  510,885;    0,820;   -2,045
848,133;  451,437;   -1,089;   -1,864
848,695;  323,262;   -0,543;    1,409
849,257;  403,996;   -1,089;   -1,682
849,819;  557,276;   -0,998;   -0,409
850,381;  423,737;   -0,725;   -0,864
850,942;  493,198;    1,093;   -0,591
851,504;  566,841;    1,184;    0,227
852,066;  420,212;    1,275;   -1,591
852,628;  453,764;   -0,180;    1,955
853,189;  362,498;    1,638;    2,682
853,751;  364,505;   -0,907;    1,409
854,312;  526,057;   -0,453;   -1,682
854,874;  657,246;   -2,089;   -0,773
855,435;  462,252;   -0,907;   -1,682
855,997;  500,077;   -1,816;   -0,136
856,558;  624,629;    0,366;    1,773
857,119;  531,363;    0,820;    2,864
857,681;  374,279;    0,002;    0,318
858,242;  653,195;    1,911;   -2,136
858,803;  600,929;    0,456;   -0,773
859,364;  469,572;    0,184;   -4,773
859,925;  557,306;   -2,453;   -0,955
860,486;  432,495;   -0,453;   -0,955
861,047;  373,229;   -0,544;   -1,227
861,608;  424,145;   -1,089;   -0,773
862,169;  276,242;    0,638;   -0,045
862,730;  420,340;    0,456;    1,409
863,291;  462,347;   -0,635;   -0,500
863,852;  434,535;   -0,635;    1,955
864,412;  436,815;   -0,271;   -0,864
864,973;  671,276;   -0,089;    0,500
865,534;  782,737;   -1,726;    0,227
866,094;  562,108;    1,820;    0,227
866,655;  701,751;    1,274;    3,318
867,215;  509,121;    0,274;    0,136
867,776;  358,946;    0,547;   -0,136
868,336;  453,044;   -1,453;    0,136
868,897;  829,596;    2,638;    1,682
869,457;  615,693;    1,365;    0,318
870,017;  401,973;    0,547;   -1,227
870,578;  388,525;   -0,817;    0,773
871,138;  490,259;   -2,089;   -0,955
871,698;  404,539;   -0,817;   -1,318
872,258;  523,000;   -0,453;   -2,864
872,818;  665,007;    2,729;    0,045
873,378;  484,013;    0,638;    1,045
873,938;  469,384;    0,547;    0,500
874,498;  372,390;    0,274;   -1,955
875,058;  482,488;    2,183;    1,773
875,618;  480,040;    1,910;   -2,682
876,177;  515,047;    1,274;    0,136
876,737;  348,963;   -0,090;    1,955
877,297;  711,515;    0,183;    1,955
877,856;  642,340;   -0,362;    0,318
878,416;  411,256;    1,183;   -0,136
878,976;  366,081;   -1,817;    0,409
879,535;  406,633;    0,092;    3,136
880,095;  394,276;   -0,544;    0,045
880,654;  343,646;   -1,090;    1,318
881,213;  643,835;    2,456;    1,500
881,773;  480,842;    2,637;    2,682
882,332;  958,757;    3,365;    5,136
882,891;  462,037;    3,092;    2,136
883,451;  455,316;   -1,272;    1,682
884,010;  422,778;   -2,908;   -0,409
884,569;  356,875;   -0,999;   -0,045
885,128;  532,700;    2,819;   -1,864
885,687;  768,889;    4,455;    0,682
886,246;  939,986;    1,455;    2,136
886,805;  747,720;    2,455;    2,045
887,364;  404,818;   -0,999;   -0,500
887,922;  332,098;   -1,181;    0,045
888,481;  534,195;   -1,545;    0,591
889,040;  598,111;    1,183;    2,136
889,599;  478,118;    2,455;    1,409
890,157;  476,579;    1,455;    2,409
890,716;  417,586;   -0,090;    0,227
891,274;  533,138;    0,092;   -1,136
891,833;  594,145;    1,546;    0,864
892,391;  491,061;   -0,454;    0,500
892,950;  571,613;    1,819;   -0,773
893,508;  386,074;    0,455;   -0,409
894,067;  314,263;    0,637;    0,136
894,625;  412,542;   -0,636;   -1,500
895,183;  374,094;   -0,363;   -0,682
895,741;  644,737;    1,728;   -1,773
896,299;  441,199;   -0,545;   -2,409
896,858;  389,751;    0,819;   -1,591
897,416;  518,485;    2,728;   -1,318
897,974;  443,492;    1,819;    0,318
898,532;  862,589;    6,091;    2,682
899,089;  589,141;    2,091;   -0,682
899,647;  491,694;   -1,454;    1,318
900,205;  491,700;    1,182;    1,045
900,763;  472,434;   -0,454;    0,227
901,321;  424,168;    2,364;   -1,409
901,878;  265,630;   -1,000;   -0,773
902,436;  354,364;   -1,363;    1,318
902,994; 1016,825;    4,728;    3,682
903,551;  595,286;    0,728;    0,409
904,109;  464,384;    0,182;   -1,409
904,666;  431,118;    2,455;    1,045
905,224;  322,943;    0,182;   -0,409
905,781;  486,040;    0,727;   -0,318
906,338;  424,320;   -1,363;    1,045
906,895;  319,690;    0,637;    2,045
907,453;  581,970;    1,727;    1,136
908,010;  438,522;   -0,909;    0,409
908,567;  436,710;    1,273;    0,591
909,124;  291,808;    0,364;   -1,500
909,681;  349,815;   -2,909;    0,682
910,238;  373,549;    0,636;   -1,318
910,795;  283,283;   -0,273;   -1,136
911,352;  309,646;   -2,909;   -2,682
911,909;  351,101;   -1,364;   -0,864
912,466;  347,010;   -3,182;    1,500
913,022;  451,283;   -1,636;    0,500
913,579;  522,828;   -0,909;    2,045
914,136;  408,010;    1,636;    0,955
914,692;  403,828;    0,091;   -1,227
915,249;  439,828;    1,455;    0,409
915,806;  494,465;    0,182;    1,955
916,362;  401,010;    1,909;    1,864
916,918;  384,465;    2,000;    1,045
917,475;  507,101;   -1,182;    0,955
918,031;  353,919;    3,364;   -0,045
918,587;  426,101;   -0,909;   -0,318
919,144;  331,919;   -2,273;    0,227
919,700;  267,010;    1,727;    0,773
920,256;  280,556;    0,727;    0,045
920,812;  339,919;   -0,727;   -1,045
921,368;  304,283;   -1,727;   -1,045
921,924;  327,192;    0,182;   -0,136
922,480;  410,828;   -0,545;    1,227
923,036;  419,010;    1,273;    1,955
923,592;  320,101;    0,455;    0,318
924,148;  333,283;    0,455;   -0,955
924,704;  464,556;   -1,364;   -0,409
925,259;  297,192;   -0,273;    0,591
925,815;  299,192;    1,455;    0,500
926,371;  285,828;    2,909;    1,409
926,926;  430,919;    2,091;    0,591
927,482;  404,010;   -1,364;    0,773
928,037;  333,374;    0,909;    2,045
928,593;  496,737;    1,636;    1,045
929,148;  298,283;   -1,818;   -1,500
929,704;  364,374;   -1,455;   -0,500
930,259;  305,828;    0,091;   -0,136
930,814;  467,101;   -0,818;    1,955
931,369;  406,556;    1,091;   -0,773
931,925;  257,919;   -0,091;    0,136
932,480;  347,010;   -2,818;   -2,591
933,035;  634,828;    0,545;   -0,318
933,590;  549,283;    0,364;   -1,773
934,145;  258,556;   -1,364;   -0,318
934,700;  180,374;    0,455;   -0,591
935,255;  233,101;   -0,091;    0,045
935,809;  513,646;    3,182;    0,864
936,364;  246,101;   -0,455;   -0,136
936,919;  234,101;    0,455;   -1,773
937,474;  182,010;    1,455;    0,136
938,028;  193,374;   -1,636;    1,136
938,583;  516,283;    1,818;    4,682
939,138;  262,465;    2,091;    2,136
939,692;  161,737;    1,636;   -1,136
940,247;  202,919;   -0,727;   -1,045
940,801;  237,192;   -0,636;    0,227
941,355;  169,828;   -0,364;    2,591
941,910;  121,465;   -0,273;   -2,136
942,464;  145,101;   -0,818;   -0,318
943,018;  312,556;    1,000;   -0,227
943,572;  200,556;    2,545;   -0,682
944,126;  258,737;    0,091;   -0,409
944,681;  176,465;    3,091;    0,227
945,235;  132,465;    1,000;   -0,591
945,789;  113,374;    0,364;   -1,864
946,342;  296,737;    0,455;   -0,591
946,896;  150,737;   -2,273;    0,955
947,450;  126,010;    1,545;   -0,227
948,004;  291,010;    1,727;   -0,045
948,558;  171,919;    0,273;   -0,864
949,111;  170,919;   -0,273;   -0,318
949,665;  289,374;    1,636;   -0,682
950,219;  262,919;   -0,091;   -1,045
950,772;  205,192;   -1,909;    1,864
951,326;  197,101;    0,545;   -0,955
951,879;  163,010;    0,727;   -2,318
952,433;  253,737;    0,000;    2,227
952,986;  146,465;    2,909;    0,682
953,539;  128,374;   -0,273;    0,591
954,093;   96,737;    0,545;   -1,318
954,646;  168,374;    0,909;    1,318
955,199;  120,646;    0,000;   -0,500
955,752;  286,192;   -0,455;    1,773
956,305;  177,919;   -0,091;    2,955
956,858;  202,465;    0,818;   -0,318
957,411;  235,646;   -0,545;    2,136
957,964;  189,374;    1,364;    2,136
958,517;  136,101;   -1,545;    3,136
959,070;  107,646;   -0,455;    1,955
959,623;  281,010;    1,091;    1,500
960,176;  250,646;    1,727;    2,045
960,728;  218,465;   -2,727;    0,773
961,281;  169,556;    0,545;    0,500
961,834;  128,556;   -0,909;    0,864
962,386;  138,556;    1,727;    1,045
962,939;  125,101;    0,364;   -0,318
963,491;  157,374;    0,455;    1,136
964,043;  113,374;    1,182;    2,409
964,596;  225,192;   -1,000;    2,227
965,148;  157,283;   -1,000;    1,773
965,700;  109,465;    1,091;   -0,227
966,253;  219,192;   -0,636;    0,318
966,805;  184,374;   -2,273;    0,773
967,357;  140,465;    1,091;   -1,500
967,909;  210,919;    0,455;   -1,227
968,461;  148,646;    0,545;    3,136
969,013;  118,737;   -0,182;   -0,864
969,565;  217,010;   -0,455;   -1,136
970,117;  361,919;   -0,364;    1,045
970,669;  220,283;    0,182;   -0,136
971,220;   94,646;   -0,455;   -1,500
971,772;  147,828;   -0,636;   -0,318
972,324;  201,010;    0,091;   -0,500
972,876;  137,374;    0,818;   -0,045
973,427;  210,192;    1,909;   -1,045
973,979;  260,101;   -0,727;   -2,500
974,530;  140,828;    1,818;    1,318
975,082;  181,737;   -0,545;    1,682
975,633;  143,556;    1,091;    1,682
976,184;  160,192;    0,909;    0,773
976,736;  160,101;    0,091;    0,227
977,287;  186,556;   -0,909;   -0,500
977,838;  155,646;    0,909;   -0,318
978,389;  154,010;   -1,000;   -0,500
978,940;   81,919;    0,545;   -0,409
979,491;   83,828;    0,091;   -0,500
980,042;  141,646;    0,182;    3,045
980,593;  154,192;   -2,545;    0,227
981,144;  199,737;    2,545;   -0,500
981,695;  209,283;    1,455;    1,500
982,246;  183,374;   -0,273;    1,045
982,797;  107,646;   -1,727;    0,682
983,347;  188,010;    0,364;    0,591
983,898;  322,737;    3,091;    0,409
984,449;  306,556;    2,182;    0,773
984,999;  203,828;    1,455;   -1,136
985,550;  172,374;    0,182;   -0,318
986,100;  100,010;   -0,455;   -0,318
986,651;   98,737;   -0,818;    0,045
987,201;  108,192;   -1,000;   -0,591
987,751;  116,646;    0,818;    2,864
988,302;  137,010;    2,636;    1,500
988,852;  177,192;    0,455;   -1,136
989,402;  205,374;    0,091;    0,682
989,952;  227,010;   -2,182;    0,864
990,502;  125,192;   -0,091;    0,682
991,052;   70,283;   -0,727;    0,045
991,602;  104,192;   -2,909;    1,318
992,152;  130,828;    0,455;    0,682
992,702;  154,737;    1,364;   -0,045
993,252;  116,919;   -3,000;   -0,500
993,802;  177,919;   -0,273;    1,318
994,352;  146,828;   -1,545;    1,136
994,901;   94,828;   -0,182;    3,227
995,451;   84,010;   -0,182;    0,318
996,000;  106,283;    1,636;    0,318
996,550;  114,919;    2,273;    0,227
997,100;  135,919;    1,273;   -0,045
997,649;  212,283;    2,182;    0,955
998,198;  117,101;    1,727;   -1,500
998,748;  172,283;    1,091;   -2,318
999,297;  144,101;   -0,818;   -0,409
999,846;  211,283;    1,000;   -0,773
1000,395;  151,828;   -0,818;    0,500
1000,945;  225,101;    1,818;   -0,773
1001,494;  221,646;    2,364;    0,682
1002,043;  222,192;    4,636;    0,864
1002,592;  122,283;   -1,091;    1,955
1003,141;  107,919;   -0,455;   -0,682
1003,690;  215,646;    1,727;    0,500
1004,238;  135,646;    1,455;   -0,045
1004,787;   92,646;    1,364;    1,227
1005,336;  189,010;    0,364;    0,682
1005,885;  158,010;    1,364;   -2,773
1006,433;  149,919;    0,545;    0,955
1006,982;  247,192;    0,455;    1,682
1007,531;  167,646;   -1,818;   -0,227
1008,079;  150,374;   -2,273;    0,500
1008,627;  113,556;   -1,455;    0,409
1009,176;  133,556;    0,000;   -1,955
1009,724;  101,374;    1,091;    0,864
1010,273;  185,646;    1,273;    0,500
1010,821;  117,828;    0,091;    1,409
1011,369;   92,919;   -1,364;    1,318
1011,917;   99,737;   -1,364;   -0,591
1012,465;  144,192;    1,273;   -1,591
1013,013;  135,101;    2,091;   -1,682
1013,561;  202,919;    0,455;   -0,773
1014,109;  261,192;   -1,909;    1,682
1014,657;  183,465;    0,364;    0,591
1015,205;  123,828;    1,636;   -0,955
1015,753;  100,737;   -0,545;   -1,409
1016,301;  137,283;   -2,636;    3,045
1016,848;  181,556;   -1,273;    0,409
1017,396;  169,283;    2,545;    0,045
1017,944;  161,465;    1,182;    1,864
1018,491;  126,828;    0,273;    1,409
1019,039;  306,192;    0,455;    0,591
1019,586;  162,737;   -1,364;    1,682
1020,134;  151,465;    0,455;    1,500
1020,681;  204,010;    0,182;   -1,136
1021,228;  152,101;    2,909;   -2,227
1021,776;  131,465;    1,182;   -1,136
1022,323;  267,919;    0,455;    0,773
1022,870;  201,465;   -1,000;   -0,045
1023,417;  233,737;    2,636;    1,864
1023,964;  140,919;    2,636;    1,227
1024,511;  120,465;    1,000;    0,773
1025,058;  154,737;    3,182;   -0,045
1025,605;  121,192;   -2,273;    3,136
1026,152;  247,646;    1,727;   -0,591
1026,699;  155,556;    1,818;    1,318
1027,245;  148,283;   -0,091;    0,318
1027,792;  105,828;   -1,000;    1,409
1028,339;  252,374;    2,364;   -0,045
1028,885;  158,192;    1,000;   -0,227
1029,432;  132,010;   -0,091;    0,227
1029,978;  190,556;   -1,000;   -1,591
1030,525;  197,283;    1,000;    0,409
1031,071;  117,737;   -1,364;    1,136
1031,618;  288,010;    0,364;    1,682
1032,164;  189,556;   -0,091;    3,045
1032,710;  210,283;    1,636;   -1,500
1033,256;  187,646;   -0,636;   -0,136
1033,803;  101,192;   -0,545;    1,500
1034,349;   38,010;   -1,364;    0,136
1034,895;   63,010;    0,000;   -0,318
1035,441;  106,646;   -0,818;    0,318
1035,987;  129,646;   -2,364;   -0,682
1036,533;  167,919;   -1,455;   -0,955
1037,078;  297,828;    1,455;    1,682
1037,624;  212,556;    2,455;   -0,955
1038,170;  122,919;    0,455;   -0,318
1038,716;  173,374;    1,636;   -0,409
1039,261;  106,828;   -2,273;   -0,773
1039,807;  115,646;   -0,091;    3,409
1040,352;  121,101;   -1,909;   -0,318
1040,898;  119,556;   -1,545;   -0,682
1041,443;   87,465;   -1,455;   -2,591
1041,989;  277,283;    1,091;    1,591
1042,534;  153,465;   -0,364;    2,591
1043,079;   85,465;    2,909;    0,955
1043,625;  142,828;    1,818;    0,500
1044,170;  146,646;   -1,364;    1,045
1044,715;  267,737;    2,455;    0,955
1045,260;  206,919;    2,182;   -0,955
1045,805;  112,465;    1,182;   -0,591
1046,350;   99,919;    1,364;   -0,409
1046,895;  206,919;    2,909;    1,591
1047,440;  190,465;    5,364;    0,409
1047,985;  122,283;    2,818;   -0,955
1048,530;  106,919;    1,545;    1,227
1049,074;  134,646;    0,000;    0,318
1049,619;  102,737;   -1,364;    1,955
1050,164;  104,919;    0,455;    0,227
1050,708;  164,283;   -0,455;    0,045
1051,253;  299,101;    1,273;   -2,227
1051,797;  173,919;    0,818;   -1,318
1052,342;   81,646;   -1,182;    1,045
1052,886;  134,010;    0,364;   -1,409
1053,430;   78,010;   -1,364;    0,136
1053,975;  134,828;   -0,818;   -0,318
1054,519;  125,919;   -0,727;    3,227
1055,063;  166,828;    0,909;    1,318
1055,607;  162,283;   -0,182;    0,227
1056,151;  161,192;    2,909;    1,682
1056,695;  115,283;    2,273;   -1,136
1057,239;  105,192;   -1,727;   -0,682
1057,783;  130,465;    0,818;   -1,500
1058,327;  175,919;    0,000;    1,409
1058,871;  260,101;   -0,545;    1,318
1059,415;  191,283;   -0,818;   -0,045
1059,958;  273,828;    1,455;    2,591
1060,502;  119,828;   -1,000;   -0,773
1061,046;   75,374;    0,364;   -0,955
1061,589;   74,283;   -3,000;   -1,136
1062,133;   60,737;   -1,273;    1,864
1062,676;   90,646;    1,182;    0,864
1063,220;  102,192;    1,091;    0,500
1063,763;  122,010;    0,909;    1,136
1064,306;  131,010;   -0,909;    1,864
1064,849;  131,101;   -0,909;    0,591
1065,393;  118,192;    2,000;   -1,500
1065,936;  113,192;    0,182;   -0,409
1066,479;   77,919;   -1,455;    1,318
1067,022;   92,465;   -0,273;   -0,227
1067,565;   82,010;   -0,091;   -1,318
1068,108;   69,283;    0,727;   -0,591
1068,651;   57,828;   -0,636;    1,409
1069,194;   58,828;   -0,455;   -1,682
1069,736;   67,010;   -1,273;    0,955
1070,279;   57,646;   -1,364;   -0,500
1070,822;  102,010;   -2,000;   -0,318
1071,364;  179,101;   -0,364;    1,318
1071,907;  106,192;   -0,727;    3,227
1072,450;   34,646;    0,000;   -0,045
1072,992;   68,374;   -0,273;    3,136
1073,535;  100,010;    2,091;    2,136
1074,077;   61,556;   -0,727;    2,045
1074,619;   54,283;   -1,364;    0,591
1075,161;   82,192;   -1,091;    1,500
1075,704;  147,556;    1,545;    1,227
1076,246;   80,556;   -0,182;    0,682
1076,788;   44,374;   -0,364;    1,773
1077,330;   43,101;    1,273;    2,136
1077,872;   64,919;    0,909;    0,955
1078,414;  159,646;    2,727;    0,773
1078,956;   80,374;    1,273;   -0,227
1079,498;  144,283;    1,636;    0,318
1080,040;   79,465;    1,909;   -1,318
1080,581;   61,919;    1,636;   -0,318
1081,123;   34,465;    0,091;   -0,773
1081,665;   36,919;   -1,182;   -0,955
1082,206;  137,919;    1,364;   -0,500
1082,748;   86,101;    0,727;    2,045
1083,289;   45,556;   -2,000;    1,318
1083,831;   39,556;   -0,545;    0,227
1084,372;   70,465;    0,000;    0,591
1084,913;   61,646;    1,091;    0,864
1085,455;   41,919;   -1,909;   -2,045
1085,996;   35,283;   -2,273;    0,136
1086,537;   43,919;   -0,091;    0,864
1087,078;   53,101;   -0,909;   -2,136
1087,619;   83,465;   -1,273;    0,227
1088,160;   65,646;    0,000;    1,318
1088,701;   59,828;   -1,091;    0,682
1089,242;   52,101;    1,364;   -2,227
1089,783;   72,010;   -0,273;    1,409
1090,324;   57,556;    0,455;    0,682
1090,865;   37,101;    2,727;   -0,409
1091,405;   32,283;    0,727;    2,227
1091,946;   51,192;    0,182;   -0,955
1092,487;   25,737;    0,818;   -1,409
1093,027;   84,283;   -1,364;   -1,500
1093,568;   48,646;   -0,364;    1,227
1094,108;   60,465;    0,273;    1,773
1094,649;   50,010;   -1,182;    0,136
1095,189;   35,737;   -0,636;   -0,682
1095,729;   30,465;   -0,091;    0,955
1096,269;   30,465;    0,727;   -0,955
1096,810;  100,192;   -1,364;    0,500
1097,350;   67,556;    1,364;   -0,773
1097,890;   50,101;    0,364;    1,227
1098,430;  142,010;    2,364;    2,864
1098,970;  104,828;    2,182;    1,682
1099,510;   43,010;    0,545;   -2,318
1100,050;   36,646;    1,000;   -1,591
1100,589;   43,556;   -0,727;   -0,318
1101,129;   67,101;    0,818;   -0,955
1101,669;  107,283;    1,727;    2,136
1102,209;   70,919;   -0,091;    2,227
1102,748;   49,101;    0,000;    0,955
1103,288;   52,010;    1,273;   -1,227
1103,827;   49,374;    3,091;   -2,227
1104,367;   35,283;   -0,091;   -2,409
1104,906;   37,556;    1,364;   -1,136
1105,445;   55,101;    0,636;   -1,136
1105,985;   42,556;   -0,727;    1,500
1106,524;   46,465;   -1,727;   -0,682
1107,063;   43,010;   -2,727;    1,409
1107,602;   31,556;   -1,909;   -1,500
1108,141;   27,283;   -1,909;    1,500
1108,680;   55,465;   -3,455;   -0,591
1109,219;   41,192;   -0,909;   -0,500
1109,758;   35,828;    0,455;    0,682
1110,297;   34,192;    1,000;   -0,682
1110,836;   25,465;   -0,727;    0,955
1111,375;   30,010;   -2,545;    0,409
1111,913;   57,192;   -1,000;    0,773
1112,452;   42,101;   -0,273;    0,136
1112,991;   23,646;    1,091;    1,955
1113,529;   26,374;   -0,818;   -0,045
1114,068;   36,556;   -0,273;    2,955
1114,606;   22,646;   -0,364;   -0,955
1115,144;   47,646;   -1,273;    1,045
1115,683;   34,010;   -0,727;    0,318
1116,221;   54,465;   -0,455;   -0,864
1116,759;   32,646;    0,636;   -0,864
1117,297;   60,828;    0,000;    1,864
1117,836;   30,646;   -2,182;   -1,227
1118,374;   30,010;    0,182;   -0,682
1118,912;   33,646;    0,909;    2,682
1119,450;   33,101;    1,000;    0,864
1119,988;   30,283;    1,545;    2,136
1120,525;  178,828;    5,091;    3,318
1121,063;   80,646;    1,182;    1,864
1121,601;   30,192;   -0,909;   -1,227
1122,139;   22,828;   -0,727;   -2,045
1122,676;   70,919;   -0,727;    2,773
1123,214;   57,010;   -1,182;    4,409
1123,751;   26,465;    1,727;    2,227
1124,289;   37,010;   -0,091;   -0,409
1124,826;   25,465;    1,727;    0,227
1125,364;   11,737;    1,727;   -0,955
1125,901;   67,192;    1,182;    1,227
1126,438;   57,374;    0,818;    0,955
1126,975;   14,374;   -0,727;   -0,773
1127,513;   21,919;    0,273;    2,136
1128,050;   14,465;    1,636;   -0,682
1128,587;   28,374;    2,000;   -0,227
1129,124;   39,283;    0,091;    1,318
1129,661;   19,010;    0,273;    0,227
1130,198;   55,919;    1,636;    0,773
1130,734;   34,192;    0,182;    1,409
1131,271;   12,192;   -0,909;    0,864
1131,808;   40,283;    2,909;    3,045
1132,345;   22,556;    1,545;    0,318
1132,881;    7,646;   -1,545;   -1,864
1133,418;   23,737;    0,727;   -1,136
1133,954;   16,737;    2,455;   -2,682
1134,491;   28,101;    1,364;   -0,773
1135,027;   15,374;    2,364;    0,864
1135,564;   24,919;    0,273;    2,955
1136,100;   23,101;    0,364;    2,136
1136,636;   12,737;   -1,273;   -1,045
1137,172;   20,556;    0,000;   -1,045
1137,708;   12,192;   -1,364;   -1,045
1138,245;    7,737;    1,273;   -1,227
1138,781;    5,283;    1,091;   -3,318
1139,317;   12,737;    1,273;   -1,409
1139,852;   21,919;    3,091;    0,136
1140,388;   27,101;   -1,182;   -0,409
1140,924;   15,283;   -1,091;   -2,227
1141,460;    4,919;   -1,636;    0,136
1141,996;    6,192;   -1,364;    2,682
1142,531;    8,919;    1,364;    3,318
1143,067;   42,646;    1,182;    1,045
1143,602;   55,010;   -0,091;   -0,318
1144,138;   23,919;   -2,636;    1,045
1144,673;   10,374;   -1,455;    1,409
1145,209;   13,828;   -1,909;   -0,318
1145,744;    6,283;   -0,727;    0,864
1146,279;   20,465;    1,818;   -0,136
1146,815;   14,556;    1,545;   -2,682
1147,350;   19,101;   -1,364;    0,045
1147,885;    6,010;   -0,818;   -1,318
1148,420;    9,192;   -2,273;    0,773
1148,955;    6,192;   -1,727;    1,864
1149,490;   10,465;   -0,909;   -1,591
1150,025;    4,010;    0,455;   -1,773
1150,560;   20,737;    1,091;   -0,955
1151,094;   16,374;    1,455;   -0,591
1151,629;   17,010;    1,636;    0,864
1152,164;   10,737;    1,364;    1,318
1152,698;    7,374;   -0,182;   -0,136
1153,233;    0,919;    0,091;   -0,682
1153,767;    3,101;   -3,000;   -2,318
1154,302;   10,465;   -1,455;    1,773
1154,836;   11,465;   -0,455;   -2,136
1155,371;   10,101;   -1,364;    3,682
1155,905;    7,919;   -0,636;    1,682
1156,439;    7,556;   -0,636;   -0,500
1156,973;   10,919;    0,364;    0,318
1157,507;    4,646;   -0,364;    0,682
1158,042;    7,374;   -0,727;    1,045
1158,576;   12,010;    0,182;    1,773
1159,110;    8,828;   -0,818;    2,409
1159,643;    5,646;    0,636;   -0,045
1160,177;    1,919;   -1,545;    1,500

