
Integration time [ms]:   0,040
Averaging Nr. [scans]: 11
Smoothing Nr. [pixels]: 0
Data measured with spectrometer [name]: 7318044SP
Wave   ;Sample   ;Dark     ;Reference
[nm]   ;[counts] ;[counts] ;[counts] 

186,757;   34,249;   31,551;    1,318
187,357;   26,816;   22,551;    0,955
187,958;   17,462;   15,460;   -1,591
188,558;   23,426;    8,915;   -1,227
189,159;   13,096;    6,733;   -4,500
189,759;    5,911;    7,278;   -3,591
190,360;    6,980;    2,824;   -2,136
190,960;    7,044;    2,915;   -4,136
191,560;   10,971;    3,189;   -6,591
192,161;   54,985;    4,372;   -3,500
192,761;   26,939;    4,010;   -3,227
193,361;   15,708;    1,556;   -3,773
193,962;   21,360;    2,010;   -2,682
194,562;    6,847;    1,189;   -3,955
195,162;    5,724;   -2,448;   -2,227
195,762;   32,969;   -3,176;   -0,045
196,362;   17,364;    1,370;   -2,500
196,963;    4,228;    2,006;   -0,864
197,563;   12,974;    1,551;   -0,955
198,163;    5,066;    0,096;   -0,682
198,763;    9,841;    1,733;   -0,500
199,363;   11,302;    3,096;   -0,500
199,963;    5,568;    0,369;    0,409
200,563;    6,057;    2,823;   -1,409
201,163;    4,827;    3,277;   -0,227
201,763;    9,359;    3,732;    0,318
202,363;    5,109;    1,459;    1,500
202,963;    8,334;    1,459;    1,045
203,563;   13,397;    0,277;    0,500
204,162;    8,135;    2,096;   -1,864
204,762;    5,247;    0,550;    0,591
205,362;    2,384;    3,004;    1,955
205,962;    6,188;    3,096;    1,955
206,562;    6,725;    1,823;    2,318
207,161;    1,275;   -0,087;    0,318
207,761;   21,453;    1,277;    2,409
208,361;   11,231;   -0,268;    1,409
208,960;    8,714;    0,459;    1,500
209,560;    6,710;    1,277;    1,591
210,160;    8,491;    0,550;    1,864
210,759;    6,648;    4,186;    1,227
211,359;    2,567;    1,459;    1,045
211,958;   27,590;    1,277;    2,045
212,558;   24,302;    1,732;    1,864
213,157;    8,154;    1,822;    1,500
213,757;   40,674;    3,822;   -0,227
214,356;   17,178;    1,277;   -0,409
214,956;   29,193;    3,095;    0,409
215,555;   11,050;    2,095;    2,136
216,154;    4,869;   -2,723;   -0,591
216,754;    3,501;    0,277;    0,773
217,353;    6,990;   -0,268;   -1,045
217,952;   -0,259;   -0,178;    0,318
218,552;    7,289;    1,368;   -0,773
219,151;    0,139;    0,277;    0,955
219,750;   -0,082;    0,004;   -0,227
220,349;    3,301;   -0,451;    1,045
220,948;   10,065;   -1,360;    1,136
221,548;    3,364;    0,913;    1,227
222,147;    3,352;   -0,087;   -0,409
222,746;   11,693;   -0,451;   -0,955
223,345;    5,161;    0,731;    0,500
223,944;    6,110;   -0,451;    0,773
224,543;    6,622;    1,004;   -1,409
225,142;    1,394;    0,094;    0,136
225,741;    5,582;   -0,814;    1,045
226,340;    6,414;   -0,451;   -0,955
226,939;   13,165;   -0,996;   -0,136
227,538;    2,484;   -0,360;   -0,773
228,137;   13,325;   -0,814;    0,864
228,735;    7,413;   -0,541;    1,227
229,334;   -2,592;   -0,905;   -0,227
229,933;   12,869;    0,459;    0,591
230,532;    9,747;    1,186;   -0,409
231,131;   13,636;    1,732;    0,318
231,729;   10,765;   -2,450;   -2,318
232,328;    6,211;   -0,723;   -1,500
232,927;    5,620;    1,004;   -0,500
233,525;    3,003;    3,640;    0,045
234,124;    6,655;    2,368;   -1,591
234,723;    0,858;    0,913;   -1,045
235,321;    3,808;    2,277;    0,136
235,920;    4,132;    1,186;   -1,227
236,518;   10,900;    3,459;    0,318
237,117;    3,911;    0,004;   -0,227
237,715;    4,410;    0,640;   -0,500
238,314;    3,573;   -0,087;   -2,318
238,912;   11,483;   -0,723;   -1,409
239,510;   10,655;    0,459;   -1,227
240,109;   17,054;    0,004;    3,773
240,707;   12,248;   -0,996;    1,227
241,305;    2,358;    0,550;    0,136
241,904;    6,540;   -0,178;   -2,045
242,502;   21,184;   -0,632;   -0,227
243,100;    9,950;   -0,087;   -0,955
243,698;    1,357;    0,732;    1,682
244,297;    5,956;   -0,632;    0,682
244,895;    3,985;   -0,269;   -2,318
245,493;   12,646;    2,186;   -0,591
246,091;   16,999;    1,368;   -1,318
246,689;    9,632;    1,004;    0,591
247,287;    9,538;    0,822;   -1,136
247,885;    8,499;   -1,451;    1,227
248,483;    3,534;    1,822;   -0,500
249,081;   12,275;    0,185;    1,591
249,679;   12,629;   -0,178;    1,682
250,277;    4,390;   -1,723;    0,864
250,875;   15,771;   -1,087;   -1,045
251,473;    7,187;   -1,178;    0,500
252,071;   21,171;    1,459;    1,045
252,669;    8,747;   -1,814;    0,318
253,267;    7,381;   -0,087;    0,773
253,864;   10,174;   -0,360;    0,682
254,462;   23,219;    1,640;    1,591
255,060;    7,478;   -0,269;    1,318
255,658;   10,019;    0,822;   -0,136
256,255;   10,808;    0,186;   -2,045
256,853;   20,863;   -0,269;    1,409
257,451;   13,732;    0,822;    1,864
258,048;   79,264;    1,822;    1,864
258,646;   40,034;    1,731;   -1,045
259,243;   50,045;   -0,087;    2,227
259,841;   29,021;   -0,814;    0,318
260,438;   12,683;   -0,087;    0,864
261,036;   31,869;   -1,905;    1,409
261,633;   15,570;   -0,087;    2,227
262,231;   10,740;    2,731;   -0,045
262,828;    9,578;   -0,905;    1,136
263,425;   14,259;    0,913;   -0,591
264,023;   15,842;    0,186;    0,045
264,620;   39,211;   -0,360;   -0,318
265,217;   61,204;   -2,087;    3,136
265,815;   24,815;   -1,905;    2,136
266,412;   41,845;    0,731;    0,136
267,009;   34,275;   -1,451;    0,773
267,606;   58,489;    0,822;   -0,955
268,203;   27,243;   -0,269;   -0,591
268,801;   25,745;    1,731;    0,591
269,398;   19,144;   -0,360;    2,500
269,995;   41,396;    0,277;    1,591
270,592;   38,591;   -0,632;   -0,500
271,189;   15,509;    0,186;    0,409
271,786;   11,081;   -0,632;    1,227
272,383;   55,237;   -1,087;    0,227
272,980;   33,006;    0,277;    0,318
273,577;   26,014;    0,004;    1,227
274,174;   21,480;    0,822;    2,591
274,771;   44,474;   -0,814;   -0,773
275,367;  158,920;    2,277;    1,409
275,964;   84,953;    0,731;   -0,500
276,561;   32,027;    1,549;   -1,045
277,158;   12,357;    0,095;   -1,773
277,755;   69,821;    2,185;    0,409
278,351;   49,395;   -0,451;   -1,500
278,948;   58,544;   -0,815;    0,045
279,545;   47,059;   -1,360;    2,318
280,141;   78,994;   -1,723;   -2,045
280,738;   85,560;   -0,451;   -0,136
281,334;   37,781;   -1,633;    0,591
281,931;   26,866;   -0,087;   -1,318
282,528;   68,217;    0,822;   -0,500
283,124;   83,855;   -1,087;   -0,500
283,721;   77,765;   -0,451;    1,409
284,317;   42,961;    0,185;    2,500
284,913;   82,678;   -1,360;    0,591
285,510;  129,496;    0,640;   -0,318
286,106;   97,552;   -2,269;   -0,955
286,703;   60,172;   -0,360;    1,955
287,299;   43,476;   -1,451;   -0,591
287,895;   45,666;    0,822;   -1,045
288,491;   36,326;    0,186;    2,136
289,088;   63,894;   -2,360;    2,409
289,684;   73,110;   -1,723;    1,500
290,280;  129,895;    0,368;    0,682
290,876;  108,026;    1,822;    5,500
291,472;   88,266;    1,276;    2,227
292,068;  103,103;    1,367;    0,227
292,665;   67,748;    2,095;    0,773
293,261;   43,059;    0,276;    2,136
293,857;  106,163;    2,913;    2,136
294,453;   75,867;    3,550;    0,955
295,049;  164,816;   -0,268;    1,955
295,644;  106,343;    0,095;    0,136
296,240;   55,025;   -0,905;   -0,136
296,836;   99,876;   -0,995;    0,318
297,432;  152,376;    1,096;   -0,500
298,028;  156,559;    0,732;    0,773
298,624;  114,430;    1,459;    1,864
299,220;  113,042;    2,368;    0,591
299,815;  106,711;    1,005;   -0,409
300,411;  160,816;    0,914;    1,773
301,007;  199,370;    1,368;    0,227
301,602;  118,063;   -0,541;   -2,318
302,198;  202,162;    0,732;   -0,773
302,794;  131,669;    1,187;   -0,500
303,389;   95,859;   -1,177;    1,045
303,985;  117,230;    0,550;    1,409
304,580;  203,849;    1,459;    1,591
305,176;  147,724;   -3,086;    0,136
305,771;   69,112;   -1,268;   -1,227
306,367;  301,584;    4,095;    0,136
306,962;  172,244;    0,641;    1,500
307,558;  207,879;   -0,450;    0,136
308,153;  206,636;    1,095;   -1,136
308,748;  110,347;   -0,814;    1,682
309,344;  311,403;   -0,632;   -1,318
309,939;  297,471;   -1,905;   -1,318
310,534;  141,755;   -0,086;   -1,682
311,130;  129,624;    0,459;   -2,500
311,725;  111,099;    1,004;   -0,500
312,320;  129,976;    2,459;    0,045
312,915;  179,576;    1,459;   -1,045
313,510;  296,284;    1,550;   -0,500
314,105;  138,471;    1,096;    1,409
314,700;   75,765;   -3,086;   -1,045
315,295;  108,849;   -0,904;    0,045
315,890;   92,875;    1,277;    0,864
316,485;  140,559;   -0,359;   -0,318
317,080;   91,431;   -3,086;    1,591
317,675;  255,251;    2,005;   -0,682
318,270;  381,266;    5,550;    3,318
318,865;  291,899;    3,278;    3,045
319,460;  198,243;   -0,904;    0,591
320,055;  107,330;   -0,541;   -1,227
320,650;  107,134;   -1,995;   -0,591
321,244;  110,161;   -0,177;   -1,409
321,839;  100,863;   -1,541;   -0,227
322,434;  124,794;   -1,086;   -1,591
323,029;   96,552;    1,732;    1,591
323,623;   82,801;    1,550;    0,773
324,218;  196,716;    2,368;    1,409
324,812;  151,399;    1,096;    1,591
325,407;  139,334;   -0,814;    2,045
326,002;  227,430;    0,277;   -0,409
326,596;  186,393;    0,914;    1,318
327,191;  101,144;    0,823;   -1,045
327,785;  113,939;   -0,813;   -0,227
328,379;  105,327;    1,368;    0,136
328,974;  130,964;    0,914;   -3,955
329,568;  150,403;    0,186;   -2,409
330,163;  200,649;    2,096;    1,045
330,757;  105,202;    2,459;    1,591
331,351;   77,538;    0,459;    0,682
331,945;   81,849;    0,914;    1,409
332,540;  160,177;   -1,723;   -0,591
333,134;  157,025;   -1,086;    0,773
333,728;  169,176;    0,005;    0,318
334,322;  103,777;   -1,177;   -0,864
334,916;   98,325;    0,277;    0,955
335,510;  212,170;   -0,450;   -0,136
336,105;  198,144;   -1,086;    1,591
336,699;  135,094;   -1,086;    0,591
337,293;  170,137;   -1,723;    0,318
337,887;  136,340;   -2,723;    1,955
338,481;  228,812;    0,459;    0,591
339,074;  295,595;   -0,359;    2,682
339,668;  284,945;   -1,632;    1,227
340,262;  695,574;    1,732;    3,227
340,856;  404,260;    1,822;   -0,682
341,450;  187,828;    1,004;    1,864
342,044;  232,319;    1,459;    0,136
342,637;  321,782;    0,913;   -2,136
343,231;  288,188;   -2,360;    0,682
343,825;  238,637;   -1,086;   -0,591
344,419;  225,864;   -1,995;    0,500
345,012;  635,751;    2,459;    4,045
345,606;  482,098;    4,641;    1,591
346,199;  248,428;   -1,813;   -0,227
346,793;  345,778;    1,914;    2,045
347,386;  198,850;   -0,813;   -1,136
347,980;  135,111;   -0,268;   -0,045
348,573;  217,796;    2,278;    0,409
349,167;  462,203;    5,278;    4,773
349,760;  338,391;    2,914;    2,682
350,354;  322,087;   -0,813;    1,136
350,947;  351,870;    1,096;    1,682
351,540;  259,775;   -0,358;   -1,409
352,134;  168,210;    1,096;    1,136
352,727;  179,644;   -0,086;    1,136
353,320;  196,678;    0,005;    0,591
353,913;  152,058;   -1,995;    1,864
354,507;  309,162;    0,823;   -1,227
355,100;  209,783;    0,460;    0,864
355,693;  552,777;    2,005;    2,409
356,286;  352,571;    0,823;    2,773
356,879;  234,305;   -0,722;    1,227
357,472;  237,132;   -0,904;    1,500
358,065;  270,362;   -0,722;    2,500
358,658;  156,666;   -0,540;    2,318
359,251;  140,489;   -1,631;   -0,591
359,844;  285,354;   -1,904;   -1,136
360,437;  333,969;   -2,995;    0,045
361,030;  202,397;    1,369;   -0,682
361,623;  213,601;    2,824;    0,318
362,215;  402,173;   -0,086;    2,045
362,808;  273,371;   -2,358;   -1,682
363,401;  210,943;   -2,449;    0,136
363,994;  385,464;   -0,631;   -1,500
364,586;  225,752;    0,824;   -1,500
365,179;  183,161;   -0,449;   -1,136
365,772;   81,337;   -1,995;    2,045
366,364;  198,915;    1,915;   -3,227
366,957;  237,613;    2,279;   -0,045
367,549;  195,128;    2,188;   -0,864
368,142;  206,608;    1,825;   -1,500
368,734;  176,115;    0,734;   -2,136
369,327;  132,702;    1,643;   -0,500
369,919;  157,706;   -1,538;    0,409
370,512;  174,127;   -1,083;   -0,500
371,104;  395,629;   -0,901;    1,591
371,696;  410,636;    1,191;   -0,955
372,289;  280,835;    0,373;    1,136
372,881;  236,357;   -2,080;    1,318
373,473;  153,387;   -2,170;    1,136
374,066;  219,933;   -0,169;    0,500
374,658;  202,793;    0,378;    1,136
375,250;  152,499;    0,653;   -1,409
375,842;  190,494;    0,473;   -0,045
376,434;  157,805;   -0,435;   -0,409
377,026;  147,656;    0,204;   -2,500
377,618;  192,264;   -0,158;   -0,682
378,210;  147,039;   -0,338;   -1,955
378,802;  148,623;    0,754;   -0,591
379,394;  445,100;    1,846;    0,682
379,986;  254,753;    1,393;   -0,955
380,578;  185,861;   -0,153;    0,773
381,170;  374,478;   -0,972;    0,045
381,762;  291,997;    0,755;    1,409
382,354;  243,835;   -0,065;   -1,318
382,945;  179,683;   -2,976;    0,318
383,537;  137,036;   -2,705;   -1,955
384,129;  126,186;   -2,160;   -1,136
384,721;  219,061;   -0,252;    0,955
385,312;  179,345;   -0,161;   -0,955
385,904;  236,994;   -2,706;    1,591
386,496;  190,905;   -0,979;    1,045
387,087;  303,382;    1,022;    2,500
387,679;  252,034;   -1,160;    0,045
388,270;  226,246;    2,840;    2,045
388,862;  211,925;    1,295;   -0,318
389,453;  207,536;   -0,887;    1,045
390,045;  208,807;   -0,705;   -2,682
390,636;  120,827;    0,204;   -0,591
391,227;  176,279;   -0,523;   -0,045
391,819;  155,506;    0,204;    0,773
392,410;  365,295;    1,022;    0,045
393,001;  205,663;   -0,979;   -1,591
393,593;  247,793;    1,930;   -0,045
394,184;  286,577;    1,385;   -0,409
394,775;  199,035;    1,839;    2,136
395,366;  135,486;    1,385;    0,773
395,957;  280,573;    0,113;    0,136
396,548;  190,550;   -0,342;    2,682
397,139;  281,264;   -2,433;    0,591
397,730;  218,116;   -1,888;    0,955
398,321;  228,542;   -1,252;    0,955
398,912;  178,018;   -0,615;    0,136
399,503;  178,923;   -3,524;   -1,409
400,094;  219,420;    0,294;    1,682
400,685;  209,442;   -0,433;    0,045
401,276;  174,421;    0,930;   -0,955
401,867;  151,652;   -0,888;    0,773
402,458;  124,415;   -2,251;   -2,318
403,048;  240,216;    1,112;    0,591
403,639;  200,044;    0,840;    0,864
404,230;  284,495;    2,476;    0,318
404,821;  329,741;   -0,615;    0,045
405,411;  252,244;    1,203;   -2,591
406,002;  183,586;   -1,252;   -1,136
406,592;  368,287;    2,294;    0,045
407,183;  248,192;    0,566;   -1,500
407,774;  230,430;    3,475;   -0,136
408,364;  182,042;    0,930;    0,409
408,954;  283,070;    0,384;    1,227
409,545;  279,971;    1,021;    1,045
410,135;  246,590;    1,293;    0,500
410,726;  191,539;    1,838;    0,318
411,316;  351,626;    0,111;    0,773
411,906;  220,503;   -0,253;   -0,409
412,497;  225,225;   -1,070;   -0,045
413,087;  176,596;   -1,980;   -0,227
413,677;  120,631;   -0,707;    3,864
414,267;  115,802;    0,656;    1,409
414,857;   98,817;   -2,980;    4,227
415,448;  106,428;    0,839;    0,500
416,038;  124,897;    0,020;   -0,591
416,628;  151,623;   -0,889;    0,409
417,218;  188,750;    0,565;    3,318
417,808;  304,129;    0,202;   -0,409
418,398;  204,315;    0,020;    2,682
418,988;  118,236;    2,020;    0,591
419,578;  193,101;   -0,707;    1,409
420,168;  134,054;   -1,343;   -0,955
420,757;  236,247;   -1,343;   -1,500
421,347;  148,020;    0,111;   -0,227
421,937;  127,650;    2,292;    1,409
422,527;  223,684;    0,838;   -0,773
423,116;  326,858;   -0,253;   -0,045
423,706;  126,709;   -1,889;    0,318
424,296;   97,522;    1,384;    0,682
424,885;  171,704;   -0,071;   -3,045
425,475;  145,198;    1,474;   -2,864
426,065;   82,103;   -0,980;   -0,318
426,654;   67,666;   -0,435;   -0,318
427,244;  237,937;    0,020;    1,409
427,833;  205,646;    1,383;   -0,500
428,423;  121,364;   -0,526;    1,136
429,012;  112,707;   -0,344;   -1,136
429,601;  191,835;   -1,344;    0,136
430,191;  118,677;    1,292;    4,318
430,780;   68,913;   -0,344;   -0,409
431,369;  165,747;    0,746;   -0,045
431,959;   97,943;   -1,254;    0,500
432,548;   64,679;   -1,163;   -0,045
433,137;   35,983;   -1,254;   -1,318
433,726;   65,777;    0,292;    0,500
434,315;   81,164;   -0,526;    2,409
434,905;  136,451;   -1,254;    1,409
435,494;  118,217;    0,746;    0,955
436,083;   59,244;   -0,981;   -0,955
436,672;  108,730;    0,110;    0,500
437,261;   75,696;    0,292;   -1,955
437,850;  171,123;    1,383;    0,682
438,439;  200,128;    3,291;    1,955
439,027;  268,149;    3,655;    1,773
439,616;  200,020;    2,927;    1,227
440,205;   82,788;    0,200;   -2,136
440,794;   61,942;    2,109;   -0,045
441,383;   37,916;   -1,346;   -0,591
441,971;   31,360;   -2,436;    0,591
442,560;   38,878;    0,563;   -1,773
443,149;    5,160;    0,379;   -1,318
443,737;   10,895;   -0,074;   -2,318
444,326;   23,340;    0,018;    0,318
444,915;   31,692;   -1,982;    0,864
445,503;   36,208;   -2,891;   -0,318
446,092;  152,229;    0,382;    2,136
446,680;  109,996;    0,382;    0,318
447,269;   53,564;   -0,346;   -0,318
447,857;   47,161;    0,018;   -1,773
448,445;   33,271;    0,563;    1,318
449,034;   17,893;   -1,528;   -1,136
449,622;   23,441;   -1,073;    3,500
450,210;   80,553;    2,017;    2,227
450,799;   52,935;    0,290;   -0,591
451,387;   52,775;    1,381;   -0,591
451,975;   43,201;    2,654;    0,864
452,563;   51,426;    3,472;    2,318
453,151;   20,320;   -0,528;   -1,227
453,739;   18,244;   -1,347;    0,136
454,328;   31,846;    2,381;   -2,136
454,916;   23,434;    2,562;   -0,136
455,504;   34,486;    1,017;    1,227
456,092;   12,271;    0,017;   -1,591
456,679;    9,278;    1,472;    0,682
457,267;   98,149;    4,017;    1,045
457,855;   28,816;    1,017;    1,409
458,443;    1,969;   -0,165;    1,682
459,031;   13,657;    0,108;    2,409
459,619;   10,531;   -1,801;    2,864
460,206;    4,556;    0,835;    2,045
460,794;    2,593;   -2,983;   -0,227
461,382;    6,400;   -0,529;   -0,864
461,970;    9,671;    1,198;    1,864
462,557;    1,030;   -0,711;   -0,682
463,145;   10,909;   -3,165;   -1,682
463,732;   56,447;    2,016;   -1,045
464,320;   18,511;   -0,075;   -3,045
464,907;   32,668;    2,743;   -0,773
465,495;   15,611;    0,743;   -1,227
466,082;    8,413;   -1,984;   -0,045
466,670;   14,514;   -2,529;    1,227
467,257;    0,995;   -1,711;    2,045
467,844;   10,656;   -0,075;    0,045
468,432;    9,849;    0,834;    3,500
469,019;    7,921;    0,925;   -1,773
469,606;   18,515;    0,470;    3,682
470,193;   17,881;   -1,439;    0,227
470,780;   10,622;   -2,075;    0,864
471,368;    1,216;   -1,257;   -0,773
471,955;   12,192;    1,379;   -0,682
472,542;   11,261;    0,652;   -1,136
473,129;    2,025;   -0,166;    0,136
473,716;    4,097;    1,470;    0,591
474,303;    5,375;    0,652;   -0,864
474,890;    4,226;   -1,439;   -0,500
475,477;   19,531;   -1,621;    0,409
476,064;    3,698;    1,106;   -1,591
476,650;   26,267;    0,288;    0,318
477,237;    9,448;   -0,258;    0,955
477,824;    8,010;   -1,076;    0,864
478,411;    0,363;   -1,894;   -0,318
478,997;   -2,758;    0,560;   -0,773
479,584;   -6,045;    1,196;   -0,409
480,171;    6,561;   -0,440;   -0,773
480,757;   13,905;    2,651;    0,773
481,344;    6,383;    0,469;    0,409
481,931;   -0,861;    1,105;    1,045
482,517;    9,050;   -1,258;    0,318
483,104;   18,227;    1,106;    2,864
483,690;    2,781;   -1,804;    0,045
484,276;    3,657;   -0,895;    0,227
484,863;   32,714;    2,469;    1,136
485,449;    7,522;   -0,077;    0,318
486,035;    3,170;   -1,986;   -0,136
486,622;   11,751;   -0,895;    0,045
487,208;    3,787;    1,378;    1,500
487,794;   -3,253;    0,741;    0,318
488,380;   -2,687;    0,105;   -1,409
488,967;   -2,494;   -1,168;   -0,409
489,553;   -3,990;   -1,895;   -1,409
490,139;    5,924;    1,559;    0,773
490,725;   -2,881;    0,741;   -0,227
491,311;    5,196;    3,287;    3,045
491,897;    3,385;   -0,986;    1,500
492,483;    6,771;    0,105;    1,227
493,069;   78,395;    3,923;    0,864
493,655;   26,809;    1,650;    0,682
494,241;    5,704;    1,377;   -0,955
494,826;    7,371;    0,287;   -1,045
495,412;    9,463;    2,559;   -0,682
495,998;    4,596;   -0,805;   -0,318
496,584;   10,381;    0,377;    1,045
497,169;   14,500;    1,014;   -0,682
497,755;    4,139;    0,650;    1,227
498,341;   20,588;    0,559;    0,318
498,926;   40,629;    1,832;    1,955
499,512;    8,836;    1,286;    2,955
500,097;    3,293;    0,195;   -0,318
500,683;    4,807;   -0,350;    2,136
501,268;    1,268;   -0,169;   -0,955
501,854;    3,662;   -0,169;    1,227
502,439;    3,826;   -0,624;   -1,773
503,024;   -0,136;    0,195;    0,500
503,610;    7,493;   -0,078;   -0,682
504,195;    4,068;    0,558;    1,955
504,780;   22,278;    2,922;    1,227
505,366;   50,899;    3,013;    2,864
505,951;   29,890;    0,740;    1,045
506,536;   13,057;   -3,260;   -3,682
507,121;   30,663;    0,285;   -0,318
507,706;   27,489;    2,376;    1,045
508,291;   14,438;    2,649;    1,136
508,876;   12,946;   -0,988;    2,591
509,461;   28,073;   -0,169;   -0,773
510,046;   53,609;    0,194;    0,318
510,631;   69,383;   -0,351;   -0,773
511,216;   34,146;    2,467;   -0,500
511,801;   75,246;   -0,442;    2,591
512,386;   88,312;    0,740;    0,500
512,971;  106,385;   -2,988;    0,955
513,555;  140,244;   -0,897;   -1,500
514,140;  121,081;   -0,442;   -3,136
514,725;  229,164;   -0,715;   -1,136
515,309;  171,875;   -0,533;    0,318
515,894;  111,417;   -0,624;   -2,227
516,479;  147,989;   -0,624;   -0,955
517,063;  160,965;    0,376;    1,227
517,648;  127,067;    1,012;   -1,136
518,232;  110,014;   -0,261;   -1,409
518,817;  201,836;   -0,079;    1,682
519,401;  318,092;    2,194;    0,591
519,985;  305,162;    1,103;    1,136
520,570;  187,847;    0,830;   -1,955
521,154;  288,155;    2,102;    0,591
521,738;  446,955;   -2,352;    2,409
522,323;  297,685;   -0,170;    1,682
522,907;  301,310;    0,466;   -0,136
523,491;  225,773;    0,557;    0,955
524,075;  207,595;    2,284;    0,591
524,659;  392,643;    1,466;    0,591
525,243;  341,018;    1,739;    0,409
525,827;  290,506;    0,648;   -0,045
526,411;  299,824;   -1,989;   -0,136
526,995;  396,122;   -0,352;    1,409
527,579;  458,310;   -0,443;   -1,045
528,163;  396,807;    0,375;   -1,500
528,747;  491,339;    2,466;   -0,773
529,331;  434,327;   -0,080;   -1,409
529,915;  288,177;    1,738;    0,955
530,499;  382,449;   -0,807;    1,227
531,082;  545,396;   -0,534;    1,591
531,666;  621,876;    1,374;    0,773
532,250;  504,980;    1,284;    2,682
532,833;  597,862;    0,920;    2,773
533,417;  445,868;   -1,807;    0,864
534,001;  570,555;    1,647;   -0,318
534,584;  487,519;    0,374;    0,500
535,168;  314,332;    0,465;    1,409
535,751;  665,152;    0,647;    0,045
536,334;  417,539;   -0,898;   -0,409
536,918;  266,714;    0,011;    1,591
537,501;  286,023;   -0,899;    1,318
538,085;  328,132;   -0,444;    1,045
538,668;  410,137;    0,829;    2,409
539,251;  685,868;    1,829;    3,773
539,834;  398,312;    0,101;    0,773
540,418;  521,932;   -1,990;    4,318
541,001;  695,819;   -0,990;    1,773
541,584;  471,032;    2,101;    2,227
542,167;  576,216;    1,374;    2,955
542,750;  402,513;    1,919;   -0,773
543,333;  284,871;    0,555;    2,136
543,916;  506,269;    0,192;    2,500
544,499;  432,476;   -1,354;    0,227
545,082;  512,665;    1,374;    3,591
545,665;  427,917;    1,919;    1,500
546,248;  556,235;    1,010;   -0,318
546,830;  533,493;   -0,445;    1,955
547,413;  486,916;    1,010;   -0,773
547,996;  455,404;    0,555;    0,500
548,579;  420,447;    0,919;    0,955
549,161;  647,636;    1,828;    2,682
549,744;  528,680;   -0,809;    0,409
550,326;  383,321;   -0,809;   -1,136
550,909;  848,266;    2,737;    0,591
551,492;  498,669;   -0,263;    0,227
552,074;  624,015;   -0,173;   -1,318
552,657;  649,471;    2,373;    0,045
553,239;  517,757;   -0,173;   -0,773
553,821;  382,705;   -1,082;    1,045
554,404;  641,922;    1,282;    1,136
554,986;  742,863;    0,464;    1,045
555,568;  577,967;    1,191;   -0,955
556,151;  778,971;    1,191;   -0,227
556,733;  471,668;   -0,264;   -0,864
557,315;  488,660;    0,100;    0,500
557,897;  360,376;    0,554;   -0,500
558,479;  372,110;   -1,991;    1,318
559,061;  458,097;   -0,719;   -0,864
559,643;  513,241;   -0,264;    0,045
560,225;  550,337;    1,645;    2,864
560,807;  396,878;    0,918;    0,318
561,389;  376,347;    0,554;    2,318
561,971;  471,265;    0,463;    2,136
562,553;  389,464;   -1,628;    1,591
563,135;  477,094;   -0,537;    1,136
563,717;  870,090;    3,372;    1,136
564,298;  757,481;    3,645;   -0,045
564,880;  522,501;    0,645;   -1,409
565,462;  350,865;    0,645;    1,318
566,043;  474,598;   -0,446;    2,318
566,625;  787,050;    1,918;    1,227
567,207;  600,006;    1,099;    1,682
567,788;  453,746;   -1,264;    1,500
568,370;  450,901;    1,917;   -0,500
568,951;  458,218;    0,190;    0,227
569,533;  554,211;   -0,628;   -0,500
570,114;  573,258;   -0,446;    0,682
570,695;  606,542;   -0,174;   -1,318
571,277;  580,846;   -0,265;   -1,682
571,858;  782,366;    2,008;   -1,136
572,439;  624,786;    1,554;   -1,045
573,021;  658,289;    2,099;   -2,773
573,602;  766,982;   -1,265;    0,318
574,183;  716,379;   -2,083;    2,227
574,764;  661,188;   -1,629;    0,409
575,345;  856,035;    0,917;   -0,136
575,926;  686,515;   -0,356;    0,136
576,507;  764,434;    1,099;   -0,227
577,088;  718,342;    3,099;    1,682
577,669;  912,937;    0,735;    1,955
578,250; 1091,924;    0,644;   -1,045
578,831;  867,285;   -1,356;   -2,227
579,412;  853,486;   -0,810;    0,955
579,993;  820,584;    1,008;    0,227
580,573;  737,679;   -0,629;   -0,955
581,154;  891,395;    0,735;   -0,591
581,735;  902,024;    0,644;    0,773
582,315; 1043,569;   -0,629;    2,136
582,896;  845,370;   -0,174;    1,227
583,477;  684,796;    0,189;    1,227
584,057;  830,765;    0,553;    0,955
584,638;  953,948;    2,553;    2,318
585,218; 1183,669;   -0,538;    2,682
585,799;  991,740;    0,281;   -0,227
586,379;  851,251;    0,372;    1,591
586,959;  828,653;    0,735;    0,318
587,540;  739,184;   -0,629;    2,227
588,120;  752,348;    1,007;   -0,045
588,700;  760,835;    2,553;    2,136
589,281;  942,222;    0,462;   -0,955
589,861;  794,602;    0,099;   -1,682
590,441;  654,955;    2,371;   -2,682
591,021;  758,672;   -0,265;   -2,591
591,601;  711,598;   -0,537;    0,500
592,181;  687,952;   -0,719;   -0,773
592,761;  589,944;    0,007;    1,409
593,341;  715,468;   -0,901;    0,045
593,921;  720,160;   -0,265;    1,591
594,501;  612,563;   -0,538;    1,318
595,081;  621,701;    0,917;   -0,318
595,661;  691,274;   -1,447;    0,955
596,240;  614,871;   -0,537;    0,136
596,820; 1046,641;    0,372;    1,955
597,400;  761,085;    2,008;    0,773
597,980;  647,033;    2,008;    1,045
598,559;  596,623;    2,735;   -0,227
599,139;  575,457;   -0,174;   -1,227
599,718;  574,548;   -0,174;   -0,409
600,298;  565,624;    0,735;    0,682
600,877; 1070,768;    2,917;    1,409
601,457;  765,538;    2,281;    1,136
602,036;  646,686;    0,190;    2,045
602,616;  698,212;    0,644;    1,682
603,195;  820,353;   -0,355;    3,500
603,774;  875,823;   -0,901;    2,045
604,354;  809,372;    0,826;   -0,500
604,933;  745,681;    0,463;    1,864
605,512;  845,743;    3,554;    0,591
606,091;  837,425;   -0,537;    3,773
606,671;  777,812;    0,281;    0,773
607,250;  961,363;    1,644;    3,136
607,829;  896,121;    2,372;    3,227
608,408;  736,146;    1,190;    2,591
608,987;  859,702;    1,281;    3,409
609,566;  674,277;   -1,265;   -2,500
610,145;  778,620;   -1,082;    0,682
610,723;  814,450;    4,372;    6,864
611,302;  729,860;   -0,446;    1,682
611,881; 1031,244;    5,008;   11,227
612,460;  720,888;    1,645;    3,955
613,039;  599,927;   -0,082;    2,045
613,617;  591,496;    1,736;    4,773
614,196;  609,616;    1,099;    1,227
614,775;  680,739;    1,009;    2,409
615,353;  747,801;    0,736;    0,864
615,932;  711,444;    0,100;    2,409
616,510;  686,464;    0,554;    0,591
617,089; 1212,451;    7,100;   17,591
617,667;  809,447;    2,372;    6,136
618,246;  571,780;   -1,537;    1,318
618,824;  640,153;   -3,355;   -0,955
619,402;  665,519;   -2,900;   -1,773
619,981;  721,213;   -0,173;   -1,045
620,559;  630,643;    0,009;    1,682
621,137;  645,930;   -0,718;    1,864
621,715;  552,305;   -1,173;   -0,682
622,293;  577,291;   -0,537;   -0,773
622,871;  589,115;   -0,718;    0,500
623,450;  536,873;    0,373;   -0,864
624,028;  730,550;    0,191;   -0,955
624,606;  686,886;   -1,718;    1,682
625,183;  497,849;   -1,536;   -1,136
625,761;  651,301;    1,009;    1,136
626,339;  953,535;    1,373;    2,591
626,917;  582,700;   -0,172;   -0,045
627,495;  531,709;   -0,354;    1,318
628,073;  658,216;   -0,263;    2,864
628,650;  683,369;    0,100;    2,136
629,228;  677,682;    0,373;    4,409
629,806;  487,465;    2,282;    1,136
630,383;  542,147;    1,464;   -0,318
630,961;  548,739;    2,555;   -0,955
631,539;  600,868;    2,464;    0,227
632,116; 1325,466;   11,373;   15,409
632,694;  928,698;    2,555;    6,500
633,271;  764,161;    0,828;    2,682
633,848;  867,015;    1,828;    2,045
634,426;  590,588;   -1,081;    1,773
635,003;  457,312;    1,101;   -0,409
635,580;  873,937;    1,192;    3,682
636,158;  741,282;    3,737;    1,227
636,735;  555,343;    0,555;   -0,500
637,312;  546,209;   -0,809;   -0,682
637,889;  547,574;   -4,354;   -0,682
638,466;  519,104;   -3,990;   -0,409
639,043;  577,392;    2,101;   -1,136
639,620;  491,844;   -2,262;   -0,955
640,197;  628,821;    1,100;    1,682
640,774;  447,645;   -0,172;    1,136
641,351;  523,015;    0,737;    1,136
641,928;  726,022;   -0,627;    1,409
642,505;  840,392;    0,828;   -0,500
643,082;  654,490;   -1,718;    1,227
643,658;  525,860;   -0,718;    1,500
644,235;  509,321;    1,191;    2,500
644,812;  703,600;    1,918;    0,773
645,388;  676,607;   -0,991;    1,409
645,965;  459,977;   -0,809;    1,682
646,542;  478,347;   -1,445;   -0,227
647,118;  867,626;    1,009;   -0,955
647,695;  650,178;   -0,263;    1,136
648,271;  459,457;   -0,536;    0,500
648,848;  630,646;    0,736;    2,227
649,424;  757,561;    0,827;    1,318
650,000;  578,568;   -0,354;   -1,045
650,577;  604,120;   -0,627;   -0,955
651,153;  613,217;   -1,809;    0,955
651,729;  556,405;    1,191;    0,864
652,305;  924,230;    0,645;    2,773
652,881;  879,055;   -0,082;    1,136
653,458; 1006,970;    1,100;    0,227
654,034; 1110,522;    0,282;    1,591
654,610; 1256,347;    0,554;    0,773
655,186; 1776,081;    0,645;    3,045
655,762; 1297,906;   -0,991;    0,409
656,338; 1270,094;    0,100;    0,136
656,913; 1351,010;   -0,082;    0,409
657,489; 1120,289;    0,827;   -0,318
658,065; 1236,477;   -0,173;   -1,591
658,641; 1269,120;   -0,900;   -0,864
659,217; 1179,490;   -0,991;    0,409
659,792; 1330,224;    0,645;   -0,409
660,368; 1137,503;   -2,173;   -0,682
660,944; 1154,964;   -2,082;    1,227
661,519; 1052,789;   -0,628;    0,409
662,095;  765,614;   -1,719;    0,591
662,670;  605,893;    1,281;   -0,136
663,246;  507,536;    1,009;   -0,409
663,821;  679,179;    0,281;    1,682
664,396;  627,185;    0,009;    1,864
664,972;  536,737;    0,009;   -0,500
665,547;  593,926;    1,372;    0,136
666,122;  577,841;   -1,082;    0,318
666,698;  770,484;   -0,173;    0,318
667,273;  544,763;   -0,173;    0,136
667,848;  584,406;    2,372;    1,500
668,423;  760,504;    2,190;    2,318
668,998;  596,056;    2,827;   -0,682
669,573;  558,971;   -3,264;   -1,500
670,148;  750,523;   -1,446;   -0,682
670,723;  529,984;   -1,810;    0,318
671,298;  821,173;    2,372;    1,045
671,873;  724,179;   -0,082;   -0,136
672,448;  709,640;    0,645;    0,136
673,023;  699,283;   -1,992;   -0,227
673,597;  799,199;    0,827;    2,318
674,172;  850,569;   -0,355;    0,318
674,747;  758,848;    0,372;   -1,045
675,321;  511,400;   -0,628;    3,318
675,896;  448,861;    0,645;    1,045
676,471;  680,413;    2,645;    1,591
677,045;  601,965;   -1,264;    0,682
677,620;  705,244;    0,190;    1,136
678,194;  530,433;   -2,628;    1,136
678,769;  612,894;   -1,083;   -0,318
679,343;  661,355;   -0,628;    1,773
679,917;  792,088;   -1,446;    1,955
680,492;  635,731;    0,826;    3,227
681,066;  671,920;    3,372;    0,409
681,640;  596,199;    1,463;   -0,318
682,214;  615,751;    0,735;    0,500
682,788;  615,212;   -1,356;   -0,773
683,363;  767,946;   -1,810;    1,682
683,937;  634,861;   -1,719;   -0,318
684,511;  657,050;    0,463;   -0,591
685,085;  677,056;   -1,356;    0,318
685,659;  580,245;   -2,538;    0,864
686,232;  830,706;   -0,356;   -0,318
686,806;  694,712;   -0,901;    0,409
687,380;  578,719;   -0,174;    0,591
687,954;  520,089;   -1,174;    1,136
688,528;  857,004;   -0,719;    1,955
689,101;  677,102;   -3,992;    1,045
689,675;  574,108;   -0,356;   -0,136
690,249;  831,842;   -0,719;    0,409
690,822;  815,758;    0,280;    0,318
691,396;  698,582;   -0,265;    1,227
691,969;  613,771;    1,280;    0,136
692,543;  504,050;   -0,447;   -1,955
693,116;  496,420;   -0,265;   -1,409
693,690;  600,245;    0,099;    0,500
694,263;  531,433;   -1,083;    2,955
694,836;  900,349;    1,371;    3,591
695,410;  782,901;   -0,265;    1,773
695,983;  802,271;    0,189;    0,591
696,556;  588,277;   -0,447;   -1,045
697,129;  499,102;   -0,356;    1,409
697,703;  734,200;   -1,629;    1,955
698,276;  618,024;    1,462;   -0,773
698,849;  787,122;    1,280;    1,409
699,422;  545,219;   -1,083;    0,591
699,995;  443,226;    0,007;    0,136
700,568;  592,959;   -0,629;    3,045
701,140;  614,057;   -2,811;    1,682
701,713;  779,700;   -0,174;    2,409
702,286;  663,706;   -0,538;    0,864
702,859;  747,258;   -0,902;   -0,591
703,432;  839,265;    0,825;    0,682
704,004;  702,453;    0,462;    0,318
704,577;  581,732;   -0,629;    0,136
705,150;  637,648;    0,189;    2,500
705,722;  695,291;   -0,356;   -3,227
706,295;  757,479;   -0,175;   -0,591
706,867;  643,213;   -0,175;    1,955
707,440;  728,856;   -1,720;   -0,409
708,012;  803,590;    0,462;    0,591
708,584;  714,323;    2,462;    0,227
709,157;  484,875;    1,825;   -0,591
709,729;  733,518;    2,280;    2,045
710,301;  574,616;    0,734;    0,045
710,874;  586,622;   -1,447;   -0,227
711,446;  481,174;    0,371;    0,864
712,018;  564,453;    0,098;    0,500
712,590;  500,642;   -1,993;    1,682
713,162;  789,194;    0,825;    1,318
713,734;  566,928;    1,825;   -2,045
714,306;  475,389;   -1,902;   -0,409
714,878;  546,304;    0,825;    0,864
715,450;  502,129;    0,643;    0,864
716,022;  509,590;    1,552;    1,318
716,593;  500,960;    0,189;    0,591
717,165;  556,967;   -3,175;   -1,227
717,737;  822,519;    0,280;    0,409
718,309;  586,071;    0,280;   -0,045
718,880;  513,168;   -0,539;   -1,409
719,452;  586,084;   -0,175;   -1,591
720,024;  684,272;    0,734;   -0,591
720,595;  572,278;   -2,902;    0,955
721,167;  560,103;    0,370;   -2,045
721,738;  686,655;   -0,812;   -1,045
722,309;  849,116;   -0,993;   -1,227
722,881;  569,214;   -1,357;    0,773
723,452;  645,038;   -2,630;    2,864
724,023;  655,772;   -0,721;    2,682
724,595;  726,870;    0,007;    0,682
725,166;  593,785;    0,007;   -0,409
725,737;  796,064;    1,734;    0,227
726,308;  577,344;   -0,266;    0,318
726,879;  488,532;   -1,630;    1,227
727,450;  667,720;    0,552;   -0,045
728,021;  593,363;    3,097;    0,682
728,592;  769,279;    0,734;    0,500
729,163;  853,922;    0,643;   -0,136
729,734;  827,110;    0,188;   -0,227
730,305;  685,571;    1,734;    0,136
730,876;  647,487;    0,188;    2,955
731,447;  973,766;    2,188;    2,682
732,017;  876,772;    1,097;    1,864
732,588;  659,052;    0,734;    1,227
733,159;  928,695;    0,643;   -1,045
733,729;  659,337;    0,006;    0,409
734,300;  820,980;    0,915;    0,864
734,870;  632,532;    3,461;    0,591
735,441;  610,357;    0,370;   -0,591
736,011;  603,545;    0,643;   -1,591
736,582;  604,279;   -0,812;    0,045
737,152;  748,922;   -1,721;   -2,045
737,722;  719,474;   -0,267;   -0,682
738,293;  559,117;   -1,358;    1,318
738,863;  744,032;    2,461;    2,318
739,433; 1013,494;    5,279;    0,318
740,003;  716,682;   -0,994;   -0,682
740,573;  853,961;    2,097;   -1,591
741,143;  716,422;   -1,085;    0,318
741,713;  610,429;    1,188;   -0,500
742,283;  683,617;    0,915;    1,591
742,853;  615,169;    1,915;    1,591
743,423;  445,357;    1,733;    0,045
743,993;  566,000;   -0,358;    1,500
744,563;  626,370;    0,097;   -0,864
745,133;  652,741;   -0,812;   -0,864
745,702;  520,656;   -0,267;    1,773
746,272;  745,572;   -0,176;    0,591
746,842;  764,124;   -1,358;   -0,591
747,411;  545,585;   -0,267;   -0,318
747,981;  442,773;    0,097;    0,500
748,551;  436,961;    2,278;   -1,045
749,120;  639,332;    0,642;   -0,227
749,690;  584,156;   -0,631;    2,409
750,259;  697,981;    1,369;    2,955
750,828;  755,897;    1,551;   -1,955
751,398;  529,358;    1,278;   -0,045
751,967; 1015,273;    2,187;    0,409
752,536;  658,098;   -0,813;   -0,227
753,105;  769,559;    0,096;    0,227
753,675;  602,293;    0,096;    1,773
754,244;  609,027;   -0,904;    3,591
754,813;  645,488;    0,551;    1,227
755,382;  599,858;    0,460;    0,955
755,951;  737,592;    1,551;    3,682
756,520;  856,780;   -0,085;    1,864
757,089;  955,423;    0,278;    0,500
757,658;  682,975;    1,733;    1,227
758,227;  519,163;    1,096;    0,318
758,795;  572,988;    1,187;    1,136
759,364;  577,903;   -0,086;   -0,591
759,933;  524,910;   -1,176;   -0,045
760,501;  457,916;    0,733;   -1,318
761,070;  629,741;   -2,813;   -1,409
761,639;  576,293;   -1,904;    1,318
762,207;  712,209;    1,551;   -0,955
762,776;  754,215;    0,369;    0,864
763,344;  603,040;   -0,995;    0,591
763,913;  411,046;   -0,722;    1,409
764,481;  954,144;    1,005;   -0,136
765,049;  950,332;   -1,358;    1,409
765,618;  864,430;   -0,086;    0,318
766,186;  665,618;    0,278;    0,136
766,754;  712,988;    0,005;    1,864
767,322;  599,540;   -1,995;    0,409
767,890;  542,183;   -0,722;   -1,773
768,459;  544,190;   -2,177;   -0,318
769,027;  770,651;    1,641;    3,409
769,595;  590,112;    3,278;    2,591
770,163;  691,027;    3,823;    2,955
770,730;  663,943;    0,732;   -0,136
771,298;  644,040;    0,187;   -1,409
771,866;  568,138;   -1,541;    4,955
772,434;  604,599;   -0,631;   -1,864
773,002;  812,514;    0,005;    0,682
773,569;  680,612;    0,914;    1,682
774,137;  794,982;   -0,268;   -0,045
774,705;  576,534;    0,278;   -0,136
775,272;  550,177;    0,641;    0,682
775,840;  572,274;   -0,177;    2,682
776,407;  698,463;    0,277;    1,955
776,975;  572,015;   -0,632;    0,318
777,542;  508,476;   -1,086;   -0,045
778,110;  547,300;   -1,268;   -0,045
778,677;  421,398;   -2,359;   -0,864
779,244;  505,859;    2,186;    1,045
779,812;  660,684;    1,823;    0,864
780,379;  747,963;    0,005;    1,136
780,946;  610,424;    1,005;   -0,773
781,513;  515,612;   -1,450;    0,318
782,080;  493,073;   -0,086;    2,864
782,647;  518,716;   -0,268;    3,045
783,214;  501,723;   -0,177;    3,864
783,781;  711,365;   -0,723;   -0,682
784,348;  645,463;   -0,632;    1,500
784,915;  433,560;   -3,177;    0,318
785,482;  669,567;    1,368;    2,591
786,049;  585,392;    0,186;   -0,591
786,615;  465,398;    0,277;   -0,955
787,182;  432,950;    0,186;   -0,682
787,749;  401,320;   -2,814;    1,409
788,315;  642,509;   -1,632;   -0,409
788,882;  514,697;    1,550;   -1,227
789,448;  810,158;    1,732;   -0,955
790,015;  571,710;    1,095;    3,227
790,581;  754,898;    1,459;    0,227
791,148;  580,087;    0,641;    1,045
791,714;  458,093;   -0,541;    3,136
792,280;  470,827;    0,186;    1,591
792,847;  420,288;    0,550;    2,500
793,413;  509,749;   -0,269;   -0,318
793,979;  720,119;    3,459;   -1,318
794,545; 1006,853;    4,459;    2,682
795,111;  882,314;    2,186;    1,318
795,678;  733,411;    0,731;   -1,682
796,244;  889,054;    3,368;    0,136
796,810;  738,515;    1,731;    0,773
797,375;  734,886;    0,549;   -2,136
797,941;  413,983;   -0,541;    0,591
798,507;  427,353;   -0,451;   -0,955
799,073;  466,723;   -0,360;    0,591
799,639;  456,821;   -2,632;    3,136
800,205;  414,918;    0,095;    2,682
800,770;  457,106;    0,640;    1,773
801,336;  469,113;    1,368;   -0,955
801,901; 1073,029;    4,549;    3,136
802,467;  715,399;   -0,542;    2,045
803,033;  496,860;   -0,087;    0,864
803,598;  494,230;    1,913;   -1,045
804,163;  499,600;    1,095;   -0,318
804,729;  598,061;   -0,178;    1,136
805,294;  495,795;    0,822;    2,227
805,859;  437,529;    0,731;   -0,409
806,425;  822,717;    1,186;    2,682
806,990;  803,269;    2,186;    4,318
807,555;  554,094;   -1,451;    2,591
808,120;  707,646;    0,822;   -0,409
808,685;  500,834;    0,185;   -2,500
809,250;  408,750;    0,004;   -0,500
809,815;  393,302;    1,913;    0,682
810,380;  526,763;   -0,269;    1,591
810,945;  709,860;   -1,087;    2,045
811,510;  531,867;    2,094;    1,591
812,075;  595,510;   -0,633;   -1,409
812,640;  831,516;    2,003;    1,409
813,204;  581,250;    0,822;   -0,227
813,769;  727,347;    2,094;   -0,045
814,334;  722,172;    0,458;    0,864
814,898;  441,633;    0,367;    0,591
815,463;  553,003;    1,276;   -0,773
816,027;  493,919;   -0,724;   -2,318
816,592;  415,289;    0,640;   -2,045
817,156;  599,750;    2,094;    1,136
817,721;  721,847;    4,276;    2,318
818,285;  451,399;    2,912;    1,500
818,849;  511,860;   -1,451;    1,682
819,414;  440,776;   -0,269;    2,955
819,978;  390,510;   -1,269;    1,773
820,542;  669,607;    2,003;    0,500
821,106;  504,068;   -0,815;    0,682
821,670;  725,075;   -0,815;    2,591
822,234;  495,536;   -0,270;    1,409
822,798;  395,270;    0,003;    0,500
823,362;  634,549;   -0,633;    4,227
823,926;  484,101;    0,094;    1,136
824,490;  672,744;   -0,997;   -0,682
825,054;  542,841;   -0,088;   -1,136
825,618;  442,484;   -1,542;   -1,500
826,181;  500,945;    0,458;   -1,318
826,745;  609,224;    1,367;   -1,045
827,309;  811,504;    1,185;    1,318
827,872;  676,965;    1,367;    0,955
828,436;  558,517;    1,185;   -0,773
828,999;  456,614;   -0,997;    1,227
829,563;  437,802;   -0,179;    1,136
830,126;  420,173;   -0,179;   -0,591
830,690;  535,270;   -1,997;    2,864
831,253;  451,731;   -0,543;    2,227
831,816;  499,283;   -1,906;    0,500
832,380;  459,653;    0,185;    0,864
832,943;  428,478;   -1,361;   -0,500
833,506;  443,394;    2,639;   -1,227
834,069;  590,855;    3,912;   -0,955
834,632;  427,497;    1,730;    1,318
835,195;  476,686;    1,003;    0,955
835,758;  416,783;   -0,997;    1,955
836,321;  436,426;    0,730;   -1,045
836,884;  401,887;   -0,725;   -0,955
837,447;  346,621;   -2,816;    1,773
838,010;  537,991;    0,366;    3,227
838,573;  530,816;   -1,179;    0,773
839,135;  390,368;   -1,361;   -0,955
839,698;  470,829;    1,275;    0,409
840,261;  412,108;    1,003;   -0,227
840,823;  371,206;   -0,543;    0,864
841,386;  350,939;   -0,452;   -2,409
841,948;  662,491;   -1,361;    1,773
842,511;  448,771;    0,912;    1,682
843,073;  636,323;    1,912;    0,227
843,636;  397,238;   -0,361;   -0,227
844,198;  614,972;    0,911;    0,591
844,760;  569,342;    1,093;    1,955
845,322;  373,167;    0,548;    1,136
845,885;  515,628;    0,730;    0,591
846,447;  445,998;   -1,998;    0,227
847,009;  787,732;    1,911;   -0,682
847,571;  495,556;    0,820;   -2,045
848,133;  439,199;   -1,089;   -1,864
848,695;  306,751;   -0,543;    1,409
849,257;  386,940;   -1,089;   -1,682
849,819;  537,128;   -0,998;   -0,409
850,381;  406,407;   -0,725;   -0,864
850,942;  471,232;    1,093;   -0,591
851,504;  547,148;    1,184;    0,227
852,066;  408,700;    1,275;   -1,591
852,628;  437,888;   -0,180;    1,955
853,189;  340,985;    1,638;    2,682
853,751;  345,901;   -0,907;    1,409
854,312;  509,817;   -0,453;   -1,682
854,874;  638,368;   -2,089;   -0,773
855,435;  448,011;   -0,907;   -1,682
855,997;  481,109;   -1,816;   -0,136
856,558;  599,661;    0,366;    1,773
857,119;  505,849;    0,820;    2,864
857,681;  353,492;    0,002;    0,318
858,242;  629,498;    1,911;   -2,136
858,803;  578,323;    0,456;   -0,773
859,364;  452,239;    0,184;   -4,773
859,925;  533,973;   -2,453;   -0,955
860,486;  407,888;   -0,453;   -0,955
861,047;  355,077;   -0,544;   -1,227
861,608;  400,901;   -1,089;   -0,773
862,169;  262,999;    0,638;   -0,045
862,730;  404,823;    0,456;    1,409
863,291;  446,830;   -0,635;   -0,500
863,852;  416,291;   -0,635;    1,955
864,412;  422,025;   -0,271;   -0,864
864,973;  662,759;   -0,089;    0,500
865,534;  764,492;   -1,726;    0,227
866,094;  542,499;    1,820;    0,227
866,655;  682,324;    1,274;    3,318
867,215;  496,057;    0,274;    0,136
867,776;  348,518;    0,547;   -0,136
868,336;  440,343;   -1,453;    0,136
868,897;  812,441;    2,638;    1,682
869,457;  598,811;    1,365;    0,318
870,017;  385,181;    0,547;   -1,227
870,578;  379,642;   -0,817;    0,773
871,138;  474,194;   -2,089;   -0,955
871,698;  385,837;   -0,817;   -1,318
872,258;  510,389;   -0,453;   -2,864
872,818;  652,032;    2,729;    0,045
873,378;  467,765;    0,638;    1,045
873,938;  458,954;    0,547;    0,500
874,498;  360,324;    0,274;   -1,955
875,058;  462,421;    2,183;    1,773
875,618;  457,973;    1,910;   -2,682
876,177;  502,616;    1,274;    0,136
876,737;  335,077;   -0,090;    1,955
877,297;  688,447;    0,183;    1,955
877,856;  628,272;   -0,362;    0,318
878,416;  395,824;    1,183;   -0,136
878,976;  355,558;   -1,817;    0,409
879,535;  391,655;    0,092;    3,136
880,095;  382,571;   -0,544;    0,045
880,654;  330,214;   -1,090;    1,318
881,213;  628,038;    2,456;    1,500
881,773;  471,318;    2,637;    2,682
882,332;  937,870;    3,365;    5,136
882,891;  452,058;    3,092;    2,136
883,451;  442,337;   -1,272;    1,682
884,010;  410,980;   -2,908;   -0,409
884,569;  344,168;   -0,999;   -0,045
885,128;  518,084;    2,819;   -1,864
885,687;  742,454;    4,455;    0,682
886,246;  915,279;    1,455;    2,136
886,805;  728,285;    2,455;    2,045
887,364;  389,292;   -0,999;   -0,500
887,922;  318,298;   -1,181;    0,045
888,481;  517,214;   -1,545;    0,591
889,040;  584,039;    1,183;    2,136
889,599;  465,409;    2,455;    1,409
890,157;  463,688;    1,455;    2,409
890,716;  403,967;   -0,090;    0,227
891,274;  519,338;    0,092;   -1,136
891,833;  579,890;    1,546;    0,864
892,391;  474,351;   -0,454;    0,500
892,950;  555,539;    1,819;   -0,773
893,508;  365,182;    0,455;   -0,409
894,067;  300,279;    0,637;    0,136
894,625;  400,013;   -0,636;   -1,500
895,183;  363,929;   -0,363;   -0,682
895,741;  618,208;    1,728;   -1,773
896,299;  421,123;   -0,545;   -2,409
896,858;  373,039;    0,819;   -1,591
897,416;  506,773;    2,728;   -1,318
897,974;  426,961;    1,819;    0,318
898,532;  845,786;    6,091;    2,682
899,089;  569,611;    2,091;   -0,682
899,647;  463,799;   -1,454;    1,318
900,205;  462,078;    1,182;    1,045
900,763;  450,267;   -0,454;    0,227
901,321;  404,364;    2,364;   -1,409
901,878;  254,280;   -1,000;   -0,773
902,436;  343,195;   -1,363;    1,318
902,994;  995,384;    4,728;    3,682
903,551;  576,935;    0,728;    0,409
904,109;  446,851;    0,182;   -1,409
904,666;  415,585;    2,455;    1,045
905,224;  308,500;    0,182;   -0,409
905,781;  471,689;    0,727;   -0,318
906,338;  409,604;   -1,363;    1,045
906,895;  313,247;    0,637;    2,045
907,453;  560,799;    1,727;    1,136
908,010;  426,897;   -0,909;    0,409
908,567;  424,176;    1,273;    0,591
909,124;  276,364;    0,364;   -1,500
909,681;  337,916;   -2,909;    0,682
910,238;  363,196;    0,636;   -1,318
910,795;  269,929;   -0,273;   -1,136
911,352;  296,657;   -2,909;   -2,682
911,909;  336,384;   -1,364;   -0,864
912,466;  337,475;   -3,182;    1,500
913,022;  443,020;   -1,636;    0,500
913,579;  510,657;   -0,909;    2,045
914,136;  398,111;    1,636;    0,955
914,692;  392,020;    0,091;   -1,227
915,249;  424,929;    1,455;    0,409
915,806;  486,384;    0,182;    1,955
916,362;  387,475;    1,909;    1,864
916,918;  362,929;    2,000;    1,045
917,475;  487,838;   -1,182;    0,955
918,031;  337,202;    3,364;   -0,045
918,587;  404,475;   -0,909;   -0,318
919,144;  327,929;   -2,273;    0,227
919,700;  257,293;    1,727;    0,773
920,256;  264,566;    0,727;    0,045
920,812;  327,929;   -0,727;   -1,045
921,368;  292,475;   -1,727;   -1,045
921,924;  320,566;    0,182;   -0,136
922,480;  407,293;   -0,545;    1,227
923,036;  402,111;    1,273;    1,955
923,592;  303,202;    0,455;    0,318
924,148;  324,566;    0,455;   -0,955
924,704;  458,020;   -1,364;   -0,409
925,259;  287,111;   -0,273;    0,591
925,815;  290,202;    1,455;    0,500
926,371;  265,747;    2,909;    1,409
926,926;  410,202;    2,091;    0,591
927,482;  385,838;   -1,364;    0,773
928,037;  318,202;    0,909;    2,045
928,593;  481,929;    1,636;    1,045
929,148;  286,838;   -1,818;   -1,500
929,704;  352,657;   -1,455;   -0,500
930,259;  289,293;    0,091;   -0,136
930,814;  455,929;   -0,818;    1,955
931,369;  396,747;    1,091;   -0,773
931,925;  251,111;   -0,091;    0,136
932,480;  337,202;   -2,818;   -2,591
933,035;  623,657;    0,545;   -0,318
933,590;  542,566;    0,364;   -1,773
934,145;  253,747;   -1,364;   -0,318
934,700;  172,111;    0,455;   -0,591
935,255;  226,657;   -0,091;    0,045
935,809;  506,202;    3,182;    0,864
936,364;  238,020;   -0,455;   -0,136
936,919;  225,747;    0,455;   -1,773
937,474;  172,657;    1,455;    0,136
938,028;  178,929;   -1,636;    1,136
938,583;  513,929;    1,818;    4,682
939,138;  256,202;    2,091;    2,136
939,692;  160,111;    1,636;   -1,136
940,247;  200,747;   -0,727;   -1,045
940,801;  225,566;   -0,636;    0,227
941,355;  158,657;   -0,364;    2,591
941,910;  113,929;   -0,273;   -2,136
942,464;  139,747;   -0,818;   -0,318
943,018;  305,929;    1,000;   -0,227
943,572;  198,293;    2,545;   -0,682
944,126;  258,384;    0,091;   -0,409
944,681;  169,566;    3,091;    0,227
945,235;  128,929;    1,000;   -0,591
945,789;  107,020;    0,364;   -1,864
946,342;  286,929;    0,455;   -0,591
946,896;  143,111;   -2,273;    0,955
947,450;  116,475;    1,545;   -0,227
948,004;  281,111;    1,727;   -0,045
948,558;  167,929;    0,273;   -0,864
949,111;  161,293;   -0,273;   -0,318
949,665;  276,475;    1,636;   -0,682
950,219;  259,566;   -0,091;   -1,045
950,772;  201,566;   -1,909;    1,864
951,326;  189,929;    0,545;   -0,955
951,879;  158,929;    0,727;   -2,318
952,433;  245,202;    0,000;    2,227
952,986;  143,929;    2,909;    0,682
953,539;  123,111;   -0,273;    0,591
954,093;   93,747;    0,545;   -1,318
954,646;  168,838;    0,909;    1,318
955,199;  117,020;    0,000;   -0,500
955,752;  275,475;   -0,455;    1,773
956,305;  168,929;   -0,091;    2,955
956,858;  197,384;    0,818;   -0,318
957,411;  227,747;   -0,545;    2,136
957,964;  185,566;    1,364;    2,136
958,517;  130,838;   -1,545;    3,136
959,070;  101,475;   -0,455;    1,955
959,623;  272,202;    1,091;    1,500
960,176;  236,838;    1,727;    2,045
960,728;  207,293;   -2,727;    0,773
961,281;  170,020;    0,545;    0,500
961,834;  123,657;   -0,909;    0,864
962,386;  133,475;    1,727;    1,045
962,939;  118,111;    0,364;   -0,318
963,491;  147,838;    0,455;    1,136
964,043;  109,838;    1,182;    2,409
964,596;  213,475;   -1,000;    2,227
965,148;  152,293;   -1,000;    1,773
965,700;  108,384;    1,091;   -0,227
966,253;  213,838;   -0,636;    0,318
966,805;  178,475;   -2,273;    0,773
967,357;  132,747;    1,091;   -1,500
967,909;  204,202;    0,455;   -1,227
968,461;  139,566;    0,545;    3,136
969,013;  111,384;   -0,182;   -0,864
969,565;  212,657;   -0,455;   -1,136
970,117;  353,657;   -0,364;    1,045
970,669;  214,111;    0,182;   -0,136
971,220;   91,384;   -0,455;   -1,500
971,772;  140,929;   -0,636;   -0,318
972,324;  193,929;    0,091;   -0,500
972,876;  128,657;    0,818;   -0,045
973,427;  201,838;    1,909;   -1,045
973,979;  254,475;   -0,727;   -2,500
974,530;  138,293;    1,818;    1,318
975,082;  178,747;   -0,545;    1,682
975,633;  141,202;    1,091;    1,682
976,184;  160,293;    0,909;    0,773
976,736;  156,384;    0,091;    0,227
977,287;  180,475;   -0,909;   -0,500
977,838;  151,566;    0,909;   -0,318
978,389;  143,384;   -1,000;   -0,500
978,940;   73,384;    0,545;   -0,409
979,491;   78,657;    0,091;   -0,500
980,042;  131,929;    0,182;    3,045
980,593;  147,747;   -2,545;    0,227
981,144;  198,020;    2,545;   -0,500
981,695;  199,929;    1,455;    1,500
982,246;  173,657;   -0,273;    1,045
982,797;  100,384;   -1,727;    0,682
983,347;  187,657;    0,364;    0,591
983,898;  316,566;    3,091;    0,409
984,449;  296,202;    2,182;    0,773
984,999;  191,293;    1,455;   -1,136
985,550;  166,566;    0,182;   -0,318
986,100;   94,111;   -0,455;   -0,318
986,651;   86,929;   -0,818;    0,045
987,201;  103,747;   -1,000;   -0,591
987,751;  110,293;    0,818;    2,864
988,302;  127,384;    2,636;    1,500
988,852;  165,657;    0,455;   -1,136
989,402;  197,657;    0,091;    0,682
989,952;  220,202;   -2,182;    0,864
990,502;  123,929;   -0,091;    0,682
991,052;   68,293;   -0,727;    0,045
991,602;   98,202;   -2,909;    1,318
992,152;  124,566;    0,455;    0,682
992,702;  148,475;    1,364;   -0,045
993,252;  113,111;   -3,000;   -0,500
993,802;  173,747;   -0,273;    1,318
994,352;  143,111;   -1,545;    1,136
994,901;   90,020;   -0,182;    3,227
995,451;   83,384;   -0,182;    0,318
996,000;  105,475;    1,636;    0,318
996,550;  109,475;    2,273;    0,227
997,100;  132,202;    1,273;   -0,045
997,649;  206,747;    2,182;    0,955
998,198;  111,566;    1,727;   -1,500
998,748;  170,838;    1,091;   -2,318
999,297;  136,202;   -0,818;   -0,409
999,846;  204,475;    1,000;   -0,773
1000,395;  148,293;   -0,818;    0,500
1000,945;  214,657;    1,818;   -0,773
1001,494;  210,566;    2,364;    0,682
1002,043;  210,384;    4,636;    0,864
1002,592;  113,384;   -1,091;    1,955
1003,141;  100,020;   -0,455;   -0,682
1003,690;  200,020;    1,727;    0,500
1004,238;  130,747;    1,455;   -0,045
1004,787;   88,111;    1,364;    1,227
1005,336;  178,838;    0,364;    0,682
1005,885;  149,475;    1,364;   -2,773
1006,433;  143,838;    0,545;    0,955
1006,982;  243,020;    0,455;    1,682
1007,531;  163,747;   -1,818;   -0,227
1008,079;  141,657;   -2,273;    0,500
1008,627;  113,747;   -1,455;    0,409
1009,176;  133,293;    0,000;   -1,955
1009,724;   98,202;    1,091;    0,864
1010,273;  181,657;    1,273;    0,500
1010,821;  109,747;    0,091;    1,409
1011,369;   92,020;   -1,364;    1,318
1011,917;   96,020;   -1,364;   -0,591
1012,465;  137,929;    1,273;   -1,591
1013,013;  133,657;    2,091;   -1,682
1013,561;  202,657;    0,455;   -0,773
1014,109;  253,566;   -1,909;    1,682
1014,657;  173,475;    0,364;    0,591
1015,205;  118,020;    1,636;   -0,955
1015,753;   93,475;   -0,545;   -1,409
1016,301;  132,838;   -2,636;    3,045
1016,848;  180,475;   -1,273;    0,409
1017,396;  167,747;    2,545;    0,045
1017,944;  158,838;    1,182;    1,864
1018,491;  124,293;    0,273;    1,409
1019,039;  294,020;    0,455;    0,591
1019,586;  156,838;   -1,364;    1,682
1020,134;  140,020;    0,455;    1,500
1020,681;  191,293;    0,182;   -1,136
1021,228;  148,111;    2,909;   -2,227
1021,776;  129,111;    1,182;   -1,136
1022,323;  259,384;    0,455;    0,773
1022,870;  201,838;   -1,000;   -0,045
1023,417;  227,020;    2,636;    1,864
1023,964;  135,475;    2,636;    1,227
1024,511;  112,838;    1,000;    0,773
1025,058;  147,020;    3,182;   -0,045
1025,605;  116,384;   -2,273;    3,136
1026,152;  238,838;    1,727;   -0,591
1026,699;  150,929;    1,818;    1,318
1027,245;  140,020;   -0,091;    0,318
1027,792;   96,293;   -1,000;    1,409
1028,339;  241,566;    2,364;   -0,045
1028,885;  156,657;    1,000;   -0,227
1029,432;  130,020;   -0,091;    0,227
1029,978;  181,202;   -1,000;   -1,591
1030,525;  191,293;    1,000;    0,409
1031,071;  113,747;   -1,364;    1,136
1031,618;  283,020;    0,364;    1,682
1032,164;  184,475;   -0,091;    3,045
1032,710;  204,475;    1,636;   -1,500
1033,256;  180,929;   -0,636;   -0,136
1033,803;  105,202;   -0,545;    1,500
1034,349;   36,838;   -1,364;    0,136
1034,895;   60,111;    0,000;   -0,318
1035,441;   99,657;   -0,818;    0,318
1035,987;  124,747;   -2,364;   -0,682
1036,533;  164,838;   -1,455;   -0,955
1037,078;  291,202;    1,455;    1,682
1037,624;  196,475;    2,455;   -0,955
1038,170;  115,111;    0,455;   -0,318
1038,716;  167,384;    1,636;   -0,409
1039,261;  103,657;   -2,273;   -0,773
1039,807;  111,293;   -0,091;    3,409
1040,352;  119,202;   -1,909;   -0,318
1040,898;  112,111;   -1,545;   -0,682
1041,443;   84,475;   -1,455;   -2,591
1041,989;  266,020;    1,091;    1,591
1042,534;  148,020;   -0,364;    2,591
1043,079;   80,020;    2,909;    0,955
1043,625;  130,566;    1,818;    0,500
1044,170;  138,384;   -1,364;    1,045
1044,715;  262,384;    2,455;    0,955
1045,260;  198,657;    2,182;   -0,955
1045,805;  109,475;    1,182;   -0,591
1046,350;   93,111;    1,364;   -0,409
1046,895;  200,293;    2,909;    1,591
1047,440;  185,293;    5,364;    0,409
1047,985;  119,657;    2,818;   -0,955
1048,530;  104,929;    1,545;    1,227
1049,074;  131,384;    0,000;    0,318
1049,619;  102,384;   -1,364;    1,955
1050,164;   96,566;    0,455;    0,227
1050,708;  158,475;   -0,455;    0,045
1051,253;  289,384;    1,273;   -2,227
1051,797;  167,657;    0,818;   -1,318
1052,342;   83,020;   -1,182;    1,045
1052,886;  127,293;    0,364;   -1,409
1053,430;   76,475;   -1,364;    0,136
1053,975;  132,657;   -0,818;   -0,318
1054,519;  125,475;   -0,727;    3,227
1055,063;  159,202;    0,909;    1,318
1055,607;  156,293;   -0,182;    0,227
1056,151;  148,020;    2,909;    1,682
1056,695;  108,475;    2,273;   -1,136
1057,239;  103,475;   -1,727;   -0,682
1057,783;  128,384;    0,818;   -1,500
1058,327;  170,475;    0,000;    1,409
1058,871;  254,384;   -0,545;    1,318
1059,415;  178,657;   -0,818;   -0,045
1059,958;  263,111;    1,455;    2,591
1060,502;  115,020;   -1,000;   -0,773
1061,046;   72,475;    0,364;   -0,955
1061,589;   72,020;   -3,000;   -1,136
1062,133;   59,838;   -1,273;    1,864
1062,676;   84,384;    1,182;    0,864
1063,220;   98,293;    1,091;    0,500
1063,763;  118,747;    0,909;    1,136
1064,306;  121,929;   -0,909;    1,864
1064,849;  126,747;   -0,909;    0,591
1065,393;  112,838;    2,000;   -1,500
1065,936;  115,657;    0,182;   -0,409
1066,479;   80,566;   -1,455;    1,318
1067,022;   91,293;   -0,273;   -0,227
1067,565;   81,475;   -0,091;   -1,318
1068,108;   69,838;    0,727;   -0,591
1068,651;   54,475;   -0,636;    1,409
1069,194;   57,838;   -0,455;   -1,682
1069,736;   64,838;   -1,273;    0,955
1070,279;   60,293;   -1,364;   -0,500
1070,822;   99,384;   -2,000;   -0,318
1071,364;  169,384;   -0,364;    1,318
1071,907;   97,838;   -0,727;    3,227
1072,450;   29,202;    0,000;   -0,045
1072,992;   63,020;   -0,273;    3,136
1073,535;   94,293;    2,091;    2,136
1074,077;   62,838;   -0,727;    2,045
1074,619;   51,747;   -1,364;    0,591
1075,161;   72,838;   -1,091;    1,500
1075,704;  140,293;    1,545;    1,227
1076,246;   73,838;   -0,182;    0,682
1076,788;   45,020;   -0,364;    1,773
1077,330;   40,566;    1,273;    2,136
1077,872;   63,566;    0,909;    0,955
1078,414;  154,202;    2,727;    0,773
1078,956;   79,838;    1,273;   -0,227
1079,498;  141,747;    1,636;    0,318
1080,040;   76,747;    1,909;   -1,318
1080,581;   58,838;    1,636;   -0,318
1081,123;   35,020;    0,091;   -0,773
1081,665;   38,657;   -1,182;   -0,955
1082,206;  136,020;    1,364;   -0,500
1082,748;   85,657;    0,727;    2,045
1083,289;   44,384;   -2,000;    1,318
1083,831;   39,384;   -0,545;    0,227
1084,372;   62,566;    0,000;    0,591
1084,913;   64,657;    1,091;    0,864
1085,455;   42,566;   -1,909;   -2,045
1085,996;   33,202;   -2,273;    0,136
1086,537;   43,111;   -0,091;    0,864
1087,078;   55,202;   -0,909;   -2,136
1087,619;   84,657;   -1,273;    0,227
1088,160;   67,384;    0,000;    1,318
1088,701;   57,566;   -1,091;    0,682
1089,242;   46,202;    1,364;   -2,227
1089,783;   69,566;   -0,273;    1,409
1090,324;   53,747;    0,455;    0,682
1090,865;   38,293;    2,727;   -0,409
1091,405;   27,020;    0,727;    2,227
1091,946;   50,475;    0,182;   -0,955
1092,487;   28,475;    0,818;   -1,409
1093,027;   78,657;   -1,364;   -1,500
1093,568;   47,566;   -0,364;    1,227
1094,108;   55,020;    0,273;    1,773
1094,649;   45,475;   -1,182;    0,136
1095,189;   34,657;   -0,636;   -0,682
1095,729;   31,566;   -0,091;    0,955
1096,269;   30,747;    0,727;   -0,955
1096,810;   96,202;   -1,364;    0,500
1097,350;   64,929;    1,364;   -0,773
1097,890;   47,475;    0,364;    1,227
1098,430;  135,202;    2,364;    2,864
1098,970;   97,929;    2,182;    1,682
1099,510;   40,566;    0,545;   -2,318
1100,050;   32,111;    1,000;   -1,591
1100,589;   39,020;   -0,727;   -0,318
1101,129;   59,475;    0,818;   -0,955
1101,669;   96,293;    1,727;    2,136
1102,209;   62,384;   -0,091;    2,227
1102,748;   45,566;    0,000;    0,955
1103,288;   51,293;    1,273;   -1,227
1103,827;   44,475;    3,091;   -2,227
1104,367;   32,020;   -0,091;   -2,409
1104,906;   31,384;    1,364;   -1,136
1105,445;   55,475;    0,636;   -1,136
1105,985;   40,747;   -0,727;    1,500
1106,524;   45,838;   -1,727;   -0,682
1107,063;   40,747;   -2,727;    1,409
1107,602;   28,566;   -1,909;   -1,500
1108,141;   22,838;   -1,909;    1,500
1108,680;   49,747;   -3,455;   -0,591
1109,219;   40,293;   -0,909;   -0,500
1109,758;   35,747;    0,455;    0,682
1110,297;   34,202;    1,000;   -0,682
1110,836;   23,929;   -0,727;    0,955
1111,375;   30,020;   -2,545;    0,409
1111,913;   54,838;   -1,000;    0,773
1112,452;   42,657;   -0,273;    0,136
1112,991;   26,020;    1,091;    1,955
1113,529;   24,111;   -0,818;   -0,045
1114,068;   34,566;   -0,273;    2,955
1114,606;   20,202;   -0,364;   -0,955
1115,144;   48,293;   -1,273;    1,045
1115,683;   39,475;   -0,727;    0,318
1116,221;   51,566;   -0,455;   -0,864
1116,759;   31,566;    0,636;   -0,864
1117,297;   55,566;    0,000;    1,864
1117,836;   28,020;   -2,182;   -1,227
1118,374;   26,838;    0,182;   -0,682
1118,912;   34,020;    0,909;    2,682
1119,450;   31,838;    1,000;    0,864
1119,988;   28,929;    1,545;    2,136
1120,525;  168,020;    5,091;    3,318
1121,063;   78,657;    1,182;    1,864
1121,601;   30,111;   -0,909;   -1,227
1122,139;   23,747;   -0,727;   -2,045
1122,676;   68,657;   -0,727;    2,773
1123,214;   56,657;   -1,182;    4,409
1123,751;   21,747;    1,727;    2,227
1124,289;   36,929;   -0,091;   -0,409
1124,826;   28,293;    1,727;    0,227
1125,364;   13,929;    1,727;   -0,955
1125,901;   66,202;    1,182;    1,227
1126,438;   54,566;    0,818;    0,955
1126,975;   14,111;   -0,727;   -0,773
1127,513;   20,384;    0,273;    2,136
1128,050;   15,202;    1,636;   -0,682
1128,587;   27,657;    2,000;   -0,227
1129,124;   38,020;    0,091;    1,318
1129,661;   20,202;    0,273;    0,227
1130,198;   49,838;    1,636;    0,773
1130,734;   32,020;    0,182;    1,409
1131,271;   12,384;   -0,909;    0,864
1131,808;   43,475;    2,909;    3,045
1132,345;   22,929;    1,545;    0,318
1132,881;    5,020;   -1,545;   -1,864
1133,418;   24,657;    0,727;   -1,136
1133,954;   14,293;    2,455;   -2,682
1134,491;   25,747;    1,364;   -0,773
1135,027;   14,020;    2,364;    0,864
1135,564;   23,202;    0,273;    2,955
1136,100;   21,929;    0,364;    2,136
1136,636;   11,111;   -1,273;   -1,045
1137,172;   17,293;    0,000;   -1,045
1137,708;   11,020;   -1,364;   -1,045
1138,245;   10,566;    1,273;   -1,227
1138,781;    5,657;    1,091;   -3,318
1139,317;   11,838;    1,273;   -1,409
1139,852;   16,747;    3,091;    0,136
1140,388;   26,566;   -1,182;   -0,409
1140,924;   16,293;   -1,091;   -2,227
1141,460;    7,747;   -1,636;    0,136
1141,996;    2,202;   -1,364;    2,682
1142,531;    7,929;    1,364;    3,318
1143,067;   36,475;    1,182;    1,045
1143,602;   49,475;   -0,091;   -0,318
1144,138;   20,293;   -2,636;    1,045
1144,673;    5,838;   -1,455;    1,409
1145,209;   12,838;   -1,909;   -0,318
1145,744;    6,657;   -0,727;    0,864
1146,279;   20,475;    1,818;   -0,136
1146,815;   11,929;    1,545;   -2,682
1147,350;   18,111;   -1,364;    0,045
1147,885;    8,475;   -0,818;   -1,318
1148,420;    7,566;   -2,273;    0,773
1148,955;    5,838;   -1,727;    1,864
1149,490;    7,566;   -0,909;   -1,591
1150,025;    5,747;    0,455;   -1,773
1150,560;   19,566;    1,091;   -0,955
1151,094;   13,475;    1,455;   -0,591
1151,629;   10,202;    1,636;    0,864
1152,164;    8,202;    1,364;    1,318
1152,698;    4,293;   -0,182;   -0,136
1153,233;   -1,253;    0,091;   -0,682
1153,767;    2,657;   -3,000;   -2,318
1154,302;    8,747;   -1,455;    1,773
1154,836;   10,293;   -0,455;   -2,136
1155,371;   14,566;   -1,364;    3,682
1155,905;    8,384;   -0,636;    1,682
1156,439;    6,929;   -0,636;   -0,500
1156,973;   10,838;    0,364;    0,318
1157,507;    7,111;   -0,364;    0,682
1158,042;    7,384;   -0,727;    1,045
1158,576;    8,747;    0,182;    1,773
1159,110;   14,111;   -0,818;    2,409
1159,643;   10,747;    0,636;   -0,045
1160,177;    4,566;   -1,545;    1,500

