
Integration time [ms]:   0,040
Averaging Nr. [scans]: 11
Smoothing Nr. [pixels]: 0
Data measured with spectrometer [name]: 7318044SP
Wave   ;Sample   ;Dark     ;Reference
[nm]   ;[counts] ;[counts] ;[counts] 

186,757;   30,557;   31,551;    1,318
187,357;   28,663;   22,551;    0,955
187,958;   16,674;   15,460;   -1,591
188,558;   22,370;    8,915;   -1,227
189,159;   12,945;    6,733;   -4,500
189,759;    8,941;    7,278;   -3,591
190,360;    9,182;    2,824;   -2,136
190,960;    9,327;    2,915;   -4,136
191,560;   11,414;    3,189;   -6,591
192,161;   54,110;    4,372;   -3,500
192,761;   33,384;    4,010;   -3,227
193,361;   18,604;    1,556;   -3,773
193,962;   27,098;    2,010;   -2,682
194,562;    9,915;    1,189;   -3,955
195,162;    9,820;   -2,448;   -2,227
195,762;   31,352;   -3,176;   -0,045
196,362;   18,204;    1,370;   -2,500
196,963;    2,708;    2,006;   -0,864
197,563;   12,009;    1,551;   -0,955
198,163;    5,018;    0,096;   -0,682
198,763;    7,698;    1,733;   -0,500
199,363;   13,887;    3,096;   -0,500
199,963;    9,614;    0,369;    0,409
200,563;    6,470;    2,823;   -1,409
201,163;    4,426;    3,277;   -0,227
201,763;    7,866;    3,732;    0,318
202,363;    4,800;    1,459;    1,500
202,963;    6,574;    1,459;    1,045
203,563;   15,090;    0,277;    0,500
204,162;    4,828;    2,096;   -1,864
204,762;    6,132;    0,550;    0,591
205,362;    3,083;    3,004;    1,955
205,962;    3,059;    3,096;    1,955
206,562;    6,967;    1,823;    2,318
207,161;    4,889;   -0,087;    0,318
207,761;   20,695;    1,277;    2,409
208,361;    5,197;   -0,268;    1,409
208,960;    7,319;    0,459;    1,500
209,560;    4,140;    1,277;    1,591
210,160;   11,010;    0,550;    1,864
210,759;    6,255;    4,186;    1,227
211,359;    3,819;    1,459;    1,045
211,958;   25,382;    1,277;    2,045
212,558;   19,547;    1,732;    1,864
213,157;    8,311;    1,822;    1,500
213,757;   41,291;    3,822;   -0,227
214,356;   16,883;    1,277;   -0,409
214,956;   32,709;    3,095;    0,409
215,555;    7,759;    2,095;    2,136
216,154;    5,669;   -2,723;   -0,591
216,754;    2,391;    0,277;    0,773
217,353;    2,694;   -0,268;   -1,045
217,952;   -0,455;   -0,178;    0,318
218,552;    6,003;    1,368;   -0,773
219,151;    3,947;    0,277;    0,955
219,750;    3,366;    0,004;   -0,227
220,349;    1,016;   -0,451;    1,045
220,948;   11,146;   -1,360;    1,136
221,548;    3,804;    0,913;    1,227
222,147;    3,427;   -0,087;   -0,409
222,746;   10,774;   -0,451;   -0,955
223,345;    5,061;    0,731;    0,500
223,944;    3,643;   -0,451;    0,773
224,543;    5,879;    1,004;   -1,409
225,142;    1,935;    0,094;    0,136
225,741;    6,662;   -0,814;    1,045
226,340;    3,040;   -0,451;   -0,955
226,939;    8,058;   -0,996;   -0,136
227,538;    3,199;   -0,360;   -0,773
228,137;   11,852;   -0,814;    0,864
228,735;    5,849;   -0,541;    1,227
229,334;    2,116;   -0,905;   -0,227
229,933;   16,397;    0,459;    0,591
230,532;   10,726;    1,186;   -0,409
231,131;   16,250;    1,732;    0,318
231,729;   10,201;   -2,450;   -2,318
232,328;    5,191;   -0,723;   -1,500
232,927;    4,414;    1,004;   -0,500
233,525;    6,443;    3,640;    0,045
234,124;    6,362;    2,368;   -1,591
234,723;    2,839;    0,913;   -1,045
235,321;    4,247;    2,277;    0,136
235,920;    6,476;    1,186;   -1,227
236,518;   14,612;    3,459;    0,318
237,117;    4,260;    0,004;   -0,227
237,715;    4,482;    0,640;   -0,500
238,314;    6,189;   -0,087;   -2,318
238,912;   12,099;   -0,723;   -1,409
239,510;    6,543;    0,459;   -1,227
240,109;   13,210;    0,004;    3,773
240,707;   10,405;   -0,996;    1,227
241,305;    3,153;    0,550;    0,136
241,904;    4,972;   -0,178;   -2,045
242,502;   21,707;   -0,632;   -0,227
243,100;    7,113;   -0,087;   -0,955
243,698;    3,880;    0,732;    1,682
244,297;    4,301;   -0,632;    0,682
244,895;    5,059;   -0,269;   -2,318
245,493;   12,451;    2,186;   -0,591
246,091;   18,256;    1,368;   -1,318
246,689;    8,799;    1,004;    0,591
247,287;    5,068;    0,822;   -1,136
247,885;    1,852;   -1,451;    1,227
248,483;    3,701;    1,822;   -0,500
249,081;    7,905;    0,185;    1,591
249,679;    5,440;   -0,178;    1,682
250,277;    2,832;   -1,723;    0,864
250,875;    7,025;   -1,087;   -1,045
251,473;    2,628;   -1,178;    0,500
252,071;   12,610;    1,459;    1,045
252,669;    5,825;   -1,814;    0,318
253,267;   -0,625;   -0,087;    0,773
253,864;    0,886;   -0,360;    0,682
254,462;    8,207;    1,640;    1,591
255,060;    1,920;   -0,269;    1,318
255,658;    5,097;    0,822;   -0,136
256,255;    5,156;    0,186;   -2,045
256,853;    4,852;   -0,269;    1,409
257,451;   -2,010;    0,822;    1,864
258,048;   28,976;    1,822;    1,864
258,646;   11,568;    1,731;   -1,045
259,243;   16,034;   -0,087;    2,227
259,841;   12,463;   -0,814;    0,318
260,438;    7,036;   -0,087;    0,864
261,036;    9,487;   -1,905;    1,409
261,633;    5,103;   -0,087;    2,227
262,231;    0,362;    2,731;   -0,045
262,828;    0,376;   -0,905;    1,136
263,425;    1,698;    0,913;   -0,591
264,023;    1,557;    0,186;    0,045
264,620;    5,199;   -0,360;   -0,318
265,217;    8,918;   -2,087;    3,136
265,815;    1,535;   -1,905;    2,136
266,412;    7,469;    0,731;    0,136
267,009;    4,442;   -1,451;    0,773
267,606;   11,659;    0,822;   -0,955
268,203;    5,408;   -0,269;   -0,591
268,801;    1,277;    1,731;    0,591
269,398;    0,680;   -0,360;    2,500
269,995;    5,558;    0,277;    1,591
270,592;    4,936;   -0,632;   -0,500
271,189;    4,226;    0,186;    0,409
271,786;    3,247;   -0,632;    1,227
272,383;    6,129;   -1,087;    0,227
272,980;    3,629;    0,277;    0,318
273,577;    1,083;    0,004;    1,227
274,174;    3,550;    0,822;    2,591
274,771;    5,915;   -0,814;   -0,773
275,367;   34,171;    2,277;    1,409
275,964;   14,207;    0,731;   -0,500
276,561;    5,378;    1,549;   -1,045
277,158;    1,713;    0,095;   -1,773
277,755;   11,996;    2,185;    0,409
278,351;    8,020;   -0,451;   -1,500
278,948;    6,083;   -0,815;    0,045
279,545;    5,323;   -1,360;    2,318
280,141;    7,797;   -1,723;   -2,045
280,738;   11,637;   -0,451;   -0,136
281,334;    1,952;   -1,633;    0,591
281,931;    0,318;   -0,087;   -1,318
282,528;    4,850;    0,822;   -0,500
283,124;   10,480;   -1,087;   -0,500
283,721;    7,306;   -0,451;    1,409
284,317;    4,595;    0,185;    2,500
284,913;   10,220;   -1,360;    0,591
285,510;    7,947;    0,640;   -0,318
286,106;   10,000;   -2,269;   -0,955
286,703;    5,801;   -0,360;    1,955
287,299;    1,736;   -1,451;   -0,591
287,895;    1,836;    0,822;   -1,045
288,491;    0,952;    0,186;    2,136
289,088;    4,159;   -2,360;    2,409
289,684;    5,370;   -1,723;    1,500
290,280;    8,334;    0,368;    0,682
290,876;    6,377;    1,822;    5,500
291,472;    6,804;    1,276;    2,227
292,068;    7,188;    1,367;    0,227
292,665;    2,645;    2,095;    0,773
293,261;    3,686;    0,276;    2,136
293,857;    5,965;    2,913;    2,136
294,453;    2,939;    3,550;    0,955
295,049;   12,422;   -0,268;    1,955
295,644;    8,136;    0,095;    0,136
296,240;    2,724;   -0,905;   -0,136
296,836;    3,480;   -0,995;    0,318
297,432;    7,975;    1,096;   -0,500
298,028;    5,613;    0,732;    0,773
298,624;    3,943;    1,459;    1,864
299,220;    5,916;    2,368;    0,591
299,815;    4,316;    1,005;   -0,409
300,411;    6,149;    0,914;    1,773
301,007;    2,241;    1,368;    0,227
301,602;    2,848;   -0,541;   -2,318
302,198;    9,213;    0,732;   -0,773
302,794;    3,998;    1,187;   -0,500
303,389;    1,643;   -1,177;    1,045
303,985;    3,377;    0,550;    1,409
304,580;   14,631;    1,459;    1,591
305,176;    6,330;   -3,086;    0,136
305,771;    0,720;   -1,268;   -1,227
306,367;   28,648;    4,095;    0,136
306,962;    8,303;    0,641;    1,500
307,558;   10,573;   -0,450;    0,136
308,153;    6,515;    1,095;   -1,136
308,748;    2,951;   -0,814;    1,682
309,344;   17,194;   -0,632;   -1,318
309,939;   13,261;   -1,905;   -1,318
310,534;    4,455;   -0,086;   -1,682
311,130;    1,956;    0,459;   -2,500
311,725;    3,251;    1,004;   -0,500
312,320;    5,216;    2,459;    0,045
312,915;    5,276;    1,459;   -1,045
313,510;   15,800;    1,550;   -0,500
314,105;    4,616;    1,096;    1,409
314,700;    1,275;   -3,086;   -1,045
315,295;    3,813;   -0,904;    0,045
315,890;    0,206;    1,277;    0,864
316,485;    5,711;   -0,359;   -0,318
317,080;    0,035;   -3,086;    1,591
317,675;   14,583;    2,005;   -0,682
318,270;   40,863;    5,550;    3,318
318,865;   17,679;    3,278;    3,045
319,460;    9,483;   -0,904;    0,591
320,055;    5,016;   -0,541;   -1,227
320,650;    4,183;   -1,995;   -0,591
321,244;    2,030;   -0,177;   -1,409
321,839;    0,556;   -1,541;   -0,227
322,434;    3,944;   -1,086;   -1,591
323,029;    3,060;    1,732;    1,591
323,623;    2,042;    1,550;    0,773
324,218;   14,222;    2,368;    1,409
324,812;    8,819;    1,096;    1,591
325,407;    4,392;   -0,814;    2,045
326,002;   17,852;    0,277;   -0,409
326,596;   10,903;    0,914;    1,318
327,191;    3,565;    0,823;   -1,045
327,785;    3,539;   -0,813;   -0,227
328,379;    3,202;    1,368;    0,136
328,974;    4,021;    0,914;   -3,955
329,568;    5,459;    0,186;   -2,409
330,163;   11,430;    2,096;    1,045
330,757;    5,901;    2,459;    1,591
331,351;    2,143;    0,459;    0,682
331,945;    2,449;    0,914;    1,409
332,540;    7,419;   -1,723;   -0,591
333,134;    6,360;   -1,086;    0,773
333,728;    5,236;    0,005;    0,318
334,322;    4,834;   -1,177;   -0,864
334,916;    4,209;    0,277;    0,955
335,510;   11,320;   -0,450;   -0,136
336,105;    6,565;   -1,086;    1,591
336,699;    2,427;   -1,086;    0,591
337,293;    5,293;   -1,723;    0,318
337,887;    3,217;   -2,723;    1,955
338,481;    6,326;    0,459;    0,591
339,074;   20,751;   -0,359;    2,682
339,668;   17,645;   -1,632;    1,227
340,262;   89,728;    1,732;    3,227
340,856;   34,145;    1,822;   -0,682
341,450;    6,806;    1,004;    1,864
342,044;   14,747;    1,459;    0,136
342,637;   21,301;    0,913;   -2,136
343,231;    9,356;   -2,360;    0,682
343,825;   11,061;   -1,086;   -0,591
344,419;   13,285;   -1,995;    0,500
345,012;  108,169;    2,459;    4,045
345,606;   61,151;    4,641;    1,591
346,199;   19,752;   -1,813;   -0,227
346,793;   36,282;    1,914;    2,045
347,386;   15,542;   -0,813;   -1,136
347,980;    7,794;   -0,268;   -0,045
348,573;   15,112;    2,278;    0,409
349,167;  102,333;    5,278;    4,773
349,760;   48,521;    2,914;    2,682
350,354;   43,298;   -0,813;    1,136
350,947;   47,176;    1,096;    1,682
351,540;   35,626;   -0,358;   -1,409
352,134;   15,158;    1,096;    1,136
352,727;   12,871;   -0,086;    1,136
353,320;   15,173;    0,005;    0,591
353,913;    8,100;   -1,995;    1,864
354,507;   44,933;    0,823;   -1,227
355,100;   19,370;    0,460;    0,864
355,693;  148,993;    2,005;    2,409
356,286;   71,519;    0,823;    2,773
356,879;   31,618;   -0,722;    1,227
357,472;   36,082;   -0,904;    1,500
358,065;   38,581;   -0,722;    2,500
358,658;   16,615;   -0,540;    2,318
359,251;   15,348;   -1,631;   -0,591
359,844;   41,936;   -1,904;   -1,136
360,437;   52,011;   -2,995;    0,045
361,030;   24,165;    1,369;   -0,682
361,623;   28,817;    2,824;    0,318
362,215;   76,391;   -0,086;    2,045
362,808;   31,863;   -2,358;   -1,682
363,401;   21,520;   -2,449;    0,136
363,994;   73,676;   -0,631;   -1,500
364,586;   31,594;    0,824;   -1,500
365,179;   22,635;   -0,449;   -1,136
365,772;    4,736;   -1,995;    2,045
366,364;   20,846;    1,915;   -3,227
366,957;   28,625;    2,279;   -0,045
367,549;   17,319;    2,188;   -0,864
368,142;   22,521;    1,825;   -1,500
368,734;   14,653;    0,734;   -2,136
369,327;    4,236;    1,643;   -0,500
369,919;   14,596;   -1,538;    0,409
370,512;   14,915;   -1,083;   -0,500
371,104;   76,762;   -0,901;    1,591
371,696;   74,383;    1,191;   -0,955
372,289;   36,113;    0,373;    1,136
372,881;   21,701;   -2,080;    1,318
373,473;   10,255;   -2,170;    1,136
374,066;   15,035;   -0,169;    0,500
374,658;   11,389;    0,378;    1,136
375,250;    8,774;    0,653;   -1,409
375,842;   13,532;    0,473;   -0,045
376,434;    4,345;   -0,435;   -0,409
377,026;    5,410;    0,204;   -2,500
377,618;   16,052;   -0,158;   -0,682
378,210;    9,413;   -0,338;   -1,955
378,802;   12,779;    0,754;   -0,591
379,394;   89,318;    1,846;    0,682
379,986;   38,585;    1,393;   -0,955
380,578;   12,596;   -0,153;    0,773
381,170;   66,417;   -0,972;    0,045
381,762;   43,873;    0,755;    1,409
382,354;   25,480;   -0,065;   -1,318
382,945;   16,550;   -2,976;    0,318
383,537;    6,404;   -2,705;   -1,955
384,129;    3,590;   -2,160;   -1,136
384,721;   20,296;   -0,252;    0,955
385,312;   15,953;   -0,161;   -0,955
385,904;   25,867;   -2,706;    1,591
386,496;   16,680;   -0,979;    1,045
387,087;   50,234;    1,022;    2,500
387,679;   31,152;   -1,160;    0,045
388,270;   21,360;    2,840;    2,045
388,862;   22,588;    1,295;   -0,318
389,453;   22,469;   -0,887;    1,045
390,045;   20,649;   -0,705;   -2,682
390,636;    2,754;    0,204;   -0,591
391,227;   13,668;   -0,523;   -0,045
391,819;    7,898;    0,204;    0,773
392,410;   68,329;    1,022;    0,045
393,001;   23,622;   -0,979;   -1,591
393,593;   25,756;    1,930;   -0,045
394,184;   29,173;    1,385;   -0,409
394,775;   15,268;    1,839;    2,136
395,366;    6,892;    1,385;    0,773
395,957;   20,881;    0,113;    0,136
396,548;   10,137;   -0,342;    2,682
397,139;   27,569;   -2,433;    0,591
397,730;   15,886;   -1,888;    0,955
398,321;   20,408;   -1,252;    0,955
398,912;   13,250;   -0,615;    0,136
399,503;   12,427;   -3,524;   -1,409
400,094;   12,655;    0,294;    1,682
400,685;   14,943;   -0,433;    0,045
401,276;   12,102;    0,930;   -0,955
401,867;    6,974;   -0,888;    0,773
402,458;    1,914;   -2,251;   -2,318
403,048;   22,085;    1,112;    0,591
403,639;   14,088;    0,840;    0,864
404,230;   32,910;    2,476;    0,318
404,821;   43,245;   -0,615;    0,045
405,411;   27,115;    1,203;   -2,591
406,002;    9,637;   -1,252;   -1,136
406,592;   60,253;    2,294;    0,045
407,183;   29,166;    0,566;   -1,500
407,774;   25,855;    3,475;   -0,136
408,364;   12,011;    0,930;    0,409
408,954;   30,223;    0,384;    1,227
409,545;   28,214;    1,021;    1,045
410,135;   25,203;    1,293;    0,500
410,726;   11,982;    1,838;    0,318
411,316;   47,061;    0,111;    0,773
411,906;   20,488;   -0,253;   -0,409
412,497;   19,202;   -1,070;   -0,045
413,087;    8,482;   -1,980;   -0,227
413,677;    3,619;   -0,707;    3,864
414,267;    0,516;    0,656;    1,409
414,857;    2,260;   -2,980;    4,227
415,448;    0,952;    0,839;    0,500
416,038;    0,967;    0,020;   -0,591
416,628;    5,611;   -0,889;    0,409
417,218;   11,286;    0,565;    3,318
417,808;   36,575;    0,202;   -0,409
418,398;   17,306;    0,020;    2,682
418,988;    4,229;    2,020;    0,591
419,578;   20,999;   -0,707;    1,409
420,168;   10,311;   -1,343;   -0,955
420,757;   20,225;   -1,343;   -1,500
421,347;    4,018;    0,111;   -0,227
421,937;    2,829;    2,292;    1,409
422,527;   18,866;    0,838;   -0,773
423,116;   47,395;   -0,253;   -0,045
423,706;    9,159;   -1,889;    0,318
424,296;    2,062;    1,384;    0,682
424,885;   14,335;   -0,071;   -3,045
425,475;   12,832;    1,474;   -2,864
426,065;    3,191;   -0,980;   -0,318
426,654;    1,763;   -0,435;   -0,318
427,244;   29,935;    0,020;    1,409
427,833;   19,097;    1,383;   -0,500
428,423;    8,822;   -0,526;    1,136
429,012;    6,444;   -0,344;   -1,136
429,601;   20,121;   -1,344;    0,136
430,191;    7,866;    1,292;    4,318
430,780;    2,281;   -0,344;   -0,409
431,369;   21,851;    0,746;   -0,045
431,959;    7,048;   -1,254;    0,500
432,548;    2,694;   -1,163;   -0,045
433,137;   -4,909;   -1,254;   -1,318
433,726;    4,339;    0,292;    0,500
434,315;    7,272;   -0,526;    2,409
434,905;   21,478;   -1,254;    1,409
435,494;   15,876;    0,746;    0,955
436,083;    3,443;   -0,981;   -0,955
436,672;   15,295;    0,110;    0,500
437,261;   10,265;    0,292;   -1,955
437,850;   31,327;    1,383;    0,682
438,439;   41,067;    3,291;    1,955
439,027;   72,272;    3,655;    1,773
439,616;   42,784;    2,927;    1,227
440,205;   10,820;    0,200;   -2,136
440,794;    5,798;    2,109;   -0,045
441,383;    5,413;   -1,346;   -0,591
441,971;    3,857;   -2,436;    0,591
442,560;    3,835;    0,563;   -1,773
443,149;   -1,729;    0,379;   -1,318
443,737;   -1,222;   -0,074;   -2,318
444,326;    3,298;    0,018;    0,318
444,915;    9,285;   -1,982;    0,864
445,503;    7,435;   -2,891;   -0,318
446,092;   71,731;    0,382;    2,136
446,680;   46,046;    0,382;    0,318
447,269;   15,343;   -0,346;   -0,318
447,857;   14,491;    0,018;   -1,773
448,445;   11,693;    0,563;    1,318
449,034;    3,314;   -1,528;   -1,136
449,622;    6,226;   -1,073;    3,500
450,210;   37,984;    2,017;    2,227
450,799;   24,549;    0,290;   -0,591
451,387;   25,027;    1,381;   -0,591
451,975;   20,905;    2,654;    0,864
452,563;   30,671;    3,472;    2,318
453,151;    9,844;   -0,528;   -1,227
453,739;    6,960;   -1,347;    0,136
454,328;   19,467;    2,381;   -2,136
454,916;   15,332;    2,562;   -0,136
455,504;   20,836;    1,017;    1,227
456,092;    6,800;    0,017;   -1,591
456,679;    7,262;    1,472;    0,682
457,267;   75,773;    4,017;    1,045
457,855;   23,352;    1,017;    1,409
458,443;    0,692;   -0,165;    1,682
459,031;    9,104;    0,108;    2,409
459,619;    5,794;   -1,801;    2,864
460,206;    2,729;    0,835;    2,045
460,794;    1,588;   -2,983;   -0,227
461,382;    4,856;   -0,529;   -0,864
461,970;    6,036;    1,198;    1,864
462,557;   -0,514;   -0,711;   -0,682
463,145;    6,272;   -3,165;   -1,682
463,732;   48,362;    2,016;   -1,045
464,320;   15,159;   -0,075;   -3,045
464,907;   30,405;    2,743;   -0,773
465,495;   14,085;    0,743;   -1,227
466,082;    6,424;   -1,984;   -0,045
466,670;   12,253;   -2,529;    1,227
467,257;    4,736;   -1,711;    2,045
467,844;    9,581;   -0,075;    0,045
468,432;    7,957;    0,834;    3,500
469,019;    3,035;    0,925;   -1,773
469,606;   21,443;    0,470;    3,682
470,193;   20,363;   -1,439;    0,227
470,780;   10,007;   -2,075;    0,864
471,368;    1,695;   -1,257;   -0,773
471,955;   13,488;    1,379;   -0,682
472,542;   10,835;    0,652;   -1,136
473,129;    3,686;   -0,166;    0,136
473,716;    2,847;    1,470;    0,591
474,303;    4,670;    0,652;   -0,864
474,890;    2,441;   -1,439;   -0,500
475,477;   19,113;   -1,621;    0,409
476,064;    7,741;    1,106;   -1,591
476,650;   26,031;    0,288;    0,318
477,237;    7,758;   -0,258;    0,955
477,824;    7,231;   -1,076;    0,864
478,411;   -1,326;   -1,894;   -0,318
478,997;   -1,897;    0,560;   -0,773
479,584;    1,550;    1,196;   -0,409
480,171;   12,334;   -0,440;   -0,773
480,757;   13,321;    2,651;    0,773
481,344;    1,066;    0,469;    0,409
481,931;   -0,251;    1,105;    1,045
482,517;    6,017;   -1,258;    0,318
483,104;   18,367;    1,106;    2,864
483,690;    6,467;   -1,804;    0,045
484,276;   -1,015;   -0,895;    0,227
484,863;   28,948;    2,469;    1,136
485,449;    9,945;   -0,077;    0,318
486,035;    2,321;   -1,986;   -0,136
486,622;   11,898;   -0,895;    0,045
487,208;    2,845;    1,378;    1,500
487,794;   -1,554;    0,741;    0,318
488,380;   -1,986;    0,105;   -1,409
488,967;   -2,512;   -1,168;   -0,409
489,553;   -2,647;   -1,895;   -1,409
490,139;    5,994;    1,559;    0,773
490,725;    1,008;    0,741;   -0,227
491,311;    5,538;    3,287;    3,045
491,897;    0,456;   -0,986;    1,500
492,483;    5,297;    0,105;    1,227
493,069;   77,921;    3,923;    0,864
493,655;   26,884;    1,650;    0,682
494,241;    5,597;    1,377;   -0,955
494,826;    7,077;    0,287;   -1,045
495,412;    9,169;    2,559;   -0,682
495,998;    1,313;   -0,805;   -0,318
496,584;    9,368;    0,377;    1,045
497,169;   14,762;    1,014;   -0,682
497,755;    5,500;    0,650;    1,227
498,341;   20,305;    0,559;    0,318
498,926;   38,895;    1,832;    1,955
499,512;    5,938;    1,286;    2,955
500,097;    1,750;    0,195;   -0,318
500,683;    6,171;   -0,350;    2,136
501,268;    3,268;   -0,169;   -0,955
501,854;    5,938;   -0,169;    1,227
502,439;    4,017;   -0,624;   -1,773
503,024;    1,869;    0,195;    0,500
503,610;    7,770;   -0,078;   -0,682
504,195;    2,075;    0,558;    1,955
504,780;   13,825;    2,922;    1,227
505,366;   33,081;    3,013;    2,864
505,951;   14,451;    0,740;    1,045
506,536;    5,526;   -3,260;   -3,682
507,121;   10,311;    0,285;   -0,318
507,706;    6,592;    2,376;    1,045
508,291;   -1,092;    2,649;    1,136
508,876;   -1,026;   -0,988;    2,591
509,461;    2,733;   -0,169;   -0,773
510,046;   13,086;    0,194;    0,318
510,631;   13,492;   -0,351;   -0,773
511,216;    2,985;    2,467;   -0,500
511,801;   12,260;   -0,442;    2,591
512,386;   10,605;    0,740;    0,500
512,971;   11,139;   -2,988;    0,955
513,555;   13,902;   -0,897;   -1,500
514,140;   10,650;   -0,442;   -3,136
514,725;   33,649;   -0,715;   -1,136
515,309;   14,814;   -0,533;    0,318
515,894;    7,083;   -0,624;   -2,227
516,479;   12,747;   -0,624;   -0,955
517,063;   12,631;    0,376;    1,227
517,648;    7,733;    1,012;   -1,136
518,232;    2,782;   -0,261;   -1,409
518,817;   22,423;   -0,079;    1,682
519,401;   50,496;    2,194;    0,591
519,985;   54,292;    1,103;    1,136
520,570;   23,707;    0,830;   -1,955
521,154;   47,928;    2,102;    0,591
521,738;  102,825;   -2,352;    2,409
522,323;   61,820;   -0,170;    1,682
522,907;   69,452;    0,466;   -0,136
523,491;   49,097;    0,557;    0,955
524,075;   52,465;    2,284;    0,591
524,659;  151,691;    1,466;    0,591
525,243;  143,794;    1,739;    0,409
525,827;  120,649;    0,648;   -0,045
526,411;  127,691;   -1,989;   -0,136
526,995;  198,264;   -0,352;    1,409
527,579;  248,005;   -0,443;   -1,045
528,163;  220,142;    0,375;   -1,500
528,747;  291,946;    2,466;   -0,773
529,331;  263,024;   -0,080;   -1,409
529,915;  171,058;    1,738;    0,955
530,499;  248,421;   -0,807;    1,227
531,082;  397,908;   -0,534;    1,591
531,666;  483,308;    1,374;    0,773
532,250;  391,224;    1,284;    2,682
532,833;  486,111;    0,920;    2,773
533,417;  363,026;   -1,807;    0,864
534,001;  486,627;    1,647;   -0,318
534,584;  419,142;    0,374;    0,500
535,168;  265,045;    0,465;    1,409
535,751;  602,039;    0,647;    0,045
536,334;  374,882;   -0,898;   -0,409
536,918;  231,966;    0,011;    1,591
537,501;  252,096;   -0,899;    1,318
538,085;  295,843;   -0,444;    1,045
538,668;  387,303;    0,829;    2,409
539,251;  660,762;    1,829;    3,773
539,834;  382,569;    0,101;    0,773
540,418;  506,013;   -1,990;    4,318
541,001;  684,353;   -0,990;    1,773
541,584;  464,394;    2,101;    2,227
542,167;  583,570;    1,374;    2,955
542,750;  409,233;    1,919;   -0,773
543,333;  287,417;    0,555;    2,136
543,916;  515,992;    0,192;    2,500
544,499;  448,110;   -1,354;    0,227
545,082;  531,299;    1,374;    3,591
545,665;  440,096;    1,919;    1,500
546,248;  569,962;    1,010;   -0,318
546,830;  543,947;   -0,445;    1,955
547,413;  501,466;    1,010;   -0,773
547,996;  475,774;    0,555;    0,500
548,579;  443,094;    0,919;    0,955
549,161;  673,920;    1,828;    2,682
549,744;  553,876;   -0,809;    0,409
550,326;  406,155;   -0,809;   -1,136
550,909;  884,557;    2,737;    0,591
551,492;  526,683;   -0,263;    0,227
552,074;  653,853;   -0,173;   -1,318
552,657;  679,401;    2,373;    0,045
553,239;  544,960;   -0,173;   -0,773
553,821;  414,813;   -1,082;    1,045
554,404;  673,397;    1,282;    1,136
554,986;  781,886;    0,464;    1,045
555,568;  615,900;    1,191;   -0,955
556,151;  822,268;    1,191;   -0,227
556,733;  500,417;   -0,264;   -0,864
557,315;  516,235;    0,100;    0,500
557,897;  395,132;    0,554;   -0,500
558,479;  406,956;   -1,991;    1,318
559,061;  497,950;   -0,719;   -0,864
559,643;  551,092;   -0,264;    0,045
560,225;  594,089;    1,645;    2,864
560,807;  438,910;    0,918;    0,318
561,389;  415,108;    0,554;    2,318
561,971;  506,579;    0,463;    2,136
562,553;  426,500;   -1,628;    1,591
563,135;  514,674;   -0,537;    1,136
563,717;  906,670;    3,372;    1,136
564,298;  800,518;    3,645;   -0,045
564,880;  556,820;    0,645;   -1,409
565,462;  380,911;    0,645;    1,318
566,043;  515,728;   -0,446;    2,318
566,625;  835,634;    1,918;    1,227
567,207;  643,321;    1,099;    1,682
567,788;  489,427;   -1,264;    1,500
568,370;  494,133;    1,917;   -0,500
568,951;  493,718;    0,190;    0,227
569,533;  602,900;   -0,628;   -0,500
570,114;  623,845;   -0,446;    0,682
570,695;  656,137;   -0,174;   -1,318
571,277;  629,535;   -0,265;   -1,682
571,858;  842,144;    2,008;   -1,136
572,439;  683,106;    1,554;   -1,045
573,021;  713,166;    2,099;   -2,773
573,602;  818,857;   -1,265;    0,318
574,183;  775,893;   -2,083;    2,227
574,764;  718,065;   -1,629;    0,409
575,345;  919,278;    0,917;   -0,136
575,926;  742,026;   -0,356;    0,136
576,507;  830,036;    1,099;   -0,227
577,088;  792,762;    3,099;    1,682
577,669;  972,633;    0,735;    1,955
578,250; 1158,347;    0,644;   -1,045
578,831;  943,625;   -1,356;   -2,227
579,412;  920,911;   -0,810;    0,955
579,993;  891,282;    1,008;    0,227
580,573;  816,831;   -0,629;   -0,955
581,154;  951,273;    0,735;   -0,591
581,735;  959,630;    0,644;    0,773
582,315; 1114,084;   -0,629;    2,136
582,896;  921,338;   -0,174;    1,227
583,477;  756,588;    0,189;    1,227
584,057;  894,463;    0,553;    0,955
584,638; 1018,827;    2,553;    2,318
585,218; 1261,366;   -0,538;    2,682
585,799; 1062,708;    0,281;   -0,227
586,379;  923,853;    0,372;    1,591
586,959;  885,895;    0,735;    0,318
587,540;  804,250;   -0,629;    2,227
588,120;  809,330;    1,007;   -0,045
588,700;  816,447;    2,553;    2,136
589,281; 1015,375;    0,462;   -0,955
589,861;  868,302;    0,099;   -1,682
590,441;  719,835;    2,371;   -2,682
591,021;  821,370;   -0,265;   -2,591
591,601;  776,834;   -0,537;    0,500
592,181;  752,824;   -0,719;   -0,773
592,761;  641,649;    0,007;    1,409
593,341;  762,073;   -0,901;    0,045
593,921;  785,034;   -0,265;    1,591
594,501;  667,987;   -0,538;    1,318
595,081;  673,757;    0,917;   -0,318
595,661;  754,878;   -1,447;    0,955
596,240;  684,744;   -0,537;    0,136
596,820; 1120,873;    0,372;    1,955
597,400;  811,961;    2,008;    0,773
597,980;  708,904;    2,008;    1,045
598,559;  662,771;    2,735;   -0,227
599,139;  642,151;   -0,174;   -1,227
599,718;  635,151;   -0,174;   -0,409
600,298;  634,044;    0,735;    0,682
600,877; 1148,004;    2,917;    1,409
601,457;  830,496;    2,281;    1,136
602,036;  702,013;    0,190;    2,045
602,616;  754,538;    0,644;    1,682
603,195;  879,403;   -0,355;    3,500
603,774;  946,055;   -0,901;    2,045
604,354;  873,423;    0,826;   -0,500
604,933;  801,008;    0,463;    1,864
605,512;  912,340;    3,554;    0,591
606,091;  907,382;   -0,537;    3,773
606,671;  841,953;    0,281;    0,773
607,250; 1022,413;    1,644;    3,136
607,829;  959,802;    2,372;    3,227
608,408;  802,830;    1,190;    2,591
608,987;  916,924;    1,281;    3,409
609,566;  731,699;   -1,265;   -2,500
610,145;  841,116;   -1,082;    0,682
610,723;  877,128;    4,372;    6,864
611,302;  785,716;   -0,446;    1,682
611,881; 1093,103;    5,008;   11,227
612,460;  786,929;    1,645;    3,955
613,039;  668,782;   -0,082;    2,045
613,617;  654,178;    1,736;    4,773
614,196;  680,020;    1,099;    1,227
614,775;  745,866;    1,009;    2,409
615,353;  804,289;    0,736;    0,864
615,932;  764,296;    0,100;    2,409
616,510;  751,500;    0,554;    0,591
617,089; 1280,576;    7,100;   17,591
617,667;  867,844;    2,372;    6,136
618,246;  622,539;   -1,537;    1,318
618,824;  697,276;   -3,355;   -0,955
619,402;  728,734;   -2,900;   -1,773
619,981;  790,424;   -0,173;   -1,045
620,559;  690,034;    0,009;    1,682
621,137;  710,141;   -0,718;    1,864
621,715;  608,881;   -1,173;   -0,682
622,293;  628,319;   -0,537;   -0,773
622,871;  647,962;   -0,718;    0,500
623,450;  586,533;    0,373;   -0,864
624,028;  800,850;    0,191;   -0,955
624,606;  757,638;   -1,718;    1,682
625,183;  554,234;   -1,536;   -1,136
625,761;  703,140;    1,009;    1,136
626,339; 1016,106;    1,373;    2,591
626,917;  650,535;   -0,172;   -0,045
627,495;  588,090;   -0,354;    1,318
628,073;  721,594;   -0,263;    2,864
628,650;  745,661;    0,100;    2,136
629,228;  741,068;    0,373;    4,409
629,806;  545,940;    2,282;    1,136
630,383;  606,891;    1,464;   -0,318
630,961;  606,850;    2,555;   -0,955
631,539;  659,702;    2,464;    0,227
632,116; 1389,213;   11,373;   15,409
632,694;  994,442;    2,555;    6,500
633,271;  818,807;    0,828;    2,682
633,848;  925,664;    1,828;    2,045
634,426;  642,232;   -1,081;    1,773
635,003;  508,038;    1,101;   -0,409
635,580;  939,481;    1,192;    3,682
636,158;  796,378;    3,737;    1,227
636,735;  601,898;    0,555;   -0,500
637,312;  591,950;   -0,809;   -0,682
637,889;  599,035;   -4,354;   -0,682
638,466;  578,101;   -3,990;   -0,409
639,043;  633,110;    2,101;   -1,136
639,620;  546,561;   -2,262;   -0,955
640,197;  686,378;    1,100;    1,682
640,774;  507,385;   -0,172;    1,136
641,351;  583,119;    0,737;    1,136
641,928;  782,853;   -0,627;    1,409
642,505;  907,679;    0,828;   -0,500
643,082;  715,777;   -1,718;    1,227
643,658;  579,511;   -0,718;    1,500
644,235;  565,518;    1,191;    2,500
644,812;  761,071;    1,918;    0,773
645,388;  741,714;   -0,991;    1,409
645,965;  516,085;   -0,809;    1,682
646,542;  526,455;   -1,445;   -0,227
647,118;  927,099;    1,009;   -0,955
647,695;  705,470;   -0,263;    1,136
648,271;  506,022;   -0,536;    0,500
648,848;  688,120;    0,736;    2,227
649,424;  821,854;    0,827;    1,318
650,000;  622,771;   -0,354;   -1,045
650,577;  654,050;   -0,627;   -0,955
651,153;  662,330;   -1,809;    0,955
651,729;  608,792;    1,191;    0,864
652,305;  990,072;    0,645;    2,773
652,881;  950,351;   -0,082;    1,136
653,458; 1102,359;    1,100;    0,227
654,034; 1224,547;    0,282;    1,591
654,610; 1376,645;    0,554;    0,773
655,186; 1894,016;    0,645;    3,045
655,762; 1407,660;   -0,991;    0,409
656,338; 1377,758;    0,100;    0,136
656,913; 1469,492;   -0,082;    0,409
657,489; 1232,954;    0,827;   -0,318
658,065; 1348,142;   -0,173;   -1,591
658,641; 1397,604;   -0,900;   -0,864
659,217; 1299,975;   -0,991;    0,409
659,792; 1427,527;    0,645;   -0,409
660,368; 1245,080;   -2,173;   -0,682
660,944; 1284,905;   -2,082;    1,227
661,519; 1153,639;   -0,628;    0,409
662,095;  846,192;   -1,719;    0,591
662,670;  663,926;    1,281;   -0,136
663,246;  570,570;    1,009;   -0,409
663,821;  748,031;    0,281;    1,682
664,396;  690,766;    0,009;    1,864
664,972;  602,864;    0,009;   -0,500
665,547;  672,598;    1,372;    0,136
666,122;  634,423;   -1,082;    0,318
666,698;  837,430;   -0,173;    0,318
667,273;  593,074;   -0,173;    0,136
667,848;  642,535;    2,372;    1,500
668,423;  813,997;    2,190;    2,318
668,998;  655,550;    2,827;   -0,682
669,573;  615,557;   -3,264;   -1,500
670,148;  816,291;   -1,446;   -0,682
670,723;  583,116;   -1,810;    0,318
671,298;  888,851;    2,372;    1,045
671,873;  788,039;   -0,082;   -0,136
672,448;  773,137;    0,645;    0,136
673,023;  762,781;   -1,992;   -0,227
673,597;  869,061;    0,827;    2,318
674,172;  918,795;   -0,355;    0,318
674,747;  816,711;    0,372;   -1,045
675,321;  569,082;   -0,628;    3,318
675,896;  508,998;    0,645;    1,045
676,471;  752,187;    2,645;    1,591
677,045;  671,103;   -1,264;    0,682
677,620;  760,201;    0,190;    1,136
678,194;  586,572;   -2,628;    1,136
678,769;  662,670;   -1,083;   -0,318
679,343;  723,768;   -0,628;    1,773
679,917;  854,866;   -1,446;    1,955
680,492;  687,691;    0,826;    3,227
681,066;  729,425;    3,372;    0,409
681,640;  656,432;    1,463;   -0,318
682,214;  678,621;    0,735;    0,500
682,788;  671,901;   -1,356;   -0,773
683,363;  825,726;   -1,810;    1,682
683,937;  700,734;   -1,719;   -0,318
684,511;  735,013;    0,463;   -0,591
685,085;  737,475;   -1,356;    0,318
685,659;  640,482;   -2,538;    0,864
686,232;  892,398;   -0,356;   -0,318
686,806;  764,042;   -0,901;    0,409
687,380;  645,140;   -0,174;    0,591
687,954;  586,965;   -1,174;    1,136
688,528;  928,517;   -0,719;    1,955
689,101;  749,252;   -3,992;    1,045
689,675;  631,713;   -0,356;   -0,136
690,249;  897,357;   -0,719;    0,409
690,822;  883,546;    0,280;    0,318
691,396;  764,098;   -0,265;    1,227
691,969;  677,560;    1,280;    0,136
692,543;  575,112;   -0,447;   -1,955
693,116;  553,483;   -0,265;   -1,409
693,690;  638,672;    0,099;    0,500
694,263;  583,588;   -1,083;    2,955
694,836;  958,686;    1,371;    3,591
695,410;  839,511;   -0,265;    1,773
695,983;  863,337;    0,189;    0,591
696,556;  642,980;   -0,447;   -1,045
697,129;  557,442;   -0,356;    1,409
697,703;  797,903;   -1,629;    1,955
698,276;  675,547;    1,462;   -0,773
698,849;  842,645;    1,280;    1,409
699,422;  605,288;   -1,083;    0,591
699,995;  495,204;    0,007;    0,136
700,568;  645,939;   -0,629;    3,045
701,140;  671,582;   -2,811;    1,682
701,713;  837,771;   -0,174;    2,409
702,286;  728,687;   -0,538;    0,864
702,859;  818,694;   -0,902;   -0,591
703,432;  896,610;    0,825;    0,682
704,004;  768,527;    0,462;    0,318
704,577;  639,534;   -0,629;    0,136
705,150;  695,723;    0,189;    2,500
705,722;  762,275;   -0,356;   -3,227
706,295;  828,646;   -0,175;   -0,591
706,867;  690,744;   -0,175;    1,955
707,440;  791,024;   -1,720;   -0,409
708,012;  867,031;    0,462;    0,591
708,584;  779,947;    2,462;    0,227
709,157;  546,408;    1,825;   -0,591
709,729;  786,506;    2,280;    2,045
710,301;  640,604;    0,734;    0,045
710,874;  654,521;   -1,447;   -0,227
711,446;  540,164;    0,371;    0,864
712,018;  615,626;    0,098;    0,500
712,590;  561,724;   -1,993;    1,682
713,162;  859,549;    0,825;    1,318
713,734;  633,011;    1,825;   -2,045
714,306;  545,745;   -1,902;   -0,409
714,878;  602,661;    0,825;    0,864
715,450;  555,123;    0,643;    0,864
716,022;  572,221;    1,552;    1,318
716,593;  557,410;    0,189;    0,591
717,165;  613,780;   -3,175;   -1,227
717,737;  890,424;    0,280;    0,409
718,309;  645,885;    0,280;   -0,045
718,880;  561,438;   -0,539;   -1,409
719,452;  634,263;   -0,175;   -1,591
720,024;  747,997;    0,734;   -0,591
720,595;  630,823;   -2,902;    0,955
721,167;  621,103;    0,370;   -2,045
721,738;  738,019;   -0,812;   -1,045
722,309;  888,753;   -0,993;   -1,227
722,881;  613,760;   -1,357;    0,773
723,452;  712,585;   -2,630;    2,864
724,023;  722,229;   -0,721;    2,682
724,595;  786,236;    0,007;    0,682
725,166;  637,788;    0,007;   -0,409
725,737;  854,523;    1,734;    0,227
726,308;  632,530;   -0,266;    0,318
726,879;  536,991;   -1,630;    1,227
727,450;  719,999;    0,552;   -0,045
728,021;  651,642;    3,097;    0,682
728,592;  826,285;    0,734;    0,500
729,163;  918,111;    0,643;   -0,136
729,734;  900,481;    0,188;   -0,227
730,305;  744,216;    1,734;    0,136
730,876;  703,859;    0,188;    2,955
731,447; 1040,957;    2,188;    2,682
732,017;  939,691;    1,097;    1,864
732,588;  722,971;    0,734;    1,227
733,159;  990,342;    0,643;   -1,045
733,729;  707,531;    0,006;    0,409
734,300;  873,083;    0,915;    0,864
734,870;  685,000;    3,461;    0,591
735,441;  667,098;    0,370;   -0,591
736,011;  655,014;    0,643;   -1,591
736,582;  673,384;   -0,812;    0,045
737,152;  812,846;   -1,721;   -2,045
737,722;  772,671;   -0,267;   -0,682
738,293;  609,497;   -1,358;    1,318
738,863;  804,776;    2,461;    2,318
739,433; 1078,874;    5,279;    0,318
740,003;  773,336;   -0,994;   -0,682
740,573;  911,707;    2,097;   -1,591
741,143;  775,987;   -1,085;    0,318
741,713;  673,175;    1,188;   -0,500
742,283;  748,819;    0,915;    1,591
742,853;  676,462;    1,915;    1,591
743,423;  493,197;    1,733;    0,045
743,993;  618,386;   -0,358;    1,500
744,563;  678,029;    0,097;   -0,864
745,133;  709,581;   -0,812;   -0,864
745,702;  577,498;   -0,267;    1,773
746,272;  802,232;   -0,176;    0,591
746,842;  818,875;   -1,358;   -0,591
747,411;  601,701;   -0,267;   -0,318
747,981;  498,162;    0,097;    0,500
748,551;  490,442;    2,278;   -1,045
749,120;  706,722;    0,642;   -0,227
749,690;  643,365;   -0,631;    2,409
750,259;  757,645;    1,369;    2,955
750,828;  819,470;    1,551;   -1,955
751,398;  579,296;    1,278;   -0,045
751,967; 1075,030;    2,187;    0,409
752,536;  702,673;   -0,813;   -0,227
753,105;  828,226;    0,096;    0,227
753,675;  657,142;    0,096;    1,773
754,244;  671,149;   -0,904;    3,591
754,813;  702,884;    0,551;    1,227
755,382;  663,072;    0,460;    0,955
755,951;  801,170;    1,551;    3,682
756,520;  907,905;   -0,085;    1,864
757,089; 1023,094;    0,278;    0,500
757,658;  746,464;    1,733;    1,227
758,227;  572,017;    1,096;    0,318
758,795;  634,842;    1,187;    1,136
759,364;  643,849;   -0,086;   -0,591
759,933;  579,038;   -1,176;   -0,045
760,501;  517,318;    0,733;   -1,318
761,070;  687,143;   -2,813;   -1,409
761,639;  646,150;   -1,904;    1,318
762,207;  777,157;    1,551;   -0,955
762,776;  819,255;    0,369;    0,864
763,344;  662,626;   -0,995;    0,591
763,913;  461,906;   -0,722;    1,409
764,481; 1009,640;    1,005;   -0,136
765,049; 1008,738;   -1,358;    1,409
765,618;  918,563;   -0,086;    0,318
766,186;  720,025;    0,278;    0,136
766,754;  773,578;    0,005;    1,864
767,322;  646,221;   -1,995;    0,409
767,890;  593,683;   -0,722;   -1,773
768,459;  600,144;   -2,177;   -0,318
769,027;  831,970;    1,641;    3,409
769,595;  638,249;    3,278;    2,591
770,163;  735,166;    3,823;    2,955
770,730;  715,264;    0,732;   -0,136
771,298;  700,452;    0,187;   -1,409
771,866;  623,459;   -1,541;    4,955
772,434;  653,739;   -0,631;   -1,864
773,002;  864,837;    0,005;    0,682
773,569;  734,026;    0,914;    1,682
774,137;  863,579;   -0,268;   -0,045
774,705;  646,677;    0,278;   -0,136
775,272;  606,593;    0,641;    0,682
775,840;  630,964;   -0,177;    2,682
776,407;  764,971;    0,277;    1,955
776,975;  626,887;   -0,632;    0,318
777,542;  560,167;   -1,086;   -0,045
778,110;  590,355;   -1,268;   -0,045
778,677;  469,544;   -2,359;   -0,864
779,244;  550,824;    2,186;    1,045
779,812;  716,740;    1,823;    0,864
780,379;  805,111;    0,005;    1,136
780,946;  662,755;    1,005;   -0,773
781,513;  567,489;   -1,450;    0,318
782,080;  538,496;   -0,086;    2,864
782,647;  570,503;   -0,268;    3,045
783,214;  552,146;   -0,177;    3,864
783,781;  771,063;   -0,723;   -0,682
784,348;  708,342;   -0,632;    1,500
784,915;  481,895;   -3,177;    0,318
785,482;  722,720;    1,368;    2,591
786,049;  643,727;    0,186;   -0,591
786,615;  521,734;    0,277;   -0,955
787,182;  481,560;    0,186;   -0,682
787,749;  456,748;   -2,814;    1,409
788,315;  695,665;   -1,632;   -0,409
788,882;  573,763;    1,550;   -1,227
789,448;  882,406;    1,732;   -0,955
790,015;  637,777;    1,095;    3,227
790,581;  822,693;    1,459;    0,227
791,148;  631,518;    0,641;    1,045
791,714;  509,707;   -0,541;    3,136
792,280;  527,351;    0,186;    1,591
792,847;  463,630;    0,550;    2,500
793,413;  550,001;   -0,269;   -0,318
793,979;  779,917;    3,459;   -1,318
794,545; 1075,197;    4,459;    2,682
795,111;  941,113;    2,186;    1,318
795,678;  783,120;    0,731;   -1,682
796,244;  947,855;    3,368;    0,136
796,810;  789,134;    1,731;    0,773
797,375;  793,232;    0,549;   -2,136
797,941;  469,149;   -0,541;    0,591
798,507;  467,337;   -0,451;   -0,955
799,073;  512,708;   -0,360;    0,591
799,639;  505,897;   -2,632;    3,136
800,205;  457,268;    0,095;    2,682
800,770;  497,275;    0,640;    1,773
801,336;  513,827;    1,368;   -0,955
801,901; 1122,653;    4,549;    3,136
802,467;  766,023;   -0,542;    2,045
803,033;  540,667;   -0,087;    0,864
803,598;  532,765;    1,913;   -1,045
804,163;  542,772;    1,095;   -0,318
804,729;  652,415;   -0,178;    1,136
805,294;  540,695;    0,822;    2,227
805,859;  480,884;    0,731;   -0,409
806,425;  880,255;    1,186;    2,682
806,990;  854,444;    2,186;    4,318
807,555;  597,996;   -1,451;    2,591
808,120;  753,730;    0,822;   -0,409
808,685;  547,828;    0,185;   -2,500
809,250;  454,836;    0,004;   -0,500
809,815;  438,752;    1,913;    0,682
810,380;  575,304;   -0,269;    1,591
810,945;  763,129;   -1,087;    2,045
811,510;  580,682;    2,094;    1,591
812,075;  647,689;   -0,633;   -1,409
812,640;  885,151;    2,003;    1,409
813,204;  627,431;    0,822;   -0,227
813,769;  778,347;    2,094;   -0,045
814,334;  772,899;    0,458;    0,864
814,898;  484,634;    0,367;    0,591
815,463;  602,913;    1,276;   -0,773
816,027;  542,557;   -0,724;   -2,318
816,592;  457,291;    0,640;   -2,045
817,156;  646,389;    2,094;    1,136
817,721;  767,760;    4,276;    2,318
818,285;  489,403;    2,912;    1,500
818,849;  553,410;   -1,451;    1,682
819,414;  479,417;   -0,269;    2,955
819,978;  427,243;   -1,269;    1,773
820,542;  727,704;    2,003;    0,500
821,106;  553,711;   -0,815;    0,682
821,670;  774,264;   -0,815;    2,591
822,234;  542,271;   -0,270;    1,409
822,798;  433,369;    0,003;    0,500
823,362;  676,649;   -0,633;    4,227
823,926;  526,838;    0,094;    1,136
824,490;  722,936;   -0,997;   -0,682
825,054;  589,034;   -0,088;   -1,136
825,618;  484,404;   -1,542;   -1,500
826,181;  545,684;    0,458;   -1,318
826,745;  659,600;    1,367;   -1,045
827,309;  869,153;    1,185;    1,318
827,872;  729,887;    1,367;    0,955
828,436;  604,349;    1,185;   -0,773
828,999;  500,447;   -0,997;    1,227
829,563;  489,181;   -0,179;    1,136
830,126;  459,916;   -0,179;   -0,591
830,690;  576,741;   -1,997;    2,864
831,253;  486,839;   -0,543;    2,227
831,816;  541,209;   -1,906;    0,500
832,380;  499,853;    0,185;    0,864
832,943;  469,769;   -1,361;   -0,500
833,506;  485,322;    2,639;   -1,227
834,069;  636,783;    3,912;   -0,955
834,632;  474,154;    1,730;    1,318
835,195;  517,706;    1,003;    0,955
835,758;  455,895;   -0,997;    1,955
836,321;  477,630;    0,730;   -1,045
836,884;  442,637;   -0,725;   -0,955
837,447;  389,371;   -2,816;    1,773
838,010;  582,287;    0,366;    3,227
838,573;  580,931;   -1,179;    0,773
839,135;  430,574;   -1,361;   -0,955
839,698;  509,309;    1,275;    0,409
840,261;  452,952;    1,003;   -0,227
840,823;  407,232;   -0,543;    0,864
841,386;  389,148;   -0,452;   -2,409
841,948;  699,700;   -1,361;    1,773
842,511;  483,253;    0,912;    1,682
843,073;  691,987;    1,912;    0,227
843,636;  436,267;   -0,361;   -0,227
844,198;  661,365;    0,911;    0,591
844,760;  618,554;    1,093;    1,955
845,322;  419,470;    0,548;    1,136
845,885;  555,750;    0,730;    0,591
846,447;  477,303;   -1,998;    0,227
847,009;  828,764;    1,911;   -0,682
847,571;  534,317;    0,820;   -2,045
848,133;  477,233;   -1,089;   -1,864
848,695;  336,513;   -0,543;    1,409
849,257;  426,883;   -1,089;   -1,682
849,819;  580,618;   -0,998;   -0,409
850,381;  441,625;   -0,725;   -0,864
850,942;  517,905;    1,093;   -0,591
851,504;  596,275;    1,184;    0,227
852,066;  446,010;    1,275;   -1,591
852,628;  478,744;   -0,180;    1,955
853,189;  382,933;    1,638;    2,682
853,751;  393,304;   -0,907;    1,409
854,312;  553,402;   -0,453;   -1,682
854,874;  691,681;   -2,089;   -0,773
855,435;  494,507;   -0,907;   -1,682
855,997;  532,150;   -1,816;   -0,136
856,558;  658,612;    0,366;    1,773
857,119;  561,346;    0,820;    2,864
857,681;  396,899;    0,002;    0,318
858,242;  668,906;    1,911;   -2,136
858,803;  622,276;    0,456;   -0,773
859,364;  495,011;    0,184;   -4,773
859,925;  582,836;   -2,453;   -0,955
860,486;  449,207;   -0,453;   -0,955
861,047;  393,486;   -0,544;   -1,227
861,608;  442,857;   -1,089;   -0,773
862,169;  302,410;    0,638;   -0,045
862,730;  442,871;    0,456;    1,409
863,291;  484,606;   -0,635;   -0,500
863,852;  457,613;   -0,635;    1,955
864,412;  461,802;   -0,271;   -0,864
864,973;  707,445;   -0,089;    0,500
865,534;  810,907;   -1,726;    0,227
866,094;  588,277;    1,820;    0,227
866,655;  729,739;    1,274;    3,318
867,215;  538,473;    0,274;    0,136
867,776;  385,753;    0,547;   -0,136
868,336;  477,306;   -1,453;    0,136
868,897;  857,131;    2,638;    1,682
869,457;  649,684;    1,365;    0,318
870,017;  431,691;    0,547;   -1,227
870,578;  417,243;   -0,817;    0,773
871,138;  515,977;   -2,089;   -0,955
871,698;  425,894;   -0,817;   -1,318
872,258;  548,446;   -0,453;   -2,864
872,818;  703,453;    2,729;    0,045
873,378;  509,006;    0,638;    1,045
873,938;  492,104;    0,547;    0,500
874,498;  388,929;    0,274;   -1,955
875,058;  509,027;    2,183;    1,773
875,618;  502,761;    1,910;   -2,682
876,177;  545,405;    1,274;    0,136
876,737;  368,866;   -0,090;    1,955
877,297;  737,692;    0,183;    1,955
877,856;  667,517;   -0,362;    0,318
878,416;  431,524;    1,183;   -0,136
878,976;  394,440;   -1,817;    0,409
879,535;  432,538;    0,092;    3,136
880,095;  414,182;   -0,544;    0,045
880,654;  363,370;   -1,090;    1,318
881,213;  669,287;    2,456;    1,500
881,773;  512,657;    2,637;    2,682
882,332;  989,755;    3,365;    5,136
882,891;  482,126;    3,092;    2,136
883,451;  478,588;   -1,272;    1,682
884,010;  446,504;   -2,908;   -0,409
884,569;  376,965;   -0,999;   -0,045
885,128;  557,154;    2,819;   -1,864
885,687;  799,889;    4,455;    0,682
886,246;  975,805;    1,455;    2,136
886,805;  769,085;    2,455;    2,045
887,364;  422,001;   -0,999;   -0,500
887,922;  356,008;   -1,181;    0,045
888,481;  560,379;   -1,545;    0,591
889,040;  630,658;    1,183;    2,136
889,599;  500,484;    2,455;    1,409
890,157;  508,036;    1,455;    2,409
890,716;  436,316;   -0,090;    0,227
891,274;  558,414;    0,092;   -1,136
891,833;  619,694;    1,546;    0,864
892,391;  511,792;   -0,454;    0,500
892,950;  601,526;    1,819;   -0,773
893,508;  405,715;    0,455;   -0,409
894,067;  335,631;    0,637;    0,136
894,625;  433,275;   -0,636;   -1,500
895,183;  394,736;   -0,363;   -0,682
895,741;  669,016;    1,728;   -1,773
896,299;  459,023;   -0,545;   -2,409
896,858;  409,030;    0,819;   -1,591
897,416;  544,492;    2,728;   -1,318
897,974;  466,499;    1,819;    0,318
898,532;  891,142;    6,091;    2,682
899,089;  614,695;    2,091;   -0,682
899,647;  514,247;   -1,454;    1,318
900,205;  508,800;    1,182;    1,045
900,763;  496,989;   -0,454;    0,227
901,321;  442,905;    2,364;   -1,409
901,878;  288,094;   -1,000;   -0,773
902,436;  374,283;   -1,363;    1,318
902,994; 1049,472;    4,728;    3,682
903,551;  618,842;    0,728;    0,409
904,109;  489,759;    0,182;   -1,409
904,666;  452,493;    2,455;    1,045
905,224;  342,227;    0,182;   -0,409
905,781;  513,416;    0,727;   -0,318
906,338;  446,150;   -1,363;    1,045
906,895;  342,430;    0,637;    2,045
907,453;  613,619;    1,727;    1,136
908,010;  458,626;   -0,909;    0,409
908,567;  457,088;    1,273;    0,591
909,124;  310,004;    0,364;   -1,500
909,681;  368,647;   -2,909;    0,682
910,238;  398,200;    0,636;   -1,318
910,795;  301,116;   -0,273;   -1,136
911,352;  330,025;   -2,909;   -2,682
911,909;  369,116;   -1,364;   -0,864
912,466;  369,934;   -3,182;    1,500
913,022;  477,662;   -1,636;    0,500
913,579;  545,480;   -0,909;    2,045
914,136;  428,025;    1,636;    0,955
914,692;  425,025;    0,091;   -1,227
915,249;  458,843;    1,455;    0,409
915,806;  518,207;    0,182;    1,955
916,362;  418,753;    1,909;    1,864
916,918;  399,207;    2,000;    1,045
917,475;  513,934;   -1,182;    0,955
918,031;  367,571;    3,364;   -0,045
918,587;  440,843;   -0,909;   -0,318
919,144;  357,662;   -2,273;    0,227
919,700;  284,753;    1,727;    0,773
920,256;  288,389;    0,727;    0,045
920,812;  356,298;   -0,727;   -1,045
921,368;  314,843;   -1,727;   -1,045
921,924;  343,934;    0,182;   -0,136
922,480;  433,298;   -0,545;    1,227
923,036;  431,662;    1,273;    1,955
923,592;  338,116;    0,455;    0,318
924,148;  357,389;    0,455;   -0,955
924,704;  488,025;   -1,364;   -0,409
925,259;  315,571;   -0,273;    0,591
925,815;  316,480;    1,455;    0,500
926,371;  300,843;    2,909;    1,409
926,926;  451,389;    2,091;    0,591
927,482;  424,843;   -1,364;    0,773
928,037;  350,934;    0,909;    2,045
928,593;  520,298;    1,636;    1,045
929,148;  314,116;   -1,818;   -1,500
929,704;  383,934;   -1,455;   -0,500
930,259;  322,843;    0,091;   -0,136
930,814;  490,571;   -0,818;    1,955
931,369;  425,843;    1,091;   -0,773
931,925;  272,207;   -0,091;    0,136
932,480;  364,662;   -2,818;   -2,591
933,035;  662,753;    0,545;   -0,318
933,590;  573,843;    0,364;   -1,773
934,145;  275,662;   -1,364;   -0,318
934,700;  191,753;    0,455;   -0,591
935,255;  253,389;   -0,091;    0,045
935,809;  539,480;    3,182;    0,864
936,364;  264,025;   -0,455;   -0,136
936,919;  249,753;    0,455;   -1,773
937,474;  183,662;    1,455;    0,136
938,028;  198,843;   -1,636;    1,136
938,583;  544,116;    1,818;    4,682
939,138;  273,753;    2,091;    2,136
939,692;  172,298;    1,636;   -1,136
940,247;  216,480;   -0,727;   -1,045
940,801;  246,389;   -0,636;    0,227
941,355;  176,571;   -0,364;    2,591
941,910;  127,480;   -0,273;   -2,136
942,464;  155,025;   -0,818;   -0,318
943,018;  325,571;    1,000;   -0,227
943,572;  209,843;    2,545;   -0,682
944,126;  275,207;    0,091;   -0,409
944,681;  186,843;    3,091;    0,227
945,235;  142,207;    1,000;   -0,591
945,789;  120,571;    0,364;   -1,864
946,342;  308,207;    0,455;   -0,591
946,896;  157,571;   -2,273;    0,955
947,450;  134,207;    1,545;   -0,227
948,004;  302,571;    1,727;   -0,045
948,558;  183,025;    0,273;   -0,864
949,111;  175,753;   -0,273;   -0,318
949,665;  297,389;    1,636;   -0,682
950,219;  277,662;   -0,091;   -1,045
950,772;  219,116;   -1,909;    1,864
951,326;  208,662;    0,545;   -0,955
951,879;  174,389;    0,727;   -2,318
952,433;  269,207;    0,000;    2,227
952,986;  158,480;    2,909;    0,682
953,539;  134,934;   -0,273;    0,591
954,093;  105,753;    0,545;   -1,318
954,646;  189,298;    0,909;    1,318
955,199;  129,571;    0,000;   -0,500
955,752;  294,480;   -0,455;    1,773
956,305;  180,934;   -0,091;    2,955
956,858;  213,753;    0,818;   -0,318
957,411;  244,207;   -0,545;    2,136
957,964;  197,843;    1,364;    2,136
958,517;  141,207;   -1,545;    3,136
959,070;  107,389;   -0,455;    1,955
959,623;  291,389;    1,091;    1,500
960,176;  263,753;    1,727;    2,045
960,728;  226,480;   -2,727;    0,773
961,281;  183,116;    0,545;    0,500
961,834;  140,116;   -0,909;    0,864
962,386;  146,662;    1,727;    1,045
962,939;  128,753;    0,364;   -0,318
963,491;  163,298;    0,455;    1,136
964,043;  115,389;    1,182;    2,409
964,596;  227,389;   -1,000;    2,227
965,148;  166,116;   -1,000;    1,773
965,700;  118,389;    1,091;   -0,227
966,253;  227,298;   -0,636;    0,318
966,805;  191,934;   -2,273;    0,773
967,357;  148,298;    1,091;   -1,500
967,909;  221,753;    0,455;   -1,227
968,461;  154,298;    0,545;    3,136
969,013;  124,298;   -0,182;   -0,864
969,565;  233,298;   -0,455;   -1,136
970,117;  375,662;   -0,364;    1,045
970,669;  226,207;    0,182;   -0,136
971,220;   99,025;   -0,455;   -1,500
971,772;  157,843;   -0,636;   -0,318
972,324;  211,389;    0,091;   -0,500
972,876;  141,753;    0,818;   -0,045
973,427;  218,934;    1,909;   -1,045
973,979;  270,389;   -0,727;   -2,500
974,530;  147,753;    1,818;    1,318
975,082;  189,934;   -0,545;    1,682
975,633;  154,843;    1,091;    1,682
976,184;  171,843;    0,909;    0,773
976,736;  170,207;    0,091;    0,227
977,287;  190,662;   -0,909;   -0,500
977,838;  159,025;    0,909;   -0,318
978,389;  157,298;   -1,000;   -0,500
978,940;   89,116;    0,545;   -0,409
979,491;   90,843;    0,091;   -0,500
980,042;  145,389;    0,182;    3,045
980,593;  163,843;   -2,545;    0,227
981,144;  212,571;    2,545;   -0,500
981,695;  217,298;    1,455;    1,500
982,246;  188,025;   -0,273;    1,045
982,797;  115,480;   -1,727;    0,682
983,347;  199,298;    0,364;    0,591
983,898;  337,934;    3,091;    0,409
984,449;  320,480;    2,182;    0,773
984,999;  209,571;    1,455;   -1,136
985,550;  182,662;    0,182;   -0,318
986,100;   99,753;   -0,455;   -0,318
986,651;   97,389;   -0,818;    0,045
987,201;  113,207;   -1,000;   -0,591
987,751;  119,934;    0,818;    2,864
988,302;  141,753;    2,636;    1,500
988,852;  179,934;    0,455;   -1,136
989,402;  208,934;    0,091;    0,682
989,952;  232,571;   -2,182;    0,864
990,502;  132,298;   -0,091;    0,682
991,052;   80,025;   -0,727;    0,045
991,602;  106,843;   -2,909;    1,318
992,152;  137,934;    0,455;    0,682
992,702;  164,571;    1,364;   -0,045
993,252;  125,934;   -3,000;   -0,500
993,802;  185,025;   -0,273;    1,318
994,352;  151,843;   -1,545;    1,136
994,901;   95,116;   -0,182;    3,227
995,451;   89,116;   -0,182;    0,318
996,000;  105,753;    1,636;    0,318
996,550;  122,662;    2,273;    0,227
997,100;  144,389;    1,273;   -0,045
997,649;  224,934;    2,182;    0,955
998,198;  123,207;    1,727;   -1,500
998,748;  180,298;    1,091;   -2,318
999,297;  145,934;   -0,818;   -0,409
999,846;  217,571;    1,000;   -0,773
1000,395;  163,934;   -0,818;    0,500
1000,945;  231,116;    1,818;   -0,773
1001,494;  228,934;    2,364;    0,682
1002,043;  235,389;    4,636;    0,864
1002,592;  125,753;   -1,091;    1,955
1003,141;  113,934;   -0,455;   -0,682
1003,690;  218,298;    1,727;    0,500
1004,238;  141,480;    1,455;   -0,045
1004,787;   98,843;    1,364;    1,227
1005,336;  200,843;    0,364;    0,682
1005,885;  167,843;    1,364;   -2,773
1006,433;  159,480;    0,545;    0,955
1006,982;  260,480;    0,455;    1,682
1007,531;  173,843;   -1,818;   -0,227
1008,079;  152,662;   -2,273;    0,500
1008,627;  119,753;   -1,455;    0,409
1009,176;  145,116;    0,000;   -1,955
1009,724;  109,025;    1,091;    0,864
1010,273;  196,207;    1,273;    0,500
1010,821;  118,571;    0,091;    1,409
1011,369;  102,116;   -1,364;    1,318
1011,917;  109,389;   -1,364;   -0,591
1012,465;  152,207;    1,273;   -1,591
1013,013;  142,753;    2,091;   -1,682
1013,561;  216,753;    0,455;   -0,773
1014,109;  273,389;   -1,909;    1,682
1014,657;  191,298;    0,364;    0,591
1015,205;  132,207;    1,636;   -0,955
1015,753;  100,934;   -0,545;   -1,409
1016,301;  141,662;   -2,636;    3,045
1016,848;  194,662;   -1,273;    0,409
1017,396;  183,753;    2,545;    0,045
1017,944;  174,025;    1,182;    1,864
1018,491;  134,571;    0,273;    1,409
1019,039;  310,934;    0,455;    0,591
1019,586;  163,571;   -1,364;    1,682
1020,134;  153,571;    0,455;    1,500
1020,681;  208,753;    0,182;   -1,136
1021,228;  159,025;    2,909;   -2,227
1021,776;  138,662;    1,182;   -1,136
1022,323;  281,753;    0,455;    0,773
1022,870;  212,753;   -1,000;   -0,045
1023,417;  244,298;    2,636;    1,864
1023,964;  144,571;    2,636;    1,227
1024,511;  127,662;    1,000;    0,773
1025,058;  165,843;    3,182;   -0,045
1025,605;  124,025;   -2,273;    3,136
1026,152;  255,571;    1,727;   -0,591
1026,699;  167,480;    1,818;    1,318
1027,245;  152,753;   -0,091;    0,318
1027,792;  113,571;   -1,000;    1,409
1028,339;  263,116;    2,364;   -0,045
1028,885;  170,480;    1,000;   -0,227
1029,432;  140,571;   -0,091;    0,227
1029,978;  195,843;   -1,000;   -1,591
1030,525;  205,116;    1,000;    0,409
1031,071;  125,662;   -1,364;    1,136
1031,618;  300,298;    0,364;    1,682
1032,164;  195,480;   -0,091;    3,045
1032,710;  216,753;    1,636;   -1,500
1033,256;  201,753;   -0,636;   -0,136
1033,803;  114,934;   -0,545;    1,500
1034,349;   44,389;   -1,364;    0,136
1034,895;   68,389;    0,000;   -0,318
1035,441;  112,662;   -0,818;    0,318
1035,987;  139,753;   -2,364;   -0,682
1036,533;  177,207;   -1,455;   -0,955
1037,078;  309,480;    1,455;    1,682
1037,624;  212,843;    2,455;   -0,955
1038,170;  126,389;    0,455;   -0,318
1038,716;  175,662;    1,636;   -0,409
1039,261;  112,571;   -2,273;   -0,773
1039,807;  120,934;   -0,091;    3,409
1040,352;  128,662;   -1,909;   -0,318
1040,898;  120,662;   -1,545;   -0,682
1041,443;   91,480;   -1,455;   -2,591
1041,989;  287,843;    1,091;    1,591
1042,534;  163,389;   -0,364;    2,591
1043,079;   89,298;    2,909;    0,955
1043,625;  152,298;    1,818;    0,500
1044,170;  155,116;   -1,364;    1,045
1044,715;  275,207;    2,455;    0,955
1045,260;  213,207;    2,182;   -0,955
1045,805;  119,025;    1,182;   -0,591
1046,350;   99,934;    1,364;   -0,409
1046,895;  215,753;    2,909;    1,591
1047,440;  198,389;    5,364;    0,409
1047,985;  126,662;    2,818;   -0,955
1048,530;  116,389;    1,545;    1,227
1049,074;  143,116;    0,000;    0,318
1049,619;  111,207;   -1,364;    1,955
1050,164;  109,934;    0,455;    0,227
1050,708;  169,025;   -0,455;    0,045
1051,253;  319,480;    1,273;   -2,227
1051,797;  184,571;    0,818;   -1,318
1052,342;   86,480;   -1,182;    1,045
1052,886;  138,025;    0,364;   -1,409
1053,430;   87,753;   -1,364;    0,136
1053,975;  142,843;   -0,818;   -0,318
1054,519;  137,207;   -0,727;    3,227
1055,063;  177,116;    0,909;    1,318
1055,607;  171,480;   -0,182;    0,227
1056,151;  170,116;    2,909;    1,682
1056,695;  119,753;    2,273;   -1,136
1057,239;  110,571;   -1,727;   -0,682
1057,783;  134,389;    0,818;   -1,500
1058,327;  183,662;    0,000;    1,409
1058,871;  275,662;   -0,545;    1,318
1059,415;  198,389;   -0,818;   -0,045
1059,958;  284,025;    1,455;    2,591
1060,502;  125,843;   -1,000;   -0,773
1061,046;   79,662;    0,364;   -0,955
1061,589;   76,298;   -3,000;   -1,136
1062,133;   63,662;   -1,273;    1,864
1062,676;   90,753;    1,182;    0,864
1063,220;  110,389;    1,091;    0,500
1063,763;  129,753;    0,909;    1,136
1064,306;  137,753;   -0,909;    1,864
1064,849;  136,480;   -0,909;    0,591
1065,393;  121,207;    2,000;   -1,500
1065,936;  123,843;    0,182;   -0,409
1066,479;   82,934;   -1,455;    1,318
1067,022;   98,753;   -0,273;   -0,227
1067,565;   82,662;   -0,091;   -1,318
1068,108;   71,571;    0,727;   -0,591
1068,651;   60,571;   -0,636;    1,409
1069,194;   66,753;   -0,455;   -1,682
1069,736;   72,571;   -1,273;    0,955
1070,279;   65,480;   -1,364;   -0,500
1070,822;  108,934;   -2,000;   -0,318
1071,364;  183,934;   -0,364;    1,318
1071,907;  107,662;   -0,727;    3,227
1072,450;   35,116;    0,000;   -0,045
1072,992;   71,207;   -0,273;    3,136
1073,535;  103,116;    2,091;    2,136
1074,077;   69,207;   -0,727;    2,045
1074,619;   61,843;   -1,364;    0,591
1075,161;   81,662;   -1,091;    1,500
1075,704;  154,843;    1,545;    1,227
1076,246;   82,025;   -0,182;    0,682
1076,788;   50,662;   -0,364;    1,773
1077,330;   49,662;    1,273;    2,136
1077,872;   72,298;    0,909;    0,955
1078,414;  166,389;    2,727;    0,773
1078,956;   89,934;    1,273;   -0,227
1079,498;  157,480;    1,636;    0,318
1080,040;   86,662;    1,909;   -1,318
1080,581;   66,116;    1,636;   -0,318
1081,123;   36,934;    0,091;   -0,773
1081,665;   38,934;   -1,182;   -0,955
1082,206;  145,389;    1,364;   -0,500
1082,748;   91,480;    0,727;    2,045
1083,289;   50,571;   -2,000;    1,318
1083,831;   43,207;   -0,545;    0,227
1084,372;   67,389;    0,000;    0,591
1084,913;   68,298;    1,091;    0,864
1085,455;   46,389;   -1,909;   -2,045
1085,996;   36,480;   -2,273;    0,136
1086,537;   48,116;   -0,091;    0,864
1087,078;   57,207;   -0,909;   -2,136
1087,619;   88,843;   -1,273;    0,227
1088,160;   71,207;    0,000;    1,318
1088,701;   61,116;   -1,091;    0,682
1089,242;   52,025;    1,364;   -2,227
1089,783;   74,116;   -0,273;    1,409
1090,324;   62,662;    0,455;    0,682
1090,865;   41,662;    2,727;   -0,409
1091,405;   35,207;    0,727;    2,227
1091,946;   55,207;    0,182;   -0,955
1092,487;   29,389;    0,818;   -1,409
1093,027;   90,389;   -1,364;   -1,500
1093,568;   53,753;   -0,364;    1,227
1094,108;   65,480;    0,273;    1,773
1094,649;   51,207;   -1,182;    0,136
1095,189;   40,753;   -0,636;   -0,682
1095,729;   35,025;   -0,091;    0,955
1096,269;   32,025;    0,727;   -0,955
1096,810;  104,207;   -1,364;    0,500
1097,350;   72,934;    1,364;   -0,773
1097,890;   53,207;    0,364;    1,227
1098,430;  145,753;    2,364;    2,864
1098,970;  101,934;    2,182;    1,682
1099,510;   44,116;    0,545;   -2,318
1100,050;   38,207;    1,000;   -1,591
1100,589;   45,116;   -0,727;   -0,318
1101,129;   62,934;    0,818;   -0,955
1101,669;  106,116;    1,727;    2,136
1102,209;   70,571;   -0,091;    2,227
1102,748;   51,298;    0,000;    0,955
1103,288;   54,571;    1,273;   -1,227
1103,827;   48,662;    3,091;   -2,227
1104,367;   35,389;   -0,091;   -2,409
1104,906;   37,843;    1,364;   -1,136
1105,445;   58,207;    0,636;   -1,136
1105,985;   42,116;   -0,727;    1,500
1106,524;   50,116;   -1,727;   -0,682
1107,063;   46,298;   -2,727;    1,409
1107,602;   34,753;   -1,909;   -1,500
1108,141;   27,662;   -1,909;    1,500
1108,680;   56,116;   -3,455;   -0,591
1109,219;   41,298;   -0,909;   -0,500
1109,758;   37,934;    0,455;    0,682
1110,297;   37,207;    1,000;   -0,682
1110,836;   28,389;   -0,727;    0,955
1111,375;   30,389;   -2,545;    0,409
1111,913;   58,843;   -1,000;    0,773
1112,452;   45,116;   -0,273;    0,136
1112,991;   22,843;    1,091;    1,955
1113,529;   26,207;   -0,818;   -0,045
1114,068;   37,207;   -0,273;    2,955
1114,606;   23,207;   -0,364;   -0,955
1115,144;   50,753;   -1,273;    1,045
1115,683;   39,480;   -0,727;    0,318
1116,221;   55,662;   -0,455;   -0,864
1116,759;   33,843;    0,636;   -0,864
1117,297;   62,753;    0,000;    1,864
1117,836;   35,207;   -2,182;   -1,227
1118,374;   32,298;    0,182;   -0,682
1118,912;   39,025;    0,909;    2,682
1119,450;   34,843;    1,000;    0,864
1119,988;   31,662;    1,545;    2,136
1120,525;  182,934;    5,091;    3,318
1121,063;   82,843;    1,182;    1,864
1121,601;   34,389;   -0,909;   -1,227
1122,139;   25,116;   -0,727;   -2,045
1122,676;   73,571;   -0,727;    2,773
1123,214;   61,843;   -1,182;    4,409
1123,751;   29,207;    1,727;    2,227
1124,289;   42,207;   -0,091;   -0,409
1124,826;   29,298;    1,727;    0,227
1125,364;   13,025;    1,727;   -0,955
1125,901;   67,480;    1,182;    1,227
1126,438;   61,571;    0,818;    0,955
1126,975;   17,843;   -0,727;   -0,773
1127,513;   23,934;    0,273;    2,136
1128,050;   15,025;    1,636;   -0,682
1128,587;   30,753;    2,000;   -0,227
1129,124;   42,116;    0,091;    1,318
1129,661;   19,934;    0,273;    0,227
1130,198;   57,025;    1,636;    0,773
1130,734;   35,207;    0,182;    1,409
1131,271;   11,662;   -0,909;    0,864
1131,808;   41,571;    2,909;    3,045
1132,345;   23,025;    1,545;    0,318
1132,881;    5,662;   -1,545;   -1,864
1133,418;   26,480;    0,727;   -1,136
1133,954;   16,025;    2,455;   -2,682
1134,491;   29,389;    1,364;   -0,773
1135,027;   15,116;    2,364;    0,864
1135,564;   27,116;    0,273;    2,955
1136,100;   24,025;    0,364;    2,136
1136,636;   10,116;   -1,273;   -1,045
1137,172;   21,025;    0,000;   -1,045
1137,708;   15,207;   -1,364;   -1,045
1138,245;   11,662;    1,273;   -1,227
1138,781;    8,662;    1,091;   -3,318
1139,317;   15,116;    1,273;   -1,409
1139,852;   21,753;    3,091;    0,136
1140,388;   28,571;   -1,182;   -0,409
1140,924;   13,480;   -1,091;   -2,227
1141,460;    8,298;   -1,636;    0,136
1141,996;    7,662;   -1,364;    2,682
1142,531;    6,480;    1,364;    3,318
1143,067;   39,753;    1,182;    1,045
1143,602;   54,480;   -0,091;   -0,318
1144,138;   24,571;   -2,636;    1,045
1144,673;   10,298;   -1,455;    1,409
1145,209;   13,207;   -1,909;   -0,318
1145,744;    4,843;   -0,727;    0,864
1146,279;   20,389;    1,818;   -0,136
1146,815;   10,843;    1,545;   -2,682
1147,350;   16,753;   -1,364;    0,045
1147,885;    7,753;   -0,818;   -1,318
1148,420;    6,571;   -2,273;    0,773
1148,955;    8,025;   -1,727;    1,864
1149,490;   11,207;   -0,909;   -1,591
1150,025;    9,934;    0,455;   -1,773
1150,560;   22,843;    1,091;   -0,955
1151,094;   17,753;    1,455;   -0,591
1151,629;   16,934;    1,636;    0,864
1152,164;    8,753;    1,364;    1,318
1152,698;    7,025;   -0,182;   -0,136
1153,233;    3,207;    0,091;   -0,682
1153,767;    4,571;   -3,000;   -2,318
1154,302;   10,025;   -1,455;    1,773
1154,836;   11,025;   -0,455;   -2,136
1155,371;   13,571;   -1,364;    3,682
1155,905;   10,025;   -0,636;    1,682
1156,439;   12,116;   -0,636;   -0,500
1156,973;    9,662;    0,364;    0,318
1157,507;    3,934;   -0,364;    0,682
1158,042;    8,934;   -0,727;    1,045
1158,576;   12,571;    0,182;    1,773
1159,110;   13,389;   -0,818;    2,409
1159,643;    8,571;    0,636;   -0,045
1160,177;    3,662;   -1,545;    1,500

