
Integration time [ms]:   0,040
Averaging Nr. [scans]: 11
Smoothing Nr. [pixels]: 0
Data measured with spectrometer [name]: 7318044SP
Wave   ;Sample   ;Dark     ;Reference
[nm]   ;[counts] ;[counts] ;[counts] 

186,757;   35,118;   31,551;    1,318
187,357;   58,824;   22,551;    0,955
187,958;   42,453;   15,460;   -1,591
188,558;   88,337;    8,915;   -1,227
189,159;   44,404;    6,733;   -4,500
189,759;   16,671;    7,278;   -3,591
190,360;   19,716;    2,824;   -2,136
190,960;   56,548;    2,915;   -4,136
191,560;   75,022;    3,189;   -6,591
192,161;  298,822;    4,372;   -3,500
192,761;  152,920;    4,010;   -3,227
193,361;  103,568;    1,556;   -3,773
193,962;  154,193;    2,010;   -2,682
194,562;   81,208;    1,189;   -3,955
195,162;  107,585;   -2,448;   -2,227
195,762;  262,153;   -3,176;   -0,045
196,362;  206,477;    1,370;   -2,500
196,963;   79,550;    2,006;   -0,864
197,563;  147,955;    1,551;   -0,955
198,163;   97,058;    0,096;   -0,682
198,763;  115,033;    1,733;   -0,500
199,363;  199,590;    3,096;   -0,500
199,963;  173,907;    0,369;    0,409
200,563;  150,872;    2,823;   -1,409
201,163;  117,964;    3,277;   -0,227
201,763;  202,693;    3,732;    0,318
202,363;  148,775;    1,459;    1,500
202,963;  240,800;    1,459;    1,045
203,563;  347,573;    0,277;    0,500
204,162;  198,772;    2,096;   -1,864
204,762;  193,522;    0,550;    0,591
205,362;  160,539;    3,004;    1,955
205,962;  246,074;    3,096;    1,955
206,562;  242,548;    1,823;    2,318
207,161;  214,112;   -0,087;    0,318
207,761;  361,754;    1,277;    2,409
208,361;  232,917;   -0,268;    1,409
208,960;  326,325;    0,459;    1,500
209,560;  381,466;    1,277;    1,591
210,160;  371,998;    0,550;    1,864
210,759;  317,753;    4,186;    1,227
211,359;  319,189;    1,459;    1,045
211,958;  565,942;    1,277;    2,045
212,558;  638,781;    1,732;    1,864
213,157;  480,358;    1,822;    1,500
213,757;  882,623;    3,822;   -0,227
214,356;  584,307;    1,277;   -0,409
214,956;  893,910;    3,095;    0,409
215,555;  540,167;    2,095;    2,136
216,154;  486,282;   -2,723;   -0,591
216,754;  477,501;    0,277;    0,773
217,353;  588,774;   -0,268;   -1,045
217,952;  453,390;   -0,178;    0,318
218,552;  661,372;    1,368;   -0,773
219,151;  550,629;    0,277;    0,955
219,750;  549,962;    0,004;   -0,227
220,349;  597,073;   -0,451;    1,045
220,948;  712,814;   -1,360;    1,136
221,548;  663,483;    0,913;    1,227
222,147;  768,872;   -0,087;   -0,409
222,746; 1021,688;   -0,451;   -0,955
223,345;  871,868;    0,731;    0,500
223,944;  869,196;   -0,451;    0,773
224,543;  992,709;    1,004;   -1,409
225,142; 1094,838;    0,094;    0,136
225,741;  994,588;   -0,814;    1,045
226,340; 1006,792;   -0,451;   -0,955
226,939; 1360,000;   -0,996;   -0,136
227,538; 1183,304;   -0,360;   -0,773
228,137; 1384,124;   -0,814;    0,864
228,735; 1391,415;   -0,541;    1,227
229,334; 1191,361;   -0,905;   -0,227
229,933; 1539,555;    0,459;    0,591
230,532; 1628,868;    1,186;   -0,409
231,131; 1703,222;    1,732;    0,318
231,729; 1680,102;   -2,450;   -2,318
232,328; 1672,315;   -0,723;   -1,500
232,927; 1673,127;    1,004;   -0,500
233,525; 1731,192;    3,640;    0,045
234,124; 1885,752;    2,368;   -1,591
234,723; 1831,604;    0,913;   -1,045
235,321; 1933,375;    2,277;    0,136
235,920; 2066,719;    1,186;   -1,227
236,518; 2292,399;    3,459;    0,318
237,117; 2297,713;    0,004;   -0,227
237,715; 2384,137;    0,640;   -0,500
238,314; 2411,630;   -0,087;   -2,318
238,912; 2556,836;   -0,723;   -1,409
239,510; 2487,637;    0,459;   -1,227
240,109; 2644,208;    0,004;    3,773
240,707; 2599,637;   -0,996;    1,227
241,305; 2740,259;    0,550;    0,136
241,904; 2898,531;   -0,178;   -2,045
242,502; 2926,567;   -0,632;   -0,227
243,100; 2822,629;   -0,087;   -0,955
243,698; 2963,689;    0,732;    1,682
244,297; 3072,707;   -0,632;    0,682
244,895; 2979,685;   -0,269;   -2,318
245,493; 3212,021;    2,186;   -0,591
246,091; 3186,526;    1,368;   -1,318
246,689; 3120,635;    1,004;    0,591
247,287; 3195,538;    0,822;   -1,136
247,885; 3383,259;   -1,451;    1,227
248,483; 3427,624;    1,822;   -0,500
249,081; 3502,611;    0,185;    1,591
249,679; 3593,800;   -0,178;    1,682
250,277; 3719,025;   -1,723;    0,864
250,875; 3682,792;   -1,087;   -1,045
251,473; 3685,991;   -1,178;    0,500
252,071; 3828,806;    1,459;    1,045
252,669; 3882,196;   -1,814;    0,318
253,267; 4004,839;   -0,087;    0,773
253,864; 3899,902;   -0,360;    0,682
254,462; 3966,588;    1,640;    1,591
255,060; 3814,953;   -0,269;    1,318
255,658; 4009,287;    0,822;   -0,136
256,255; 4335,284;    0,186;   -2,045
256,853; 4233,441;   -0,269;    1,409
257,451; 4194,149;    0,822;    1,864
258,048; 4574,605;    1,822;    1,864
258,646; 4227,970;    1,731;   -1,045
259,243; 4347,532;   -0,087;    2,227
259,841; 4349,789;   -0,814;    0,318
260,438; 4252,489;   -0,087;    0,864
261,036; 4713,349;   -1,905;    1,409
261,633; 4645,795;   -0,087;    2,227
262,231; 4478,366;    2,731;   -0,045
262,828; 4547,024;   -0,905;    1,136
263,425; 4529,642;    0,913;   -0,591
264,023; 4725,407;    0,186;    0,045
264,620; 4410,007;   -0,360;   -0,318
265,217; 4644,904;   -2,087;    3,136
265,815; 4691,193;   -1,905;    2,136
266,412; 4586,322;    0,731;    0,136
267,009; 4583,531;   -1,451;    0,773
267,606; 4613,788;    0,822;   -0,955
268,203; 4511,753;   -0,269;   -0,591
268,801; 4699,966;    1,731;    0,591
269,398; 4859,137;   -0,360;    2,500
269,995; 4849,569;    0,277;    1,591
270,592; 4681,567;   -0,632;   -0,500
271,189; 4778,525;    0,186;    0,409
271,786; 4897,557;   -0,632;    1,227
272,383; 4882,130;   -1,087;    0,227
272,980; 4934,016;    0,277;    0,318
273,577; 5224,426;    0,004;    1,227
274,174; 4880,012;    0,822;    2,591
274,771; 4842,105;   -0,814;   -0,773
275,367; 5068,172;    2,277;    1,409
275,964; 5005,998;    0,731;   -0,500
276,561; 5065,231;    1,549;   -1,045
277,158; 5145,436;    0,095;   -1,773
277,755; 5302,884;    2,185;    0,409
278,351; 4813,988;   -0,451;   -1,500
278,948; 5032,605;   -0,815;    0,045
279,545; 4990,215;   -1,360;    2,318
280,141; 5537,405;   -1,723;   -2,045
280,738; 5345,778;   -0,451;   -0,136
281,334; 5402,501;   -1,633;    0,591
281,931; 4986,411;   -0,087;   -1,318
282,528; 5089,437;    0,822;   -0,500
283,124; 5603,497;   -1,087;   -0,500
283,721; 5476,031;   -0,451;    1,409
284,317; 5310,714;    0,185;    2,500
284,913; 5739,697;   -1,360;    0,591
285,510; 5957,515;    0,640;   -0,318
286,106; 5926,277;   -2,269;   -0,955
286,703; 5477,727;   -0,360;    1,955
287,299; 5638,608;   -1,451;   -0,591
287,895; 5806,304;    0,822;   -1,045
288,491; 6189,682;    0,186;    2,136
289,088; 6022,401;   -2,360;    2,409
289,684; 6059,105;   -1,723;    1,500
290,280; 6066,733;    0,368;    0,682
290,876; 6130,910;    1,822;    5,500
291,472; 6054,915;    1,276;    2,227
292,068; 6113,876;    1,367;    0,227
292,665; 5810,335;    2,095;    0,773
293,261; 5644,488;    0,276;    2,136
293,857; 5896,952;    2,913;    2,136
294,453; 5840,028;    3,550;    0,955
295,049; 5788,275;   -0,268;    1,955
295,644; 5810,188;    0,095;    0,136
296,240; 5715,205;   -0,905;   -0,136
296,836; 5797,976;   -0,995;    0,318
297,432; 5994,152;    1,096;   -0,500
298,028; 6073,654;    0,732;    0,773
298,624; 6306,557;    1,459;    1,864
299,220; 6420,699;    2,368;    0,591
299,815; 6136,162;    1,005;   -0,409
300,411; 6051,548;    0,914;    1,773
301,007; 6070,346;    1,368;    0,227
301,602; 6020,824;   -0,541;   -2,318
302,198; 6166,531;    0,732;   -0,773
302,794; 6380,549;    1,187;   -0,500
303,389; 6459,948;   -1,177;    1,045
303,985; 6512,596;    0,550;    1,409
304,580; 6487,477;    1,459;    1,591
305,176; 6478,615;   -3,086;    0,136
305,771; 6377,836;   -1,268;   -1,227
306,367; 6425,864;    4,095;    0,136
306,962; 6614,461;    0,641;    1,500
307,558; 6318,321;   -0,450;    0,136
308,153; 6284,233;    1,095;   -1,136
308,748; 6437,502;   -0,814;    1,682
309,344; 6486,434;   -0,632;   -1,318
309,939; 6637,625;   -1,905;   -1,318
310,534; 6741,666;   -0,086;   -1,682
311,130; 6643,349;    0,459;   -2,500
311,725; 6417,656;    1,004;   -0,500
312,320; 6686,127;    2,459;    0,045
312,915; 6639,738;    1,459;   -1,045
313,510; 6718,934;    1,550;   -0,500
314,105; 7035,363;    1,096;    1,409
314,700; 6525,306;   -3,086;   -1,045
315,295; 6312,568;   -0,904;    0,045
315,890; 5989,679;    1,277;    0,864
316,485; 6214,528;   -0,359;   -0,318
317,080; 6302,424;   -3,086;    1,591
317,675; 6714,108;    2,005;   -0,682
318,270; 6403,621;    5,550;    3,318
318,865; 6387,366;    3,278;    3,045
319,460; 6214,618;   -0,904;    0,591
320,055; 6397,145;   -0,541;   -1,227
320,650; 6164,032;   -1,995;   -0,591
321,244; 6204,689;   -0,177;   -1,409
321,839; 6884,614;   -1,541;   -0,227
322,434; 6754,399;   -1,086;   -1,591
323,029; 6534,552;    1,732;    1,591
323,623; 6382,320;    1,550;    0,773
324,218; 6306,409;    2,368;    1,409
324,812; 6232,440;    1,096;    1,591
325,407; 6086,982;   -0,814;    2,045
326,002; 6026,557;    0,277;   -0,409
326,596; 6283,452;    0,914;    1,318
327,191; 6370,922;    0,823;   -1,045
327,785; 6095,998;   -0,813;   -0,227
328,379; 6322,128;    1,368;    0,136
328,974; 6088,334;    0,914;   -3,955
329,568; 6332,536;    0,186;   -2,409
330,163; 6238,267;    2,096;    1,045
330,757; 6450,267;    2,459;    1,591
331,351; 5980,767;    0,459;    0,682
331,945; 6229,931;    0,914;    1,409
332,540; 5990,476;   -1,723;   -0,591
333,134; 6071,024;   -1,086;    0,773
333,728; 6205,361;    0,005;    0,318
334,322; 6461,735;   -1,177;   -0,864
334,916; 5910,160;    0,277;    0,955
335,510; 6159,555;   -0,450;   -0,136
336,105; 6377,013;   -1,086;    1,591
336,699; 6137,329;   -1,086;    0,591
337,293; 6107,991;   -1,723;    0,318
337,887; 6152,242;   -2,723;    1,955
338,481; 6247,246;    0,459;    0,591
339,074; 6454,814;   -0,359;    2,682
339,668; 6323,883;   -1,632;    1,227
340,262; 6655,575;    1,732;    3,227
340,856; 6180,678;    1,822;   -0,682
341,450; 5675,214;    1,004;    1,864
342,044; 6278,900;    1,459;    0,136
342,637; 6159,935;    0,913;   -2,136
343,231; 6057,652;   -2,360;    0,682
343,825; 5997,712;   -1,086;   -0,591
344,419; 6025,911;   -1,995;    0,500
345,012; 6053,284;    2,459;    4,045
345,606; 6019,825;    4,641;    1,591
346,199; 5843,817;   -1,813;   -0,227
346,793; 5600,067;    1,914;    2,045
347,386; 5709,252;   -0,813;   -1,136
347,980; 5647,404;   -0,268;   -0,045
348,573; 5580,222;    2,278;    0,409
349,167; 5458,985;    5,278;    4,773
349,760; 5736,972;    2,914;    2,682
350,354; 5670,412;   -0,813;    1,136
350,947; 5486,956;    1,096;    1,682
351,540; 5270,472;   -0,358;   -1,409
352,134; 5202,996;    1,096;    1,136
352,727; 5290,042;   -0,086;    1,136
353,320; 5181,201;    0,005;    0,591
353,913; 5046,114;   -1,995;    1,864
354,507; 5226,385;    0,823;   -1,227
355,100; 5278,951;    0,460;    0,864
355,693; 4867,544;    2,005;    2,409
356,286; 4813,651;    0,823;    2,773
356,879; 5047,481;   -0,722;    1,227
357,472; 4785,177;   -0,904;    1,500
358,065; 4950,903;   -0,722;    2,500
358,658; 4871,772;   -0,540;    2,318
359,251; 4647,371;   -1,631;   -0,591
359,844; 4360,140;   -1,904;   -1,136
360,437; 4531,889;   -2,995;    0,045
361,030; 4707,256;    1,369;   -0,682
361,623; 4410,416;    2,824;    0,318
362,215; 4468,255;   -0,086;    2,045
362,808; 4346,054;   -2,358;   -1,682
363,401; 4486,268;   -2,449;    0,136
363,994; 4410,319;   -0,631;   -1,500
364,586; 4323,607;    0,824;   -1,500
365,179; 4439,601;   -0,449;   -1,136
365,772; 4043,046;   -1,995;    2,045
366,364; 4264,622;    1,915;   -3,227
366,957; 4459,200;    2,279;   -0,045
367,549; 4410,446;    2,188;   -0,864
368,142; 4206,000;    1,825;   -1,500
368,734; 4348,677;    0,734;   -2,136
369,327; 4325,574;    1,643;   -0,500
369,919; 4257,887;   -1,538;    0,409
370,512; 4208,618;   -1,083;   -0,500
371,104; 4071,640;   -0,901;    1,591
371,696; 4211,279;    1,191;   -0,955
372,289; 4217,784;    0,373;    1,136
372,881; 4294,760;   -2,080;    1,318
373,473; 4205,754;   -2,170;    1,136
374,066; 4128,883;   -0,169;    0,500
374,658; 4031,465;    0,378;    1,136
375,250; 4251,117;    0,653;   -1,409
375,842; 4161,215;    0,473;   -0,045
376,434; 4073,599;   -0,435;   -0,409
377,026; 4470,612;    0,204;   -2,500
377,618; 4399,446;   -0,158;   -0,682
378,210; 4276,198;   -0,338;   -1,955
378,802; 4129,389;    0,754;   -0,591
379,394; 4235,837;    1,846;    0,682
379,986; 4577,172;    1,393;   -0,955
380,578; 4610,938;   -0,153;    0,773
381,170; 4237,804;   -0,972;    0,045
381,762; 4173,689;    0,755;    1,409
382,354; 4269,503;   -0,065;   -1,318
382,945; 4332,740;   -2,976;    0,318
383,537; 4457,674;   -2,705;   -1,955
384,129; 4503,858;   -2,160;   -1,136
384,721; 4613,779;   -0,252;    0,955
385,312; 4529,082;   -0,161;   -0,955
385,904; 4668,067;   -2,706;    1,591
386,496; 4169,878;   -0,979;    1,045
387,087; 4302,280;    1,022;    2,500
387,679; 4313,089;   -1,160;    0,045
388,270; 4415,969;    2,840;    2,045
388,862; 4471,970;    1,295;   -0,318
389,453; 4339,246;   -0,887;    1,045
390,045; 4587,586;   -0,705;   -2,682
390,636; 4528,879;    0,204;   -0,591
391,227; 4379,432;   -0,523;   -0,045
391,819; 4504,572;    0,204;    0,773
392,410; 4577,922;    1,022;    0,045
393,001; 4542,178;   -0,979;   -1,591
393,593; 4722,197;    1,930;   -0,045
394,184; 4623,413;    1,385;   -0,409
394,775; 4450,419;    1,839;    2,136
395,366; 4684,152;    1,385;    0,773
395,957; 4636,727;    0,113;    0,136
396,548; 4848,973;   -0,342;    2,682
397,139; 5095,986;   -2,433;    0,591
397,730; 4880,801;   -1,888;    0,955
398,321; 4937,084;   -1,252;    0,955
398,912; 4902,142;   -0,615;    0,136
399,503; 5008,112;   -3,524;   -1,409
400,094; 4631,477;    0,294;    1,682
400,685; 4529,364;   -0,433;    0,045
401,276; 4570,694;    0,930;   -0,955
401,867; 4778,797;   -0,888;    0,773
402,458; 4870,071;   -2,251;   -2,318
403,048; 4882,577;    1,112;    0,591
403,639; 4560,787;    0,840;    0,864
404,230; 4863,836;    2,476;    0,318
404,821; 4810,931;   -0,615;    0,045
405,411; 4864,803;    1,203;   -2,591
406,002; 4533,746;   -1,252;   -1,136
406,592; 4544,374;    2,294;    0,045
407,183; 4697,333;    0,566;   -1,500
407,774; 4616,640;    3,475;   -0,136
408,364; 4856,964;    0,930;    0,409
408,954; 4618,009;    0,384;    1,227
409,545; 4651,429;    1,021;    1,045
410,135; 4295,001;    1,293;    0,500
410,726; 4411,737;    1,838;    0,318
411,316; 4720,106;    0,111;    0,773
411,906; 4449,541;   -0,253;   -0,409
412,497; 4128,159;   -1,070;   -0,045
413,087; 4537,625;   -1,980;   -0,227
413,677; 4822,761;   -0,707;    3,864
414,267; 4707,720;    0,656;    1,409
414,857; 4669,609;   -2,980;    4,227
415,448; 4901,011;    0,839;    0,500
416,038; 4691,761;    0,020;   -0,591
416,628; 4639,998;   -0,889;    0,409
417,218; 4389,806;    0,565;    3,318
417,808; 4568,240;    0,202;   -0,409
418,398; 4793,155;    0,020;    2,682
418,988; 4779,856;    2,020;    0,591
419,578; 4950,626;   -0,707;    1,409
420,168; 5208,504;   -1,343;   -0,955
420,757; 4940,217;   -1,343;   -1,500
421,347; 4658,904;    0,111;   -0,227
421,937; 4764,711;    2,292;    1,409
422,527; 4802,470;    0,838;   -0,773
423,116; 4674,198;   -0,253;   -0,045
423,706; 4870,024;   -1,889;    0,318
424,296; 4798,515;    1,384;    0,682
424,885; 5159,606;   -0,071;   -3,045
425,475; 5352,783;    1,474;   -2,864
426,065; 5257,117;   -0,980;   -0,318
426,654; 5042,225;   -0,435;   -0,318
427,244; 5184,551;    0,020;    1,409
427,833; 4769,408;    1,383;   -0,500
428,423; 5042,950;   -0,526;    1,136
429,012; 5615,723;   -0,344;   -1,136
429,601; 5241,397;   -1,344;    0,136
430,191; 5399,175;    1,292;    4,318
430,780; 5078,525;   -0,344;   -0,409
431,369; 5105,015;    0,746;   -0,045
431,959; 5558,674;   -1,254;    0,500
432,548; 5340,824;   -1,163;   -0,045
433,137; 5411,784;   -1,254;   -1,318
433,726; 5866,587;    0,292;    0,500
434,315; 5420,214;   -0,526;    2,409
434,905; 5481,225;   -1,254;    1,409
435,494; 5456,074;    0,746;    0,955
436,083; 5773,016;   -0,981;   -0,955
436,672; 5647,612;    0,110;    0,500
437,261; 5392,544;    0,292;   -1,955
437,850; 5547,614;    1,383;    0,682
438,439; 5505,633;    3,291;    1,955
439,027; 5441,484;    3,655;    1,773
439,616; 5677,957;    2,927;    1,227
440,205; 5491,830;    0,200;   -2,136
440,794; 5480,955;    2,109;   -0,045
441,383; 5657,377;   -1,346;   -0,591
441,971; 5522,270;   -2,436;    0,591
442,560; 5396,213;    0,563;   -1,773
443,149; 5188,655;    0,379;   -1,318
443,737; 5362,831;   -0,074;   -2,318
444,326; 5551,703;    0,018;    0,318
444,915; 5578,729;   -1,982;    0,864
445,503; 5840,205;   -2,891;   -0,318
446,092; 5372,875;    0,382;    2,136
446,680; 5765,598;    0,382;    0,318
447,269; 5866,771;   -0,346;   -0,318
447,857; 5700,219;    0,018;   -1,773
448,445; 5817,659;    0,563;    1,318
449,034; 5982,067;   -1,528;   -1,136
449,622; 6039,139;   -1,073;    3,500
450,210; 5603,344;    2,017;    2,227
450,799; 5990,032;    0,290;   -0,591
451,387; 5899,181;    1,381;   -0,591
451,975; 5663,385;    2,654;    0,864
452,563; 5809,966;    3,472;    2,318
453,151; 5777,884;   -0,528;   -1,227
453,739; 5703,556;   -1,347;    0,136
454,328; 5630,863;    2,381;   -2,136
454,916; 5437,046;    2,562;   -0,136
455,504; 5594,711;    1,017;    1,227
456,092; 5719,703;    0,017;   -1,591
456,679; 5634,442;    1,472;    0,682
457,267; 5756,526;    4,017;    1,045
457,855; 5781,462;    1,017;    1,409
458,443; 5507,927;   -0,165;    1,682
459,031; 5731,841;    0,108;    2,409
459,619; 6039,148;   -1,801;    2,864
460,206; 6019,733;    0,835;    2,045
460,794; 6137,861;   -2,983;   -0,227
461,382; 6303,967;   -0,529;   -0,864
461,970; 5967,555;    1,198;    1,864
462,557; 6024,343;   -0,711;   -0,682
463,145; 6185,795;   -3,165;   -1,682
463,732; 6308,476;    2,016;   -1,045
464,320; 6163,511;   -0,075;   -3,045
464,907; 5963,199;    2,743;   -0,773
465,495; 5877,650;    0,743;   -1,227
466,082; 5980,681;   -1,984;   -0,045
466,670; 5855,607;   -2,529;    1,227
467,257; 6221,422;   -1,711;    2,045
467,844; 6407,643;   -0,075;    0,045
468,432; 6421,048;    0,834;    3,500
469,019; 6070,597;    0,925;   -1,773
469,606; 6420,687;    0,470;    3,682
470,193; 6299,724;   -1,439;    0,227
470,780; 6004,964;   -2,075;    0,864
471,368; 6226,018;   -1,257;   -0,773
471,955; 6055,821;    1,379;   -0,682
472,542; 5811,637;    0,652;   -1,136
473,129; 5984,777;   -0,166;    0,136
473,716; 5785,064;    1,470;    0,591
474,303; 5915,300;    0,652;   -0,864
474,890; 6137,181;   -1,439;   -0,500
475,477; 6192,826;   -1,621;    0,409
476,064; 6099,562;    1,106;   -1,591
476,650; 6036,134;    0,288;    0,318
477,237; 5892,679;   -0,258;    0,955
477,824; 6020,411;   -1,076;    0,864
478,411; 6000,485;   -1,894;   -0,318
478,997; 6161,514;    0,560;   -0,773
479,584; 6188,298;    1,196;   -0,409
480,171; 6774,884;   -0,440;   -0,773
480,757; 6508,681;    2,651;    0,773
481,344; 6688,550;    0,469;    0,409
481,931; 6245,027;    1,105;    1,045
482,517; 6995,111;   -1,258;    0,318
483,104; 7321,728;    1,106;    2,864
483,690; 7493,491;   -1,804;    0,045
484,276; 7683,744;   -0,895;    0,227
484,863; 7514,349;    2,469;    1,136
485,449; 7891,502;   -0,077;    0,318
486,035; 7882,452;   -1,986;   -0,136
486,622; 8236,205;   -0,895;    0,045
487,208; 8125,194;    1,378;    1,500
487,794; 8031,958;    0,741;    0,318
488,380; 8138,991;    0,105;   -1,409
488,967; 8225,633;   -1,168;   -0,409
489,553; 8233,590;   -1,895;   -1,409
490,139; 8411,256;    1,559;    0,773
490,725; 8048,527;    0,741;   -0,227
491,311; 7775,959;    3,287;    3,045
491,897; 7255,540;   -0,986;    1,500
492,483; 7220,143;    0,105;    1,227
493,069; 7282,806;    3,923;    0,864
493,655; 7140,660;    1,650;    0,682
494,241; 7059,183;    1,377;   -0,955
494,826; 7365,699;    0,287;   -1,045
495,412; 6924,905;    2,559;   -0,682
495,998; 7047,507;   -0,805;   -0,318
496,584; 7106,226;    0,377;    1,045
497,169; 7047,908;    1,014;   -0,682
497,755; 7053,399;    0,650;    1,227
498,341; 7541,108;    0,559;    0,318
498,926; 7199,151;    1,832;    1,955
499,512; 7317,259;    1,286;    2,955
500,097; 7311,252;    0,195;   -0,318
500,683; 7285,019;   -0,350;    2,136
501,268; 7599,007;   -0,169;   -0,955
501,854; 7412,579;   -0,169;    1,227
502,439; 7337,879;   -0,624;   -1,773
503,024; 7444,225;    0,195;    0,500
503,610; 7500,031;   -0,078;   -0,682
504,195; 7482,579;    0,558;    1,955
504,780; 7619,569;    2,922;    1,227
505,366; 7517,044;    3,013;    2,864
505,951; 7298,119;    0,740;    1,045
506,536; 7309,800;   -3,260;   -3,682
507,121; 7291,682;    0,285;   -0,318
507,706; 7690,172;    2,376;    1,045
508,291; 7929,828;    2,649;    1,136
508,876; 7482,198;   -0,988;    2,591
509,461; 7086,768;   -0,169;   -0,773
510,046; 7441,776;    0,194;    0,318
510,631; 7641,908;   -0,351;   -0,773
511,216; 7396,625;    2,467;   -0,500
511,801; 7711,538;   -0,442;    2,591
512,386; 7862,554;    0,740;    0,500
512,971; 7799,400;   -2,988;    0,955
513,555; 7485,000;   -0,897;   -1,500
514,140; 8118,531;   -0,442;   -3,136
514,725; 8074,551;   -0,715;   -1,136
515,309; 8139,571;   -0,533;    0,318
515,894; 7768,111;   -0,624;   -2,227
516,479; 8134,835;   -0,624;   -0,955
517,063; 7950,456;    0,376;    1,227
517,648; 8092,564;    1,012;   -1,136
518,232; 7729,318;   -0,261;   -1,409
518,817; 8060,438;   -0,079;    1,682
519,401; 8238,343;    2,194;    0,591
519,985; 7782,764;    1,103;    1,136
520,570; 7691,183;    0,830;   -1,955
521,154; 7964,263;    2,102;    0,591
521,738; 8085,472;   -2,352;    2,409
522,323; 8593,556;   -0,170;    1,682
522,907; 8345,776;    0,466;   -0,136
523,491; 8116,175;    0,557;    0,955
524,075; 8083,841;    2,284;    0,591
524,659; 8186,726;    1,466;    0,591
525,243; 7808,130;    1,739;    0,409
525,827; 7953,526;    0,648;   -0,045
526,411; 8560,362;   -1,989;   -0,136
526,995; 8761,698;   -0,352;    1,409
527,579; 8446,377;   -0,443;   -1,045
528,163; 8651,923;    0,375;   -1,500
528,747; 8655,198;    2,466;   -0,773
529,331; 8834,042;   -0,080;   -1,409
529,915; 8958,092;    1,738;    0,955
530,499; 8911,614;   -0,807;    1,227
531,082; 8682,505;   -0,534;    1,591
531,666; 8297,648;    1,374;    0,773
532,250; 8771,318;    1,284;    2,682
532,833; 8987,535;    0,920;    2,773
533,417; 8907,067;   -1,807;    0,864
534,001; 8817,103;    1,647;   -0,318
534,584; 9381,648;    0,374;    0,500
535,168; 9233,231;    0,465;    1,409
535,751; 9272,290;    0,647;    0,045
536,334; 8774,124;   -0,898;   -0,409
536,918; 9288,840;    0,011;    1,591
537,501; 9326,217;   -0,899;    1,318
538,085; 9336,815;   -0,444;    1,045
538,668; 9390,390;    0,829;    2,409
539,251; 9689,238;    1,829;    3,773
539,834; 9741,312;    0,101;    0,773
540,418; 9685,909;   -1,990;    4,318
541,001; 9713,487;   -0,990;    1,773
541,584; 9686,139;    2,101;    2,227
542,167; 9410,404;    1,374;    2,955
542,750; 9478,444;    1,919;   -0,773
543,333; 9111,900;    0,555;    2,136
543,916; 9805,967;    0,192;    2,500
544,499;10188,576;   -1,354;    0,227
545,082;10222,679;    1,374;    3,591
545,665;10317,851;    1,919;    1,500
546,248;10511,627;    1,010;   -0,318
546,830;10266,786;   -0,445;    1,955
547,413;10599,609;    1,010;   -0,773
547,996;10988,436;    0,555;    0,500
548,579;10781,461;    0,919;    0,955
549,161;10601,199;    1,828;    2,682
549,744;10410,769;   -0,809;    0,409
550,326;10819,369;   -0,809;   -1,136
550,909;10672,813;    2,737;    0,591
551,492;11011,389;   -0,263;    0,227
552,074;10812,234;   -0,173;   -1,318
552,657;11284,283;    2,373;    0,045
553,239;11133,099;   -0,173;   -0,773
553,821;11017,924;   -1,082;    1,045
554,404;10616,732;    1,282;    1,136
554,986;10917,964;    0,464;    1,045
555,568;11379,053;    1,191;   -0,955
556,151;10745,265;    1,191;   -0,227
556,733;10889,420;   -0,264;   -0,864
557,315;11268,919;    0,100;    0,500
557,897;10993,423;    0,554;   -0,500
558,479;11122,411;   -1,991;    1,318
559,061;11227,492;   -0,719;   -0,864
559,643;11534,545;   -0,264;    0,045
560,225;11753,428;    1,645;    2,864
560,807;11767,363;    0,918;    0,318
561,389;11388,592;    0,554;    2,318
561,971;11916,888;    0,463;    2,136
562,553;11797,861;   -1,628;    1,591
563,135;11885,032;   -0,537;    1,136
563,717;11540,844;    3,372;    1,136
564,298;12051,592;    3,645;   -0,045
564,880;11794,227;    0,645;   -1,409
565,462;11883,045;    0,645;    1,318
566,043;12828,953;   -0,446;    2,318
566,625;12396,517;    1,918;    1,227
567,207;12207,638;    1,099;    1,682
567,788;13002,273;   -1,264;    1,500
568,370;13583,877;    1,917;   -0,500
568,951;13342,210;    0,190;    0,227
569,533;13959,800;   -0,628;   -0,500
570,114;14303,538;   -0,446;    0,682
570,695;14657,543;   -0,174;   -1,318
571,277;14846,230;   -0,265;   -1,682
571,858;15348,258;    2,008;   -1,136
572,439;15921,929;    1,554;   -1,045
573,021;15974,245;    2,099;   -2,773
573,602;16332,758;   -1,265;    0,318
574,183;16995,584;   -2,083;    2,227
574,764;16940,070;   -1,629;    0,409
575,345;17264,412;    0,917;   -0,136
575,926;17713,784;   -0,356;    0,136
576,507;17665,595;    1,099;   -0,227
577,088;18488,570;    3,099;    1,682
577,669;18500,558;    0,735;    1,955
578,250;19075,675;    0,644;   -1,045
578,831;19427,204;   -1,356;   -2,227
579,412;19499,134;   -0,810;    0,955
579,993;20259,872;    1,008;    0,227
580,573;20522,241;   -0,629;   -0,955
581,154;19593,928;    0,735;   -0,591
581,735;20331,189;    0,644;    0,773
582,315;19899,644;   -0,629;    2,136
582,896;20136,525;   -0,174;    1,227
583,477;19709,990;    0,189;    1,227
584,057;19899,303;    0,553;    0,955
584,638;20118,508;    2,553;    2,318
585,218;20160,430;   -0,538;    2,682
585,799;20272,057;    0,281;   -0,227
586,379;20286,389;    0,372;    1,591
586,959;19410,723;    0,735;    0,318
587,540;18982,187;   -0,629;    2,227
588,120;18713,329;    1,007;   -0,045
588,700;18028,597;    2,553;    2,136
589,281;18337,739;    0,462;   -0,955
589,861;18233,834;    0,099;   -1,682
590,441;18125,974;    2,371;   -2,682
591,021;17382,436;   -0,265;   -2,591
591,601;17636,179;   -0,537;    0,500
592,181;17735,095;   -0,719;   -0,773
592,761;17123,922;    0,007;    1,409
593,341;17114,809;   -0,901;    0,045
593,921;17121,183;   -0,265;    1,591
594,501;17095,202;   -0,538;    1,318
595,081;16952,698;    0,917;   -0,318
595,661;17301,289;   -1,447;    0,955
596,240;17727,657;   -0,537;    0,136
596,820;17342,851;    0,372;    1,955
597,400;17348,823;    2,008;    0,773
597,980;17579,648;    2,008;    1,045
598,559;17621,060;    2,735;   -0,227
599,139;17451,404;   -0,174;   -1,227
599,718;17327,313;   -0,174;   -0,409
600,298;17598,357;    0,735;    0,682
600,877;17790,319;    2,917;    1,409
601,457;18030,877;    2,281;    1,136
602,036;17993,015;    0,190;    2,045
602,616;18050,394;    0,644;    1,682
603,195;18328,441;   -0,355;    3,500
603,774;17939,397;   -0,901;    2,045
604,354;17841,426;    0,826;   -0,500
604,933;17532,143;    0,463;    1,864
605,512;17635,983;    3,554;    0,591
606,091;17697,728;   -0,537;    3,773
606,671;18377,743;    0,281;    0,773
607,250;17693,161;    1,644;    3,136
607,829;17878,223;    2,372;    3,227
608,408;17771,741;    1,190;    2,591
608,987;17025,315;    1,281;    3,409
609,566;17197,361;   -1,265;   -2,500
610,145;17364,217;   -1,082;    0,682
610,723;17734,258;    4,372;    6,864
611,302;17056,209;   -0,446;    1,682
611,881;16677,333;    5,008;   11,227
612,460;17340,435;    1,645;    3,955
613,039;17733,011;   -0,082;    2,045
613,617;16688,900;    1,736;    4,773
614,196;16840,823;    1,099;    1,227
614,775;17145,024;    1,009;    2,409
615,353;17105,931;    0,736;    0,864
615,932;16956,942;    0,100;    2,409
616,510;17481,588;    0,554;    0,591
617,089;17122,408;    7,100;   17,591
617,667;16981,924;    2,372;    6,136
618,246;16808,534;   -1,537;    1,318
618,824;16929,526;   -3,355;   -0,955
619,402;16562,962;   -2,900;   -1,773
619,981;16983,658;   -0,173;   -1,045
620,559;16907,254;    0,009;    1,682
621,137;16567,483;   -0,718;    1,864
621,715;16542,342;   -1,173;   -0,682
622,293;16439,205;   -0,537;   -0,773
622,871;16918,192;   -0,718;    0,500
623,450;16616,890;    0,373;   -0,864
624,028;16543,388;    0,191;   -0,955
624,606;16209,434;   -1,718;    1,682
625,183;16511,669;   -1,536;   -1,136
625,761;16276,051;    1,009;    1,136
626,339;16509,044;    1,373;    2,591
626,917;16768,985;   -0,172;   -0,045
627,495;16864,772;   -0,354;    1,318
628,073;16405,074;   -0,263;    2,864
628,650;16153,242;    0,100;    2,136
629,228;16522,261;    0,373;    4,409
629,806;16051,568;    2,282;    1,136
630,383;16268,041;    1,464;   -0,318
630,961;16195,501;    2,555;   -0,955
631,539;15937,235;    2,464;    0,227
632,116;15452,501;   11,373;   15,409
632,694;15891,276;    2,555;    6,500
633,271;16057,438;    0,828;    2,682
633,848;16095,361;    1,828;    2,045
634,426;16123,053;   -1,081;    1,773
635,003;15399,786;    1,101;   -0,409
635,580;15620,497;    1,192;    3,682
636,158;16092,136;    3,737;    1,227
636,735;16129,553;    0,555;   -0,500
637,312;16146,880;   -0,809;   -0,682
637,889;16226,667;   -4,354;   -0,682
638,466;15862,790;   -3,990;   -0,409
639,043;15817,714;    2,101;   -1,136
639,620;16079,890;   -2,262;   -0,955
640,197;16375,457;    1,100;    1,682
640,774;16495,456;   -0,172;    1,136
641,351;16821,273;    0,737;    1,136
641,928;16459,818;   -0,627;    1,409
642,505;16149,362;    0,828;   -0,500
643,082;16259,270;   -1,718;    1,227
643,658;15481,906;   -0,718;    1,500
644,235;16002,632;    1,191;    2,500
644,812;16207,904;    1,918;    0,773
645,388;16047,630;   -0,991;    1,409
645,965;16076,356;   -0,809;    1,682
646,542;16178,901;   -1,445;   -0,227
647,118;16239,627;    1,009;   -0,955
647,695;16416,535;   -0,263;    1,136
648,271;16342,352;   -0,536;    0,500
648,848;16547,351;    0,736;    2,227
649,424;16483,259;    0,827;    1,318
650,000;16191,077;   -0,354;   -1,045
650,577;16052,894;   -0,627;   -0,955
651,153;16417,075;   -1,809;    0,955
651,729;17216,983;    1,191;    0,864
652,305;17249,254;    0,645;    2,773
652,881;19993,344;   -0,082;    1,136
653,458;24534,889;    1,100;    0,227
654,034;27003,615;    0,282;    1,591
654,610;27931,432;    0,554;    0,773
655,186;28939,977;    0,645;    3,045
655,762;28582,158;   -0,991;    0,409
656,338;28599,884;    0,100;    0,136
656,913;29419,065;   -0,082;    0,409
657,489;28731,427;    0,827;   -0,318
658,065;28824,517;   -0,173;   -1,591
658,641;29443,971;   -0,900;   -0,864
659,217;28863,879;   -0,991;    0,409
659,792;28264,333;    0,645;   -0,409
660,368;28597,604;   -2,173;   -0,682
660,944;28633,785;   -2,082;    1,227
661,519;25639,511;   -0,628;    0,409
662,095;21714,965;   -1,719;    0,591
662,670;18599,964;    1,281;   -0,136
663,246;17946,054;    1,009;   -0,409
663,821;17464,689;    0,281;    1,682
664,396;16978,870;    0,009;    1,864
664,972;17205,142;    0,009;   -0,500
665,547;17488,595;    1,372;    0,136
666,122;17507,231;   -1,082;    0,318
666,698;17752,775;   -0,173;    0,318
667,273;17147,047;   -0,173;    0,136
667,848;17805,591;    2,372;    1,500
668,423;17615,318;    2,190;    2,318
668,998;17944,044;    2,827;   -0,682
669,573;18438,043;   -3,264;   -1,500
670,148;18308,315;   -1,446;   -0,682
670,723;18039,223;   -1,810;    0,318
671,298;18412,495;    2,372;    1,045
671,873;18467,494;   -0,082;   -0,136
672,448;18420,856;    0,645;    0,136
673,023;18679,946;   -1,992;   -0,227
673,597;19016,127;    0,827;    2,318
674,172;18845,217;   -0,355;    0,318
674,747;18343,398;    0,372;   -1,045
675,321;18138,760;   -0,628;    3,318
675,896;17812,487;    0,645;    1,045
676,471;18631,940;    2,645;    1,591
677,045;18423,848;   -1,264;    0,682
677,620;18448,575;    0,190;    1,136
678,194;18782,392;   -2,628;    1,136
678,769;18468,936;   -1,083;   -0,318
679,343;18631,208;   -0,628;    1,773
679,917;18541,480;   -1,446;    1,955
680,492;18539,570;    0,826;    3,227
681,066;18669,296;    3,372;    0,409
681,640;18722,477;    1,463;   -0,318
682,214;19406,021;    0,735;    0,500
682,788;19012,020;   -1,356;   -0,773
683,363;18898,928;   -1,810;    1,682
683,937;18617,473;   -1,719;   -0,318
684,511;19265,563;    0,463;   -0,591
685,085;18997,016;   -1,356;    0,318
685,659;18783,379;   -2,538;    0,864
686,232;19053,014;   -0,356;   -0,318
686,806;18807,741;   -0,901;    0,409
687,380;19347,467;   -0,174;    0,591
687,954;19544,375;   -1,174;    1,136
688,528;19248,919;   -0,719;    1,955
689,101;19921,373;   -3,992;    1,045
689,675;19541,645;   -0,356;   -0,136
690,249;18981,280;   -0,719;    0,409
690,822;19329,188;    0,280;    0,318
691,396;19461,551;   -0,265;    1,227
691,969;19025,186;    1,280;    0,136
692,543;19461,731;   -0,447;   -1,955
693,116;19125,002;   -0,265;   -1,409
693,690;19019,183;    0,099;    0,500
694,263;19520,637;   -1,083;    2,955
694,836;19545,090;    1,371;    3,591
695,410;18336,180;   -0,265;    1,773
695,983;18711,725;    0,189;    0,591
696,556;18746,906;   -0,447;   -1,045
697,129;19091,177;   -0,356;    1,409
697,703;18775,722;   -1,629;    1,955
698,276;18828,903;    1,462;   -0,773
698,849;18656,720;    1,280;    1,409
699,422;19003,446;   -1,083;    0,591
699,995;18806,991;    0,007;    0,136
700,568;19209,808;   -0,629;    3,045
701,140;19167,625;   -2,811;    1,682
701,713;18992,988;   -0,174;    2,409
702,286;18814,168;   -0,538;    0,864
702,859;18674,713;   -0,902;   -0,591
703,432;18012,894;    0,825;    0,682
704,004;18360,438;    0,462;    0,318
704,577;18239,346;   -0,629;    0,136
705,150;18746,618;    0,189;    2,500
705,722;18605,435;   -0,356;   -3,227
706,295;18475,980;   -0,175;   -0,591
706,867;18338,160;   -0,175;    1,955
707,440;18546,250;   -1,720;   -0,409
708,012;18784,886;    0,462;    0,591
708,584;18694,157;    2,462;    0,227
709,157;18977,611;    1,825;   -0,591
709,729;18725,155;    2,280;    2,045
710,301;19433,609;    0,734;    0,045
710,874;19463,063;   -1,447;   -0,227
711,446;18444,062;    0,371;    0,864
712,018;18370,879;    0,098;    0,500
712,590;18156,151;   -1,993;    1,682
713,162;18647,604;    0,825;    1,318
713,734;18894,330;    1,825;   -2,045
714,306;18849,784;   -1,902;   -0,409
714,878;17723,510;    0,825;    0,864
715,450;18501,509;    0,643;    0,864
716,022;18742,417;    1,552;    1,318
716,593;18910,053;    0,189;    0,591
717,165;18823,506;   -3,175;   -1,227
717,737;18647,596;    0,280;    0,409
718,309;18359,141;    0,280;   -0,045
718,880;18343,140;   -0,539;   -1,409
719,452;18547,502;   -0,175;   -1,591
720,024;18255,592;    0,734;   -0,591
720,595;18728,409;   -2,902;    0,955
721,167;18377,681;    0,370;   -2,045
721,738;17935,317;   -0,812;   -1,045
722,309;18031,225;   -0,993;   -1,227
722,881;17866,042;   -1,357;    0,773
723,452;18417,950;   -2,630;    2,864
724,023;18613,313;   -0,721;    2,682
724,595;18473,493;    0,007;    0,682
725,166;18235,038;    0,007;   -0,409
725,737;17892,673;    1,734;    0,227
726,308;18007,309;   -0,266;    0,318
726,879;18414,399;   -1,630;    1,227
727,450;18269,488;    0,552;   -0,045
728,021;18236,215;    3,097;    0,682
728,592;18118,305;    0,734;    0,500
729,163;18470,576;    0,643;   -0,136
729,734;18475,848;    0,188;   -0,227
730,305;18809,483;    1,734;    0,136
730,876;19106,846;    0,188;    2,955
731,447;18882,118;    2,188;    2,682
732,017;19010,390;    1,097;    1,864
732,588;18665,934;    0,734;    1,227
733,159;18808,115;    0,643;   -1,045
733,729;18640,568;    0,006;    0,409
734,300;18088,840;    0,915;    0,864
734,870;18501,930;    3,461;    0,591
735,441;18983,929;    0,370;   -0,591
736,011;18809,201;    0,643;   -1,591
736,582;18806,654;   -0,812;    0,045
737,152;18308,835;   -1,721;   -2,045
737,722;18753,562;   -0,267;   -0,682
738,293;18510,015;   -1,358;    1,318
738,863;18458,105;    2,461;    2,318
739,433;18329,831;    5,279;    0,318
740,003;18949,830;   -0,994;   -0,682
740,573;18438,557;    2,097;   -1,591
741,143;18460,737;   -1,085;    0,318
741,713;19097,736;    1,188;   -0,500
742,283;18878,281;    0,915;    1,591
742,853;18704,189;    1,915;    1,591
743,423;18251,188;    1,733;    0,045
743,993;18322,551;   -0,358;    1,500
744,563;17817,004;    0,097;   -0,864
745,133;17788,094;   -0,812;   -0,864
745,702;18415,820;   -0,267;    1,773
746,272;17717,365;   -0,176;    0,591
746,842;17569,909;   -1,358;   -0,591
747,411;17962,636;   -0,267;   -0,318
747,981;18089,362;    0,097;    0,500
748,551;18159,815;    2,278;   -1,045
749,120;18045,542;    0,642;   -0,227
749,690;18325,723;   -0,631;    2,409
750,259;18647,903;    1,369;    2,955
750,828;18492,266;    1,551;   -1,955
751,398;18730,447;    1,278;   -0,045
751,967;18329,537;    2,187;    0,409
752,536;18538,081;   -0,813;   -0,227
753,105;18958,262;    0,096;    0,227
753,675;18698,716;    0,096;    1,773
754,244;18612,896;   -0,904;    3,591
754,813;18684,259;    0,551;    1,227
755,382;18296,622;    0,460;    0,955
755,951;18746,439;    1,551;    3,682
756,520;18429,802;   -0,085;    1,864
757,089;18925,346;    0,278;    0,500
757,658;18968,800;    1,733;    1,227
758,227;18976,708;    1,096;    0,318
758,795;19203,707;    1,187;    1,136
759,364;19476,615;   -0,086;   -0,591
759,933;18564,705;   -1,176;   -0,045
760,501;18165,067;    0,733;   -1,318
761,070;18543,612;   -2,813;   -1,409
761,639;19215,793;   -1,904;    1,318
762,207;18605,610;    1,551;   -0,955
762,776;18528,427;    0,369;    0,864
763,344;18544,972;   -0,995;    0,591
763,913;17698,061;   -0,722;    1,409
764,481;18400,697;    1,005;   -0,136
765,049;18275,969;   -1,358;    1,409
765,618;18142,695;   -0,086;    0,318
766,186;18280,512;    0,278;    0,136
766,754;18449,147;    0,005;    1,864
767,322;17582,510;   -1,995;    0,409
767,890;17558,691;   -0,722;   -1,773
768,459;18007,417;   -2,177;   -0,318
769,027;18153,689;    1,641;    3,409
769,595;17266,233;    3,278;    2,591
770,163;17638,869;    3,823;    2,955
770,730;17475,322;    0,732;   -0,136
771,298;17344,685;    0,187;   -1,409
771,866;17431,775;   -1,541;    4,955
772,434;17735,501;   -0,631;   -1,864
773,002;17882,409;    0,005;    0,682
773,569;17605,954;    0,914;    1,682
774,137;17434,225;   -0,268;   -0,045
774,705;18118,679;    0,278;   -0,136
775,272;17754,769;    0,641;    0,682
775,840;17591,677;   -0,177;    2,682
776,407;17112,312;    0,277;    1,955
776,975;16738,130;   -0,632;    0,318
777,542;17638,401;   -1,086;   -0,045
778,110;17576,491;   -1,268;   -0,045
778,677;17256,672;   -2,359;   -0,864
779,244;17033,398;    2,186;    1,045
779,812;17145,852;    1,823;    0,864
780,379;16985,942;    0,005;    1,136
780,946;17181,486;    1,005;   -0,773
781,513;17451,122;   -1,450;    0,318
782,080;16911,575;   -0,086;    2,864
782,647;17531,847;   -0,268;    3,045
783,214;17218,482;   -0,177;    3,864
783,781;16866,118;   -0,723;   -0,682
784,348;16748,208;   -0,632;    1,500
784,915;17112,934;   -3,177;    0,318
785,482;16961,024;    1,368;    2,591
786,049;17369,841;    0,186;   -0,591
786,615;17483,658;    0,277;   -0,955
787,182;17274,112;    0,186;   -0,682
787,749;16957,020;   -2,814;    1,409
788,315;16369,837;   -1,632;   -0,409
788,882;16651,382;    1,550;   -1,227
789,448;17244,926;    1,732;   -0,955
790,015;17256,016;    1,095;    3,227
790,581;16922,015;    1,459;    0,227
791,148;16760,105;    0,641;    1,045
791,714;16945,740;   -0,541;    3,136
792,280;16724,466;    0,186;    1,591
792,847;16426,465;    0,550;    2,500
793,413;16784,737;   -0,269;   -0,318
793,979;16438,645;    3,459;   -1,318
794,545;16546,372;    4,459;    2,682
795,111;16073,552;    2,186;    1,318
795,678;16180,461;    0,731;   -1,682
796,244;15876,005;    3,368;    0,136
796,810;16347,186;    1,731;    0,773
797,375;16161,094;    0,549;   -2,136
797,941;16138,002;   -0,541;    0,591
798,507;16224,092;   -0,451;   -0,955
799,073;15888,636;   -0,360;    0,591
799,639;15995,363;   -2,632;    3,136
800,205;15998,907;    0,095;    2,682
800,770;15637,361;    0,640;    1,773
801,336;15681,178;    1,368;   -0,955
801,901;15476,904;    4,549;    3,136
802,467;15973,903;   -0,542;    2,045
803,033;15371,084;   -0,087;    0,864
803,598;15547,901;    1,913;   -1,045
804,163;15586,537;    1,095;   -0,318
804,729;15550,081;   -0,178;    1,136
805,294;15823,807;    0,822;    2,227
805,859;15637,352;    0,731;   -0,409
806,425;15251,624;    1,186;    2,682
806,990;14950,259;    2,186;    4,318
807,555;15338,712;   -1,451;    2,591
808,120;15293,711;    0,822;   -0,409
808,685;15356,892;    0,185;   -2,500
809,250;14946,346;    0,004;   -0,500
809,815;15163,163;    1,913;    0,682
810,380;15618,344;   -0,269;    1,591
810,945;16036,252;   -1,087;    2,045
811,510;15383,069;    2,094;    1,591
812,075;15137,886;   -0,633;   -1,409
812,640;15195,249;    2,003;    1,409
813,204;15232,793;    0,822;   -0,227
813,769;15706,974;    2,094;   -0,045
814,334;15218,882;    0,458;    0,864
814,898;15263,154;    0,367;    0,591
815,463;15095,790;    1,276;   -0,773
816,027;15128,879;   -0,724;   -2,318
816,592;15275,424;    0,640;   -2,045
817,156;14842,787;    2,094;    1,136
817,721;14689,786;    4,276;    2,318
818,285;14732,057;    2,912;    1,500
818,849;15268,147;   -1,451;    1,682
819,414;15136,328;   -0,269;    2,955
819,978;14778,873;   -1,269;    1,773
820,542;15310,781;    2,003;    0,500
821,106;15196,780;   -0,815;    0,682
821,670;15243,688;   -0,815;    2,591
822,234;14965,505;   -0,270;    1,409
822,798;14505,231;    0,003;    0,500
823,362;14566,957;   -0,633;    4,227
823,926;14024,138;    0,094;    1,136
824,490;14210,683;   -0,997;   -0,682
825,054;14640,864;   -0,088;   -1,136
825,618;14332,499;   -1,542;   -1,500
826,181;14309,862;    0,458;   -1,318
826,745;14260,224;    1,367;   -1,045
827,309;14605,041;    1,185;    1,318
827,872;14116,040;    1,367;    0,955
828,436;14959,221;    1,185;   -0,773
828,999;15110,857;   -0,997;    1,227
829,563;14149,583;   -0,179;    1,136
830,126;13998,400;   -0,179;   -0,591
830,690;14062,308;   -1,997;    2,864
831,253;13627,307;   -0,543;    2,227
831,816;13796,306;   -1,906;    0,500
832,380;13762,214;    0,185;    0,864
832,943;14019,032;   -1,361;   -0,500
833,506;13592,849;    2,639;   -1,227
834,069;14309,575;    3,912;   -0,955
834,632;14438,210;    1,730;    1,318
835,195;14339,664;    1,003;    0,955
835,758;13690,936;   -0,997;    1,955
836,321;13544,298;    0,730;   -1,045
836,884;13651,661;   -0,725;   -0,955
837,447;13696,569;   -2,816;    1,773
838,010;13959,023;    0,366;    3,227
838,573;14263,840;   -1,179;    0,773
839,135;14243,657;   -1,361;   -0,955
839,698;13774,747;    1,275;    0,409
840,261;13363,110;    1,003;   -0,227
840,823;13231,836;   -0,543;    0,864
841,386;13538,108;   -0,452;   -2,409
841,948;13469,470;   -1,361;    1,773
842,511;13201,469;    0,912;    1,682
843,073;13324,923;    1,912;    0,227
843,636;13176,831;   -0,361;   -0,227
844,198;13132,194;    0,911;    0,591
844,760;13297,465;    1,093;    1,955
845,322;12968,192;    0,548;    1,136
845,885;13364,463;    0,730;    0,591
846,447;13789,190;   -1,998;    0,227
847,009;13441,825;    1,911;   -0,682
847,571;13715,460;    0,820;   -2,045
848,133;13788,641;   -1,089;   -1,864
848,695;13638,186;   -0,543;    1,409
849,257;13270,639;   -1,089;   -1,682
849,819;13421,729;   -0,998;   -0,409
850,381;13415,910;   -0,725;   -0,864
850,942;13711,909;    1,093;   -0,591
851,504;13687,272;    1,184;    0,227
852,066;13734,907;    1,275;   -1,591
852,628;13362,815;   -0,180;    1,955
853,189;12948,087;    1,638;    2,682
853,751;13113,449;   -0,907;    1,409
854,312;12931,903;   -0,453;   -1,682
854,874;13390,357;   -2,089;   -0,773
855,435;13826,083;   -0,907;   -1,682
855,997;13982,536;   -1,816;   -0,136
856,558;13345,808;    0,366;    1,773
857,119;13439,989;    0,820;    2,864
857,681;13185,170;    0,002;    0,318
858,242;13225,078;    1,911;   -2,136
858,803;13658,531;    0,456;   -0,773
859,364;14174,530;    0,184;   -4,773
859,925;13576,166;   -2,453;   -0,955
860,486;13479,347;   -0,453;   -0,955
861,047;13247,709;   -0,544;   -1,227
861,608;13112,163;   -1,089;   -0,773
862,169;13259,889;    0,638;   -0,045
862,730;13068,888;    0,456;    1,409
863,291;13300,433;   -0,635;   -0,500
863,852;13622,159;   -0,635;    1,955
864,412;13182,522;   -0,271;   -0,864
864,973;11958,884;   -0,089;    0,500
865,534;11835,610;   -1,726;    0,227
866,094;13140,973;    1,820;    0,227
866,655;12857,245;    1,274;    3,318
867,215;13141,971;    0,274;    0,136
867,776;13029,788;    0,547;   -0,136
868,336;13106,060;   -1,453;    0,136
868,897;12720,241;    2,638;    1,682
869,457;12485,785;    1,365;    0,318
870,017;12703,603;    0,547;   -1,227
870,578;13153,238;   -0,817;    0,773
871,138;12824,782;   -2,089;   -0,955
871,698;12445,872;   -0,817;   -1,318
872,258;12386,508;   -0,453;   -2,864
872,818;12750,416;    2,729;    0,045
873,378;12701,233;    0,638;    1,045
873,938;12347,596;    0,547;    0,500
874,498;12622,322;    0,274;   -1,955
875,058;12557,775;    2,183;    1,773
875,618;12442,956;    1,910;   -2,682
876,177;12366,410;    1,274;    0,136
876,737;12072,045;   -0,090;    1,955
877,297;12139,953;    0,183;    1,955
877,856;12177,043;   -0,362;    0,318
878,416;12110,315;    1,183;   -0,136
878,976;12311,496;   -1,817;    0,409
879,535;12473,040;    0,092;    3,136
880,095;12270,039;   -0,544;    0,045
880,654;12366,675;   -1,090;    1,318
881,213;12508,401;    2,456;    1,500
881,773;12158,400;    2,637;    2,682
882,332;12563,217;    3,365;    5,136
882,891;12408,125;    3,092;    2,136
883,451;12799,488;   -1,272;    1,682
884,010;12308,760;   -2,908;   -0,409
884,569;12430,668;   -0,999;   -0,045
885,128;12548,485;    2,819;   -1,864
885,687;12625,757;    4,455;    0,682
886,246;12372,392;    1,455;    2,136
886,805;12143,391;    2,455;    2,045
887,364;12408,026;   -0,999;   -0,500
887,922;12736,025;   -1,181;    0,045
888,481;12291,661;   -1,545;    0,591
889,040;12573,114;    1,183;    2,136
889,599;13135,841;    2,455;    1,409
890,157;13248,294;    1,455;    2,409
890,716;12885,020;   -0,090;    0,227
891,274;12762,838;    0,092;   -1,136
891,833;13150,019;    1,546;    0,864
892,391;13031,745;   -0,454;    0,500
892,950;13104,926;    1,819;   -0,773
893,508;13476,925;    0,455;   -0,409
894,067;12858,651;    0,637;    0,136
894,625;12797,286;   -0,636;   -1,500
895,183;13038,013;   -0,363;   -0,682
895,741;12965,921;    1,728;   -1,773
896,299;12828,647;   -0,545;   -2,409
896,858;13000,919;    0,819;   -1,591
897,416;13136,009;    2,728;   -1,318
897,974;12938,735;    1,819;    0,318
898,532;13128,007;    6,091;    2,682
899,089;13053,187;    2,091;   -0,682
899,647;13123,641;   -1,454;    1,318
900,205;12887,549;    1,182;    1,045
900,763;13058,275;   -0,454;    0,227
901,321;13118,365;    2,364;   -1,409
901,878;12622,637;   -1,000;   -0,773
902,436;12555,363;   -1,363;    1,318
902,994;12966,635;    4,728;    3,682
903,551;12468,543;    0,728;    0,409
904,109;12824,633;    0,182;   -1,409
904,666;12457,996;    2,455;    1,045
905,224;12343,267;    0,182;   -0,409
905,781;12162,266;    0,727;   -0,318
906,338;12218,356;   -1,363;    1,045
906,895;12190,992;    0,637;    2,045
907,453;12161,991;    1,727;    1,136
908,010;12208,263;   -0,909;    0,409
908,567;11897,171;    1,273;    0,591
909,124;11451,806;    0,364;   -1,500
909,681;11544,350;   -2,909;    0,682
910,238;11736,077;    0,636;   -1,318
910,795;12087,621;   -0,273;   -1,136
911,352;11764,894;   -2,909;   -2,682
911,909;11270,803;   -1,364;   -0,864
912,466;11780,621;   -3,182;    1,500
913,022;11338,439;   -1,636;    0,500
913,579;11713,712;   -0,909;    2,045
914,136;11482,076;    1,636;    0,955
914,692;11832,712;    0,091;   -1,227
915,249;11454,439;    1,455;    0,409
915,806;11650,712;    0,182;    1,955
916,362;11525,894;    1,909;    1,864
916,918;11128,621;    2,000;    1,045
917,475;11150,530;   -1,182;    0,955
918,031;11252,530;    3,364;   -0,045
918,587;10835,712;   -0,909;   -0,318
919,144;11091,439;   -2,273;    0,227
919,700;11372,985;    1,727;    0,773
920,256;11027,258;    0,727;    0,045
920,812;10746,621;   -0,727;   -1,045
921,368;10852,894;   -1,727;   -1,045
921,924;10526,530;    0,182;   -0,136
922,480;10190,076;   -0,545;    1,227
923,036;10826,621;    1,273;    1,955
923,592;10807,894;    0,455;    0,318
924,148;10789,076;    0,455;   -0,955
924,704;10202,439;   -1,364;   -0,409
925,259;10570,530;   -0,273;    0,591
925,815;10400,348;    1,455;    0,500
926,371; 9972,803;    2,909;    1,409
926,926; 9955,439;    2,091;    0,591
927,482; 9684,348;   -1,364;    0,773
928,037; 9641,439;    0,909;    2,045
928,593; 9978,258;    1,636;    1,045
929,148; 9878,985;   -1,818;   -1,500
929,704; 9464,258;   -1,455;   -0,500
930,259; 9730,712;    0,091;   -0,136
930,814; 8951,712;   -0,818;    1,955
931,369; 8700,530;    1,091;   -0,773
931,925; 8696,985;   -0,091;    0,136
932,480; 8686,894;   -2,818;   -2,591
933,035; 8642,167;    0,545;   -0,318
933,590; 8517,167;    0,364;   -1,773
934,145; 8218,530;   -1,364;   -0,318
934,700; 8609,439;    0,455;   -0,591
935,255; 8458,803;   -0,091;    0,045
935,809; 7856,803;    3,182;    0,864
936,364; 7089,348;   -0,455;   -0,136
936,919; 7138,803;    0,455;   -1,773
937,474; 7117,985;    1,455;    0,136
938,028; 6924,439;   -1,636;    1,136
938,583; 6444,258;    1,818;    4,682
939,138; 6800,258;    2,091;    2,136
939,692; 6305,894;    1,636;   -1,136
940,247; 6068,258;   -0,727;   -1,045
940,801; 5659,712;   -0,636;    0,227
941,355; 5626,348;   -0,364;    2,591
941,910; 5333,258;   -0,273;   -2,136
942,464; 5483,167;   -0,818;   -0,318
943,018; 5300,439;    1,000;   -0,227
943,572; 5318,894;    2,545;   -0,682
944,126; 4771,167;    0,091;   -0,409
944,681; 4715,258;    3,091;    0,227
945,235; 4770,621;    1,000;   -0,591
945,789; 4781,439;    0,364;   -1,864
946,342; 4896,894;    0,455;   -0,591
946,896; 4797,258;   -2,273;    0,955
947,450; 4613,985;    1,545;   -0,227
948,004; 4858,803;    1,727;   -0,045
948,558; 4959,076;    0,273;   -0,864
949,111; 4947,348;   -0,273;   -0,318
949,665; 5013,167;    1,636;   -0,682
950,219; 4934,348;   -0,091;   -1,045
950,772; 5171,712;   -1,909;    1,864
951,326; 5124,712;    0,545;   -0,955
951,879; 5392,985;    0,727;   -2,318
952,433; 5526,167;    0,000;    2,227
952,986; 5447,621;    2,909;    0,682
953,539; 5522,985;   -0,273;    0,591
954,093; 5506,530;    0,545;   -1,318
954,646; 5769,985;    0,909;    1,318
955,199; 5693,530;    0,000;   -0,500
955,752; 5528,621;   -0,455;    1,773
956,305; 5651,439;   -0,091;    2,955
956,858; 5963,258;    0,818;   -0,318
957,411; 6255,167;   -0,545;    2,136
957,964; 6183,348;    1,364;    2,136
958,517; 6300,258;   -1,545;    3,136
959,070; 6169,803;   -0,455;    1,955
959,623; 6166,985;    1,091;    1,500
960,176; 5963,076;    1,727;    2,045
960,728; 5976,803;   -2,727;    0,773
961,281; 6156,530;    0,545;    0,500
961,834; 6337,348;   -0,909;    0,864
962,386; 6272,348;    1,727;    1,045
962,939; 6204,439;    0,364;   -0,318
963,491; 6513,894;    0,455;    1,136
964,043; 6358,258;    1,182;    2,409
964,596; 6590,712;   -1,000;    2,227
965,148; 6452,439;   -1,000;    1,773
965,700; 6334,530;    1,091;   -0,227
966,253; 6564,348;   -0,636;    0,318
966,805; 6324,167;   -2,273;    0,773
967,357; 6458,076;    1,091;   -1,500
967,909; 6358,258;    0,455;   -1,227
968,461; 6664,076;    0,545;    3,136
969,013; 6571,894;   -0,182;   -0,864
969,565; 6695,621;   -0,455;   -1,136
970,117; 6409,621;   -0,364;    1,045
970,669; 6474,530;    0,182;   -0,136
971,220; 6453,167;   -0,455;   -1,500
971,772; 6296,712;   -0,636;   -0,318
972,324; 6415,258;    0,091;   -0,500
972,876; 6481,348;    0,818;   -0,045
973,427; 6593,348;    1,909;   -1,045
973,979; 6482,712;   -0,727;   -2,500
974,530; 6751,985;    1,818;    1,318
975,082; 6780,803;   -0,545;    1,682
975,633; 6526,621;    1,091;    1,682
976,184; 6674,894;    0,909;    0,773
976,736; 6283,167;    0,091;    0,227
977,287; 5923,076;   -0,909;   -0,500
977,838; 6270,439;    0,909;   -0,318
978,389; 6381,258;   -1,000;   -0,500
978,940; 6219,621;    0,545;   -0,409
979,491; 6258,894;    0,091;   -0,500
980,042; 6169,712;    0,182;    3,045
980,593; 6325,712;   -2,545;    0,227
981,144; 6239,167;    2,545;   -0,500
981,695; 6072,439;    1,455;    1,500
982,246; 6094,167;   -0,273;    1,045
982,797; 6470,348;   -1,727;    0,682
983,347; 6535,894;    0,364;    0,591
983,898; 6700,258;    3,091;    0,409
984,449; 6303,894;    2,182;    0,773
984,999; 6396,258;    1,455;   -1,136
985,550; 5968,258;    0,182;   -0,318
986,100; 6097,803;   -0,455;   -0,318
986,651; 6096,167;   -0,818;    0,045
987,201; 6004,985;   -1,000;   -0,591
987,751; 6100,803;    0,818;    2,864
988,302; 6032,803;    2,636;    1,500
988,852; 6119,348;    0,455;   -1,136
989,402; 6013,621;    0,091;    0,682
989,952; 5852,439;   -2,182;    0,864
990,502; 6106,167;   -0,091;    0,682
991,052; 6103,712;   -0,727;    0,045
991,602; 5856,348;   -2,909;    1,318
992,152; 5745,348;    0,455;    0,682
992,702; 5713,167;    1,364;   -0,045
993,252; 5540,803;   -3,000;   -0,500
993,802; 5550,348;   -0,273;    1,318
994,352; 5957,439;   -1,545;    1,136
994,901; 6143,985;   -0,182;    3,227
995,451; 5960,439;   -0,182;    0,318
996,000; 6061,258;    1,636;    0,318
996,550; 5593,530;    2,273;    0,227
997,100; 5584,803;    1,273;   -0,045
997,649; 5909,803;    2,182;    0,955
998,198; 5336,348;    1,727;   -1,500
998,748; 5508,530;    1,091;   -2,318
999,297; 5489,894;   -0,818;   -0,409
999,846; 5424,076;    1,000;   -0,773
1000,395; 5514,167;   -0,818;    0,500
1000,945; 5245,167;    1,818;   -0,773
1001,494; 5359,530;    2,364;    0,682
1002,043; 5426,258;    4,636;    0,864
1002,592; 5242,894;   -1,091;    1,955
1003,141; 5327,530;   -0,455;   -0,682
1003,690; 5047,530;    1,727;    0,500
1004,238; 5268,803;    1,455;   -0,045
1004,787; 4781,439;    1,364;    1,227
1005,336; 4847,439;    0,364;    0,682
1005,885; 5117,167;    1,364;   -2,773
1006,433; 5395,803;    0,545;    0,955
1006,982; 5140,712;    0,455;    1,682
1007,531; 5129,894;   -1,818;   -0,227
1008,079; 5158,803;   -2,273;    0,500
1008,627; 5322,439;   -1,455;    0,409
1009,176; 4886,621;    0,000;   -1,955
1009,724; 4912,076;    1,091;    0,864
1010,273; 4852,439;    1,273;    0,500
1010,821; 5049,712;    0,091;    1,409
1011,369; 4667,985;   -1,364;    1,318
1011,917; 4597,439;   -1,364;   -0,591
1012,465; 4884,621;    1,273;   -1,591
1013,013; 5056,439;    2,091;   -1,682
1013,561; 4778,439;    0,455;   -0,773
1014,109; 4742,439;   -1,909;    1,682
1014,657; 4595,621;    0,364;    0,591
1015,205; 4780,439;    1,636;   -0,955
1015,753; 4860,439;   -0,545;   -1,409
1016,301; 4858,894;   -2,636;    3,045
1016,848; 4828,258;   -1,273;    0,409
1017,396; 4816,076;    2,545;    0,045
1017,944; 4950,985;    1,182;    1,864
1018,491; 4678,803;    0,273;    1,409
1019,039; 4599,167;    0,455;    0,591
1019,586; 4629,076;   -1,364;    1,682
1020,134; 4790,258;    0,455;    1,500
1020,681; 4756,167;    0,182;   -1,136
1021,228; 4790,348;    2,909;   -2,227
1021,776; 4530,894;    1,182;   -1,136
1022,323; 4696,258;    0,455;    0,773
1022,870; 4586,621;   -1,000;   -0,045
1023,417; 4410,712;    2,636;    1,864
1023,964; 4642,439;    2,636;    1,227
1024,511; 4350,439;    1,000;    0,773
1025,058; 4098,167;    3,182;   -0,045
1025,605; 4155,894;   -2,273;    3,136
1026,152; 4286,076;    1,727;   -0,591
1026,699; 3998,167;    1,818;    1,318
1027,245; 4183,348;   -0,091;    0,318
1027,792; 4446,712;   -1,000;    1,409
1028,339; 4196,258;    2,364;   -0,045
1028,885; 4017,894;    1,000;   -0,227
1029,432; 3966,530;   -0,091;    0,227
1029,978; 3977,712;   -1,000;   -1,591
1030,525; 3850,712;    1,000;    0,409
1031,071; 4127,530;   -1,364;    1,136
1031,618; 4136,803;    0,364;    1,682
1032,164; 3934,348;   -0,091;    3,045
1032,710; 3959,530;    1,636;   -1,500
1033,256; 3873,621;   -0,636;   -0,136
1033,803; 3864,712;   -0,545;    1,500
1034,349; 3513,530;   -1,364;    0,136
1034,895; 3663,803;    0,000;   -0,318
1035,441; 3625,258;   -0,818;    0,318
1035,987; 3582,803;   -2,364;   -0,682
1036,533; 3538,621;   -1,455;   -0,955
1037,078; 3722,258;    1,455;    1,682
1037,624; 3531,530;    2,455;   -0,955
1038,170; 3572,439;    0,455;   -0,318
1038,716; 3421,258;    1,636;   -0,409
1039,261; 3339,167;   -2,273;   -0,773
1039,807; 3237,803;   -0,091;    3,409
1040,352; 3272,076;   -1,909;   -0,318
1040,898; 3326,439;   -1,545;   -0,682
1041,443; 3222,621;   -1,455;   -2,591
1041,989; 3157,348;    1,091;    1,591
1042,534; 3046,167;   -0,364;    2,591
1043,079; 3196,076;    2,909;    0,955
1043,625; 2932,258;    1,818;    0,500
1044,170; 2975,530;   -1,364;    1,045
1044,715; 3207,530;    2,455;    0,955
1045,260; 3025,985;    2,182;   -0,955
1045,805; 3077,348;    1,182;   -0,591
1046,350; 3014,530;    1,364;   -0,409
1046,895; 2922,258;    2,909;    1,591
1047,440; 2849,167;    5,364;    0,409
1047,985; 2754,076;    2,818;   -0,955
1048,530; 2673,167;    1,545;    1,227
1049,074; 2720,167;    0,000;    0,318
1049,619; 2678,348;   -1,364;    1,955
1050,164; 2455,167;    0,455;    0,227
1050,708; 2502,803;   -0,455;    0,045
1051,253; 2849,258;    1,273;   -2,227
1051,797; 2555,803;    0,818;   -1,318
1052,342; 2560,439;   -1,182;    1,045
1052,886; 2553,712;    0,364;   -1,409
1053,430; 2452,258;   -1,364;    0,136
1053,975; 2448,712;   -0,818;   -0,318
1054,519; 2431,803;   -0,727;    3,227
1055,063; 2428,439;    0,909;    1,318
1055,607; 2309,439;   -0,182;    0,227
1056,151; 2314,258;    2,909;    1,682
1056,695; 2234,985;    2,273;   -1,136
1057,239; 2297,621;   -1,727;   -0,682
1057,783; 2301,803;    0,818;   -1,500
1058,327; 2231,167;    0,000;    1,409
1058,871; 2459,894;   -0,545;    1,318
1059,415; 2153,439;   -0,818;   -0,045
1059,958; 2407,894;    1,455;    2,591
1060,502; 2123,894;   -1,000;   -0,773
1061,046; 2033,712;    0,364;   -0,955
1061,589; 2027,621;   -3,000;   -1,136
1062,133; 1894,621;   -1,273;    1,864
1062,676; 1844,712;    1,182;    0,864
1063,220; 1846,530;    1,091;    0,500
1063,763; 1855,803;    0,909;    1,136
1064,306; 1932,167;   -0,909;    1,864
1064,849; 1813,894;   -0,909;    0,591
1065,393; 1818,530;    2,000;   -1,500
1065,936; 1935,439;    0,182;   -0,409
1066,479; 1825,258;   -1,455;    1,318
1067,022; 1839,985;   -0,273;   -0,227
1067,565; 1736,348;   -0,091;   -1,318
1068,108; 1770,258;    0,727;   -0,591
1068,651; 1745,439;   -0,636;    1,409
1069,194; 1662,894;   -0,455;   -1,682
1069,736; 1661,985;   -1,273;    0,955
1070,279; 1638,348;   -1,364;   -0,500
1070,822; 1691,621;   -2,000;   -0,318
1071,364; 1778,621;   -0,364;    1,318
1071,907; 1601,439;   -0,727;    3,227
1072,450; 1505,348;    0,000;   -0,045
1072,992; 1499,167;   -0,273;    3,136
1073,535; 1646,712;    2,091;    2,136
1074,077; 1429,621;   -0,727;    2,045
1074,619; 1388,258;   -1,364;    0,591
1075,161; 1423,803;   -1,091;    1,500
1075,704; 1605,894;    1,545;    1,227
1076,246; 1399,985;   -0,182;    0,682
1076,788; 1335,985;   -0,364;    1,773
1077,330; 1415,167;    1,273;    2,136
1077,872; 1364,712;    0,909;    0,955
1078,414; 1597,258;    2,727;    0,773
1078,956; 1332,803;    1,273;   -0,227
1079,498; 1582,621;    1,636;    0,318
1080,040; 1294,621;    1,909;   -1,318
1080,581; 1250,621;    1,636;   -0,318
1081,123; 1170,894;    0,091;   -0,773
1081,665; 1211,167;   -1,182;   -0,955
1082,206; 1516,439;    1,364;   -0,500
1082,748; 1374,621;    0,727;    2,045
1083,289; 1257,985;   -2,000;    1,318
1083,831; 1162,530;   -0,545;    0,227
1084,372; 1200,258;    0,000;    0,591
1084,913; 1200,439;    1,091;    0,864
1085,455; 1178,803;   -1,909;   -2,045
1085,996; 1147,985;   -2,273;    0,136
1086,537; 1164,167;   -0,091;    0,864
1087,078; 1198,439;   -0,909;   -2,136
1087,619; 1236,985;   -1,273;    0,227
1088,160; 1156,712;    0,000;    1,318
1088,701; 1142,985;   -1,091;    0,682
1089,242; 1079,258;    1,364;   -2,227
1089,783; 1188,621;   -0,273;    1,409
1090,324; 1148,348;    0,455;    0,682
1090,865; 1025,803;    2,727;   -0,409
1091,405; 1012,348;    0,727;    2,227
1091,946; 1036,621;    0,182;   -0,955
1092,487;  968,985;    0,818;   -1,409
1093,027; 1126,439;   -1,364;   -1,500
1093,568;  978,258;   -0,364;    1,227
1094,108; 1084,621;    0,273;    1,773
1094,649; 1018,530;   -1,182;    0,136
1095,189;  948,530;   -0,636;   -0,682
1095,729;  906,348;   -0,091;    0,955
1096,269;  910,894;    0,727;   -0,955
1096,810; 1237,530;   -1,364;    0,500
1097,350; 1063,621;    1,364;   -0,773
1097,890;  966,803;    0,364;    1,227
1098,430; 1210,076;    2,364;    2,864
1098,970; 1079,985;    2,182;    1,682
1099,510;  958,985;    0,545;   -2,318
1100,050;  877,258;    1,000;   -1,591
1100,589;  857,439;   -0,727;   -0,318
1101,129;  976,985;    0,818;   -0,955
1101,669; 1122,258;    1,727;    2,136
1102,209;  946,985;   -0,091;    2,227
1102,748;  905,258;    0,000;    0,955
1103,288;  884,712;    1,273;   -1,227
1103,827;  928,439;    3,091;   -2,227
1104,367;  802,712;   -0,091;   -2,409
1104,906;  759,712;    1,364;   -1,136
1105,445;  830,439;    0,636;   -1,136
1105,985;  774,348;   -0,727;    1,500
1106,524;  830,348;   -1,727;   -0,682
1107,063;  804,985;   -2,727;    1,409
1107,602;  785,894;   -1,909;   -1,500
1108,141;  708,258;   -1,909;    1,500
1108,680;  804,167;   -3,455;   -0,591
1109,219;  748,076;   -0,909;   -0,500
1109,758;  747,258;    0,455;    0,682
1110,297;  712,985;    1,000;   -0,682
1110,836;  661,621;   -0,727;    0,955
1111,375;  834,167;   -2,545;    0,409
1111,913;  847,803;   -1,000;    0,773
1112,452;  789,076;   -0,273;    0,136
1112,991;  671,894;    1,091;    1,955
1113,529;  622,439;   -0,818;   -0,045
1114,068;  699,530;   -0,273;    2,955
1114,606;  598,803;   -0,364;   -0,955
1115,144;  763,439;   -1,273;    1,045
1115,683;  693,894;   -0,727;    0,318
1116,221;  745,985;   -0,455;   -0,864
1116,759;  660,803;    0,636;   -0,864
1117,297;  860,167;    0,000;    1,864
1117,836;  647,076;   -2,182;   -1,227
1118,374;  663,530;    0,182;   -0,682
1118,912;  605,439;    0,909;    2,682
1119,450;  598,076;    1,000;    0,864
1119,988;  655,348;    1,545;    2,136
1120,525; 1121,439;    5,091;    3,318
1121,063;  814,258;    1,182;    1,864
1121,601;  610,439;   -0,909;   -1,227
1122,139;  562,167;   -0,727;   -2,045
1122,676;  762,348;   -0,727;    2,773
1123,214;  710,985;   -1,182;    4,409
1123,751;  513,712;    1,727;    2,227
1124,289;  657,712;   -0,091;   -0,409
1124,826;  508,439;    1,727;    0,227
1125,364;  429,348;    1,727;   -0,955
1125,901;  632,803;    1,182;    1,227
1126,438;  752,530;    0,818;    0,955
1126,975;  467,530;   -0,727;   -0,773
1127,513;  546,348;    0,273;    2,136
1128,050;  441,348;    1,636;   -0,682
1128,587;  548,894;    2,000;   -0,227
1129,124;  591,530;    0,091;    1,318
1129,661;  449,803;    0,273;    0,227
1130,198;  626,258;    1,636;    0,773
1130,734;  571,621;    0,182;    1,409
1131,271;  415,258;   -0,909;    0,864
1131,808;  608,985;    2,909;    3,045
1132,345;  478,258;    1,545;    0,318
1132,881;  340,621;   -1,545;   -1,864
1133,418;  482,348;    0,727;   -1,136
1133,954;  416,712;    2,455;   -2,682
1134,491;  490,712;    1,364;   -0,773
1135,027;  393,985;    2,364;    0,864
1135,564;  497,439;    0,273;    2,955
1136,100;  474,167;    0,364;    2,136
1136,636;  361,894;   -1,273;   -1,045
1137,172;  478,894;    0,000;   -1,045
1137,708;  375,894;   -1,364;   -1,045
1138,245;  380,621;    1,273;   -1,227
1138,781;  331,621;    1,091;   -3,318
1139,317;  416,621;    1,273;   -1,409
1139,852;  394,530;    3,091;    0,136
1140,388;  539,985;   -1,182;   -0,409
1140,924;  405,258;   -1,091;   -2,227
1141,460;  345,985;   -1,636;    0,136
1141,996;  257,894;   -1,364;    2,682
1142,531;  304,621;    1,364;    3,318
1143,067;  564,894;    1,182;    1,045
1143,602;  640,530;   -0,091;   -0,318
1144,138;  449,076;   -2,636;    1,045
1144,673;  281,167;   -1,455;    1,409
1145,209;  365,530;   -1,909;   -0,318
1145,744;  286,076;   -0,727;    0,864
1146,279;  454,803;    1,818;   -0,136
1146,815;  343,348;    1,545;   -2,682
1147,350;  392,439;   -1,364;    0,045
1147,885;  284,348;   -0,818;   -1,318
1148,420;  275,530;   -2,273;    0,773
1148,955;  256,803;   -1,727;    1,864
1149,490;  295,076;   -0,909;   -1,591
1150,025;  286,348;    0,455;   -1,773
1150,560;  423,439;    1,091;   -0,955
1151,094;  379,076;    1,455;   -0,591
1151,629;  389,167;    1,636;    0,864
1152,164;  279,167;    1,364;    1,318
1152,698;  228,167;   -0,182;   -0,136
1153,233;  182,894;    0,091;   -0,682
1153,767;  252,530;   -3,000;   -2,318
1154,302;  309,985;   -1,455;    1,773
1154,836;  309,803;   -0,455;   -2,136
1155,371;  373,348;   -1,364;    3,682
1155,905;  310,258;   -0,636;    1,682
1156,439;  258,803;   -0,636;   -0,500
1156,973;  310,985;    0,364;    0,318
1157,507;  221,076;   -0,364;    0,682
1158,042;  258,985;   -0,727;    1,045
1158,576;  329,803;    0,182;    1,773
1159,110;  307,712;   -0,818;    2,409
1159,643;  275,167;    0,636;   -0,045
1160,177;  186,894;   -1,545;    1,500

