
Integration time [ms]:   0,040
Averaging Nr. [scans]: 11
Smoothing Nr. [pixels]: 0
Data measured with spectrometer [name]: 7318044SP
Wave   ;Sample   ;Dark     ;Reference
[nm]   ;[counts] ;[counts] ;[counts] 

186,757;   36,519;   31,551;    1,318
187,357;   29,811;   22,551;    0,955
187,958;   21,093;   15,460;   -1,591
188,558;   23,786;    8,915;   -1,227
189,159;   16,182;    6,733;   -4,500
189,759;   11,815;    7,278;   -3,591
190,360;    7,972;    2,824;   -2,136
190,960;   13,397;    2,915;   -4,136
191,560;   12,226;    3,189;   -6,591
192,161;   58,043;    4,372;   -3,500
192,761;   29,256;    4,010;   -3,227
193,361;   16,660;    1,556;   -3,773
193,962;   25,138;    2,010;   -2,682
194,562;    8,916;    1,189;   -3,955
195,162;    8,438;   -2,448;   -2,227
195,762;   34,597;   -3,176;   -0,045
196,362;   21,448;    1,370;   -2,500
196,963;    4,949;    2,006;   -0,864
197,563;   14,880;    1,551;   -0,955
198,163;    4,247;    0,096;   -0,682
198,763;    9,657;    1,733;   -0,500
199,363;   16,664;    3,096;   -0,500
199,963;   11,841;    0,369;    0,409
200,563;   11,786;    2,823;   -1,409
201,163;    9,011;    3,277;   -0,227
201,763;   12,089;    3,732;    0,318
202,363;    6,657;    1,459;    1,500
202,963;   11,248;    1,459;    1,045
203,563;   23,037;    0,277;    0,500
204,162;   10,775;    2,096;   -1,864
204,762;    8,981;    0,550;    0,591
205,362;    3,662;    3,004;    1,955
205,962;   11,554;    3,096;    1,955
206,562;   10,457;    1,823;    2,318
207,161;    5,828;   -0,087;    0,318
207,761;   31,549;    1,277;    2,409
208,361;   13,780;   -0,268;    1,409
208,960;   15,355;    0,459;    1,500
209,560;   13,535;    1,277;    1,591
210,160;   19,952;    0,550;    1,864
210,759;   13,562;    4,186;    1,227
211,359;    5,666;    1,459;    1,045
211,958;   46,960;    1,277;    2,045
212,558;   44,762;    1,732;    1,864
213,157;   21,524;    1,822;    1,500
213,757;   84,227;    3,822;   -0,227
214,356;   34,458;    1,277;   -0,409
214,956;   74,470;    3,095;    0,409
215,555;   28,150;    2,095;    2,136
216,154;   13,878;   -2,723;   -0,591
216,754;   19,782;    0,277;    0,773
217,353;   26,270;   -0,268;   -1,045
217,952;    5,751;   -0,178;    0,318
218,552;   34,935;    1,368;   -0,773
219,151;   20,059;    0,277;    0,955
219,750;   11,476;    0,004;   -0,227
220,349;    7,948;   -0,451;    1,045
220,948;   45,804;   -1,360;    1,136
221,548;   22,101;    0,913;    1,227
222,147;   26,270;   -0,087;   -0,409
222,746;   72,068;   -0,451;   -0,955
223,345;   39,354;    0,731;    0,500
223,944;   43,121;   -0,451;    0,773
224,543;   49,722;    1,004;   -1,409
225,142;   32,680;    0,094;    0,136
225,741;   41,230;   -0,814;    1,045
226,340;   39,607;   -0,451;   -0,955
226,939;   80,265;   -0,996;   -0,136
227,538;   38,313;   -0,360;   -0,773
228,137;   95,788;   -0,814;    0,864
228,735;   70,785;   -0,541;    1,227
229,334;   22,780;   -0,905;   -0,227
229,933;  104,515;    0,459;    0,591
230,532;  102,301;    1,186;   -0,409
231,131;  143,280;    1,732;    0,318
231,729;   83,410;   -2,450;   -2,318
232,328;   53,856;   -0,723;   -1,500
232,927;   69,536;    1,004;   -0,500
233,525;   60,467;    3,640;    0,045
234,124;   80,027;    2,368;   -1,591
234,723;   49,594;    0,913;   -1,045
235,321;   39,454;    2,277;    0,136
235,920;   60,867;    1,186;   -1,227
236,518;  137,546;    3,459;    0,318
237,117;   62,557;    0,004;   -0,227
237,715;   82,418;    0,640;   -0,500
238,314;   93,672;   -0,087;   -2,318
238,912;  164,400;   -0,723;   -1,409
239,510;  115,571;    0,459;   -1,227
240,109;  183,424;    0,004;    3,773
240,707;  158,982;   -0,996;    1,227
241,305;   75,638;    0,550;    0,136
241,904;  129,275;   -0,178;   -2,045
242,502;  212,737;   -0,632;   -0,227
243,100;  143,958;   -0,087;   -0,955
243,698;   97,546;    0,732;    1,682
244,297;  126,328;   -0,632;    0,682
244,895;  121,358;   -0,269;   -2,318
245,493;  233,475;    2,186;   -0,591
246,091;  240,099;    1,368;   -1,318
246,689;  183,915;    1,004;    0,591
247,287;  174,911;    0,822;   -1,136
247,885;  146,056;   -1,451;    1,227
248,483;  121,908;    1,822;   -0,500
249,081;  187,015;    0,185;    1,591
249,679;  205,914;   -0,178;    1,682
250,277;  121,946;   -1,723;    0,864
250,875;  213,052;   -1,087;   -1,045
251,473;  141,743;   -1,178;    0,500
252,071;  219,362;    1,459;    1,045
252,669;  158,848;   -1,814;    0,318
253,267;  124,030;   -0,087;    0,773
253,864;  167,729;   -0,360;    0,682
254,462;  259,411;    1,640;    1,591
255,060;  127,034;   -0,269;    1,318
255,658;  124,757;    0,822;   -0,136
256,255;  166,090;    0,186;   -2,045
256,853;  203,601;   -0,269;    1,409
257,451;  174,742;    0,822;    1,864
258,048;  477,729;    1,822;    1,864
258,646;  283,045;    1,731;   -1,045
259,243;  351,238;   -0,087;    2,227
259,841;  255,304;   -0,814;    0,318
260,438;  152,421;   -0,087;    0,864
261,036;  242,423;   -1,905;    1,409
261,633;  162,581;   -0,087;    2,227
262,231;  134,568;    2,731;   -0,045
262,828;  128,677;   -0,905;    1,136
263,425;  173,541;    0,913;   -0,591
264,023;  175,943;    0,186;    0,045
264,620;  282,221;   -0,360;   -0,318
265,217;  383,396;   -2,087;    3,136
265,815;  190,191;   -1,905;    2,136
266,412;  273,856;    0,731;    0,136
267,009;  283,012;   -1,451;    0,773
267,606;  340,772;    0,822;   -0,955
268,203;  208,525;   -0,269;   -0,591
268,801;  229,028;    1,731;    0,591
269,398;  167,337;   -0,360;    2,500
269,995;  276,768;    0,277;    1,591
270,592;  235,781;   -0,632;   -0,500
271,189;  165,157;    0,186;    0,409
271,786;  146,181;   -0,632;    1,227
272,383;  324,610;   -1,087;    0,227
272,980;  222,744;    0,277;    0,318
273,577;  185,840;    0,004;    1,227
274,174;  167,760;    0,822;    2,591
274,771;  281,212;   -0,814;   -0,773
275,367;  575,928;    2,277;    1,409
275,964;  412,235;    0,731;   -0,500
276,561;  249,492;    1,549;   -1,045
277,158;  173,278;    0,095;   -1,773
277,755;  371,197;    2,185;    0,409
278,351;  292,951;   -0,451;   -1,500
278,948;  342,375;   -0,815;    0,045
279,545;  299,344;   -1,360;    2,318
280,141;  428,368;   -1,723;   -2,045
280,738;  413,115;   -0,451;   -0,136
281,334;  246,792;   -1,633;    0,591
281,931;  260,880;   -0,087;   -1,318
282,528;  349,958;    0,822;   -0,500
283,124;  407,866;   -1,087;   -0,500
283,721;  404,505;   -0,451;    1,409
284,317;  286,429;    0,185;    2,500
284,913;  425,601;   -1,360;    0,591
285,510;  626,873;    0,640;   -0,318
286,106;  470,474;   -2,269;   -0,955
286,703;  315,093;   -0,360;    1,955
287,299;  268,850;   -1,451;   -0,591
287,895;  258,859;    0,822;   -1,045
288,491;  230,156;    0,186;    2,136
289,088;  337,452;   -2,360;    2,409
289,684;  381,393;   -1,723;    1,500
290,280;  505,814;    0,368;    0,682
290,876;  459,672;    1,822;    5,500
291,472;  383,824;    1,276;    2,227
292,068;  395,025;    1,367;    0,227
292,665;  295,668;    2,095;    0,773
293,261;  217,435;    0,276;    2,136
293,857;  376,081;    2,913;    2,136
294,453;  301,148;    3,550;    0,955
295,049;  492,639;   -0,268;    1,955
295,644;  352,349;    0,095;    0,136
296,240;  231,848;   -0,905;   -0,136
296,836;  332,153;   -0,995;    0,318
297,432;  444,378;    1,096;   -0,500
298,028;  468,926;    0,732;    0,773
298,624;  347,707;    1,459;    1,864
299,220;  327,136;    2,368;    0,591
299,815;  319,897;    1,005;   -0,409
300,411;  403,730;    0,914;    1,773
301,007;  495,918;    1,368;    0,227
301,602;  355,703;   -0,541;   -2,318
302,198;  463,800;    0,732;   -0,773
302,794;  328,582;    1,187;   -0,500
303,389;  282,590;   -1,177;    1,045
303,985;  324,779;    0,550;    1,409
304,580;  441,852;    1,459;    1,591
305,176;  359,002;   -3,086;    0,136
305,771;  254,572;   -1,268;   -1,227
306,367;  598,499;    4,095;    0,136
306,962;  387,339;    0,641;    1,500
307,558;  429,428;   -0,450;    0,136
308,153;  478,822;    1,095;   -1,136
308,748;  303,078;   -0,814;    1,682
309,344;  629,045;   -0,632;   -1,318
309,939;  624,659;   -1,905;   -1,318
310,534;  354,397;   -0,086;   -1,682
311,130;  330,901;    0,459;   -2,500
311,725;  302,286;    1,004;   -0,500
312,320;  346,889;    2,459;    0,045
312,915;  434,855;    1,459;   -1,045
313,510;  622,199;    1,550;   -0,500
314,105;  356,292;    1,096;    1,409
314,700;  243,313;   -3,086;   -1,045
315,295;  318,943;   -0,904;    0,045
315,890;  274,334;    1,277;    0,864
316,485;  374,473;   -0,359;   -0,318
317,080;  287,163;   -3,086;    1,591
317,675;  568,437;    2,005;   -0,682
318,270;  759,904;    5,550;    3,318
318,865;  648,265;    3,278;    3,045
319,460;  500,338;   -0,904;    0,591
320,055;  343,240;   -0,541;   -1,227
320,650;  347,953;   -1,995;   -0,591
321,244;  352,254;   -0,177;   -1,409
321,839;  359,594;   -1,541;   -0,227
322,434;  413,798;   -1,086;   -1,591
323,029;  341,646;    1,732;    1,591
323,623;  310,442;    1,550;    0,773
324,218;  483,445;    2,368;    1,409
324,812;  420,312;    1,096;    1,591
325,407;  425,066;   -0,814;    2,045
326,002;  541,616;    0,277;   -0,409
326,596;  476,669;    0,914;    1,318
327,191;  330,148;    0,823;   -1,045
327,785;  330,942;   -0,813;   -0,227
328,379;  337,876;    1,368;    0,136
328,974;  390,331;    0,914;   -3,955
329,568;  411,588;    0,186;   -2,409
330,163;  479,652;    2,096;    1,045
330,757;  328,389;    2,459;    1,591
331,351;  280,270;    0,459;    0,682
331,945;  269,761;    0,914;    1,409
332,540;  400,182;   -1,723;   -0,591
333,134;  391,667;   -1,086;    0,773
333,728;  395,817;    0,005;    0,318
334,322;  291,417;   -1,177;   -0,864
334,916;  286,422;    0,277;    0,955
335,510;  451,447;   -0,450;   -0,136
336,105;  431,966;   -1,086;    1,591
336,699;  336,826;   -1,086;    0,591
337,293;  363,871;   -1,723;    0,318
337,887;  302,617;   -2,723;    1,955
338,481;  440,634;    0,459;    0,591
339,074;  535,329;   -0,359;    2,682
339,668;  514,860;   -1,632;    1,227
340,262; 1032,397;    1,732;    3,227
340,856;  659,176;    1,822;   -0,682
341,450;  361,926;    1,004;    1,864
342,044;  407,962;    1,459;    0,136
342,637;  536,515;    0,913;   -2,136
343,231;  516,653;   -2,360;    0,682
343,825;  417,005;   -1,086;   -0,591
344,419;  393,231;   -1,995;    0,500
345,012;  885,754;    2,459;    4,045
345,606;  698,646;    4,641;    1,591
346,199;  406,430;   -1,813;   -0,227
346,793;  527,143;    1,914;    2,045
347,386;  343,035;   -0,813;   -1,136
347,980;  247,384;   -0,268;   -0,045
348,573;  351,795;    2,278;    0,409
349,167;  627,928;    5,278;    4,773
349,760;  502,298;    2,914;    2,682
350,354;  474,718;   -0,813;    1,136
350,947;  512,412;    1,096;    1,682
351,540;  386,407;   -0,358;   -1,409
352,134;  266,299;    1,096;    1,136
352,727;  290,098;   -0,086;    1,136
353,320;  305,858;    0,005;    0,591
353,913;  248,239;   -1,995;    1,864
354,507;  440,616;    0,823;   -1,227
355,100;  318,873;    0,460;    0,864
355,693;  717,773;    2,005;    2,409
356,286;  487,023;    0,823;    2,773
356,879;  340,212;   -0,722;    1,227
357,472;  337,039;   -0,904;    1,500
358,065;  387,268;   -0,722;    2,500
358,658;  245,755;   -0,540;    2,318
359,251;  217,760;   -1,631;   -0,591
359,844;  404,260;   -1,904;   -1,136
360,437;  467,513;   -2,995;    0,045
361,030;  312,759;    1,369;   -0,682
361,623;  319,233;    2,824;    0,318
362,215;  543,261;   -0,086;    2,045
362,808;  386,641;   -2,358;   -1,682
363,401;  316,211;   -2,449;    0,136
363,994;  534,277;   -0,631;   -1,500
364,586;  334,745;    0,824;   -1,500
365,179;  287,880;   -0,449;   -1,136
365,772;  158,243;   -1,995;    2,045
366,364;  303,817;    1,915;   -3,227
366,957;  366,330;    2,279;   -0,045
367,549;  306,026;    2,188;   -0,864
368,142;  315,959;    1,825;   -1,500
368,734;  280,826;    0,734;   -2,136
369,327;  214,411;    1,643;   -0,500
369,919;  258,231;   -1,538;    0,409
370,512;  273,830;   -1,083;   -0,500
371,104;  539,326;   -0,901;    1,591
371,696;  567,144;    1,191;   -0,955
372,289;  414,338;    0,373;    1,136
372,881;  358,125;   -2,080;    1,318
373,473;  255,148;   -2,170;    1,136
374,066;  347,318;   -0,169;    0,500
374,658;  318,616;    0,378;    1,136
375,250;  256,307;    0,653;   -1,409
375,842;  317,647;    0,473;   -0,045
376,434;  273,217;   -0,435;   -0,409
377,026;  258,413;    0,204;   -2,500
377,618;  310,548;   -0,158;   -0,682
378,210;  252,398;   -0,338;   -1,955
378,802;  246,516;    0,754;   -0,591
379,394;  625,620;    1,846;    0,682
379,986;  382,175;    1,393;   -0,955
380,578;  291,826;   -0,153;    0,773
381,170;  532,632;   -0,972;    0,045
381,762;  434,615;    0,755;    1,409
382,354;  387,012;   -0,065;   -1,318
382,945;  298,236;   -2,976;    0,318
383,537;  244,877;   -2,705;   -1,955
384,129;  233,493;   -2,160;   -1,136
384,721;  347,736;   -0,252;    0,955
385,312;  283,387;   -0,161;   -0,955
385,904;  370,851;   -2,706;    1,591
386,496;  310,941;   -0,979;    1,045
387,087;  449,141;    1,022;    2,500
387,679;  390,973;   -1,160;    0,045
388,270;  369,456;    2,840;    2,045
388,862;  336,046;    1,295;   -0,318
389,453;  321,655;   -0,887;    1,045
390,045;  331,927;   -0,705;   -2,682
390,636;  220,308;    0,204;   -0,591
391,227;  286,490;   -0,523;   -0,045
391,819;  264,809;    0,204;    0,773
392,410;  523,236;    1,022;    0,045
393,001;  332,518;   -0,979;   -1,591
393,593;  399,286;    1,930;   -0,045
394,184;  441,978;    1,385;   -0,409
394,775;  313,982;    1,839;    2,136
395,366;  242,702;    1,385;    0,773
395,957;  441,060;    0,113;    0,136
396,548;  322,948;   -0,342;    2,682
397,139;  450,205;   -2,433;    0,591
397,730;  355,878;   -1,888;    0,955
398,321;  369,033;   -1,252;    0,955
398,912;  304,692;   -0,615;    0,136
399,503;  295,960;   -3,524;   -1,409
400,094;  355,822;    0,294;    1,682
400,685;  347,296;   -0,433;    0,045
401,276;  296,365;    0,930;   -0,955
401,867;  275,507;   -0,888;    0,773
402,458;  235,996;   -2,251;   -2,318
403,048;  390,253;    1,112;    0,591
403,639;  336,170;    0,840;    0,864
404,230;  446,169;    2,476;    0,318
404,821;  501,415;   -0,615;    0,045
405,411;  410,464;    1,203;   -2,591
406,002;  319,623;   -1,252;   -1,136
406,592;  553,236;    2,294;    0,045
407,183;  397,325;    0,566;   -1,500
407,774;  369,198;    3,475;   -0,136
408,364;  327,446;    0,930;    0,409
408,954;  455,293;    0,384;    1,227
409,545;  450,830;    1,021;    1,045
410,135;  406,269;    1,293;    0,500
410,726;  350,040;    1,838;    0,318
411,316;  542,125;    0,111;    0,773
411,906;  369,276;   -0,253;   -0,409
412,497;  388,359;   -1,070;   -0,045
413,087;  327,003;   -1,980;   -0,227
413,677;  250,950;   -0,707;    3,864
414,267;  242,302;    0,656;    1,409
414,857;  218,137;   -2,980;    4,227
415,448;  226,653;    0,839;    0,500
416,038;  262,122;    0,020;   -0,591
416,628;  320,033;   -0,889;    0,409
417,218;  372,706;    0,565;    3,318
417,808;  532,086;    0,202;   -0,409
418,398;  396,090;    0,020;    2,682
418,988;  273,102;    2,020;    0,591
419,578;  380,420;   -0,707;    1,409
420,168;  312,008;   -1,343;   -0,955
420,757;  474,927;   -1,343;   -1,500
421,347;  361,616;    0,111;   -0,227
421,937;  321,427;    2,292;    1,409
422,527;  469,189;    0,838;   -0,773
423,116;  620,088;   -0,253;   -0,045
423,706;  306,122;   -1,889;    0,318
424,296;  263,935;    1,384;    0,682
424,885;  411,116;   -0,071;   -3,045
425,475;  376,520;    1,474;   -2,864
426,065;  250,788;   -0,980;   -0,318
426,654;  231,537;   -0,435;   -0,318
427,244;  534,623;    0,020;    1,409
427,833;  510,513;    1,383;   -0,500
428,423;  351,506;   -0,526;    1,136
429,012;  349,397;   -0,344;   -1,136
429,601;  493,253;   -1,344;    0,136
430,191;  374,366;    1,292;    4,318
430,780;  263,692;   -0,344;   -0,409
431,369;  481,620;    0,746;   -0,045
431,959;  349,089;   -1,254;    0,500
432,548;  275,188;   -1,163;   -0,045
433,137;  203,857;   -1,254;   -1,318
433,726;  298,651;    0,292;    0,500
434,315;  329,129;   -0,526;    2,409
434,905;  436,691;   -1,254;    1,409
435,494;  440,730;    0,746;    0,955
436,083;  291,300;   -0,981;   -0,955
436,672;  392,696;    0,110;    0,500
437,261;  326,845;    0,292;   -1,955
437,850;  594,181;    1,383;    0,682
438,439;  641,643;    3,291;    1,955
439,027;  762,300;    3,655;    1,773
439,616;  682,082;    2,927;    1,227
440,205;  430,848;    0,200;   -2,136
440,794;  367,277;    2,109;   -0,045
441,383;  280,980;   -1,346;   -0,591
441,971;  240,515;   -2,436;    0,591
442,560;  260,853;    0,563;   -1,773
443,149;  133,064;    0,379;   -1,318
443,737;  207,966;   -0,074;   -2,318
444,326;  238,952;    0,018;    0,318
444,915;  299,848;   -1,982;    0,864
445,503;  309,364;   -2,891;   -0,318
446,092;  595,113;    0,382;    2,136
446,680;  519,244;    0,382;    0,318
447,269;  413,813;   -0,346;   -0,318
447,857;  391,048;    0,018;   -1,773
448,445;  336,795;    0,563;    1,318
449,034;  268,325;   -1,528;   -1,136
449,622;  267,328;   -1,073;    3,500
450,210;  599,534;    2,017;    2,227
450,799;  494,917;    0,290;   -0,591
451,387;  440,757;    1,381;   -0,591
451,975;  418,364;    2,654;    0,864
452,563;  516,042;    3,472;    2,318
453,151;  307,211;   -0,528;   -1,227
453,739;  363,683;   -1,347;    0,136
454,328;  488,466;    2,381;   -2,136
454,916;  403,510;    2,562;   -0,136
455,504;  417,198;    1,017;    1,227
456,092;  281,073;    0,017;   -1,591
456,679;  234,716;    1,472;    0,682
457,267;  707,952;    4,017;    1,045
457,855;  350,983;    1,017;    1,409
458,443;  182,229;   -0,165;    1,682
459,031;  376,280;    0,108;    2,409
459,619;  328,335;   -1,801;    2,864
460,206;  216,633;    0,835;    2,045
460,794;  216,217;   -2,983;   -0,227
461,382;  271,752;   -0,529;   -0,864
461,970;  271,932;    1,198;    1,864
462,557;  182,564;   -0,711;   -0,682
463,145;  339,443;   -3,165;   -1,682
463,732;  604,347;    2,016;   -1,045
464,320;  343,776;   -0,075;   -3,045
464,907;  510,115;    2,743;   -0,773
465,495;  399,242;    0,743;   -1,227
466,082;  307,587;   -1,984;   -0,045
466,670;  327,961;   -2,529;    1,227
467,257;  204,534;   -1,711;    2,045
467,844;  326,831;   -0,075;    0,045
468,432;  297,298;    0,834;    3,500
469,019;  239,099;    0,925;   -1,773
469,606;  334,782;    0,470;    3,682
470,193;  368,969;   -1,439;    0,227
470,780;  321,890;   -2,075;    0,864
471,368;  235,303;   -1,257;   -0,773
471,955;  358,552;    1,379;   -0,682
472,542;  303,350;    0,652;   -1,136
473,129;  178,021;   -0,166;    0,136
473,716;  188,820;    1,470;    0,591
474,303;  224,825;    0,652;   -0,864
474,890;  224,316;   -1,439;   -0,500
475,477;  340,895;   -1,621;    0,409
476,064;  230,064;    1,106;   -1,591
476,650;  367,085;    0,288;    0,318
477,237;  264,994;   -0,258;    0,955
477,824;  242,193;   -1,076;    0,864
478,411;  142,455;   -1,894;   -0,318
478,997;  134,880;    0,560;   -0,773
479,584;   78,233;    1,196;   -0,409
480,171;  282,201;   -0,440;   -0,773
480,757;  349,910;    2,651;    0,773
481,344;  223,205;    0,469;    0,409
481,931;  119,694;    1,105;    1,045
482,517;  277,421;   -1,258;    0,318
483,104;  385,323;    1,106;    2,864
483,690;  236,149;   -1,804;    0,045
484,276;  213,300;   -0,895;    0,227
484,863;  475,810;    2,469;    1,136
485,449;  284,348;   -0,077;    0,318
486,035;  228,269;   -1,986;   -0,136
486,622;  354,212;   -0,895;    0,045
487,208;  249,340;    1,378;    1,500
487,794;  144,028;    0,741;    0,318
488,380;  140,413;    0,105;   -1,409
488,967;  156,245;   -1,168;   -0,409
489,553;  178,749;   -1,895;   -1,409
490,139;  272,117;    1,559;    0,773
490,725;  169,494;    0,741;   -0,227
491,311;  229,570;    3,287;    3,045
491,897;  197,033;   -0,986;    1,500
492,483;  194,237;    0,105;    1,227
493,069;  692,406;    3,923;    0,864
493,655;  361,731;    1,650;    0,682
494,241;  219,262;    1,377;   -0,955
494,826;  242,291;    0,287;   -1,045
495,412;  321,383;    2,559;   -0,682
495,998;  211,156;   -0,805;   -0,318
496,584;  288,486;    0,377;    1,045
497,169;  303,060;    1,014;   -0,682
497,755;  224,428;    0,650;    1,227
498,341;  406,875;    0,559;    0,318
498,926;  558,736;    1,832;    1,955
499,512;  236,039;    1,286;    2,955
500,097;  252,130;    0,195;   -0,318
500,683;  285,461;   -0,350;    2,136
501,268;  214,922;   -0,169;   -0,955
501,854;  245,863;   -0,169;    1,227
502,439;  225,483;   -0,624;   -1,773
503,024;  284,156;    0,195;    0,500
503,610;  329,603;   -0,078;   -0,682
504,195;  245,088;    0,558;    1,955
504,780;  369,297;    2,922;    1,227
505,366;  482,917;    3,013;    2,864
505,951;  393,731;    0,740;    1,045
506,536;  296,352;   -3,260;   -3,682
507,121;  369,139;    0,285;   -0,318
507,706;  302,147;    2,376;    1,045
508,291;  240,916;    2,649;    1,136
508,876;  244,609;   -0,988;    2,591
509,461;  326,280;   -0,169;   -0,773
510,046;  376,816;    0,194;    0,318
510,631;  378,043;   -0,351;   -0,773
511,216;  276,625;    2,467;   -0,500
511,801;  361,814;   -0,442;    2,591
512,386;  390,155;    0,740;    0,500
512,971;  404,593;   -2,988;    0,955
513,555;  463,723;   -0,897;   -1,500
514,140;  409,925;   -0,442;   -3,136
514,725;  545,373;   -0,715;   -1,136
515,309;  429,812;   -0,533;    0,318
515,894;  302,717;   -0,624;   -2,227
516,479;  351,290;   -0,624;   -0,955
517,063;  356,447;    0,376;    1,227
517,648;  297,549;    1,012;   -1,136
518,232;  270,317;   -0,261;   -1,409
518,817;  366,595;   -0,079;    1,682
519,401;  517,578;    2,194;    0,591
519,985;  471,102;    1,103;    1,136
520,570;  305,969;    0,830;   -1,955
521,154;  421,824;    2,102;    0,591
521,738;  620,717;   -2,352;    2,409
522,323;  424,444;   -0,170;    1,682
522,907;  415,254;    0,466;   -0,136
523,491;  318,989;    0,557;    0,955
524,075;  284,175;    2,284;    0,591
524,659;  486,131;    1,466;    0,591
525,243;  422,324;    1,739;    0,409
525,827;  363,177;    0,648;   -0,045
526,411;  366,040;   -1,989;   -0,136
526,995;  465,247;   -0,352;    1,409
527,579;  527,437;   -0,443;   -1,045
528,163;  458,572;    0,375;   -1,500
528,747;  557,195;    2,466;   -0,773
529,331;  491,546;   -0,080;   -1,409
529,915;  328,215;    1,738;    0,955
530,499;  421,668;   -0,807;    1,227
531,082;  588,614;   -0,534;    1,591
531,666;  659,279;    1,374;    0,773
532,250;  540,472;    1,284;    2,682
532,833;  648,538;    0,920;    2,773
533,417;  482,362;   -1,807;    0,864
534,001;  606,323;    1,647;   -0,318
534,584;  521,107;    0,374;    0,500
535,168;  343,648;    0,465;    1,409
535,751;  702,555;    0,647;    0,045
536,334;  446,852;   -0,898;   -0,409
536,918;  284,663;    0,011;    1,591
537,501;  303,701;   -0,899;    1,318
538,085;  345,174;   -0,444;    1,045
538,668;  431,633;    0,829;    2,409
539,251;  708,365;    1,829;    3,773
539,834;  419,900;    0,101;    0,773
540,418;  553,157;   -1,990;    4,318
541,001;  724,226;   -0,990;    1,773
541,584;  486,260;    2,101;    2,227
542,167;  598,715;    1,374;    2,955
542,750;  421,194;    1,919;   -0,773
543,333;  299,645;    0,555;    2,136
543,916;  529,587;    0,192;    2,500
544,499;  456,250;   -1,354;    0,227
545,082;  534,348;    1,374;    3,591
545,665;  445,236;    1,919;    1,500
546,248;  566,009;    1,010;   -0,318
546,830;  552,813;   -0,445;    1,955
547,413;  510,874;    1,010;   -0,773
547,996;  476,271;    0,555;    0,500
548,579;  432,225;    0,919;    0,955
549,161;  659,323;    1,828;    2,682
549,744;  546,095;   -0,809;    0,409
550,326;  398,100;   -0,809;   -1,136
550,909;  861,773;    2,737;    0,591
551,492;  511,175;   -0,263;    0,227
552,074;  637,978;   -0,173;   -1,318
552,657;  668,434;    2,373;    0,045
553,239;  538,811;   -0,173;   -0,773
553,821;  401,212;   -1,082;    1,045
554,404;  657,339;    1,282;    1,136
554,986;  761,008;    0,464;    1,045
555,568;  597,930;    1,191;   -0,955
556,151;  804,571;    1,191;   -0,227
556,733;  485,358;   -0,264;   -0,864
557,315;  506,080;    0,100;    0,500
557,897;  379,523;    0,554;   -0,500
558,479;  386,348;   -1,991;    1,318
559,061;  476,246;   -0,719;   -0,864
559,643;  520,208;   -0,264;    0,045
560,225;  568,938;    1,645;    2,864
560,807;  416,935;    0,918;    0,318
561,389;  393,587;    0,554;    2,318
561,971;  492,052;    0,463;    2,136
562,553;  406,886;   -1,628;    1,591
563,135;  499,697;   -0,537;    1,136
563,717;  887,330;    3,372;    1,136
564,298;  774,631;    3,645;   -0,045
564,880;  526,018;    0,645;   -1,409
565,462;  362,472;    0,645;    1,318
566,043;  488,748;   -0,446;    2,318
566,625;  806,655;    1,918;    1,227
567,207;  616,612;    1,099;    1,682
567,788;  467,989;   -1,264;    1,500
568,370;  470,419;    1,917;   -0,500
568,951;  471,007;    0,190;    0,227
569,533;  578,184;   -0,628;   -0,500
570,114;  588,319;   -0,446;    0,682
570,695;  618,787;   -0,174;   -1,318
571,277;  599,819;   -0,265;   -1,682
571,858;  808,339;    2,008;   -1,136
572,439;  640,757;    1,554;   -1,045
573,021;  684,082;    2,099;   -2,773
573,602;  798,411;   -1,265;    0,318
574,183;  744,172;   -2,083;    2,227
574,764;  677,163;   -1,629;    0,409
575,345;  885,738;    0,917;   -0,136
575,926;  711,308;   -0,356;    0,136
576,507;  794,499;    1,099;   -0,227
577,088;  743,589;    3,099;    1,682
577,669;  938,094;    0,735;    1,955
578,250; 1120,445;    0,644;   -1,045
578,831;  905,172;   -1,356;   -2,227
579,412;  887,644;   -0,810;    0,955
579,993;  860,015;    1,008;    0,227
580,573;  764,564;   -0,629;   -0,955
581,154;  909,734;    0,735;   -0,591
581,735;  923,090;    0,644;    0,773
582,315; 1075,909;   -0,629;    2,136
582,896;  871,436;   -0,174;    1,227
583,477;  712,228;    0,189;    1,227
584,057;  850,014;    0,553;    0,955
584,638;  980,015;    2,553;    2,318
585,218; 1223,372;   -0,538;    2,682
585,799; 1022,533;    0,281;   -0,227
586,379;  883,135;    0,372;    1,591
586,959;  849,083;    0,735;    0,318
587,540;  759,070;   -0,629;    2,227
588,120;  765,419;    1,007;   -0,045
588,700;  779,903;    2,553;    2,136
589,281;  968,289;    0,462;   -0,955
589,861;  829,942;    0,099;   -1,682
590,441;  678,113;    2,371;   -2,682
591,021;  778,648;   -0,265;   -2,591
591,601;  734,117;   -0,537;    0,500
592,181;  711,198;   -0,719;   -0,773
592,761;  607,013;    0,007;    1,409
593,341;  730,989;   -0,901;    0,045
593,921;  739,498;   -0,265;    1,591
594,501;  627,720;   -0,538;    1,318
595,081;  638,311;    0,917;   -0,318
595,661;  715,703;   -1,447;    0,955
596,240;  642,572;   -0,537;    0,136
596,820; 1078,522;    0,372;    1,955
597,400;  782,242;    2,008;    0,773
597,980;  669,279;    2,008;    1,045
598,559;  613,688;    2,735;   -0,227
599,139;  595,250;   -0,174;   -1,227
599,718;  595,613;   -0,174;   -0,409
600,298;  581,962;    0,735;    0,682
600,877; 1101,196;    2,917;    1,409
601,457;  794,692;    2,281;    1,136
602,036;  661,841;    0,190;    2,045
602,616;  712,004;    0,644;    1,682
603,195;  837,871;   -0,355;    3,500
603,774;  898,068;   -0,901;    2,045
604,354;  828,799;    0,826;   -0,500
604,933;  764,745;    0,463;    1,864
605,512;  866,443;    3,554;    0,591
606,091;  857,397;   -0,537;    3,773
606,671;  797,239;    0,281;    0,773
607,250;  978,426;    1,644;    3,136
607,829;  919,273;    2,372;    3,227
608,408;  753,936;    1,190;    2,591
608,987;  877,398;    1,281;    3,409
609,566;  694,070;   -1,265;   -2,500
610,145;  794,862;   -1,082;    0,682
610,723;  832,238;    4,372;    6,864
611,302;  745,647;   -0,446;    1,682
611,881; 1052,395;    5,008;   11,227
612,460;  747,039;    1,645;    3,955
613,039;  622,623;   -0,082;    2,045
613,617;  612,649;    1,736;    4,773
614,196;  631,676;    1,099;    1,227
614,775;  703,616;    1,009;    2,409
615,353;  765,040;    0,736;    0,864
615,932;  726,684;    0,100;    2,409
616,510;  706,795;    0,554;    0,591
617,089; 1240,873;    7,100;   17,591
617,667;  828,141;    2,372;    6,136
618,246;  583,110;   -1,537;    1,318
618,824;  651,574;   -3,355;   -0,955
619,402;  675,850;   -2,900;   -1,773
619,981;  749,906;   -0,173;   -1,045
620,559;  645,517;    0,009;    1,682
621,137;  668,260;   -0,718;    1,864
621,715;  574,089;   -1,173;   -0,682
622,293;  600,074;   -0,537;   -0,773
622,871;  608,626;   -0,718;    0,500
623,450;  550,110;    0,373;   -0,864
624,028;  754,243;    0,191;   -0,955
624,606;  708,850;   -1,718;    1,682
625,183;  518,085;   -1,536;   -1,136
625,761;  668,627;    1,009;    1,136
626,339;  970,590;    1,373;    2,591
626,917;  604,026;   -0,172;   -0,045
627,495;  552,125;   -0,354;    1,318
628,073;  684,813;   -0,263;    2,864
628,650;  696,968;    0,100;    2,136
629,228;  689,918;    0,373;    4,409
629,806;  510,700;    2,282;    1,136
630,383;  569,563;    1,464;   -0,318
630,961;  568,156;    2,555;   -0,955
631,539;  615,466;    2,464;    0,227
632,116; 1349,429;   11,373;   15,409
632,694;  947,477;    2,555;    6,500
633,271;  784,938;    0,828;    2,682
633,848;  878,794;    1,828;    2,045
634,426;  602,001;   -1,081;    1,773
635,003;  471,995;    1,101;   -0,409
635,580;  896,984;    1,192;    3,682
636,158;  761,422;    3,737;    1,227
636,735;  564,393;    0,555;   -0,500
637,312;  555,988;   -0,809;   -0,682
637,889;  559,169;   -4,354;   -0,682
638,466;  545,513;   -3,990;   -0,409
639,043;  597,709;    2,101;   -1,136
639,620;  505,524;   -2,262;   -0,955
640,197;  642,326;    1,100;    1,682
640,774;  458,969;   -0,172;    1,136
641,351;  541,794;    0,737;    1,136
641,928;  753,164;   -0,627;    1,409
642,505;  862,716;    0,828;   -0,500
643,082;  673,814;   -1,718;    1,227
643,658;  533,730;   -0,718;    1,500
644,235;  526,009;    1,191;    2,500
644,812;  726,107;    1,918;    0,773
645,388;  691,023;   -0,991;    1,409
645,965;  476,211;   -0,809;    1,682
646,542;  495,036;   -1,445;   -0,227
647,118;  883,043;    1,009;   -0,955
647,695;  661,231;   -0,263;    1,136
648,271;  473,692;   -0,536;    0,500
648,848;  655,335;    0,736;    2,227
649,424;  782,615;    0,827;    1,318
650,000;  601,894;   -0,354;   -1,045
650,577;  623,265;   -0,627;   -0,955
651,153;  621,090;   -1,809;    0,955
651,729;  574,096;    1,191;    0,864
652,305;  944,467;    0,645;    2,773
652,881;  908,928;   -0,082;    1,136
653,458; 1048,116;    1,100;    0,227
654,034; 1149,214;    0,282;    1,591
654,610; 1298,312;    0,554;    0,773
655,186; 1815,045;    0,645;    3,045
655,762; 1329,234;   -0,991;    0,409
656,338; 1297,423;    0,100;    0,136
656,913; 1393,884;   -0,082;    0,409
657,489; 1171,800;    0,827;   -0,318
658,065; 1279,715;   -0,173;   -1,591
658,641; 1306,631;   -0,900;   -0,864
659,217; 1218,183;   -0,991;    0,409
659,792; 1366,463;    0,645;   -0,409
660,368; 1177,288;   -2,173;   -0,682
660,944; 1214,385;   -2,082;    1,227
661,519; 1092,574;   -0,628;    0,409
662,095;  785,944;   -1,719;    0,591
662,670;  617,860;    1,281;   -0,136
663,246;  530,867;    1,009;   -0,409
663,821;  704,237;    0,281;    1,682
664,396;  652,516;    0,009;    1,864
664,972;  554,887;    0,009;   -0,500
665,547;  620,075;    1,372;    0,136
666,122;  597,718;   -1,082;    0,318
666,698;  796,907;   -0,173;    0,318
667,273;  562,459;   -0,173;    0,136
667,848;  597,738;    2,372;    1,500
668,423;  780,109;    2,190;    2,318
668,998;  620,388;    2,827;   -0,682
669,573;  576,940;   -3,264;   -1,500
670,148;  770,947;   -1,446;   -0,682
670,723;  549,954;   -1,810;    0,318
671,298;  845,142;    2,372;    1,045
671,873;  739,149;   -0,082;   -0,136
672,448;  727,065;    0,645;    0,136
673,023;  721,344;   -1,992;   -0,227
673,597;  819,896;    0,827;    2,318
674,172;  872,357;   -0,355;    0,318
674,747;  773,728;    0,372;   -1,045
675,321;  527,644;   -0,628;    3,318
675,896;  465,650;    0,645;    1,045
676,471;  697,384;    2,645;    1,591
677,045;  622,118;   -1,264;    0,682
677,620;  723,670;    0,190;    1,136
678,194;  548,041;   -2,628;    1,136
678,769;  624,866;   -1,083;   -0,318
679,343;  678,327;   -0,628;    1,773
679,917;  799,424;   -1,446;    1,955
680,492;  643,340;    0,826;    3,227
681,066;  690,892;    3,372;    0,409
681,640;  614,081;    1,463;   -0,318
682,214;  631,269;    0,735;    0,500
682,788;  638,367;   -1,356;   -0,773
683,363;  787,919;   -1,810;    1,682
683,937;  653,017;   -1,719;   -0,318
684,511;  682,842;    0,463;   -0,591
685,085;  697,121;   -1,356;    0,318
685,659;  601,128;   -2,538;    0,864
686,232;  855,225;   -0,356;   -0,318
686,806;  728,232;   -0,901;    0,409
687,380;  604,784;   -0,174;    0,591
687,954;  539,700;   -1,174;    1,136
688,528;  876,525;   -0,719;    1,955
689,101;  695,986;   -3,992;    1,045
689,675;  589,902;   -0,356;   -0,136
690,249;  839,636;   -0,719;    0,409
690,822;  838,370;    0,280;    0,318
691,396;  727,013;   -0,265;    1,227
691,969;  637,383;    1,280;    0,136
692,543;  532,026;   -0,447;   -1,955
693,116;  511,397;   -0,265;   -1,409
693,690;  605,312;    0,099;    0,500
694,263;  545,046;   -1,083;    2,955
694,836;  918,598;    1,371;    3,591
695,410;  796,514;   -0,265;    1,773
695,983;  814,339;    0,189;    0,591
696,556;  607,891;   -0,447;   -1,045
697,129;  519,171;   -0,356;    1,409
697,703;  758,814;   -1,629;    1,955
698,276;  641,184;    1,462;   -0,773
698,849;  805,645;    1,280;    1,409
699,422;  560,107;   -1,083;    0,591
699,995;  458,477;    0,007;    0,136
700,568;  604,665;   -0,629;    3,045
701,140;  628,672;   -2,811;    1,682
701,713;  801,224;   -0,174;    2,409
702,286;  678,686;   -0,538;    0,864
702,859;  765,874;   -0,902;   -0,591
703,432;  856,153;    0,825;    0,682
704,004;  723,978;    0,462;    0,318
704,577;  599,894;   -0,629;    0,136
705,150;  650,537;    0,189;    2,500
705,722;  713,544;   -0,356;   -3,227
706,295;  779,914;   -0,175;   -0,591
706,867;  649,921;   -0,175;    1,955
707,440;  742,019;   -1,720;   -0,409
708,012;  826,389;    0,462;    0,591
708,584;  740,577;    2,462;    0,227
709,157;  509,857;    1,825;   -0,591
709,729;  751,409;    2,280;    2,045
710,301;  596,143;    0,734;    0,045
710,874;  610,059;   -1,447;   -0,227
711,446;  501,793;    0,371;    0,864
712,018;  574,163;    0,098;    0,500
712,590;  518,988;   -1,993;    1,682
713,162;  817,358;    0,825;    1,318
713,734;  591,365;    1,825;   -2,045
714,306;  495,463;   -1,902;   -0,409
714,878;  563,287;    0,825;    0,864
715,450;  517,567;    0,643;    0,864
716,022;  530,028;    1,552;    1,318
716,593;  518,307;    0,189;    0,591
717,165;  570,860;   -3,175;   -1,227
717,737;  835,321;    0,280;    0,409
718,309;  603,691;    0,280;   -0,045
718,880;  522,334;   -0,539;   -1,409
719,452;  597,796;   -0,175;   -1,591
720,024;  701,439;    0,734;   -0,591
720,595;  600,354;   -2,902;    0,955
721,167;  587,179;    0,370;   -2,045
721,738;  706,368;   -0,812;   -1,045
722,309;  858,374;   -0,993;   -1,227
722,881;  581,018;   -1,357;    0,773
723,452;  657,661;   -2,630;    2,864
724,023;  675,849;   -0,721;    2,682
724,595;  745,583;    0,007;    0,682
725,166;  609,499;    0,007;   -0,409
725,737;  814,960;    1,734;    0,227
726,308;  597,058;   -0,266;    0,318
726,879;  503,883;   -1,630;    1,227
727,450;  687,980;    0,552;   -0,045
728,021;  608,987;    3,097;    0,682
728,592;  776,812;    0,734;    0,500
729,163;  872,728;    0,643;   -0,136
729,734;  858,007;    0,188;   -0,227
730,305;  711,286;    1,734;    0,136
730,876;  665,839;    0,188;    2,955
731,447;  992,118;    2,188;    2,682
732,017;  887,670;    1,097;    1,864
732,588;  678,859;    0,734;    1,227
733,159;  954,956;    0,643;   -1,045
733,729;  672,599;    0,006;    0,409
734,300;  842,515;    0,915;    0,864
734,870;  648,431;    3,461;    0,591
735,441;  631,165;    0,370;   -0,591
736,011;  616,990;    0,643;   -1,591
736,582;  628,542;   -0,812;    0,045
737,152;  765,003;   -1,721;   -2,045
737,722;  735,010;   -0,267;   -0,682
738,293;  576,016;   -1,358;    1,318
738,863;  766,932;    2,461;    2,318
739,433; 1031,484;    5,279;    0,318
740,003;  737,400;   -0,994;   -0,682
740,573;  871,316;    2,097;   -1,591
741,143;  738,777;   -1,085;    0,318
741,713;  631,057;    1,188;   -0,500
742,283;  707,427;    0,915;    1,591
742,853;  644,434;    1,915;    1,591
743,423;  462,440;    1,733;    0,045
743,993;  581,629;   -0,358;    1,500
744,563;  633,999;    0,097;   -0,864
745,133;  666,370;   -0,812;   -0,864
745,702;  528,285;   -0,267;    1,773
746,272;  758,928;   -0,176;    0,591
746,842;  780,844;   -1,358;   -0,591
747,411;  564,760;   -0,267;   -0,318
747,981;  460,949;    0,097;    0,500
748,551;  451,228;    2,278;   -1,045
749,120;  657,507;    0,642;   -0,227
749,690;  600,060;   -0,631;    2,409
750,259;  714,975;    1,369;    2,955
750,828;  775,527;    1,551;   -1,955
751,398;  535,443;    1,278;   -0,045
751,967; 1038,541;    2,187;    0,409
752,536;  671,548;   -0,813;   -0,227
753,105;  789,463;    0,096;    0,227
753,675;  617,561;    0,096;    1,773
754,244;  625,659;   -0,904;    3,591
754,813;  661,120;    0,551;    1,227
755,382;  625,036;    0,460;    0,955
755,951;  754,497;    1,551;    3,682
756,520;  867,867;   -0,085;    1,864
757,089;  970,056;    0,278;    0,500
757,658;  710,699;    1,733;    1,227
758,227;  537,160;    1,096;    0,318
758,795;  593,348;    1,187;    1,136
759,364;  599,446;   -0,086;   -0,591
759,933;  541,089;   -1,176;   -0,045
760,501;  475,550;    0,733;   -1,318
761,070;  650,103;   -2,813;   -1,409
761,639;  601,291;   -1,904;    1,318
762,207;  738,661;    1,551;   -0,955
762,776;  773,850;    0,369;    0,864
763,344;  623,857;   -0,995;    0,591
763,913;  428,863;   -0,722;    1,409
764,481;  968,688;    1,005;   -0,136
765,049;  964,786;   -1,358;    1,409
765,618;  883,520;   -0,086;    0,318
766,186;  686,617;    0,278;    0,136
766,754;  737,351;    0,005;    1,864
767,322;  614,722;   -1,995;    0,409
767,890;  555,001;   -0,722;   -1,773
768,459;  559,917;   -2,177;   -0,318
769,027;  785,105;    1,641;    3,409
769,595;  605,658;    3,278;    2,591
770,163;  698,573;    3,823;    2,955
770,730;  681,671;    0,732;   -0,136
771,298;  664,950;    0,187;   -1,409
771,866;  578,684;   -1,541;    4,955
772,434;  620,055;   -0,631;   -1,864
773,002;  825,243;    0,005;    0,682
773,569;  692,977;    0,914;    1,682
774,137;  813,620;   -0,268;   -0,045
774,705;  597,081;    0,278;   -0,136
775,272;  574,452;    0,641;    0,682
775,840;  598,095;   -0,177;    2,682
776,407;  714,102;    0,277;    1,955
776,975;  585,836;   -0,632;    0,318
777,542;  521,115;   -1,086;   -0,045
778,110;  554,849;   -1,268;   -0,045
778,677;  437,856;   -2,359;   -0,864
779,244;  520,590;    2,186;    1,045
779,812;  674,596;    1,823;    0,864
780,379;  762,785;    0,005;    1,136
780,946;  628,610;    1,005;   -0,773
781,513;  529,071;   -1,450;    0,318
782,080;  509,896;   -0,086;    2,864
782,647;  536,539;   -0,268;    3,045
783,214;  513,546;   -0,177;    3,864
783,781;  726,189;   -0,723;   -0,682
784,348;  662,468;   -0,632;    1,500
784,915;  441,111;   -3,177;    0,318
785,482;  686,300;    1,368;    2,591
786,049;  611,761;    0,186;   -0,591
786,615;  481,677;    0,277;   -0,955
787,182;  443,138;    0,186;   -0,682
787,749;  422,145;   -2,814;    1,409
788,315;  658,879;   -1,632;   -0,409
788,882;  534,158;    1,550;   -1,227
789,448;  835,983;    1,732;   -0,955
790,015;  600,171;    1,095;    3,227
790,581;  786,814;    1,459;    0,227
791,148;  593,457;    0,641;    1,045
791,714;  481,282;   -0,541;    3,136
792,280;  495,834;    0,186;    1,591
792,847;  435,296;    0,550;    2,500
793,413;  529,302;   -0,269;   -0,318
793,979;  754,491;    3,459;   -1,318
794,545; 1029,679;    4,459;    2,682
795,111;  904,504;    2,186;    1,318
795,678;  752,238;    0,731;   -1,682
796,244;  913,790;    3,368;    0,136
796,810;  754,888;    1,731;    0,773
797,375;  752,622;    0,549;   -2,136
797,941;  429,720;   -0,541;    0,591
798,507;  442,363;   -0,451;   -0,955
799,073;  485,006;   -0,360;    0,591
799,639;  469,922;   -2,632;    3,136
800,205;  430,110;    0,095;    2,682
800,770;  466,844;    0,640;    1,773
801,336;  485,305;    1,368;   -0,955
801,901; 1081,767;    4,549;    3,136
802,467;  725,591;   -0,542;    2,045
803,033;  514,598;   -0,087;    0,864
803,598;  508,605;    1,913;   -1,045
804,163;  515,702;    1,095;   -0,318
804,729;  617,436;   -0,178;    1,136
805,294;  508,807;    0,822;    2,227
805,859;  451,722;    0,731;   -0,409
806,425;  849,729;    1,186;    2,682
806,990;  821,009;    2,186;    4,318
807,555;  566,197;   -1,451;    2,591
808,120;  723,386;    0,822;   -0,409
808,685;  516,665;    0,185;   -2,500
809,250;  423,854;    0,004;   -0,500
809,815;  411,133;    1,913;    0,682
810,380;  545,503;   -0,269;    1,591
810,945;  727,783;   -1,087;    2,045
811,510;  553,699;    2,094;    1,591
812,075;  613,251;   -0,633;   -1,409
812,640;  848,621;    2,003;    1,409
813,204;  595,991;    0,822;   -0,227
813,769;  739,362;    2,094;   -0,045
814,334;  735,005;    0,458;    0,864
814,898;  455,921;    0,367;    0,591
815,463;  571,745;    1,276;   -0,773
816,027;  508,479;   -0,724;   -2,318
816,592;  429,213;    0,640;   -2,045
817,156;  613,311;    2,094;    1,136
817,721;  733,499;    4,276;    2,318
818,285;  458,597;    2,912;    1,500
818,849;  520,786;   -1,451;    1,682
819,414;  450,974;   -0,269;    2,955
819,978;  401,799;   -1,269;    1,773
820,542;  691,260;    2,003;    0,500
821,106;  518,812;   -0,815;    0,682
821,670;  739,819;   -0,815;    2,591
822,234;  509,008;   -0,270;    1,409
822,798;  408,742;    0,003;    0,500
823,362;  644,839;   -0,633;    4,227
823,926;  501,210;    0,094;    1,136
824,490;  689,125;   -0,997;   -0,682
825,054;  553,768;   -0,088;   -1,136
825,618;  448,866;   -1,542;   -1,500
826,181;  512,236;    0,458;   -1,318
826,745;  623,334;    1,367;   -1,045
827,309;  829,341;    1,185;    1,318
827,872;  694,347;    1,367;    0,955
828,436;  574,718;    1,185;   -0,773
828,999;  473,633;   -0,997;    1,227
829,563;  452,640;   -0,179;    1,136
830,126;  430,010;   -0,179;   -0,591
830,690;  547,653;   -1,997;    2,864
831,253;  469,024;   -0,543;    2,227
831,816;  514,303;   -1,906;    0,500
832,380;  466,674;    0,185;    0,864
832,943;  442,862;   -1,361;   -0,500
833,506;  453,505;    2,639;   -1,227
834,069;  600,239;    3,912;   -0,955
834,632;  444,064;    1,730;    1,318
835,195;  486,253;    1,003;    0,955
835,758;  429,623;   -0,997;    1,955
836,321;  450,539;    0,730;   -1,045
836,884;  414,182;   -0,725;   -0,955
837,447;  359,279;   -2,816;    1,773
838,010;  547,468;    0,366;    3,227
838,573;  544,293;   -1,179;    0,773
839,135;  399,299;   -1,361;   -0,955
839,698;  479,852;    1,275;    0,409
840,261;  427,767;    1,003;   -0,227
840,823;  380,138;   -0,543;    0,864
841,386;  366,144;   -0,452;   -2,409
841,948;  670,424;   -1,361;    1,773
842,511;  461,976;    0,912;    1,682
843,073;  656,710;    1,912;    0,227
843,636;  405,898;   -0,361;   -0,227
844,198;  628,905;    0,911;    0,591
844,760;  593,094;    1,093;    1,955
845,322;  390,009;    0,548;    1,136
845,885;  528,198;    0,730;    0,591
846,447;  460,477;   -1,998;    0,227
847,009;  805,484;    1,911;   -0,682
847,571;  509,400;    0,820;   -2,045
848,133;  450,407;   -1,089;   -1,864
848,695;  319,322;   -0,543;    1,409
849,257;  407,511;   -1,089;   -1,682
849,819;  554,608;   -0,998;   -0,409
850,381;  411,888;   -0,725;   -0,864
850,942;  483,804;    1,093;   -0,591
851,504;  560,719;    1,184;    0,227
852,066;  414,635;    1,275;   -1,591
852,628;  449,824;   -0,180;    1,955
853,189;  356,830;    1,638;    2,682
853,751;  359,928;   -0,907;    1,409
854,312;  527,298;   -0,453;   -1,682
854,874;  657,941;   -2,089;   -0,773
855,435;  469,766;   -0,907;   -1,682
855,997;  504,500;   -1,816;   -0,136
856,558;  622,416;    0,366;    1,773
857,119;  530,696;    0,820;    2,864
857,681;  371,793;    0,002;    0,318
858,242;  638,163;    1,911;   -2,136
858,803;  596,807;    0,456;   -0,773
859,364;  471,177;    0,184;   -4,773
859,925;  550,184;   -2,453;   -0,955
860,486;  422,918;   -0,453;   -0,955
861,047;  374,833;   -0,544;   -1,227
861,608;  421,658;   -1,089;   -0,773
862,169;  276,574;    0,638;   -0,045
862,730;  417,581;    0,456;    1,409
863,291;  454,406;   -0,635;   -0,500
863,852;  432,776;   -0,635;    1,955
864,412;  432,055;   -0,271;   -0,864
864,973;  675,698;   -0,089;    0,500
865,534;  776,887;   -1,726;    0,227
866,094;  565,257;    1,820;    0,227
866,655;  702,446;    1,274;    3,318
867,215;  510,452;    0,274;    0,136
867,776;  354,823;    0,547;   -0,136
868,336;  449,739;   -1,453;    0,136
868,897;  822,291;    2,638;    1,682
869,457;  615,388;    1,365;    0,318
870,017;  403,122;    0,547;   -1,227
870,578;  398,674;   -0,817;    0,773
871,138;  490,772;   -2,089;   -0,955
871,698;  401,506;   -0,817;   -1,318
872,258;  520,058;   -0,453;   -2,864
872,818;  666,065;    2,729;    0,045
873,378;  479,344;    0,638;    1,045
873,938;  459,896;    0,547;    0,500
874,498;  362,539;    0,274;   -1,955
875,058;  471,001;    2,183;    1,773
875,618;  470,007;    1,910;   -2,682
876,177;  512,832;    1,274;    0,136
876,737;  349,384;   -0,090;    1,955
877,297;  704,664;    0,183;    1,955
877,856;  632,216;   -0,362;    0,318
878,416;  404,950;    1,183;   -0,136
878,976;  364,229;   -1,817;    0,409
879,535;  407,872;    0,092;    3,136
880,095;  393,606;   -0,544;    0,045
880,654;  339,704;   -1,090;    1,318
881,213;  642,074;    2,456;    1,500
881,773;  480,990;    2,637;    2,682
882,332;  956,270;    3,365;    5,136
882,891;  463,913;    3,092;    2,136
883,451;  452,738;   -1,272;    1,682
884,010;  416,653;   -2,908;   -0,409
884,569;  352,842;   -0,999;   -0,045
885,128;  526,758;    2,819;   -1,864
885,687;  761,037;    4,455;    0,682
886,246;  938,953;    1,455;    2,136
886,805;  738,778;    2,455;    2,045
887,364;  407,603;   -0,999;   -0,500
887,922;  336,791;   -1,181;    0,045
888,481;  533,798;   -1,545;    0,591
889,040;  597,259;    1,183;    2,136
889,599;  478,175;    2,455;    1,409
890,157;  472,272;    1,455;    2,409
890,716;  410,188;   -0,090;    0,227
891,274;  526,740;    0,092;   -1,136
891,833;  598,474;    1,546;    0,864
892,391;  486,117;   -0,454;    0,500
892,950;  573,579;    1,819;   -0,773
893,508;  376,313;    0,455;   -0,409
894,067;  313,774;    0,637;    0,136
894,625;  413,326;   -0,636;   -1,500
895,183;  373,696;   -0,363;   -0,682
895,741;  637,612;    1,728;   -1,773
896,299;  435,255;   -0,545;   -2,409
896,858;  388,898;    0,819;   -1,591
897,416;  517,814;    2,728;   -1,318
897,974;  440,548;    1,819;    0,318
898,532;  858,464;    6,091;    2,682
899,089;  577,470;    2,091;   -0,682
899,647;  481,386;   -1,454;    1,318
900,205;  481,211;    1,182;    1,045
900,763;  462,672;   -0,454;    0,227
901,321;  416,225;    2,364;   -1,409
901,878;  259,868;   -1,000;   -0,773
902,436;  355,783;   -1,363;    1,318
902,994; 1014,699;    4,728;    3,682
903,551;  591,706;    0,728;    0,409
904,109;  465,894;    0,182;   -1,409
904,666;  423,447;    2,455;    1,045
905,224;  317,726;    0,182;   -0,409
905,781;  488,824;    0,727;   -0,318
906,338;  427,921;   -1,363;    1,045
906,895;  320,382;    0,637;    2,045
907,453;  572,844;    1,727;    1,136
908,010;  435,214;   -0,909;    0,409
908,567;  426,675;    1,273;    0,591
909,124;  282,682;    0,364;   -1,500
909,681;  342,325;   -2,909;    0,682
910,238;  374,514;    0,636;   -1,318
910,795;  277,702;   -0,273;   -1,136
911,352;  303,247;   -2,909;   -2,682
911,909;  342,884;   -1,364;   -0,864
912,466;  349,429;   -3,182;    1,500
913,022;  448,429;   -1,636;    0,500
913,579;  514,975;   -0,909;    2,045
914,136;  405,611;    1,636;    0,955
914,692;  397,520;    0,091;   -1,227
915,249;  432,884;    1,455;    0,409
915,806;  498,429;    0,182;    1,955
916,362;  397,793;    1,909;    1,864
916,918;  382,247;    2,000;    1,045
917,475;  504,429;   -1,182;    0,955
918,031;  349,429;    3,364;   -0,045
918,587;  422,157;   -0,909;   -0,318
919,144;  336,429;   -2,273;    0,227
919,700;  266,338;    1,727;    0,773
920,256;  275,611;    0,727;    0,045
920,812;  337,247;   -0,727;   -1,045
921,368;  299,157;   -1,727;   -1,045
921,924;  323,975;    0,182;   -0,136
922,480;  405,611;   -0,545;    1,227
923,036;  408,884;    1,273;    1,955
923,592;  316,611;    0,455;    0,318
924,148;  334,702;    0,455;   -0,955
924,704;  460,520;   -1,364;   -0,409
925,259;  292,611;   -0,273;    0,591
925,815;  300,429;    1,455;    0,500
926,371;  275,066;    2,909;    1,409
926,926;  424,157;    2,091;    0,591
927,482;  401,429;   -1,364;    0,773
928,037;  332,338;    0,909;    2,045
928,593;  499,066;    1,636;    1,045
929,148;  296,338;   -1,818;   -1,500
929,704;  365,247;   -1,455;   -0,500
930,259;  304,338;    0,091;   -0,136
930,814;  461,884;   -0,818;    1,955
931,369;  403,520;    1,091;   -0,773
931,925;  256,157;   -0,091;    0,136
932,480;  347,157;   -2,818;   -2,591
933,035;  635,702;    0,545;   -0,318
933,590;  549,338;    0,364;   -1,773
934,145;  264,338;   -1,364;   -0,318
934,700;  181,884;    0,455;   -0,591
935,255;  237,702;   -0,091;    0,045
935,809;  516,520;    3,182;    0,864
936,364;  242,702;   -0,455;   -0,136
936,919;  233,702;    0,455;   -1,773
937,474;  176,429;    1,455;    0,136
938,028;  189,884;   -1,636;    1,136
938,583;  522,884;    1,818;    4,682
939,138;  260,884;    2,091;    2,136
939,692;  162,157;    1,636;   -1,136
940,247;  204,611;   -0,727;   -1,045
940,801;  235,247;   -0,636;    0,227
941,355;  168,429;   -0,364;    2,591
941,910;  119,884;   -0,273;   -2,136
942,464;  147,157;   -0,818;   -0,318
943,018;  313,429;    1,000;   -0,227
943,572;  199,884;    2,545;   -0,682
944,126;  254,247;    0,091;   -0,409
944,681;  174,429;    3,091;    0,227
945,235;  130,247;    1,000;   -0,591
945,789;  113,702;    0,364;   -1,864
946,342;  291,611;    0,455;   -0,591
946,896;  146,338;   -2,273;    0,955
947,450;  124,429;    1,545;   -0,227
948,004;  290,157;    1,727;   -0,045
948,558;  168,429;    0,273;   -0,864
949,111;  165,247;   -0,273;   -0,318
949,665;  288,793;    1,636;   -0,682
950,219;  265,066;   -0,091;   -1,045
950,772;  210,611;   -1,909;    1,864
951,326;  197,611;    0,545;   -0,955
951,879;  161,884;    0,727;   -2,318
952,433;  249,611;    0,000;    2,227
952,986;  146,066;    2,909;    0,682
953,539;  124,520;   -0,273;    0,591
954,093;   97,702;    0,545;   -1,318
954,646;  169,884;    0,909;    1,318
955,199;  121,975;    0,000;   -0,500
955,752;  279,520;   -0,455;    1,773
956,305;  178,520;   -0,091;    2,955
956,858;  200,429;    0,818;   -0,318
957,411;  230,793;   -0,545;    2,136
957,964;  191,702;    1,364;    2,136
958,517;  131,793;   -1,545;    3,136
959,070;  101,429;   -0,455;    1,955
959,623;  284,975;    1,091;    1,500
960,176;  254,611;    1,727;    2,045
960,728;  214,975;   -2,727;    0,773
961,281;  174,702;    0,545;    0,500
961,834;  131,975;   -0,909;    0,864
962,386;  142,157;    1,727;    1,045
962,939;  123,702;    0,364;   -0,318
963,491;  157,520;    0,455;    1,136
964,043;  115,338;    1,182;    2,409
964,596;  221,793;   -1,000;    2,227
965,148;  158,157;   -1,000;    1,773
965,700;  109,520;    1,091;   -0,227
966,253;  217,338;   -0,636;    0,318
966,805;  183,247;   -2,273;    0,773
967,357;  135,066;    1,091;   -1,500
967,909;  211,157;    0,455;   -1,227
968,461;  143,157;    0,545;    3,136
969,013;  111,975;   -0,182;   -0,864
969,565;  214,793;   -0,455;   -1,136
970,117;  359,157;   -0,364;    1,045
970,669;  218,520;    0,182;   -0,136
971,220;   96,429;   -0,455;   -1,500
971,772;  146,884;   -0,636;   -0,318
972,324;  206,338;    0,091;   -0,500
972,876;  134,975;    0,818;   -0,045
973,427;  207,066;    1,909;   -1,045
973,979;  259,066;   -0,727;   -2,500
974,530;  139,429;    1,818;    1,318
975,082;  179,884;   -0,545;    1,682
975,633;  144,066;    1,091;    1,682
976,184;  164,884;    0,909;    0,773
976,736;  161,975;    0,091;    0,227
977,287;  183,611;   -0,909;   -0,500
977,838;  152,429;    0,909;   -0,318
978,389;  146,157;   -1,000;   -0,500
978,940;   82,429;    0,545;   -0,409
979,491;   85,157;    0,091;   -0,500
980,042;  140,793;    0,182;    3,045
980,593;  150,884;   -2,545;    0,227
981,144;  200,338;    2,545;   -0,500
981,695;  209,520;    1,455;    1,500
982,246;  181,611;   -0,273;    1,045
982,797;  108,975;   -1,727;    0,682
983,347;  190,702;    0,364;    0,591
983,898;  321,066;    3,091;    0,409
984,449;  303,338;    2,182;    0,773
984,999;  202,338;    1,455;   -1,136
985,550;  170,975;    0,182;   -0,318
986,100;   95,975;   -0,455;   -0,318
986,651;   92,520;   -0,818;    0,045
987,201;  107,884;   -1,000;   -0,591
987,751;  114,520;    0,818;    2,864
988,302;  130,157;    2,636;    1,500
988,852;  171,429;    0,455;   -1,136
989,402;  205,429;    0,091;    0,682
989,952;  223,975;   -2,182;    0,864
990,502;  123,793;   -0,091;    0,682
991,052;   70,702;   -0,727;    0,045
991,602;  103,520;   -2,909;    1,318
992,152;  125,884;    0,455;    0,682
992,702;  153,066;    1,364;   -0,045
993,252;  117,884;   -3,000;   -0,500
993,802;  178,520;   -0,273;    1,318
994,352;  143,611;   -1,545;    1,136
994,901;   88,884;   -0,182;    3,227
995,451;   80,611;   -0,182;    0,318
996,000;  104,247;    1,636;    0,318
996,550;  113,520;    2,273;    0,227
997,100;  134,702;    1,273;   -0,045
997,649;  214,247;    2,182;    0,955
998,198;  114,793;    1,727;   -1,500
998,748;  170,066;    1,091;   -2,318
999,297;  137,520;   -0,818;   -0,409
999,846;  205,520;    1,000;   -0,773
1000,395;  150,793;   -0,818;    0,500
1000,945;  218,157;    1,818;   -0,773
1001,494;  221,066;    2,364;    0,682
1002,043;  218,611;    4,636;    0,864
1002,592;  118,247;   -1,091;    1,955
1003,141;  106,520;   -0,455;   -0,682
1003,690;  214,611;    1,727;    0,500
1004,238;  133,157;    1,455;   -0,045
1004,787;   95,975;    1,364;    1,227
1005,336;  187,884;    0,364;    0,682
1005,885;  152,884;    1,364;   -2,773
1006,433;  145,520;    0,545;    0,955
1006,982;  242,338;    0,455;    1,682
1007,531;  164,157;   -1,818;   -0,227
1008,079;  148,066;   -2,273;    0,500
1008,627;  113,429;   -1,455;    0,409
1009,176;  134,702;    0,000;   -1,955
1009,724;   98,338;    1,091;    0,864
1010,273;  184,975;    1,273;    0,500
1010,821;  113,884;    0,091;    1,409
1011,369;   94,884;   -1,364;    1,318
1011,917;  102,520;   -1,364;   -0,591
1012,465;  143,066;    1,273;   -1,591
1013,013;  134,702;    2,091;   -1,682
1013,561;  204,157;    0,455;   -0,773
1014,109;  258,975;   -1,909;    1,682
1014,657;  177,066;    0,364;    0,591
1015,205;  121,520;    1,636;   -0,955
1015,753;   95,702;   -0,545;   -1,409
1016,301;  138,611;   -2,636;    3,045
1016,848;  185,611;   -1,273;    0,409
1017,396;  171,157;    2,545;    0,045
1017,944;  164,157;    1,182;    1,864
1018,491;  128,247;    0,273;    1,409
1019,039;  299,702;    0,455;    0,591
1019,586;  157,157;   -1,364;    1,682
1020,134;  143,429;    0,455;    1,500
1020,681;  195,793;    0,182;   -1,136
1021,228;  150,884;    2,909;   -2,227
1021,776;  130,793;    1,182;   -1,136
1022,323;  268,884;    0,455;    0,773
1022,870;  204,429;   -1,000;   -0,045
1023,417;  233,793;    2,636;    1,864
1023,964;  139,429;    2,636;    1,227
1024,511;  116,429;    1,000;    0,773
1025,058;  156,702;    3,182;   -0,045
1025,605;  120,429;   -2,273;    3,136
1026,152;  245,611;    1,727;   -0,591
1026,699;  153,429;    1,818;    1,318
1027,245;  146,066;   -0,091;    0,318
1027,792;  103,975;   -1,000;    1,409
1028,339;  252,157;    2,364;   -0,045
1028,885;  153,429;    1,000;   -0,227
1029,432;  132,793;   -0,091;    0,227
1029,978;  182,975;   -1,000;   -1,591
1030,525;  192,884;    1,000;    0,409
1031,071;  118,884;   -1,364;    1,136
1031,618;  285,247;    0,364;    1,682
1032,164;  185,611;   -0,091;    3,045
1032,710;  208,611;    1,636;   -1,500
1033,256;  187,157;   -0,636;   -0,136
1033,803;  104,611;   -0,545;    1,500
1034,349;   37,157;   -1,364;    0,136
1034,895;   64,611;    0,000;   -0,318
1035,441;  101,520;   -0,818;    0,318
1035,987;  129,702;   -2,364;   -0,682
1036,533;  168,793;   -1,455;   -0,955
1037,078;  296,793;    1,455;    1,682
1037,624;  206,520;    2,455;   -0,955
1038,170;  123,338;    0,455;   -0,318
1038,716;  172,429;    1,636;   -0,409
1039,261;  102,611;   -2,273;   -0,773
1039,807;  113,338;   -0,091;    3,409
1040,352;  117,611;   -1,909;   -0,318
1040,898;  116,429;   -1,545;   -0,682
1041,443;   80,520;   -1,455;   -2,591
1041,989;  271,611;    1,091;    1,591
1042,534;  155,066;   -0,364;    2,591
1043,079;   80,975;    2,909;    0,955
1043,625;  137,066;    1,818;    0,500
1044,170;  144,157;   -1,364;    1,045
1044,715;  263,247;    2,455;    0,955
1045,260;  202,793;    2,182;   -0,955
1045,805;  115,793;    1,182;   -0,591
1046,350;   95,520;    1,364;   -0,409
1046,895;  207,611;    2,909;    1,591
1047,440;  191,702;    5,364;    0,409
1047,985;  122,429;    2,818;   -0,955
1048,530;  107,793;    1,545;    1,227
1049,074;  131,975;    0,000;    0,318
1049,619;  104,611;   -1,364;    1,955
1050,164;   97,793;    0,455;    0,227
1050,708;  161,975;   -0,455;    0,045
1051,253;  302,520;    1,273;   -2,227
1051,797;  170,611;    0,818;   -1,318
1052,342;   81,793;   -1,182;    1,045
1052,886;  128,884;    0,364;   -1,409
1053,430;   78,066;   -1,364;    0,136
1053,975;  134,793;   -0,818;   -0,318
1054,519;  130,975;   -0,727;    3,227
1055,063;  163,429;    0,909;    1,318
1055,607;  158,975;   -0,182;    0,227
1056,151;  159,338;    2,909;    1,682
1056,695;  114,611;    2,273;   -1,136
1057,239;   98,884;   -1,727;   -0,682
1057,783;  128,520;    0,818;   -1,500
1058,327;  174,247;    0,000;    1,409
1058,871;  262,884;   -0,545;    1,318
1059,415;  189,338;   -0,818;   -0,045
1059,958;  265,975;    1,455;    2,591
1060,502;  115,520;   -1,000;   -0,773
1061,046;   69,793;    0,364;   -0,955
1061,589;   73,066;   -3,000;   -1,136
1062,133;   58,702;   -1,273;    1,864
1062,676;   85,520;    1,182;    0,864
1063,220;  102,884;    1,091;    0,500
1063,763;  118,611;    0,909;    1,136
1064,306;  130,975;   -0,909;    1,864
1064,849;  134,520;   -0,909;    0,591
1065,393;  120,520;    2,000;   -1,500
1065,936;  120,793;    0,182;   -0,409
1066,479;   80,975;   -1,455;    1,318
1067,022;   94,520;   -0,273;   -0,227
1067,565;   78,975;   -0,091;   -1,318
1068,108;   68,520;    0,727;   -0,591
1068,651;   56,611;   -0,636;    1,409
1069,194;   59,611;   -0,455;   -1,682
1069,736;   66,429;   -1,273;    0,955
1070,279;   58,793;   -1,364;   -0,500
1070,822;  100,520;   -2,000;   -0,318
1071,364;  173,429;   -0,364;    1,318
1071,907;  100,702;   -0,727;    3,227
1072,450;   33,429;    0,000;   -0,045
1072,992;   69,429;   -0,273;    3,136
1073,535;   99,066;    2,091;    2,136
1074,077;   63,157;   -0,727;    2,045
1074,619;   55,429;   -1,364;    0,591
1075,161;   74,247;   -1,091;    1,500
1075,704;  143,066;    1,545;    1,227
1076,246;   76,247;   -0,182;    0,682
1076,788;   44,975;   -0,364;    1,773
1077,330;   46,429;    1,273;    2,136
1077,872;   65,884;    0,909;    0,955
1078,414;  159,884;    2,727;    0,773
1078,956;   82,247;    1,273;   -0,227
1079,498;  146,157;    1,636;    0,318
1080,040;   79,066;    1,909;   -1,318
1080,581;   61,429;    1,636;   -0,318
1081,123;   32,429;    0,091;   -0,773
1081,665;   39,157;   -1,182;   -0,955
1082,206;  137,884;    1,364;   -0,500
1082,748;   84,702;    0,727;    2,045
1083,289;   45,066;   -2,000;    1,318
1083,831;   41,247;   -0,545;    0,227
1084,372;   66,611;    0,000;    0,591
1084,913;   65,702;    1,091;    0,864
1085,455;   40,338;   -1,909;   -2,045
1085,996;   33,611;   -2,273;    0,136
1086,537;   43,429;   -0,091;    0,864
1087,078;   52,429;   -0,909;   -2,136
1087,619;   83,429;   -1,273;    0,227
1088,160;   67,520;    0,000;    1,318
1088,701;   58,247;   -1,091;    0,682
1089,242;   50,338;    1,364;   -2,227
1089,783;   74,520;   -0,273;    1,409
1090,324;   56,066;    0,455;    0,682
1090,865;   41,247;    2,727;   -0,409
1091,405;   31,429;    0,727;    2,227
1091,946;   50,429;    0,182;   -0,955
1092,487;   29,975;    0,818;   -1,409
1093,027;   85,247;   -1,364;   -1,500
1093,568;   51,520;   -0,364;    1,227
1094,108;   61,702;    0,273;    1,773
1094,649;   46,429;   -1,182;    0,136
1095,189;   34,157;   -0,636;   -0,682
1095,729;   33,611;   -0,091;    0,955
1096,269;   31,975;    0,727;   -0,955
1096,810;  102,066;   -1,364;    0,500
1097,350;   71,884;    1,364;   -0,773
1097,890;   48,247;    0,364;    1,227
1098,430;  139,884;    2,364;    2,864
1098,970;   98,884;    2,182;    1,682
1099,510;   45,338;    0,545;   -2,318
1100,050;   33,066;    1,000;   -1,591
1100,589;   40,611;   -0,727;   -0,318
1101,129;   64,702;    0,818;   -0,955
1101,669;  101,247;    1,727;    2,136
1102,209;   66,247;   -0,091;    2,227
1102,748;   50,702;    0,000;    0,955
1103,288;   53,520;    1,273;   -1,227
1103,827;   49,247;    3,091;   -2,227
1104,367;   32,611;   -0,091;   -2,409
1104,906;   31,066;    1,364;   -1,136
1105,445;   53,702;    0,636;   -1,136
1105,985;   38,702;   -0,727;    1,500
1106,524;   46,247;   -1,727;   -0,682
1107,063;   39,066;   -2,727;    1,409
1107,602;   31,520;   -1,909;   -1,500
1108,141;   25,975;   -1,909;    1,500
1108,680;   53,338;   -3,455;   -0,591
1109,219;   40,520;   -0,909;   -0,500
1109,758;   37,611;    0,455;    0,682
1110,297;   35,520;    1,000;   -0,682
1110,836;   25,520;   -0,727;    0,955
1111,375;   30,793;   -2,545;    0,409
1111,913;   55,429;   -1,000;    0,773
1112,452;   42,338;   -0,273;    0,136
1112,991;   24,884;    1,091;    1,955
1113,529;   23,793;   -0,818;   -0,045
1114,068;   35,247;   -0,273;    2,955
1114,606;   20,884;   -0,364;   -0,955
1115,144;   49,247;   -1,273;    1,045
1115,683;   37,338;   -0,727;    0,318
1116,221;   51,066;   -0,455;   -0,864
1116,759;   27,975;    0,636;   -0,864
1117,297;   57,793;    0,000;    1,864
1117,836;   31,338;   -2,182;   -1,227
1118,374;   30,066;    0,182;   -0,682
1118,912;   38,975;    0,909;    2,682
1119,450;   34,793;    1,000;    0,864
1119,988;   32,157;    1,545;    2,136
1120,525;  175,520;    5,091;    3,318
1121,063;   83,247;    1,182;    1,864
1121,601;   33,157;   -0,909;   -1,227
1122,139;   25,975;   -0,727;   -2,045
1122,676;   69,429;   -0,727;    2,773
1123,214;   59,338;   -1,182;    4,409
1123,751;   26,702;    1,727;    2,227
1124,289;   41,157;   -0,091;   -0,409
1124,826;   29,611;    1,727;    0,227
1125,364;   12,884;    1,727;   -0,955
1125,901;   62,702;    1,182;    1,227
1126,438;   56,157;    0,818;    0,955
1126,975;   13,338;   -0,727;   -0,773
1127,513;   19,793;    0,273;    2,136
1128,050;   11,429;    1,636;   -0,682
1128,587;   27,066;    2,000;   -0,227
1129,124;   38,066;    0,091;    1,318
1129,661;   15,702;    0,273;    0,227
1130,198;   48,157;    1,636;    0,773
1130,734;   32,793;    0,182;    1,409
1131,271;   15,247;   -0,909;    0,864
1131,808;   38,884;    2,909;    3,045
1132,345;   22,611;    1,545;    0,318
1132,881;    6,429;   -1,545;   -1,864
1133,418;   24,793;    0,727;   -1,136
1133,954;   16,611;    2,455;   -2,682
1134,491;   29,793;    1,364;   -0,773
1135,027;   14,611;    2,364;    0,864
1135,564;   23,338;    0,273;    2,955
1136,100;   24,520;    0,364;    2,136
1136,636;   11,520;   -1,273;   -1,045
1137,172;   19,247;    0,000;   -1,045
1137,708;   13,702;   -1,364;   -1,045
1138,245;   10,975;    1,273;   -1,227
1138,781;    6,338;    1,091;   -3,318
1139,317;   12,611;    1,273;   -1,409
1139,852;   19,611;    3,091;    0,136
1140,388;   28,793;   -1,182;   -0,409
1140,924;   15,157;   -1,091;   -2,227
1141,460;    5,338;   -1,636;    0,136
1141,996;    2,157;   -1,364;    2,682
1142,531;    7,429;    1,364;    3,318
1143,067;   40,157;    1,182;    1,045
1143,602;   53,338;   -0,091;   -0,318
1144,138;   23,611;   -2,636;    1,045
1144,673;    7,702;   -1,455;    1,409
1145,209;   14,066;   -1,909;   -0,318
1145,744;    5,429;   -0,727;    0,864
1146,279;   20,793;    1,818;   -0,136
1146,815;   10,975;    1,545;   -2,682
1147,350;   17,338;   -1,364;    0,045
1147,885;    6,247;   -0,818;   -1,318
1148,420;    8,338;   -2,273;    0,773
1148,955;    7,247;   -1,727;    1,864
1149,490;    8,702;   -0,909;   -1,591
1150,025;    3,793;    0,455;   -1,773
1150,560;   16,793;    1,091;   -0,955
1151,094;   14,429;    1,455;   -0,591
1151,629;   14,884;    1,636;    0,864
1152,164;    8,247;    1,364;    1,318
1152,698;    5,247;   -0,182;   -0,136
1153,233;    1,247;    0,091;   -0,682
1153,767;    3,157;   -3,000;   -2,318
1154,302;    9,157;   -1,455;    1,773
1154,836;    8,611;   -0,455;   -2,136
1155,371;   13,066;   -1,364;    3,682
1155,905;    7,157;   -0,636;    1,682
1156,439;    7,429;   -0,636;   -0,500
1156,973;   11,157;    0,364;    0,318
1157,507;    3,338;   -0,364;    0,682
1158,042;    8,793;   -0,727;    1,045
1158,576;   13,157;    0,182;    1,773
1159,110;   11,247;   -0,818;    2,409
1159,643;    7,884;    0,636;   -0,045
1160,177;    3,520;   -1,545;    1,500

