
Integration time [ms]:   0,040
Averaging Nr. [scans]: 11
Smoothing Nr. [pixels]: 0
Data measured with spectrometer [name]: 7318044SP
Wave   ;Sample   ;Dark     ;Reference
[nm]   ;[counts] ;[counts] ;[counts] 

186,757;   33,068;   31,551;    1,318
187,357;   29,450;   22,551;    0,955
187,958;   23,823;   15,460;   -1,591
188,558;   22,244;    8,915;   -1,227
189,159;   16,549;    6,733;   -4,500
189,759;   10,000;    7,278;   -3,591
190,360;    4,700;    2,824;   -2,136
190,960;   11,669;    2,915;   -4,136
191,560;   12,768;    3,189;   -6,591
192,161;   54,943;    4,372;   -3,500
192,761;   32,967;    4,010;   -3,227
193,361;   19,098;    1,556;   -3,773
193,962;   25,670;    2,010;   -2,682
194,562;    6,820;    1,189;   -3,955
195,162;    4,347;   -2,448;   -2,227
195,762;   27,053;   -3,176;   -0,045
196,362;   17,358;    1,370;   -2,500
196,963;    2,496;    2,006;   -0,864
197,563;   10,974;    1,551;   -0,955
198,163;    6,524;    0,096;   -0,682
198,763;    8,934;    1,733;   -0,500
199,363;   13,214;    3,096;   -0,500
199,963;    8,573;    0,369;    0,409
200,563;    7,973;    2,823;   -1,409
201,163;    2,836;    3,277;   -0,227
201,763;    7,640;    3,732;    0,318
202,363;    6,664;    1,459;    1,500
202,963;    9,254;    1,459;    1,045
203,563;   19,407;    0,277;    0,500
204,162;    9,509;    2,096;   -1,864
204,762;    1,808;    0,550;    0,591
205,362;    3,033;    3,004;    1,955
205,962;    4,833;    3,096;    1,955
206,562;    3,192;    1,823;    2,318
207,161;    2,746;   -0,087;    0,318
207,761;   21,374;    1,277;    2,409
208,361;    6,969;   -0,268;    1,409
208,960;   10,271;    0,459;    1,500
209,560;    6,634;    1,277;    1,591
210,160;   10,232;    0,550;    1,864
210,759;    4,933;    4,186;    1,227
211,359;    3,765;    1,459;    1,045
211,958;   25,695;    1,277;    2,045
212,558;   18,497;    1,732;    1,864
213,157;   10,805;    1,822;    1,500
213,757;   39,691;    3,822;   -0,227
214,356;   14,921;    1,277;   -0,409
214,956;   26,932;    3,095;    0,409
215,555;   10,432;    2,095;    2,136
216,154;    2,433;   -2,723;   -0,591
216,754;    3,609;    0,277;    0,773
217,353;    7,551;   -0,268;   -1,045
217,952;   -0,058;   -0,178;    0,318
218,552;    8,036;    1,368;   -0,773
219,151;    4,251;    0,277;    0,955
219,750;    2,214;    0,004;   -0,227
220,349;    1,958;   -0,451;    1,045
220,948;   11,359;   -1,360;    1,136
221,548;    1,111;    0,913;    1,227
222,147;    2,643;   -0,087;   -0,409
222,746;   12,715;   -0,451;   -0,955
223,345;    5,365;    0,731;    0,500
223,944;    3,312;   -0,451;    0,773
224,543;    7,277;    1,004;   -1,409
225,142;    3,145;    0,094;    0,136
225,741;    6,785;   -0,814;    1,045
226,340;    5,799;   -0,451;   -0,955
226,939;   10,911;   -0,996;   -0,136
227,538;    2,505;   -0,360;   -0,773
228,137;   13,161;   -0,814;    0,864
228,735;    6,976;   -0,541;    1,227
229,334;    2,789;   -0,905;   -0,227
229,933;   15,160;    0,459;    0,591
230,532;   11,400;    1,186;   -0,409
231,131;   17,743;    1,732;    0,318
231,729;    9,874;   -2,450;   -2,318
232,328;    2,228;   -0,723;   -1,500
232,927;    2,271;    1,004;   -0,500
233,525;    3,386;    3,640;    0,045
234,124;    8,217;    2,368;   -1,591
234,723;    2,694;    0,913;   -1,045
235,321;    1,736;    2,277;    0,136
235,920;    4,058;    1,186;   -1,227
236,518;   15,191;    3,459;    0,318
237,117;    5,385;    0,004;   -0,227
237,715;    3,609;    0,640;   -0,500
238,314;    5,772;   -0,087;   -2,318
238,912;   10,409;   -0,723;   -1,409
239,510;    6,671;    0,459;   -1,227
240,109;   15,614;    0,004;    3,773
240,707;   14,081;   -0,996;    1,227
241,305;    6,101;    0,550;    0,136
241,904;    5,465;   -0,178;   -2,045
242,502;   21,927;   -0,632;   -0,227
243,100;    8,604;   -0,087;   -0,955
243,698;    3,191;    0,732;    1,682
244,297;    1,337;   -0,632;    0,682
244,895;    3,276;   -0,269;   -2,318
245,493;   12,030;    2,186;   -0,591
246,091;   14,381;    1,368;   -1,318
246,689;    7,833;    1,004;    0,591
247,287;    5,648;    0,822;   -1,136
247,885;    4,429;   -1,451;    1,227
248,483;    0,553;    1,822;   -0,500
249,081;    7,571;    0,185;    1,591
249,679;   10,470;   -0,178;    1,682
250,277;    4,865;   -1,723;    0,864
250,875;    6,515;   -1,087;   -1,045
251,473;    1,934;   -1,178;    0,500
252,071;    9,826;    1,459;    1,045
252,669;    5,494;   -1,814;    0,318
253,267;    3,586;   -0,087;    0,773
253,864;    2,193;   -0,360;    0,682
254,462;    8,603;    1,640;    1,591
255,060;    5,226;   -0,269;    1,318
255,658;    3,949;    0,822;   -0,136
256,255;    4,281;    0,186;   -2,045
256,853;    5,702;   -0,269;    1,409
257,451;    4,570;    0,822;    1,864
258,048;   34,283;    1,822;    1,864
258,646;   13,600;    1,731;   -1,045
259,243;   18,884;   -0,087;    2,227
259,841;   12,041;   -0,814;    0,318
260,438;    2,340;   -0,087;    0,864
261,036;   11,250;   -1,905;    1,409
261,633;    3,590;   -0,087;    2,227
262,231;    2,396;    2,731;   -0,045
262,828;    1,958;   -0,905;    1,136
263,425;    2,914;    0,913;   -0,591
264,023;    4,044;    0,186;    0,045
264,620;   13,504;   -0,360;   -0,318
265,217;   14,588;   -2,087;    3,136
265,815;    5,656;   -1,905;    2,136
266,412;   10,048;    0,731;    0,136
267,009;    8,476;   -1,451;    0,773
267,606;   15,964;    0,822;   -0,955
268,203;   10,898;   -0,269;   -0,591
268,801;    9,492;    1,731;    0,591
269,398;    4,984;   -0,360;    2,500
269,995;   11,685;    0,277;    1,591
270,592;    7,154;   -0,632;   -0,500
271,189;    5,894;    0,186;    0,409
271,786;   -1,173;   -0,632;    1,227
272,383;   13,983;   -1,087;    0,227
272,980;    7,753;    0,277;    0,318
273,577;    5,575;    0,004;    1,227
274,174;    7,587;    0,822;    2,591
274,771;   15,767;   -0,814;   -0,773
275,367;   62,573;    2,277;    1,409
275,964;   28,880;    0,731;   -0,500
276,561;    8,866;    1,549;   -1,045
277,158;    4,016;    0,095;   -1,773
277,755;   20,935;    2,185;    0,409
278,351;   17,507;   -0,451;   -1,500
278,948;   13,658;   -0,815;    0,045
279,545;   11,536;   -1,360;    2,318
280,141;   23,195;   -1,723;   -2,045
280,738;   26,125;   -0,451;   -0,136
281,334;   10,529;   -1,633;    0,591
281,931;    1,073;   -0,087;   -1,318
282,528;   18,878;    0,822;   -0,500
283,124;   22,330;   -1,087;   -0,500
283,721;   19,880;   -0,451;    1,409
284,317;    8,895;    0,185;    2,500
284,913;   20,430;   -1,360;    0,591
285,510;   27,248;    0,640;   -0,318
286,106;   25,848;   -2,269;   -0,955
286,703;   19,376;   -0,360;    1,955
287,299;   11,769;   -1,451;   -0,591
287,895;   11,050;    0,822;   -1,045
288,491;    8,348;    0,186;    2,136
289,088;   15,098;   -2,360;    2,409
289,684;   17,949;   -1,723;    1,500
290,280;   45,005;    0,368;    0,682
290,876;   34,591;    1,822;    5,500
291,472;   27,926;    1,276;    2,227
292,068;   33,308;    1,367;    0,227
292,665;   21,041;    2,095;    0,773
293,261;   13,081;    0,276;    2,136
293,857;   37,727;    2,913;    2,136
294,453;   29,430;    3,550;    0,955
295,049;   69,737;   -0,268;    1,955
295,644;   39,630;    0,095;    0,136
296,240;   18,583;   -0,905;   -0,136
296,836;   37,887;   -0,995;    0,318
297,432;   64,385;    1,096;   -0,500
298,028;   63,568;    0,732;    0,773
298,624;   46,713;    1,459;    1,864
299,220;   52,234;    2,368;    0,591
299,815;   46,632;    1,005;   -0,409
300,411;   74,919;    0,914;    1,773
301,007;   92,469;    1,368;    0,227
301,602;   48,528;   -0,541;   -2,318
302,198;  102,442;    0,732;   -0,773
302,794;   64,861;    1,187;   -0,500
303,389;   39,505;   -1,177;    1,045
303,985;   53,422;    0,550;    1,409
304,580;  111,949;    1,459;    1,591
305,176;   70,009;   -3,086;    0,136
305,771;   23,398;   -1,268;   -1,227
306,367;  179,052;    4,095;    0,136
306,962;   97,710;    0,641;    1,500
307,558;  116,708;   -0,450;    0,136
308,153;   96,921;    1,095;   -1,136
308,748;   48,085;   -0,814;    1,682
309,344;  175,871;   -0,632;   -1,318
309,939;  161,848;   -1,905;   -1,318
310,534;   69,950;   -0,086;   -1,682
311,130;   62,090;    0,459;   -2,500
311,725;   52,657;    1,004;   -0,500
312,320;   64,169;    2,459;    0,045
312,915;   87,135;    1,459;   -1,045
313,510;  163,297;    1,550;   -0,500
314,105;   69,116;    1,096;    1,409
314,700;   34,047;   -3,086;   -1,045
315,295;   48,676;   -0,904;    0,045
315,890;   39,159;    1,277;    0,864
316,485;   65,753;   -0,359;   -0,318
317,080;   36,533;   -3,086;    1,591
317,675;  139,535;    2,005;   -0,682
318,270;  215,456;    5,550;    3,318
318,865;  150,089;    3,278;    3,045
319,460;   95,982;   -0,904;    0,591
320,055;   47,155;   -0,541;   -1,227
320,650;   38,959;   -1,995;   -0,591
321,244;   41,259;   -0,177;   -1,409
321,839;   36,601;   -1,541;   -0,227
322,434;   46,078;   -1,086;   -1,591
323,029;   34,834;    1,732;    1,591
323,623;   27,085;    1,550;    0,773
324,218;   95,269;    2,368;    1,409
324,812;   67,227;    1,096;    1,591
325,407;   58,345;   -0,814;    2,045
326,002;  113,986;    0,277;   -0,409
326,596;   87,585;    0,914;    1,318
327,191;   37,882;    0,823;   -1,045
327,785;   50,857;   -0,813;   -0,227
328,379;   38,519;    1,368;    0,136
328,974;   50,338;    0,914;   -3,955
329,568;   67,595;    0,186;   -2,409
330,163;  102,204;    2,096;    1,045
330,757;   48,488;    2,459;    1,591
331,351;   32,913;    0,459;    0,682
331,945;   34,222;    0,914;    1,409
332,540;   75,734;   -1,723;   -0,591
333,134;   76,220;   -1,086;    0,773
333,728;   88,279;    0,005;    0,318
334,322;   48,514;   -1,177;   -0,864
334,916;   48,794;    0,277;    0,955
335,510;  121,818;   -0,450;   -0,136
336,105;  106,882;   -1,086;    1,591
336,699;   64,651;   -1,086;    0,591
337,293;   98,424;   -1,723;    0,318
337,887;   75,806;   -2,723;    1,955
338,481;  135,005;    0,459;    0,591
339,074;  192,882;   -0,359;    2,682
339,668;  187,686;   -1,632;    1,227
340,262;  524,041;    1,732;    3,227
340,856;  281,911;    1,822;   -0,682
341,450;  119,480;    1,004;    1,864
342,044;  155,242;    1,459;    0,136
342,637;  230,250;    0,913;   -2,136
343,231;  187,753;   -2,360;    0,682
343,825;  160,740;   -1,086;   -0,591
344,419;  157,784;   -1,995;    0,500
345,012;  508,033;    2,459;    4,045
345,606;  372,561;    4,641;    1,591
346,199;  179,890;   -1,813;   -0,227
346,793;  265,421;    1,914;    2,045
347,386;  141,951;   -0,813;   -1,136
347,980;   92,935;   -0,268;   -0,045
348,573;  155,436;    2,278;    0,409
349,167;  373,114;    5,278;    4,773
349,760;  262,029;    2,914;    2,682
350,354;  247,903;   -0,813;    1,136
350,947;  278,870;    1,096;    1,682
351,540;  204,410;   -0,358;   -1,409
352,134;  124,121;    1,096;    1,136
352,727;  130,376;   -0,086;    1,136
353,320;  145,863;    0,005;    0,591
353,913;  107,789;   -1,995;    1,864
354,507;  247,257;    0,823;   -1,227
355,100;  151,059;    0,460;    0,864
355,693;  468,868;    2,005;    2,409
356,286;  286,027;    0,823;    2,773
356,879;  180,126;   -0,722;    1,227
357,472;  189,044;   -0,904;    1,500
358,065;  212,454;   -0,722;    2,500
358,658;  117,396;   -0,540;    2,318
359,251;  105,128;   -1,631;   -0,591
359,844;  227,809;   -1,904;   -1,136
360,437;  269,700;   -2,995;    0,045
361,030;  153,309;    1,369;   -0,682
361,623;  166,873;    2,824;    0,318
362,215;  331,265;   -0,086;    2,045
362,808;  206,827;   -2,358;   -1,682
363,401;  158,487;   -2,449;    0,136
363,994;  318,462;   -0,631;   -1,500
364,586;  175,111;    0,824;   -1,500
365,179;  141,245;   -0,449;   -1,136
365,772;   56,338;   -1,995;    2,045
366,364;  151,728;    1,915;   -3,227
366,957;  179,148;    2,279;   -0,045
367,549;  149,935;    2,188;   -0,864
368,142;  163,867;    1,825;   -1,500
368,734;  135,823;    0,734;   -2,136
369,327;   92,499;    1,643;   -0,500
369,919;  111,954;   -1,538;    0,409
370,512;  125,643;   -1,083;   -0,500
371,104;  319,863;   -0,901;    1,591
371,696;  328,496;    1,191;   -0,955
372,289;  215,597;    0,373;    1,136
372,881;  172,835;   -2,080;    1,318
373,473;  104,219;   -2,170;    1,136
374,066;  161,292;   -0,169;    0,500
374,658;  150,219;    0,378;    1,136
375,250;  107,085;    0,653;   -1,409
375,842;  133,236;    0,473;   -0,045
376,434;  106,072;   -0,435;   -0,409
377,026;   97,532;    0,204;   -2,500
377,618;  134,568;   -0,158;   -0,682
378,210;  101,865;   -0,338;   -1,955
378,802;  110,615;    0,754;   -0,591
379,394;  361,351;    1,846;    0,682
379,986;  190,993;    1,393;   -0,955
380,578;  127,371;   -0,153;    0,773
381,170;  296,635;   -0,972;    0,045
381,762;  221,985;    0,755;    1,409
382,354;  182,024;   -0,065;   -1,318
382,945;  124,891;   -2,976;    0,318
383,537;   94,174;   -2,705;   -1,955
384,129;   87,432;   -2,160;   -1,136
384,721;  154,950;   -0,252;    0,955
385,312;  121,511;   -0,161;   -0,955
385,904;  172,974;   -2,706;    1,591
386,496;  137,154;   -0,979;    1,045
387,087;  240,262;    1,022;    2,500
387,679;  189,456;   -1,160;    0,045
388,270;  161,757;    2,840;    2,045
388,862;  150,801;    1,295;   -0,318
389,453;  154,410;   -0,887;    1,045
390,045;  154,773;   -0,705;   -2,682
390,636;   82,245;    0,204;   -0,591
391,227;  127,064;   -0,523;   -0,045
391,819;  107,019;    0,204;    0,773
392,410;  285,174;    1,022;    0,045
393,001;  147,095;   -0,979;   -1,591
393,593;  179,137;    1,930;   -0,045
394,184;  213,828;    1,385;   -0,409
394,775;  142,013;    1,839;    2,136
395,366;   89,278;    1,385;    0,773
395,957;  204,272;    0,113;    0,136
396,548;  133,160;   -0,342;    2,682
397,139;  213,779;   -2,433;    0,591
397,730;  155,636;   -1,888;    0,955
398,321;  167,155;   -1,252;    0,955
398,912;  126,905;   -0,615;    0,136
399,503;  124,446;   -3,524;   -1,409
400,094;  155,036;    0,294;    1,682
400,685;  143,600;   -0,433;    0,045
401,276;  121,033;    0,930;   -0,955
401,867;  104,903;   -0,888;    0,773
402,458;   76,481;   -2,251;   -2,318
403,048;  168,740;    1,112;    0,591
403,639;  137,292;    0,840;    0,864
404,230;  205,291;    2,476;    0,318
404,821;  244,901;   -0,615;    0,045
405,411;  180,587;    1,203;   -2,591
406,002;  121,928;   -1,252;   -1,136
406,592;  281,177;    2,294;    0,045
407,183;  176,359;    0,566;   -1,500
407,774;  167,050;    3,475;   -0,136
408,364;  126,388;    0,930;    0,409
408,954;  201,781;    0,384;    1,227
409,545;  202,864;    1,021;    1,045
410,135;  175,303;    1,293;    0,500
410,726;  129,531;    1,838;    0,318
411,316;  261,250;    0,111;    0,773
411,906;  149,675;   -0,253;   -0,409
412,497;  157,757;   -1,070;   -0,045
413,087;  118,491;   -1,980;   -0,227
413,677;   73,804;   -0,707;    3,864
414,267;   72,247;    0,656;    1,409
414,857;   53,536;   -2,980;    4,227
415,448;   58,233;    0,839;    0,500
416,038;   70,066;    0,020;   -0,591
416,628;   90,069;   -0,889;    0,409
417,218;  116,015;    0,565;    3,318
417,808;  201,304;    0,202;   -0,409
418,398;  131,944;    0,020;    2,682
418,988;   63,684;    2,020;    0,591
419,578;  121,820;   -0,707;    1,409
420,168;   76,862;   -1,343;   -0,955
420,757;  139,779;   -1,343;   -1,500
421,347;   73,653;    0,111;   -0,227
421,937;   61,100;    2,292;    1,409
422,527;  129,226;    0,838;   -0,773
423,116;  207,760;   -0,253;   -0,045
423,706;   69,795;   -1,889;    0,318
424,296;   45,698;    1,384;    0,682
424,885;   90,698;   -0,071;   -3,045
425,475;   75,830;    1,474;   -2,864
426,065;   35,462;   -0,980;   -0,318
426,654;   28,848;   -0,435;   -0,318
427,244;  128,115;    0,020;    1,409
427,833;  101,368;    1,383;   -0,500
428,423;   53,453;   -0,526;    1,136
429,012;   51,617;   -0,344;   -1,136
429,601;   90,202;   -1,344;    0,136
430,191;   50,496;    1,292;    4,318
430,780;   23,640;   -0,344;   -0,409
431,369;   76,841;    0,746;   -0,045
431,959;   41,128;   -1,254;    0,500
432,548;   24,774;   -1,163;   -0,045
433,137;    9,261;   -1,254;   -1,318
433,726;   23,418;    0,292;    0,500
434,315;   27,623;   -0,526;    2,409
434,905;   57,460;   -1,254;    1,409
435,494;   43,952;    0,746;    0,955
436,083;   18,249;   -0,981;   -0,955
436,672;   47,100;    0,110;    0,500
437,261;   26,977;    0,292;   -1,955
437,850;   69,130;    1,383;    0,682
438,439;   91,139;    3,291;    1,955
439,027;  133,888;    3,655;    1,773
439,616;   85,489;    2,927;    1,227
440,205;   25,891;    0,200;   -2,136
440,794;   20,684;    2,109;   -0,045
441,383;   13,569;   -1,346;   -0,591
441,971;    8,285;   -2,436;    0,591
442,560;    8,897;    0,563;   -1,773
443,149;   -1,792;    0,379;   -1,318
443,737;    0,831;   -0,074;   -2,318
444,326;    3,814;    0,018;    0,318
444,915;    6,347;   -1,982;    0,864
445,503;   12,863;   -2,891;   -0,318
446,092;   81,612;    0,382;    2,136
446,680;   56,561;    0,382;    0,318
447,269;   23,130;   -0,346;   -0,318
447,857;   20,094;    0,018;   -1,773
448,445;   13,204;    0,563;    1,318
449,034;    5,098;   -1,528;   -1,136
449,622;    7,555;   -1,073;    3,500
450,210;   41,763;    2,017;    2,227
450,799;   28,418;    0,290;   -0,591
451,387;   24,077;    1,381;   -0,591
451,975;   22,229;    2,654;    0,864
452,563;   33,998;    3,472;    2,318
453,151;   13,440;   -0,528;   -1,227
453,739;    8,005;   -1,347;    0,136
454,328;   21,332;    2,381;   -2,136
454,916;   14,104;    2,562;   -0,136
455,504;   19,246;    1,017;    1,227
456,092;    5,393;    0,017;   -1,591
456,679;    3,583;    1,472;    0,682
457,267;   70,637;    4,017;    1,045
457,855;   21,487;    1,017;    1,409
458,443;    1,006;   -0,165;    1,682
459,031;    9,511;    0,108;    2,409
459,619;    7,748;   -1,801;    2,864
460,206;    2,046;    0,835;    2,045
460,794;    0,994;   -2,983;   -0,227
461,382;    5,167;   -0,529;   -0,864
461,970;    5,529;    1,198;    1,864
462,557;    3,342;   -0,711;   -0,682
463,145;   10,675;   -3,165;   -1,682
463,732;   49,762;    2,016;   -1,045
464,320;   16,283;   -0,075;   -3,045
464,907;   29,166;    2,743;   -0,773
465,495;   15,114;    0,743;   -1,227
466,082;    8,366;   -1,984;   -0,045
466,670;   10,650;   -2,529;    1,227
467,257;    2,222;   -1,711;    2,045
467,844;    8,339;   -0,075;    0,045
468,432;    5,260;    0,834;    3,500
469,019;    3,335;    0,925;   -1,773
469,606;   21,654;    0,470;    3,682
470,193;   17,751;   -1,439;    0,227
470,780;    8,035;   -2,075;    0,864
471,368;    2,812;   -1,257;   -0,773
471,955;   13,787;    1,379;   -0,682
472,542;   11,041;    0,652;   -1,136
473,129;    1,530;   -0,166;    0,136
473,716;    2,237;    1,470;    0,591
474,303;    5,061;    0,652;   -0,864
474,890;    6,735;   -1,439;   -0,500
475,477;   20,133;   -1,621;    0,409
476,064;    7,030;    1,106;   -1,591
476,650;   26,141;    0,288;    0,318
477,237;    8,686;   -0,258;    0,955
477,824;    6,613;   -1,076;    0,864
478,411;    2,602;   -1,894;   -0,318
478,997;   -2,608;    0,560;   -0,773
479,584;   -4,892;    1,196;   -0,409
480,171;   10,712;   -0,440;   -0,773
480,757;   13,695;    2,651;    0,773
481,344;    2,535;    0,469;    0,409
481,931;   -3,792;    1,105;    1,045
482,517;    8,025;   -1,258;    0,318
483,104;   21,562;    1,106;    2,864
483,690;    5,116;   -1,804;    0,045
484,276;    4,631;   -0,895;    0,227
484,863;   33,050;    2,469;    1,136
485,449;    9,316;   -0,077;    0,318
486,035;    2,964;   -1,986;   -0,136
486,622;   12,271;   -0,895;    0,045
487,208;    3,944;    1,378;    1,500
487,794;   -2,276;    0,741;    0,318
488,380;   -1,709;    0,105;   -1,409
488,967;    0,942;   -1,168;   -0,409
489,553;   -2,373;   -1,895;   -1,409
490,139;    7,632;    1,559;    0,773
490,725;    1,736;    0,741;   -0,227
491,311;    4,267;    3,287;    3,045
491,897;    2,639;   -0,986;    1,500
492,483;    3,480;    0,105;    1,227
493,069;   71,922;    3,923;    0,864
493,655;   26,247;    1,650;    0,682
494,241;    8,596;    1,377;   -0,955
494,826;    9,806;    0,287;   -1,045
495,412;    8,171;    2,559;   -0,682
495,998;    1,400;   -0,805;   -0,318
496,584;    6,275;    0,377;    1,045
497,169;   12,395;    1,014;   -0,682
497,755;    5,855;    0,650;    1,227
498,341;   21,301;    0,559;    0,318
498,926;   39,889;    1,832;    1,955
499,512;    8,559;    1,286;    2,955
500,097;    3,830;    0,195;   -0,318
500,683;    6,070;   -0,350;    2,136
501,268;    1,986;   -0,169;   -0,955
501,854;    6,472;   -0,169;    1,227
502,439;    6,184;   -0,624;   -1,773
503,024;    4,129;    0,195;    0,500
503,610;    8,031;   -0,078;   -0,682
504,195;    3,971;    0,558;    1,955
504,780;   19,360;    2,922;    1,227
505,366;   40,435;    3,013;    2,864
505,951;   18,706;    0,740;    1,045
506,536;    6,963;   -3,260;   -3,682
507,121;   16,386;    0,285;   -0,318
507,706;   13,485;    2,376;    1,045
508,291;    1,708;    2,649;    1,136
508,876;    3,313;   -0,988;    2,591
509,461;    8,347;   -0,169;   -0,773
510,046;   22,792;    0,194;    0,318
510,631;   27,018;   -0,351;   -0,773
511,216;   11,419;    2,467;   -0,500
511,801;   34,516;   -0,442;    2,591
512,386;   36,403;    0,740;    0,500
512,971;   44,933;   -2,988;    0,955
513,555;   67,335;   -0,897;   -1,500
514,140;   54,264;   -0,442;   -3,136
514,725;  130,623;   -0,715;   -1,136
515,309;   93,152;   -0,533;    0,318
515,894;   56,967;   -0,624;   -2,227
516,479;   84,994;   -0,624;   -0,955
517,063;   92,606;    0,376;    1,227
517,648;   74,071;    1,012;   -1,136
518,232;   59,841;   -0,261;   -1,409
518,817;  142,391;   -0,079;    1,682
519,401;  236,283;    2,194;    0,591
519,985;  232,625;    1,103;    1,136
520,570;  135,857;    0,830;   -1,955
521,154;  223,076;    2,102;    0,591
521,738;  368,606;   -2,352;    2,409
522,323;  236,423;   -0,170;    1,682
522,907;  250,143;    0,466;   -0,136
523,491;  188,060;    0,557;    0,955
524,075;  175,155;    2,284;    0,591
524,659;  354,110;    1,466;    0,591
525,243;  311,667;    1,739;    0,409
525,827;  269,066;    0,648;   -0,045
526,411;  274,928;   -1,989;   -0,136
526,995;  366,864;   -0,352;    1,409
527,579;  430,964;   -0,443;   -1,045
528,163;  374,463;    0,375;   -1,500
528,747;  469,358;    2,466;   -0,773
529,331;  419,346;   -0,080;   -1,409
529,915;  277,378;    1,738;    0,955
530,499;  366,650;   -0,807;    1,227
531,082;  533,868;   -0,534;    1,591
531,666;  615,716;    1,374;    0,773
532,250;  504,545;    1,284;    2,682
532,833;  601,611;    0,920;    2,773
533,417;  449,708;   -1,807;    0,864
534,001;  573,124;    1,647;   -0,318
534,584;  494,909;    0,374;    0,500
535,168;  323,813;    0,465;    1,409
535,751;  671,901;    0,647;    0,045
536,334;  423,290;   -0,898;   -0,409
536,918;  269,010;    0,011;    1,591
537,501;  287,411;   -0,899;    1,318
538,085;  337,976;   -0,444;    1,045
538,668;  418,344;    0,829;    2,409
539,251;  700,712;    1,829;    3,773
539,834;  415,883;    0,101;    0,773
540,418;  541,778;   -1,990;    4,318
541,001;  718,210;   -0,990;    1,773
541,584;  487,064;    2,101;    2,227
542,167;  598,972;    1,374;    2,955
542,750;  420,088;    1,919;   -0,773
543,333;  303,358;    0,555;    2,136
543,916;  527,481;    0,192;    2,500
544,499;  458,508;   -1,354;    0,227
545,082;  536,969;    1,374;    3,591
545,665;  447,221;    1,919;    1,500
546,248;  571,358;    1,010;   -0,318
546,830;  552,889;   -0,445;    1,955
547,413;  501,042;    1,010;   -0,773
547,996;  467,531;    0,555;    0,500
548,579;  434,303;    0,919;    0,955
549,161;  667,856;    1,828;    2,682
549,744;  549,356;   -0,809;    0,409
550,326;  403,361;   -0,809;   -1,136
550,909;  877,671;    2,737;    0,591
551,492;  521,163;   -0,263;    0,227
552,074;  646,966;   -0,173;   -1,318
552,657;  671,877;    2,373;    0,045
553,239;  535,618;   -0,173;   -0,773
553,821;  399,745;   -1,082;    1,045
554,404;  661,237;    1,282;    1,136
554,986;  767,815;    0,464;    1,045
555,568;  602,192;    1,191;   -0,955
556,151;  813,379;    1,191;   -0,227
556,733;  490,892;   -0,264;   -0,864
557,315;  508,525;    0,100;    0,500
557,897;  383,786;    0,554;   -0,500
558,479;  394,792;   -1,991;    1,318
559,061;  488,782;   -0,719;   -0,864
559,643;  536,198;   -0,264;    0,045
560,225;  577,381;    1,645;    2,864
560,807;  421,380;    0,918;    0,318
561,389;  405,395;    0,554;    2,318
561,971;  499,407;    0,463;    2,136
562,553;  417,877;   -1,628;    1,591
563,135;  504,233;   -0,537;    1,136
563,717;  896,866;    3,372;    1,136
564,298;  780,894;    3,645;   -0,045
564,880;  540,464;    0,645;   -1,409
565,462;  370,374;    0,645;    1,318
566,043;  500,467;   -0,446;    2,318
566,625;  811,191;    1,918;    1,227
567,207;  619,422;    1,099;    1,682
567,788;  473,072;   -1,264;    1,500
568,370;  477,230;    1,917;   -0,500
568,951;  470,817;    0,190;    0,227
569,533;  580,995;   -0,628;   -0,500
570,114;  587,310;   -0,446;    0,682
570,695;  623,689;   -0,174;   -1,318
571,277;  597,721;   -0,265;   -1,682
571,858;  814,513;    2,008;   -1,136
572,439;  654,932;    1,554;   -1,045
573,021;  688,713;    2,099;   -2,773
573,602;  799,041;   -1,265;    0,318
574,183;  747,712;   -2,083;    2,227
574,764;  688,885;   -1,629;    0,409
575,345;  894,733;    0,917;   -0,136
575,926;  718,847;   -0,356;    0,136
576,507;  795,947;    1,099;   -0,227
577,088;  754,128;    3,099;    1,682
577,669;  942,724;    0,735;    1,955
578,250; 1123,803;    0,644;   -1,045
578,831;  909,530;   -1,356;   -2,227
579,412;  891,547;   -0,810;    0,955
579,993;  873,282;    1,008;    0,227
580,573;  775,922;   -0,629;   -0,955
581,154;  918,183;    0,735;   -0,591
581,735;  931,539;    0,644;    0,773
582,315; 1079,539;   -0,629;    2,136
582,896;  884,885;   -0,174;    1,227
583,477;  725,495;    0,189;    1,227
584,057;  855,554;    0,553;    0,955
584,638;  984,373;    2,553;    2,318
585,218; 1230,003;   -0,538;    2,682
585,799; 1032,982;    0,281;   -0,227
586,379;  885,128;    0,372;    1,591
586,959;  852,714;    0,735;    0,318
587,540;  762,338;   -0,629;    2,227
588,120;  785,960;    1,007;   -0,045
588,700;  798,626;    2,553;    2,136
589,281;  970,920;    0,462;   -0,955
589,861;  826,937;    0,099;   -1,682
590,441;  685,743;    2,371;   -2,682
591,021;  784,461;   -0,265;   -2,591
591,601;  735,747;   -0,537;    0,500
592,181;  719,555;   -0,719;   -0,773
592,761;  609,372;    0,007;    1,409
593,341;  740,983;   -0,901;    0,045
593,921;  744,764;   -0,265;    1,591
594,501;  638,169;   -0,538;    1,318
595,081;  636,759;    0,917;   -0,318
595,661;  710,061;   -1,447;    0,955
596,240;  647,202;   -0,537;    0,136
596,820; 1083,061;    0,372;    1,955
597,400;  787,599;    2,008;    0,773
597,980;  678,636;    2,008;    1,045
598,559;  624,137;    2,735;   -0,227
599,139;  606,698;   -0,174;   -1,227
599,718;  600,153;   -0,174;   -0,409
600,298;  587,228;    0,735;    0,682
600,877; 1100,008;    2,917;    1,409
601,457;  793,502;    2,281;    1,136
602,036;  668,017;    0,190;    2,045
602,616;  724,633;    0,644;    1,682
603,195;  850,227;   -0,355;    3,500
603,774;  909,697;   -0,901;    2,045
604,354;  837,520;    0,826;   -0,500
604,933;  778,193;    0,463;    1,864
605,512;  875,890;    3,554;    0,591
606,091;  871,480;   -0,537;    3,773
606,671;  815,595;    0,281;    0,773
607,250; 1001,419;    1,644;    3,136
607,829;  930,084;    2,372;    3,227
608,408;  769,564;    1,190;    2,591
608,987;  892,753;    1,281;    3,409
609,566;  704,791;   -1,265;   -2,500
610,145;  806,763;   -1,082;    0,682
610,723;  844,047;    4,372;    6,864
611,302;  757,638;   -0,446;    1,682
611,881; 1059,841;    5,008;   11,227
612,460;  748,121;    1,645;    3,955
613,039;  636,341;   -0,082;    2,045
613,617;  628,004;    1,736;    4,773
614,196;  641,668;    1,099;    1,227
614,775;  710,243;    1,009;    2,409
615,353;  769,213;    0,736;    0,864
615,932;  734,493;    0,100;    2,409
616,510;  716,422;    0,554;    0,591
617,089; 1244,136;    7,100;   17,591
617,667;  837,495;    2,372;    6,136
618,246;  589,827;   -1,537;    1,318
618,824;  663,383;   -3,355;   -0,955
619,402;  690,022;   -2,900;   -1,773
619,981;  751,259;   -0,173;   -1,045
620,559;  656,143;    0,009;    1,682
621,137;  677,067;   -0,718;    1,864
621,715;  581,988;   -1,173;   -0,682
622,293;  598,427;   -0,537;   -0,773
622,871;  612,525;   -0,718;    0,500
623,450;  555,553;    0,373;   -0,864
624,028;  757,050;    0,191;   -0,955
624,606;  715,930;   -1,718;    1,682
625,183;  528,255;   -1,536;   -1,136
625,761;  671,980;    1,009;    1,136
626,339;  977,398;    1,373;    2,591
626,917;  619,104;   -0,172;   -0,045
627,495;  563,386;   -0,354;    1,318
628,073;  696,346;   -0,263;    2,864
628,650;  708,593;    0,100;    2,136
629,228;  699,634;    0,373;    4,409
629,806;  515,962;    2,282;    1,136
630,383;  576,005;    1,464;   -0,318
630,961;  581,144;    2,555;   -0,955
631,539;  630,635;    2,464;    0,227
632,116; 1351,690;   11,373;   15,409
632,694;  953,284;    2,555;    6,500
633,271;  787,743;    0,828;    2,682
633,848;  899,145;    1,828;    2,045
634,426;  609,533;   -1,081;    1,773
635,003;  477,344;    1,101;   -0,409
635,580;  914,242;    1,192;    3,682
636,158;  769,226;    3,737;    1,227
636,735;  573,108;    0,555;   -0,500
637,312;  566,339;   -0,809;   -0,682
637,889;  575,610;   -4,354;   -0,682
638,466;  551,953;   -3,990;   -0,409
639,043;  599,421;    2,101;   -1,136
639,620;  521,690;   -2,262;   -0,955
640,197;  665,040;    1,100;    1,682
640,774;  473,774;   -0,172;    1,136
641,351;  553,327;    0,737;    1,136
641,928;  759,697;   -0,627;    1,409
642,505;  878,068;    0,828;   -0,500
643,082;  686,983;   -1,718;    1,227
643,658;  548,717;   -0,718;    1,500
644,235;  533,906;    1,191;    2,500
644,812;  733,913;    1,918;    0,773
645,388;  705,101;   -0,991;    1,409
645,965;  483,199;   -0,809;    1,682
646,542;  501,479;   -1,445;   -0,227
647,118;  894,485;    1,009;   -0,955
647,695;  673,947;   -0,263;    1,136
648,271;  486,499;   -0,536;    0,500
648,848;  660,415;    0,736;    2,227
649,424;  793,058;    0,827;    1,318
650,000;  607,519;   -0,354;   -1,045
650,577;  631,981;   -0,627;   -0,955
651,153;  636,260;   -1,809;    0,955
651,729;  585,267;    1,191;    0,864
652,305;  961,092;    0,645;    2,773
652,881;  914,280;   -0,082;    1,136
653,458; 1050,469;    1,100;    0,227
654,034; 1166,385;    0,282;    1,591
654,610; 1310,392;    0,554;    0,773
655,186; 1829,944;    0,645;    3,045
655,762; 1366,132;   -0,991;    0,409
656,338; 1325,321;    0,100;    0,136
656,913; 1401,873;   -0,082;    0,409
657,489; 1175,244;    0,827;   -0,318
658,065; 1286,250;   -0,173;   -1,591
658,641; 1324,894;   -0,900;   -0,864
659,217; 1225,446;   -0,991;    0,409
659,792; 1376,725;    0,645;   -0,409
660,368; 1192,096;   -2,173;   -0,682
660,944; 1215,375;   -2,082;    1,227
661,519; 1100,200;   -0,628;    0,409
662,095;  795,298;   -1,719;    0,591
662,670;  625,032;    1,281;   -0,136
663,246;  540,402;    1,009;   -0,409
663,821;  716,046;    0,281;    1,682
664,396;  661,234;    0,009;    1,864
664,972;  568,423;    0,009;   -0,500
665,547;  626,702;    1,372;    0,136
666,122;  602,164;   -1,082;    0,318
666,698;  801,625;   -0,173;    0,318
667,273;  566,359;   -0,173;    0,136
667,848;  611,184;    2,372;    1,500
668,423;  786,191;    2,190;    2,318
668,998;  632,470;    2,827;   -0,682
669,573;  586,386;   -3,264;   -1,500
670,148;  783,484;   -1,446;   -0,682
670,723;  552,672;   -1,810;    0,318
671,298;  862,225;    2,372;    1,045
671,873;  754,140;   -0,082;   -0,136
672,448;  737,056;    0,645;    0,136
673,023;  731,790;   -1,992;   -0,227
673,597;  833,343;    0,827;    2,318
674,172;  882,622;   -0,355;    0,318
674,747;  788,447;    0,372;   -1,045
675,321;  537,181;   -0,628;    3,318
675,896;  477,915;    0,645;    1,045
676,471;  703,195;    2,645;    1,591
677,045;  633,929;   -1,264;    0,682
677,620;  729,026;    0,190;    1,136
678,194;  553,851;   -2,628;    1,136
678,769;  632,222;   -1,083;   -0,318
679,343;  687,774;   -0,628;    1,773
679,917;  821,508;   -1,446;    1,955
680,492;  661,878;    0,826;    3,227
681,066;  703,794;    3,372;    0,409
681,640;  627,437;    1,463;   -0,318
682,214;  645,899;    0,735;    0,500
682,788;  649,178;   -1,356;   -0,773
683,363;  795,094;   -1,810;    1,682
683,937;  666,101;   -1,719;   -0,318
684,511;  692,653;    0,463;   -0,591
685,085;  712,205;   -1,356;    0,318
685,659;  614,394;   -2,538;    0,864
686,232;  865,855;   -0,356;   -0,318
686,806;  737,953;   -0,901;    0,409
687,380;  612,778;   -0,174;    0,591
687,954;  546,148;   -1,174;    1,136
688,528;  882,610;   -0,719;    1,955
689,101;  705,253;   -3,992;    1,045
689,675;  596,987;   -0,356;   -0,136
690,249;  860,357;   -0,719;    0,409
690,822;  843,273;    0,280;    0,318
691,396;  730,098;   -0,265;    1,227
691,969;  649,196;    1,280;    0,136
692,543;  539,657;   -0,447;   -1,955
693,116;  521,937;   -0,265;   -1,409
693,690;  617,307;    0,099;    0,500
694,263;  553,586;   -1,083;    2,955
694,836;  931,684;    1,371;    3,591
695,410;  808,327;   -0,265;    1,773
695,983;  826,970;    0,189;    0,591
696,556;  620,159;   -0,447;   -1,045
697,129;  519,075;   -0,356;    1,409
697,703;  766,445;   -1,629;    1,955
698,276;  645,270;    1,462;   -0,773
698,849;  808,732;    1,280;    1,409
699,422;  572,011;   -1,083;    0,591
699,995;  468,291;    0,007;    0,136
700,568;  613,116;   -0,629;    3,045
701,140;  636,031;   -2,811;    1,682
701,713;  809,129;   -0,174;    2,409
702,286;  691,681;   -0,538;    0,864
702,859;  776,597;   -0,902;   -0,591
703,432;  861,604;    0,825;    0,682
704,004;  731,611;    0,462;    0,318
704,577;  603,981;   -0,629;    0,136
705,150;  659,533;    0,189;    2,500
705,722;  723,177;   -0,356;   -3,227
706,295;  788,820;   -0,175;   -0,591
706,867;  658,372;   -0,175;    1,955
707,440;  758,288;   -1,720;   -0,409
708,012;  837,476;    0,462;    0,591
708,584;  747,574;    2,462;    0,227
709,157;  515,399;    1,825;   -0,591
709,729;  757,679;    2,280;    2,045
710,301;  614,958;    0,734;    0,045
710,874;  627,419;   -1,447;   -0,227
711,446;  506,608;    0,371;    0,864
712,018;  585,797;    0,098;    0,500
712,590;  526,531;   -1,993;    1,682
713,162;  816,356;    0,825;    1,318
713,734;  600,635;    1,825;   -2,045
714,306;  516,460;   -1,902;   -0,409
714,878;  574,103;    0,825;    0,864
715,450;  522,019;    0,643;    0,864
716,022;  532,026;    1,552;    1,318
716,593;  519,942;    0,189;    0,591
717,165;  584,403;   -3,175;   -1,227
717,737;  851,410;    0,280;    0,409
718,309;  616,235;    0,280;   -0,045
718,880;  530,605;   -0,539;   -1,409
719,452;  611,612;   -0,175;   -1,591
720,024;  715,891;    0,734;   -0,591
720,595;  602,807;   -2,902;    0,955
721,167;  592,996;    0,370;   -2,045
721,738;  718,821;   -0,812;   -1,045
722,309;  871,373;   -0,993;   -1,227
722,881;  586,380;   -1,357;    0,773
723,452;  672,205;   -2,630;    2,864
724,023;  687,030;   -0,721;    2,682
724,595;  756,491;    0,007;    0,682
725,166;  617,134;    0,007;   -0,409
725,737;  821,686;    1,734;    0,227
726,308;  599,602;   -0,266;    0,318
726,879;  509,609;   -1,630;    1,227
727,450;  689,707;    0,552;   -0,045
728,021;  617,259;    3,097;    0,682
728,592;  793,629;    0,734;    0,500
729,163;  880,909;    0,643;   -0,136
729,734;  862,007;    0,188;   -0,227
730,305;  714,104;    1,734;    0,136
730,876;  674,929;    0,188;    2,955
731,447; 1006,027;    2,188;    2,682
732,017;  894,943;    1,097;    1,864
732,588;  687,950;    0,734;    1,227
733,159;  961,865;    0,643;   -1,045
733,729;  671,600;    0,006;    0,409
734,300;  848,606;    0,915;    0,864
734,870;  652,159;    3,461;    0,591
735,441;  636,347;    0,370;   -0,591
736,011;  626,899;    0,643;   -1,591
736,582;  640,997;   -0,812;    0,045
737,152;  773,277;   -1,721;   -2,045
737,722;  733,647;   -0,267;   -0,682
738,293;  582,563;   -1,358;    1,318
738,863;  776,115;    2,461;    2,318
739,433; 1043,940;    5,279;    0,318
740,003;  746,129;   -0,994;   -0,682
740,573;  872,863;    2,097;   -1,591
741,143;  744,142;   -1,085;    0,318
741,713;  642,876;    1,188;   -0,500
742,283;  714,065;    0,915;    1,591
742,853;  644,981;    1,915;    1,591
743,423;  465,806;    1,733;    0,045
743,993;  584,631;   -0,358;    1,500
744,563;  643,365;    0,097;   -0,864
745,133;  676,008;   -0,812;   -0,864
745,702;  540,833;   -0,267;    1,773
746,272;  767,112;   -0,176;    0,591
746,842;  787,210;   -1,358;   -0,591
747,411;  567,853;   -0,267;   -0,318
747,981;  469,951;    0,097;    0,500
748,551;  463,139;    2,278;   -1,045
749,120;  670,601;    0,642;   -0,227
749,690;  612,426;   -0,631;    2,409
750,259;  723,614;    1,369;    2,955
750,828;  788,530;    1,551;   -1,955
751,398;  549,991;    1,278;   -0,045
751,967; 1036,635;    2,187;    0,409
752,536;  679,187;   -0,813;   -0,227
753,105;  796,648;    0,096;    0,227
753,675;  632,018;    0,096;    1,773
754,244;  635,571;   -0,904;    3,591
754,813;  669,214;    0,551;    1,227
755,382;  636,312;    0,460;    0,955
755,951;  767,046;    1,551;    3,682
756,520;  886,234;   -0,085;    1,864
757,089;  986,150;    0,278;    0,500
757,658;  718,702;    1,733;    1,227
758,227;  548,073;    1,096;    0,318
758,795;  603,625;    1,187;    1,136
759,364;  611,268;   -0,086;   -0,591
759,933;  552,820;   -1,176;   -0,045
760,501;  487,918;    0,733;   -1,318
761,070;  658,834;   -2,813;   -1,409
761,639;  603,386;   -1,904;    1,318
762,207;  737,029;    1,551;   -0,955
762,776;  786,491;    0,369;    0,864
763,344;  635,316;   -0,995;    0,591
763,913;  430,868;   -0,722;    1,409
764,481;  976,875;    1,005;   -0,136
765,049;  972,790;   -1,358;    1,409
765,618;  883,524;   -0,086;    0,318
766,186;  686,440;    0,278;    0,136
766,754;  740,265;    0,005;    1,864
767,322;  624,908;   -1,995;    0,409
767,890;  567,642;   -0,722;   -1,773
768,459;  572,649;   -2,177;   -0,318
769,027;  805,747;    1,641;    3,409
769,595;  616,572;    3,278;    2,591
770,163;  710,942;    3,823;    2,955
770,730;  684,949;    0,732;   -0,136
771,298;  664,956;    0,187;   -1,409
771,866;  587,690;   -1,541;    4,955
772,434;  624,151;   -0,631;   -1,864
773,002;  834,613;    0,005;    0,682
773,569;  702,165;    0,914;    1,682
774,137;  830,444;   -0,268;   -0,045
774,705;  609,815;    0,278;   -0,136
775,272;  580,367;    0,641;    0,682
775,840;  599,737;   -0,177;    2,682
776,407;  729,199;    0,277;    1,955
776,975;  590,478;   -0,632;    0,318
777,542;  535,758;   -1,086;   -0,045
778,110;  564,037;   -1,268;   -0,045
778,677;  443,226;   -2,359;   -0,864
779,244;  529,960;    2,186;    1,045
779,812;  685,694;    1,823;    0,864
780,379;  775,519;    0,005;    1,136
780,946;  636,435;    1,005;   -0,773
781,513;  537,714;   -1,450;    0,318
782,080;  512,539;   -0,086;    2,864
782,647;  540,637;   -0,268;    3,045
783,214;  519,735;   -0,177;    3,864
783,781;  735,923;   -0,723;   -0,682
784,348;  673,294;   -0,632;    1,500
784,915;  461,846;   -3,177;    0,318
785,482;  696,034;    1,368;    2,591
786,049;  617,859;    0,186;   -0,591
786,615;  490,684;    0,277;   -0,955
787,182;  449,055;    0,186;   -0,682
787,749;  427,152;   -2,814;    1,409
788,315;  670,523;   -1,632;   -0,409
788,882;  544,530;    1,550;   -1,227
789,448;  837,900;    1,732;   -0,955
790,015;  606,089;    1,095;    3,227
790,581;  791,914;    1,459;    0,227
791,148;  603,738;    0,641;    1,045
791,714;  491,018;   -0,541;    3,136
792,280;  500,116;    0,186;    1,591
792,847;  441,668;    0,550;    2,500
793,413;  533,947;   -0,269;   -0,318
793,979;  753,136;    3,459;   -1,318
794,545; 1029,870;    4,459;    2,682
795,111;  906,422;    2,186;    1,318
795,678;  760,611;    0,731;   -1,682
796,244;  919,890;    3,368;    0,136
796,810;  762,715;    1,731;    0,773
797,375;  761,449;    0,549;   -2,136
797,941;  442,183;   -0,541;    0,591
798,507;  451,463;   -0,451;   -0,955
799,073;  483,288;   -0,360;    0,591
799,639;  481,840;   -2,632;    3,136
800,205;  428,756;    0,095;    2,682
800,770;  472,126;    0,640;    1,773
801,336;  490,133;    1,368;   -0,955
801,901; 1090,867;    4,549;    3,136
802,467;  737,147;   -0,542;    2,045
803,033;  522,699;   -0,087;    0,864
803,598;  511,797;    1,913;   -1,045
804,163;  513,440;    1,095;   -0,318
804,729;  619,992;   -0,178;    1,136
805,294;  513,362;    0,822;    2,227
805,859;  457,096;    0,731;   -0,409
806,425;  845,921;    1,186;    2,682
806,990;  827,019;    2,186;    4,318
807,555;  578,117;   -1,451;    2,591
808,120;  724,396;    0,822;   -0,409
808,685;  520,585;    0,185;   -2,500
809,250;  431,773;    0,004;   -0,500
809,815;  413,235;    1,913;    0,682
810,380;  546,151;   -0,269;    1,591
810,945;  733,885;   -1,087;    2,045
811,510;  556,801;    2,094;    1,591
812,075;  622,898;   -0,633;   -1,409
812,640;  861,723;    2,003;    1,409
813,204;  610,185;    0,822;   -0,227
813,769;  743,191;    2,094;   -0,045
814,334;  741,471;    0,458;    0,864
814,898;  460,932;    0,367;    0,591
815,463;  574,848;    1,276;   -0,773
816,027;  514,582;   -0,724;   -2,318
816,592;  437,680;    0,640;   -2,045
817,156;  619,505;    2,094;    1,136
817,721;  743,421;    4,276;    2,318
818,285;  465,973;    2,912;    1,500
818,849;  527,343;   -1,451;    1,682
819,414;  459,714;   -0,269;    2,955
819,978;  407,175;   -1,269;    1,773
820,542;  701,182;    2,003;    0,500
821,106;  529,007;   -0,815;    0,682
821,670;  755,377;   -0,815;    2,591
822,234;  521,566;   -0,270;    1,409
822,798;  414,663;    0,003;    0,500
823,362;  650,852;   -0,633;    4,227
823,926;  505,495;    0,094;    1,136
824,490;  696,320;   -0,997;   -0,682
825,054;  566,327;   -0,088;   -1,136
825,618;  456,425;   -1,542;   -1,500
826,181;  518,068;    0,458;   -1,318
826,745;  636,802;    1,367;   -1,045
827,309;  837,172;    1,185;    1,318
827,872;  705,633;    1,367;    0,955
828,436;  584,731;    1,185;   -0,773
828,999;  480,011;   -0,997;    1,227
829,563;  463,290;   -0,179;    1,136
830,126;  434,388;   -0,179;   -0,591
830,690;  553,395;   -1,997;    2,864
831,253;  469,765;   -0,543;    2,227
831,816;  520,135;   -1,906;    0,500
832,380;  477,324;    0,185;    0,864
832,943;  452,876;   -1,361;   -0,500
833,506;  457,519;    2,639;   -1,227
834,069;  606,708;    3,912;   -0,955
834,632;  446,806;    1,730;    1,318
835,195;  502,540;    1,003;    0,955
835,758;  433,728;   -0,997;    1,955
836,321;  457,281;    0,730;   -1,045
836,884;  420,651;   -0,725;   -0,955
837,447;  364,930;   -2,816;    1,773
838,010;  547,574;    0,366;    3,227
838,573;  552,399;   -1,179;    0,773
839,135;  403,860;   -1,361;   -0,955
839,698;  484,867;    1,275;    0,409
840,261;  429,419;    1,003;   -0,227
840,823;  384,244;   -0,543;    0,864
841,386;  370,432;   -0,452;   -2,409
841,948;  676,621;   -1,361;    1,773
842,511;  460,082;    0,912;    1,682
843,073;  662,544;    1,912;    0,227
843,636;  414,460;   -0,361;   -0,227
844,198;  635,557;    0,911;    0,591
844,760;  591,291;    1,093;    1,955
845,322;  393,934;    0,548;    1,136
845,885;  527,305;    0,730;    0,591
846,447;  465,039;   -1,998;    0,227
847,009;  807,864;    1,911;   -0,682
847,571;  516,143;    0,820;   -2,045
848,133;  456,332;   -1,089;   -1,864
848,695;  323,975;   -0,543;    1,409
849,257;  410,436;   -1,089;   -1,682
849,819;  561,261;   -0,998;   -0,409
850,381;  421,177;   -0,725;   -0,864
850,942;  491,820;    1,093;   -0,591
851,504;  570,282;    1,184;    0,227
852,066;  421,652;    1,275;   -1,591
852,628;  459,750;   -0,180;    1,955
853,189;  359,211;    1,638;    2,682
853,751;  362,945;   -0,907;    1,409
854,312;  523,225;   -0,453;   -1,682
854,874;  663,231;   -2,089;   -0,773
855,435;  472,875;   -0,907;   -1,682
855,997;  503,245;   -1,816;   -0,136
856,558;  631,343;    0,366;    1,773
857,119;  533,986;    0,820;    2,864
857,681;  375,265;    0,002;    0,318
858,242;  643,727;    1,911;   -2,136
858,803;  598,188;    0,456;   -0,773
859,364;  471,649;    0,184;   -4,773
859,925;  549,202;   -2,453;   -0,955
860,486;  429,754;   -0,453;   -0,955
861,047;  371,670;   -0,544;   -1,227
861,608;  429,131;   -1,089;   -0,773
862,169;  289,501;    0,638;   -0,045
862,730;  419,690;    0,456;    1,409
863,291;  459,151;   -0,635;   -0,500
863,852;  441,613;   -0,635;    1,955
864,412;  440,165;   -0,271;   -0,864
864,973;  677,444;   -0,089;    0,500
865,534;  793,360;   -1,726;    0,227
866,094;  570,003;    1,820;    0,227
866,655;  702,465;    1,274;    3,318
867,215;  511,744;    0,274;    0,136
867,776;  363,024;    0,547;   -0,136
868,336;  457,485;   -1,453;    0,136
868,897;  840,128;    2,638;    1,682
869,457;  626,680;    1,365;    0,318
870,017;  410,687;    0,547;   -1,227
870,578;  402,148;   -0,817;    0,773
871,138;  489,883;   -2,089;   -0,955
871,698;  408,617;   -0,817;   -1,318
872,258;  526,260;   -0,453;   -2,864
872,818;  672,812;    2,729;    0,045
873,378;  488,455;    0,638;    1,045
873,938;  476,644;    0,547;    0,500
874,498;  369,014;    0,274;   -1,955
875,058;  484,475;    2,183;    1,773
875,618;  482,028;    1,910;   -2,682
876,177;  522,307;    1,274;    0,136
876,737;  351,678;   -0,090;    1,955
877,297;  710,775;    0,183;    1,955
877,856;  645,873;   -0,362;    0,318
878,416;  416,789;    1,183;   -0,136
878,976;  373,341;   -1,817;    0,409
879,535;  409,348;    0,092;    3,136
880,095;  396,082;   -0,544;    0,045
880,654;  347,816;   -1,090;    1,318
881,213;  646,732;    2,456;    1,500
881,773;  486,829;    2,637;    2,682
882,332;  963,200;    3,365;    5,136
882,891;  469,479;    3,092;    2,136
883,451;  458,304;   -1,272;    1,682
884,010;  423,584;   -2,908;   -0,409
884,569;  359,591;   -0,999;   -0,045
885,128;  531,416;    2,819;   -1,864
885,687;  774,150;    4,455;    0,682
886,246;  947,247;    1,455;    2,136
886,805;  744,527;    2,455;    2,045
887,364;  403,534;   -0,999;   -0,500
887,922;  334,813;   -1,181;    0,045
888,481;  538,638;   -1,545;    0,591
889,040;  602,372;    1,183;    2,136
889,599;  480,197;    2,455;    1,409
890,157;  478,658;    1,455;    2,409
890,716;  411,665;   -0,090;    0,227
891,274;  536,036;    0,092;   -1,136
891,833;  594,770;    1,546;    0,864
892,391;  491,049;   -0,454;    0,500
892,950;  573,601;    1,819;   -0,773
893,508;  382,790;    0,455;   -0,409
894,067;  313,797;    0,637;    0,136
894,625;  421,985;   -0,636;   -1,500
895,183;  378,083;   -0,363;   -0,682
895,741;  640,090;    1,728;   -1,773
896,299;  442,551;   -0,545;   -2,409
896,858;  394,103;    0,819;   -1,591
897,416;  524,837;    2,728;   -1,318
897,974;  445,390;    1,819;    0,318
898,532;  870,124;    6,091;    2,682
899,089;  585,494;    2,091;   -0,682
899,647;  485,864;   -1,454;    1,318
900,205;  488,326;    1,182;    1,045
900,763;  472,514;   -0,454;    0,227
901,321;  427,158;    2,364;   -1,409
901,878;  268,346;   -1,000;   -0,773
902,436;  360,444;   -1,363;    1,318
902,994; 1026,996;    4,728;    3,682
903,551;  599,457;    0,728;    0,409
904,109;  464,010;    0,182;   -1,409
904,666;  429,653;    2,455;    1,045
905,224;  322,114;    0,182;   -0,409
905,781;  489,484;    0,727;   -0,318
906,338;  426,219;   -1,363;    1,045
906,895;  327,225;    0,637;    2,045
907,453;  586,778;    1,727;    1,136
908,010;  443,421;   -0,909;    0,409
908,567;  434,700;    1,273;    0,591
909,124;  292,616;    0,364;   -1,500
909,681;  356,168;   -2,909;    0,682
910,238;  375,720;    0,636;   -1,318
910,795;  282,727;   -0,273;   -1,136
911,352;  310,273;   -2,909;   -2,682
911,909;  347,182;   -1,364;   -0,864
912,466;  349,182;   -3,182;    1,500
913,022;  462,909;   -1,636;    0,500
913,579;  523,455;   -0,909;    2,045
914,136;  408,273;    1,636;    0,955
914,692;  405,636;    0,091;   -1,227
915,249;  438,000;    1,455;    0,409
915,806;  506,182;    0,182;    1,955
916,362;  402,727;    1,909;    1,864
916,918;  390,182;    2,000;    1,045
917,475;  503,818;   -1,182;    0,955
918,031;  350,636;    3,364;   -0,045
918,587;  417,364;   -0,909;   -0,318
919,144;  340,182;   -2,273;    0,227
919,700;  268,909;    1,727;    0,773
920,256;  277,182;    0,727;    0,045
920,812;  337,455;   -0,727;   -1,045
921,368;  303,909;   -1,727;   -1,045
921,924;  334,909;    0,182;   -0,136
922,480;  416,364;   -0,545;    1,227
923,036;  417,091;    1,273;    1,955
923,592;  321,091;    0,455;    0,318
924,148;  342,545;    0,455;   -0,955
924,704;  466,455;   -1,364;   -0,409
925,259;  301,273;   -0,273;    0,591
925,815;  301,818;    1,455;    0,500
926,371;  284,909;    2,909;    1,409
926,926;  428,636;    2,091;    0,591
927,482;  406,364;   -1,364;    0,773
928,037;  334,000;    0,909;    2,045
928,593;  501,000;    1,636;    1,045
929,148;  294,909;   -1,818;   -1,500
929,704;  365,455;   -1,455;   -0,500
930,259;  308,636;    0,091;   -0,136
930,814;  468,727;   -0,818;    1,955
931,369;  406,273;    1,091;   -0,773
931,925;  259,909;   -0,091;    0,136
932,480;  353,818;   -2,818;   -2,591
933,035;  643,364;    0,545;   -0,318
933,590;  551,727;    0,364;   -1,773
934,145;  262,636;   -1,364;   -0,318
934,700;  183,182;    0,455;   -0,591
935,255;  240,273;   -0,091;    0,045
935,809;  517,545;    3,182;    0,864
936,364;  246,727;   -0,455;   -0,136
936,919;  234,091;    0,455;   -1,773
937,474;  180,545;    1,455;    0,136
938,028;  192,636;   -1,636;    1,136
938,583;  528,545;    1,818;    4,682
939,138;  262,091;    2,091;    2,136
939,692;  161,273;    1,636;   -1,136
940,247;  207,636;   -0,727;   -1,045
940,801;  232,909;   -0,636;    0,227
941,355;  171,727;   -0,364;    2,591
941,910;  122,727;   -0,273;   -2,136
942,464;  152,273;   -0,818;   -0,318
943,018;  316,818;    1,000;   -0,227
943,572;  201,636;    2,545;   -0,682
944,126;  262,909;    0,091;   -0,409
944,681;  174,273;    3,091;    0,227
945,235;  131,455;    1,000;   -0,591
945,789;  116,364;    0,364;   -1,864
946,342;  309,091;    0,455;   -0,591
946,896;  152,909;   -2,273;    0,955
947,450;  125,273;    1,545;   -0,227
948,004;  286,636;    1,727;   -0,045
948,558;  171,818;    0,273;   -0,864
949,111;  169,000;   -0,273;   -0,318
949,665;  287,727;    1,636;   -0,682
950,219;  272,000;   -0,091;   -1,045
950,772;  210,909;   -1,909;    1,864
951,326;  197,909;    0,545;   -0,955
951,879;  163,545;    0,727;   -2,318
952,433;  255,091;    0,000;    2,227
952,986;  151,091;    2,909;    0,682
953,539;  129,182;   -0,273;    0,591
954,093;  100,273;    0,545;   -1,318
954,646;  172,909;    0,909;    1,318
955,199;  125,182;    0,000;   -0,500
955,752;  289,273;   -0,455;    1,773
956,305;  177,545;   -0,091;    2,955
956,858;  202,545;    0,818;   -0,318
957,411;  237,818;   -0,545;    2,136
957,964;  195,818;    1,364;    2,136
958,517;  135,818;   -1,545;    3,136
959,070;  104,273;   -0,455;    1,955
959,623;  283,727;    1,091;    1,500
960,176;  251,909;    1,727;    2,045
960,728;  215,455;   -2,727;    0,773
961,281;  175,727;    0,545;    0,500
961,834;  131,727;   -0,909;    0,864
962,386;  140,455;    1,727;    1,045
962,939;  121,182;    0,364;   -0,318
963,491;  153,727;    0,455;    1,136
964,043;  113,455;    1,182;    2,409
964,596;  217,636;   -1,000;    2,227
965,148;  158,091;   -1,000;    1,773
965,700;  112,909;    1,091;   -0,227
966,253;  220,636;   -0,636;    0,318
966,805;  185,091;   -2,273;    0,773
967,357;  141,636;    1,091;   -1,500
967,909;  212,364;    0,455;   -1,227
968,461;  142,091;    0,545;    3,136
969,013;  114,364;   -0,182;   -0,864
969,565;  222,091;   -0,455;   -1,136
970,117;  363,000;   -0,364;    1,045
970,669;  220,182;    0,182;   -0,136
971,220;   97,182;   -0,455;   -1,500
971,772;  146,727;   -0,636;   -0,318
972,324;  202,636;    0,091;   -0,500
972,876;  134,909;    0,818;   -0,045
973,427;  209,545;    1,909;   -1,045
973,979;  254,909;   -0,727;   -2,500
974,530;  139,000;    1,818;    1,318
975,082;  185,545;   -0,545;    1,682
975,633;  144,455;    1,091;    1,682
976,184;  164,636;    0,909;    0,773
976,736;  159,545;    0,091;    0,227
977,287;  184,636;   -0,909;   -0,500
977,838;  151,818;    0,909;   -0,318
978,389;  151,364;   -1,000;   -0,500
978,940;   84,727;    0,545;   -0,409
979,491;   82,545;    0,091;   -0,500
980,042;  141,000;    0,182;    3,045
980,593;  153,091;   -2,545;    0,227
981,144;  201,273;    2,545;   -0,500
981,695;  208,455;    1,455;    1,500
982,246;  186,273;   -0,273;    1,045
982,797;  108,091;   -1,727;    0,682
983,347;  193,091;    0,364;    0,591
983,898;  327,364;    3,091;    0,409
984,449;  305,273;    2,182;    0,773
984,999;  201,273;    1,455;   -1,136
985,550;  174,091;    0,182;   -0,318
986,100;   97,182;   -0,455;   -0,318
986,651;   95,455;   -0,818;    0,045
987,201;  109,273;   -1,000;   -0,591
987,751;  115,455;    0,818;    2,864
988,302;  140,182;    2,636;    1,500
988,852;  178,909;    0,455;   -1,136
989,402;  204,091;    0,091;    0,682
989,952;  229,727;   -2,182;    0,864
990,502;  129,909;   -0,091;    0,682
991,052;   73,000;   -0,727;    0,045
991,602;  105,545;   -2,909;    1,318
992,152;  130,000;    0,455;    0,682
992,702;  159,091;    1,364;   -0,045
993,252;  121,909;   -3,000;   -0,500
993,802;  181,545;   -0,273;    1,318
994,352;  142,182;   -1,545;    1,136
994,901;   89,545;   -0,182;    3,227
995,451;   86,273;   -0,182;    0,318
996,000;  107,545;    1,636;    0,318
996,550;  119,273;    2,273;    0,227
997,100;  137,636;    1,273;   -0,045
997,649;  215,364;    2,182;    0,955
998,198;  114,636;    1,727;   -1,500
998,748;  168,909;    1,091;   -2,318
999,297;  135,455;   -0,818;   -0,409
999,846;  208,909;    1,000;   -0,773
1000,395;  154,273;   -0,818;    0,500
1000,945;  224,727;    1,818;   -0,773
1001,494;  222,091;    2,364;    0,682
1002,043;  226,727;    4,636;    0,864
1002,592;  121,000;   -1,091;    1,955
1003,141;  107,000;   -0,455;   -0,682
1003,690;  214,455;    1,727;    0,500
1004,238;  135,636;    1,455;   -0,045
1004,787;   89,727;    1,364;    1,227
1005,336;  188,818;    0,364;    0,682
1005,885;  157,182;    1,364;   -2,773
1006,433;  153,000;    0,545;    0,955
1006,982;  253,091;    0,455;    1,682
1007,531;  170,091;   -1,818;   -0,227
1008,079;  148,273;   -2,273;    0,500
1008,627;  114,364;   -1,455;    0,409
1009,176;  135,909;    0,000;   -1,955
1009,724;  101,364;    1,091;    0,864
1010,273;  188,091;    1,273;    0,500
1010,821;  114,636;    0,091;    1,409
1011,369;   96,545;   -1,364;    1,318
1011,917;  101,545;   -1,364;   -0,591
1012,465;  144,273;    1,273;   -1,591
1013,013;  138,818;    2,091;   -1,682
1013,561;  209,818;    0,455;   -0,773
1014,109;  265,909;   -1,909;    1,682
1014,657;  179,182;    0,364;    0,591
1015,205;  122,364;    1,636;   -0,955
1015,753;   93,273;   -0,545;   -1,409
1016,301;  138,364;   -2,636;    3,045
1016,848;  186,727;   -1,273;    0,409
1017,396;  171,818;    2,545;    0,045
1017,944;  170,545;    1,182;    1,864
1018,491;  126,455;    0,273;    1,409
1019,039;  305,091;    0,455;    0,591
1019,586;  164,091;   -1,364;    1,682
1020,134;  149,000;    0,455;    1,500
1020,681;  200,545;    0,182;   -1,136
1021,228;  153,000;    2,909;   -2,227
1021,776;  133,818;    1,182;   -1,136
1022,323;  271,727;    0,455;    0,773
1022,870;  205,091;   -1,000;   -0,045
1023,417;  230,455;    2,636;    1,864
1023,964;  140,364;    2,636;    1,227
1024,511;  116,455;    1,000;    0,773
1025,058;  157,091;    3,182;   -0,045
1025,605;  125,091;   -2,273;    3,136
1026,152;  249,636;    1,727;   -0,591
1026,699;  157,091;    1,818;    1,318
1027,245;  147,182;   -0,091;    0,318
1027,792;  104,545;   -1,000;    1,409
1028,339;  250,818;    2,364;   -0,045
1028,885;  160,364;    1,000;   -0,227
1029,432;  132,818;   -0,091;    0,227
1029,978;  188,727;   -1,000;   -1,591
1030,525;  196,727;    1,000;    0,409
1031,071;  117,273;   -1,364;    1,136
1031,618;  290,455;    0,364;    1,682
1032,164;  191,364;   -0,091;    3,045
1032,710;  207,727;    1,636;   -1,500
1033,256;  190,545;   -0,636;   -0,136
1033,803;  105,545;   -0,545;    1,500
1034,349;   39,091;   -1,364;    0,136
1034,895;   63,636;    0,000;   -0,318
1035,441;  104,636;   -0,818;    0,318
1035,987;  132,909;   -2,364;   -0,682
1036,533;  172,000;   -1,455;   -0,955
1037,078;  305,909;    1,455;    1,682
1037,624;  210,909;    2,455;   -0,955
1038,170;  121,818;    0,455;   -0,318
1038,716;  170,091;    1,636;   -0,409
1039,261;  108,636;   -2,273;   -0,773
1039,807;  116,455;   -0,091;    3,409
1040,352;  125,273;   -1,909;   -0,318
1040,898;  116,818;   -1,545;   -0,682
1041,443;   90,000;   -1,455;   -2,591
1041,989;  273,636;    1,091;    1,591
1042,534;  151,182;   -0,364;    2,591
1043,079;   81,364;    2,909;    0,955
1043,625;  142,000;    1,818;    0,500
1044,170;  146,818;   -1,364;    1,045
1044,715;  267,636;    2,455;    0,955
1045,260;  212,364;    2,182;   -0,955
1045,805;  118,909;    1,182;   -0,591
1046,350;  100,273;    1,364;   -0,409
1046,895;  213,545;    2,909;    1,591
1047,440;  195,727;    5,364;    0,409
1047,985;  122,636;    2,818;   -0,955
1048,530;  105,727;    1,545;    1,227
1049,074;  132,818;    0,000;    0,318
1049,619;  105,364;   -1,364;    1,955
1050,164;  104,727;    0,455;    0,227
1050,708;  168,909;   -0,455;    0,045
1051,253;  300,182;    1,273;   -2,227
1051,797;  177,364;    0,818;   -1,318
1052,342;   84,455;   -1,182;    1,045
1052,886;  136,273;    0,364;   -1,409
1053,430;   82,545;   -1,364;    0,136
1053,975;  139,455;   -0,818;   -0,318
1054,519;  130,909;   -0,727;    3,227
1055,063;  167,182;    0,909;    1,318
1055,607;  160,455;   -0,182;    0,227
1056,151;  158,909;    2,909;    1,682
1056,695;  113,091;    2,273;   -1,136
1057,239;  106,182;   -1,727;   -0,682
1057,783;  131,545;    0,818;   -1,500
1058,327;  176,000;    0,000;    1,409
1058,871;  264,818;   -0,545;    1,318
1059,415;  190,000;   -0,818;   -0,045
1059,958;  264,000;    1,455;    2,591
1060,502;  117,455;   -1,000;   -0,773
1061,046;   73,364;    0,364;   -0,955
1061,589;   77,000;   -3,000;   -1,136
1062,133;   62,364;   -1,273;    1,864
1062,676;   88,727;    1,182;    0,864
1063,220;  101,909;    1,091;    0,500
1063,763;  124,091;    0,909;    1,136
1064,306;  131,818;   -0,909;    1,864
1064,849;  134,091;   -0,909;    0,591
1065,393;  118,364;    2,000;   -1,500
1065,936;  117,909;    0,182;   -0,409
1066,479;   82,818;   -1,455;    1,318
1067,022;   96,182;   -0,273;   -0,227
1067,565;   78,727;   -0,091;   -1,318
1068,108;   68,545;    0,727;   -0,591
1068,651;   60,636;   -0,636;    1,409
1069,194;   60,818;   -0,455;   -1,682
1069,736;   67,000;   -1,273;    0,955
1070,279;   61,182;   -1,364;   -0,500
1070,822;  101,909;   -2,000;   -0,318
1071,364;  179,182;   -0,364;    1,318
1071,907;  102,273;   -0,727;    3,227
1072,450;   34,455;    0,000;   -0,045
1072,992;   69,182;   -0,273;    3,136
1073,535;  100,091;    2,091;    2,136
1074,077;   62,000;   -0,727;    2,045
1074,619;   57,182;   -1,364;    0,591
1075,161;   79,182;   -1,091;    1,500
1075,704;  146,182;    1,545;    1,227
1076,246;   78,182;   -0,182;    0,682
1076,788;   46,818;   -0,364;    1,773
1077,330;   44,182;    1,273;    2,136
1077,872;   66,545;    0,909;    0,955
1078,414;  157,545;    2,727;    0,773
1078,956;   80,545;    1,273;   -0,227
1079,498;  142,818;    1,636;    0,318
1080,040;   80,909;    1,909;   -1,318
1080,581;   60,273;    1,636;   -0,318
1081,123;   34,545;    0,091;   -0,773
1081,665;   41,455;   -1,182;   -0,955
1082,206;  138,909;    1,364;   -0,500
1082,748;   86,727;    0,727;    2,045
1083,289;   45,273;   -2,000;    1,318
1083,831;   43,818;   -0,545;    0,227
1084,372;   68,545;    0,000;    0,591
1084,913;   63,636;    1,091;    0,864
1085,455;   40,909;   -1,909;   -2,045
1085,996;   38,091;   -2,273;    0,136
1086,537;   46,182;   -0,091;    0,864
1087,078;   55,455;   -0,909;   -2,136
1087,619;   82,545;   -1,273;    0,227
1088,160;   67,545;    0,000;    1,318
1088,701;   58,909;   -1,091;    0,682
1089,242;   49,636;    1,364;   -2,227
1089,783;   75,273;   -0,273;    1,409
1090,324;   57,909;    0,455;    0,682
1090,865;   38,545;    2,727;   -0,409
1091,405;   29,364;    0,727;    2,227
1091,946;   51,909;    0,182;   -0,955
1092,487;   31,091;    0,818;   -1,409
1093,027;   83,545;   -1,364;   -1,500
1093,568;   45,636;   -0,364;    1,227
1094,108;   59,273;    0,273;    1,773
1094,649;   49,182;   -1,182;    0,136
1095,189;   35,818;   -0,636;   -0,682
1095,729;   31,818;   -0,091;    0,955
1096,269;   27,636;    0,727;   -0,955
1096,810;  100,455;   -1,364;    0,500
1097,350;   70,364;    1,364;   -0,773
1097,890;   52,636;    0,364;    1,227
1098,430;  142,727;    2,364;    2,864
1098,970;   98,273;    2,182;    1,682
1099,510;   43,727;    0,545;   -2,318
1100,050;   37,636;    1,000;   -1,591
1100,589;   44,909;   -0,727;   -0,318
1101,129;   62,091;    0,818;   -0,955
1101,669;  102,909;    1,727;    2,136
1102,209;   70,455;   -0,091;    2,227
1102,748;   48,727;    0,000;    0,955
1103,288;   53,000;    1,273;   -1,227
1103,827;   51,091;    3,091;   -2,227
1104,367;   29,636;   -0,091;   -2,409
1104,906;   35,000;    1,364;   -1,136
1105,445;   59,273;    0,636;   -1,136
1105,985;   42,273;   -0,727;    1,500
1106,524;   49,818;   -1,727;   -0,682
1107,063;   41,909;   -2,727;    1,409
1107,602;   29,455;   -1,909;   -1,500
1108,141;   24,455;   -1,909;    1,500
1108,680;   51,909;   -3,455;   -0,591
1109,219;   42,636;   -0,909;   -0,500
1109,758;   36,545;    0,455;    0,682
1110,297;   35,818;    1,000;   -0,682
1110,836;   25,727;   -0,727;    0,955
1111,375;   32,727;   -2,545;    0,409
1111,913;   53,273;   -1,000;    0,773
1112,452;   42,364;   -0,273;    0,136
1112,991;   24,727;    1,091;    1,955
1113,529;   26,182;   -0,818;   -0,045
1114,068;   35,818;   -0,273;    2,955
1114,606;   22,182;   -0,364;   -0,955
1115,144;   46,545;   -1,273;    1,045
1115,683;   35,455;   -0,727;    0,318
1116,221;   55,909;   -0,455;   -0,864
1116,759;   30,818;    0,636;   -0,864
1117,297;   59,273;    0,000;    1,864
1117,836;   30,636;   -2,182;   -1,227
1118,374;   31,364;    0,182;   -0,682
1118,912;   36,818;    0,909;    2,682
1119,450;   32,364;    1,000;    0,864
1119,988;   31,636;    1,545;    2,136
1120,525;  175,545;    5,091;    3,318
1121,063;   83,545;    1,182;    1,864
1121,601;   31,727;   -0,909;   -1,227
1122,139;   22,636;   -0,727;   -2,045
1122,676;   72,000;   -0,727;    2,773
1123,214;   59,545;   -1,182;    4,409
1123,751;   24,455;    1,727;    2,227
1124,289;   39,000;   -0,091;   -0,409
1124,826;   25,000;    1,727;    0,227
1125,364;   14,091;    1,727;   -0,955
1125,901;   65,000;    1,182;    1,227
1126,438;   56,364;    0,818;    0,955
1126,975;   16,455;   -0,727;   -0,773
1127,513;   24,636;    0,273;    2,136
1128,050;   16,909;    1,636;   -0,682
1128,587;   29,636;    2,000;   -0,227
1129,124;   39,636;    0,091;    1,318
1129,661;   20,636;    0,273;    0,227
1130,198;   53,000;    1,636;    0,773
1130,734;   34,091;    0,182;    1,409
1131,271;   12,727;   -0,909;    0,864
1131,808;   42,818;    2,909;    3,045
1132,345;   24,182;    1,545;    0,318
1132,881;    5,000;   -1,545;   -1,864
1133,418;   26,727;    0,727;   -1,136
1133,954;   19,273;    2,455;   -2,682
1134,491;   29,182;    1,364;   -0,773
1135,027;   14,727;    2,364;    0,864
1135,564;   28,455;    0,273;    2,955
1136,100;   25,000;    0,364;    2,136
1136,636;   16,182;   -1,273;   -1,045
1137,172;   21,818;    0,000;   -1,045
1137,708;   17,000;   -1,364;   -1,045
1138,245;   14,273;    1,273;   -1,227
1138,781;    7,818;    1,091;   -3,318
1139,317;   16,000;    1,273;   -1,409
1139,852;   21,545;    3,091;    0,136
1140,388;   29,000;   -1,182;   -0,409
1140,924;   19,000;   -1,091;   -2,227
1141,460;    9,273;   -1,636;    0,136
1141,996;    6,364;   -1,364;    2,682
1142,531;    9,909;    1,364;    3,318
1143,067;   39,636;    1,182;    1,045
1143,602;   51,182;   -0,091;   -0,318
1144,138;   19,818;   -2,636;    1,045
1144,673;    7,364;   -1,455;    1,409
1145,209;   12,364;   -1,909;   -0,318
1145,744;    7,000;   -0,727;    0,864
1146,279;   21,545;    1,818;   -0,136
1146,815;   12,909;    1,545;   -2,682
1147,350;   18,818;   -1,364;    0,045
1147,885;    6,818;   -0,818;   -1,318
1148,420;   11,182;   -2,273;    0,773
1148,955;   13,273;   -1,727;    1,864
1149,490;    8,636;   -0,909;   -1,591
1150,025;    7,727;    0,455;   -1,773
1150,560;   23,091;    1,091;   -0,955
1151,094;   16,091;    1,455;   -0,591
1151,629;   13,091;    1,636;    0,864
1152,164;    7,182;    1,364;    1,318
1152,698;    6,273;   -0,182;   -0,136
1153,233;    4,091;    0,091;   -0,682
1153,767;    5,000;   -3,000;   -2,318
1154,302;    7,091;   -1,455;    1,773
1154,836;   10,182;   -0,455;   -2,136
1155,371;   15,182;   -1,364;    3,682
1155,905;    8,818;   -0,636;    1,682
1156,439;   10,364;   -0,636;   -0,500
1156,973;   11,545;    0,364;    0,318
1157,507;    5,364;   -0,364;    0,682
1158,042;    4,818;   -0,727;    1,045
1158,576;   10,273;    0,182;    1,773
1159,110;    8,000;   -0,818;    2,409
1159,643;    7,182;    0,636;   -0,045
1160,177;    5,182;   -1,545;    1,500

