
Integration time [ms]:   0,040
Averaging Nr. [scans]: 11
Smoothing Nr. [pixels]: 0
Data measured with spectrometer [name]: 7318044SP
Wave   ;Sample   ;Dark     ;Reference
[nm]   ;[counts] ;[counts] ;[counts] 

186,757;   38,592;   31,551;    1,318
187,357;   32,613;   22,551;    0,955
187,958;   20,077;   15,460;   -1,591
188,558;   24,314;    8,915;   -1,227
189,159;   17,348;    6,733;   -4,500
189,759;   12,072;    7,278;   -3,591
190,360;    9,776;    2,824;   -2,136
190,960;   11,749;    2,915;   -4,136
191,560;   11,674;    3,189;   -6,591
192,161;   53,049;    4,372;   -3,500
192,761;   26,908;    4,010;   -3,227
193,361;   18,859;    1,556;   -3,773
193,962;   27,058;    2,010;   -2,682
194,562;    9,458;    1,189;   -3,955
195,162;    6,610;   -2,448;   -2,227
195,762;   27,675;   -3,176;   -0,045
196,362;   18,343;    1,370;   -2,500
196,963;    6,388;    2,006;   -0,864
197,563;    9,135;    1,551;   -0,955
198,163;    4,137;    0,096;   -0,682
198,763;    6,911;    1,733;   -0,500
199,363;   13,373;    3,096;   -0,500
199,963;   11,366;    0,369;    0,409
200,563;    6,673;    2,823;   -1,409
201,163;    3,080;    3,277;   -0,227
201,763;    8,521;    3,732;    0,318
202,363;    3,090;    1,459;    1,500
202,963;    6,133;    1,459;    1,045
203,563;   17,742;    0,277;    0,500
204,162;    9,207;    2,096;   -1,864
204,762;    6,683;    0,550;    0,591
205,362;    2,274;    3,004;    1,955
205,962;    5,714;    3,096;    1,955
206,562;    3,160;    1,823;    2,318
207,161;    3,620;   -0,087;    0,318
207,761;   16,070;    1,277;    2,409
208,361;    6,394;   -0,268;    1,409
208,960;    8,240;    0,459;    1,500
209,560;    7,964;    1,277;    1,591
210,160;    9,745;    0,550;    1,864
210,759;    6,174;    4,186;    1,227
211,359;    1,367;    1,459;    1,045
211,958;   22,389;    1,277;    2,045
212,558;   21,192;    1,732;    1,864
213,157;   10,590;    1,822;    1,500
213,757;   36,473;    3,822;   -0,227
214,356;   15,069;    1,277;   -0,409
214,956;   29,264;    3,095;    0,409
215,555;    7,759;    2,095;    2,136
216,154;    0,942;   -2,723;   -0,591
216,754;    6,846;    0,277;    0,773
217,353;    6,608;   -0,268;   -1,045
217,952;    1,632;   -0,178;    0,318
218,552;    8,089;    1,368;   -0,773
219,151;    2,849;    0,277;    0,955
219,750;    0,264;    0,004;   -0,227
220,349;    3,010;   -0,451;    1,045
220,948;   11,593;   -1,360;    1,136
221,548;    3,800;    0,913;    1,227
222,147;    2,606;   -0,087;   -0,409
222,746;   11,039;   -0,451;   -0,955
223,345;    4,961;    0,731;    0,500
223,944;    5,638;   -0,451;    0,773
224,543;    4,786;    1,004;   -1,409
225,142;    2,377;    0,094;    0,136
225,741;    5,928;   -0,814;    1,045
226,340;    4,488;   -0,451;   -0,955
226,939;    9,419;   -0,996;   -0,136
227,538;    0,739;   -0,360;   -0,773
228,137;   10,034;   -0,814;    0,864
228,735;    9,940;   -0,541;    1,227
229,334;    1,480;   -0,905;   -0,227
229,933;   14,215;    0,459;    0,591
230,532;   12,456;    1,186;   -0,409
231,131;   17,981;    1,732;    0,318
231,729;   10,656;   -2,450;   -2,318
232,328;    2,920;   -0,723;   -1,500
232,927;    3,874;    1,004;   -0,500
233,525;    3,439;    3,640;    0,045
234,124;    5,728;    2,368;   -1,591
234,723;    4,294;    0,913;   -1,045
235,321;    3,517;    2,277;    0,136
235,920;    2,295;    1,186;   -1,227
236,518;    8,609;    3,459;    0,318
237,117;    0,711;    0,004;   -0,227
237,715;    4,846;    0,640;   -0,500
238,314;    5,918;   -0,087;   -2,318
238,912;   10,192;   -0,723;   -1,409
239,510;    6,000;    0,459;   -1,227
240,109;   14,672;    0,004;    3,773
240,707;   11,684;   -0,996;    1,227
241,305;    4,522;    0,550;    0,136
241,904;    6,885;   -0,178;   -2,045
242,502;   19,529;   -0,632;   -0,227
243,100;    8,022;   -0,087;   -0,955
243,698;    2,975;    0,732;    1,682
244,297;    7,938;   -0,632;    0,682
244,895;    5,876;   -0,269;   -2,318
245,493;   11,265;    2,186;   -0,591
246,091;   17,981;    1,368;   -1,318
246,689;    8,342;    1,004;    0,591
247,287;    6,520;    0,822;   -1,136
247,885;    6,845;   -1,451;    1,227
248,483;    2,971;    1,822;   -0,500
249,081;    6,894;    0,185;    1,591
249,679;    7,066;   -0,178;    1,682
250,277;    2,372;   -1,723;    0,864
250,875;    8,116;   -1,087;   -1,045
251,473;    6,715;   -1,178;    0,500
252,071;    9,698;    1,459;    1,045
252,669;    5,729;   -1,814;    0,318
253,267;    2,727;   -0,087;    0,773
253,864;    6,702;   -0,360;    0,682
254,462;   10,292;    1,640;    1,591
255,060;    1,370;   -0,269;    1,318
255,658;    2,638;    0,822;   -0,136
256,255;    4,608;    0,186;   -2,045
256,853;    6,481;   -0,269;    1,409
257,451;    4,714;    0,822;    1,864
258,048;   30,883;    1,822;    1,864
258,646;   13,653;    1,731;   -1,045
259,243;   15,936;   -0,087;    2,227
259,841;   10,003;   -0,814;    0,318
260,438;    4,120;   -0,087;    0,864
261,036;    6,941;   -1,905;    1,409
261,633;    0,643;   -0,087;    2,227
262,231;    1,085;    2,731;   -0,045
262,828;    1,105;   -0,905;    1,136
263,425;    2,514;    0,913;   -0,591
264,023;    2,642;    0,186;    0,045
264,620;    8,466;   -0,360;   -0,318
265,217;   12,641;   -2,087;    3,136
265,815;    5,162;   -1,905;    2,136
266,412;    7,555;    0,731;    0,136
267,009;    7,711;   -1,451;    0,773
267,606;    9,835;    0,822;   -0,955
268,203;    3,043;   -0,269;   -0,591
268,801;    4,363;    1,731;    0,591
269,398;    3,854;   -0,360;    2,500
269,995;    4,741;    0,277;    1,591
270,592;    5,845;   -0,632;   -0,500
271,189;    3,491;    0,186;    0,409
271,786;    2,335;   -0,632;    1,227
272,383;    9,583;   -1,087;    0,227
272,980;    4,534;    0,277;    0,318
273,577;    5,086;    0,004;    1,227
274,174;    0,007;    0,822;    2,591
274,771;    7,092;   -0,814;   -0,773
275,367;   35,356;    2,277;    1,409
275,964;   14,753;    0,731;   -0,500
276,561;    1,646;    1,549;   -1,045
277,158;   -0,934;    0,095;   -1,773
277,755;   10,076;    2,185;    0,409
278,351;    8,014;   -0,451;   -1,500
278,948;   10,891;   -0,815;    0,045
279,545;   10,042;   -1,360;    2,318
280,141;   11,885;   -1,723;   -2,045
280,738;   13,996;   -0,451;   -0,136
281,334;    3,763;   -1,633;    0,591
281,931;   -4,606;   -0,087;   -1,318
282,528;    6,018;    0,822;   -0,500
283,124;   10,110;   -1,087;   -0,500
283,721;    9,656;   -0,451;    1,409
284,317;    5,853;    0,185;    2,500
284,913;    8,661;   -1,360;    0,591
285,510;    8,661;    0,640;   -0,318
286,106;   11,626;   -2,269;   -0,955
286,703;    8,427;   -0,360;    1,955
287,299;    5,731;   -1,451;   -0,591
287,895;    3,467;    0,822;   -1,045
288,491;   -1,419;    0,186;    2,136
289,088;    5,604;   -2,360;    2,409
289,684;    2,274;   -1,723;    1,500
290,280;   12,332;    0,368;    0,682
290,876;   11,371;    1,822;    5,500
291,472;   11,249;    1,276;    2,227
292,068;   14,722;    1,367;    0,227
292,665;    5,549;    2,095;    0,773
293,261;    3,224;    0,276;    2,136
293,857;   12,690;    2,913;    2,136
294,453;    8,667;    3,550;    0,955
295,049;   21,706;   -0,268;    1,955
295,644;   10,688;    0,095;    0,136
296,240;    3,915;   -0,905;   -0,136
296,836;    9,948;   -0,995;    0,318
297,432;   20,174;    1,096;   -0,500
298,028;   18,267;    0,732;    0,773
298,624;   16,956;    1,459;    1,864
299,220;   17,568;    2,368;    0,591
299,815;   11,601;    1,005;   -0,409
300,411;   27,524;    0,914;    1,773
301,007;   30,259;    1,368;    0,227
301,602;   17,134;   -0,541;   -2,318
302,198;   44,506;    0,732;   -0,773
302,794;   21,741;    1,187;   -0,500
303,389;   10,840;   -1,177;    1,045
303,985;   16,756;    0,550;    1,409
304,580;   50,556;    1,459;    1,591
305,176;   27,705;   -3,086;    0,136
305,771;    5,820;   -1,268;   -1,227
306,367;   88,838;    4,095;    0,136
306,962;   36,952;    0,641;    1,500
307,558;   47,132;   -0,450;    0,136
308,153;   29,071;    1,095;   -1,136
308,748;   13,873;   -0,814;    1,682
309,344;   72,293;   -0,632;   -1,318
309,939;   63,452;   -1,905;   -1,318
310,534;   26,282;   -0,086;   -1,682
311,130;   25,150;    0,459;   -2,500
311,725;   18,716;    1,004;   -0,500
312,320;   21,593;    2,459;    0,045
312,915;   33,375;    1,459;   -1,045
313,510;   64,265;    1,550;   -0,500
314,105;   24,179;    1,096;    1,409
314,700;   11,109;   -3,086;   -1,045
315,295;   15,011;   -0,904;    0,045
315,890;   10,583;    1,277;    0,864
316,485;   21,903;   -0,359;   -0,318
317,080;   10,503;   -3,086;    1,591
317,675;   54,596;    2,005;   -0,682
318,270;  102,428;    5,550;    3,318
318,865;   58,516;    3,278;    3,045
319,460;   32,679;   -0,904;    0,591
320,055;   14,310;   -0,541;   -1,227
320,650;   12,841;   -1,995;   -0,591
321,244;   11,323;   -0,177;   -1,409
321,839;    9,208;   -1,541;   -0,227
322,434;   14,502;   -1,086;   -1,591
323,029;   10,169;    1,732;    1,591
323,623;    7,782;    1,550;    0,773
324,218;   37,423;    2,368;    1,409
324,812;   21,016;    1,096;    1,591
325,407;   16,770;   -0,814;    2,045
326,002;   45,138;    0,277;   -0,409
326,596;   32,465;    0,914;    1,318
327,191;   13,488;    0,823;   -1,045
327,785;   19,919;   -0,813;   -0,227
328,379;   10,944;    1,368;    0,136
328,974;   10,854;    0,914;   -3,955
329,568;   23,111;    0,186;   -2,409
330,163;   38,902;    2,096;    1,045
330,757;   16,456;    2,459;    1,591
331,351;    9,701;    0,459;    0,682
331,945;   13,193;    0,914;    1,409
332,540;   28,067;   -1,723;   -0,591
333,134;   26,460;   -1,086;    0,773
333,728;   36,339;    0,005;    0,318
334,322;   16,757;   -1,177;   -0,864
334,916;   17,852;    0,277;    0,955
335,510;   54,333;   -0,450;   -0,136
336,105;   43,488;   -1,086;    1,591
336,699;   21,257;   -1,086;    0,591
337,293;   39,300;   -1,723;    0,318
337,887;   29,321;   -2,723;    1,955
338,481;   61,429;    0,459;    0,591
339,074;  102,940;   -0,359;    2,682
339,668;   97,653;   -1,632;    1,227
340,262;  336,100;    1,732;    3,227
340,856;  160,241;    1,822;   -0,682
341,450;   61,264;    1,004;    1,864
342,044;   85,209;    1,459;    0,136
342,637;  132,035;    0,913;   -2,136
343,231;   89,625;   -2,360;    0,682
343,825;   79,163;   -1,086;   -0,591
344,419;   88,754;   -1,995;    0,500
345,012;  354,186;    2,459;    4,045
345,606;  242,624;    4,641;    1,591
346,199;   99,499;   -1,813;   -0,227
346,793;  166,213;    1,914;    2,045
347,386;   84,376;   -0,813;   -1,136
347,980;   50,455;   -0,268;   -0,045
348,573;   95,048;    2,278;    0,409
349,167;  274,546;    5,278;    4,773
349,760;  175,006;    2,914;    2,682
350,354;  165,520;   -0,813;    1,136
350,947;  185,031;    1,096;    1,682
351,540;  131,026;   -0,358;   -1,409
352,134;   76,280;    1,096;    1,136
352,727;   82,533;   -0,086;    1,136
353,320;   89,748;    0,005;    0,591
353,913;   54,765;   -1,995;    1,864
354,507;  166,505;    0,823;   -1,227
355,100;   99,853;    0,460;    0,864
355,693;  355,938;    2,005;    2,409
356,286;  204,823;    0,823;    2,773
356,879;  121,648;   -0,722;    1,227
357,472;  125,657;   -0,904;    1,500
358,065;  141,250;   -0,722;    2,500
358,658;   69,191;   -0,540;    2,318
359,251;   63,287;   -1,631;   -0,591
359,844;  159,970;   -1,904;   -1,136
360,437;  188,767;   -2,995;    0,045
361,030;   99,650;    1,369;   -0,682
361,623;  104,034;    2,824;    0,318
362,215;  239,243;   -0,086;    2,045
362,808;  134,350;   -2,358;   -1,682
363,401;   95,285;   -2,449;    0,136
363,994;  225,442;   -0,631;   -1,500
364,586;  120,185;    0,824;   -1,500
365,179;   92,775;   -0,449;   -1,136
365,772;   30,862;   -1,995;    2,045
366,364;   93,530;    1,915;   -3,227
366,957;  114,318;    2,279;   -0,045
367,549;   88,742;    2,188;   -0,864
368,142;   99,676;    1,825;   -1,500
368,734;   81,546;    0,734;   -2,136
369,327;   51,860;    1,643;   -0,500
369,919;   69,863;   -1,538;    0,409
370,512;   73,011;   -1,083;   -0,500
371,104;  225,875;   -0,901;    1,591
371,696;  231,153;    1,191;   -0,955
372,289;  140,078;    0,373;    1,136
372,881;  109,962;   -2,080;    1,318
373,473;   63,173;   -2,170;    1,136
374,066;   93,625;   -0,169;    0,500
374,658;   89,117;    0,378;    1,136
375,250;   58,275;    0,653;   -1,409
375,842;   72,902;    0,473;   -0,045
376,434;   57,937;   -0,435;   -0,409
377,026;   54,602;    0,204;   -2,500
377,618;   82,570;   -0,158;   -0,682
378,210;   58,159;   -0,338;   -1,955
378,802;   69,104;    0,754;   -0,591
379,394;  250,670;    1,846;    0,682
379,986;  126,230;    1,393;   -0,955
380,578;   77,247;   -0,153;    0,773
381,170;  201,775;   -0,972;    0,045
381,762;  147,841;    0,755;    1,409
382,354;  111,319;   -0,065;   -1,318
382,945;   72,806;   -2,976;    0,318
383,537;   50,071;   -2,705;   -1,955
384,129;   46,133;   -2,160;   -1,136
384,721;   90,554;   -0,252;    0,955
385,312;   67,294;   -0,161;   -0,955
385,904;  103,851;   -2,706;    1,591
386,496;   81,671;   -0,979;    1,045
387,087;  160,329;    1,022;    2,500
387,679;  118,798;   -1,160;    0,045
388,270;   96,374;    2,840;    2,045
388,862;   91,780;    1,295;   -0,318
389,453;   91,390;   -0,887;    1,045
390,045;   88,844;   -0,705;   -2,682
390,636;   42,136;    0,204;   -0,591
391,227;   76,316;   -0,523;   -0,045
391,819;   63,361;    0,204;    0,773
392,410;  194,423;    1,022;    0,045
393,001;   92,883;   -0,979;   -1,591
393,593;  112,287;    1,930;   -0,045
394,184;  130,161;    1,385;   -0,409
394,775;   83,619;    1,839;    2,136
395,366;   45,342;    1,385;    0,773
395,957;  122,429;    0,113;    0,136
396,548;   75,225;   -0,342;    2,682
397,139;  130,756;   -2,433;    0,591
397,730;   87,063;   -1,888;    0,955
398,321;  100,126;   -1,252;    0,955
398,912;   71,239;   -0,615;    0,136
399,503;   69,325;   -3,524;   -1,409
400,094;   87,368;    0,294;    1,682
400,685;   79,753;   -0,433;    0,045
401,276;   68,913;    0,930;   -0,955
401,867;   58,054;   -0,888;    0,773
402,458;   37,453;   -2,251;   -2,318
403,048;   98,618;    1,112;    0,591
403,639;   75,355;    0,840;    0,864
404,230;  124,079;    2,476;    0,318
404,821;  152,416;   -0,615;    0,045
405,411;  109,192;    1,203;   -2,591
406,002;   67,897;   -1,252;   -1,136
406,592;  186,872;    2,294;    0,045
407,183;  111,141;    0,566;   -1,500
407,774;  101,742;    3,475;   -0,136
408,364;   68,445;    0,930;    0,409
408,954;  123,200;    0,384;    1,227
409,545;  122,283;    1,021;    1,045
410,135;  105,812;    1,293;    0,500
410,726;   68,944;    1,838;    0,318
411,316;  159,212;    0,111;    0,773
411,906;   85,452;   -0,253;   -0,409
412,497;   91,174;   -1,070;   -0,045
413,087;   63,272;   -1,980;   -0,227
413,677;   32,490;   -0,707;    3,864
414,267;   33,660;    0,656;    1,409
414,857;   22,858;   -2,980;    4,227
415,448;   26,832;    0,839;    0,500
416,038;   33,027;    0,020;   -0,591
416,628;   44,391;   -0,889;    0,409
417,218;   55,245;    0,565;    3,318
417,808;  112,716;    0,202;   -0,409
418,398;   70,174;    0,020;    2,682
418,988;   29,277;    2,020;    0,591
419,578;   63,596;   -0,707;    1,409
420,168;   33,821;   -1,343;   -0,955
420,757;   70,560;   -1,343;   -1,500
421,347;   25,971;    0,111;   -0,227
421,937;   21,237;    2,292;    1,409
422,527;   58,725;    0,838;   -0,773
423,116;  110,717;   -0,253;   -0,045
423,706;   31,660;   -1,889;    0,318
424,296;   16,291;    1,384;    0,682
424,885;   36,200;   -0,071;   -3,045
425,475;   27,603;    1,474;   -2,864
426,065;   13,417;   -0,980;   -0,318
426,654;    7,162;   -0,435;   -0,318
427,244;   58,978;    0,020;    1,409
427,833;   46,323;    1,383;   -0,500
428,423;   21,951;   -0,526;    1,136
429,012;   19,840;   -0,344;   -1,136
429,601;   37,969;   -1,344;    0,136
430,191;   18,719;    1,292;    4,318
430,780;    7,410;   -0,344;   -0,409
431,369;   35,335;    0,746;   -0,045
431,959;   16,258;   -1,254;    0,500
432,548;    7,267;   -1,163;   -0,045
433,137;    1,844;   -1,254;   -1,318
433,726;    8,638;    0,292;    0,500
434,315;   14,752;   -0,526;    2,409
434,905;   25,221;   -1,254;    1,409
435,494;   16,624;    0,746;    0,955
436,083;    4,559;   -0,981;   -0,955
436,672;   22,682;    0,110;    0,500
437,261;   14,648;    0,292;   -1,955
437,850;   37,075;    1,383;    0,682
438,439;   50,899;    3,291;    1,955
439,027;   80,647;    3,655;    1,773
439,616;   50,610;    2,927;    1,227
440,205;   12,286;    0,200;   -2,136
440,794;    9,714;    2,109;   -0,045
441,383;    4,415;   -1,346;   -0,591
441,971;    0,586;   -2,436;    0,591
442,560;    1,650;    0,563;   -1,773
443,149;   -2,791;    0,379;   -1,318
443,737;   -1,513;   -0,074;   -2,318
444,326;    1,021;    0,018;    0,318
444,915;    2,918;   -1,982;    0,864
445,503;    5,253;   -2,891;   -0,318
446,092;   65,274;    0,382;    2,136
446,680;   47,313;    0,382;    0,318
447,269;   16,427;   -0,346;   -0,318
447,857;   17,116;    0,018;   -1,773
448,445;   10,226;    0,563;    1,318
449,034;    4,484;   -1,528;   -1,136
449,622;    7,305;   -1,073;    3,500
450,210;   35,872;    2,017;    2,227
450,799;   21,800;    0,290;   -0,591
451,387;   21,185;    1,381;   -0,591
451,975;   19,247;    2,654;    0,864
452,563;   25,926;    3,472;    2,318
453,151;    9,821;   -0,528;   -1,227
453,739;    7,291;   -1,347;    0,136
454,328;   18,529;    2,381;   -2,136
454,916;   12,844;    2,562;   -0,136
455,504;   18,624;    1,017;    1,227
456,092;    7,409;    0,017;   -1,591
456,679;    3,598;    1,472;    0,682
457,267;   72,741;    4,017;    1,045
457,855;   21,136;    1,017;    1,409
458,443;    0,199;   -0,165;    1,682
459,031;    9,341;    0,108;    2,409
459,619;    6,579;   -1,801;    2,864
460,206;   -1,306;    0,835;    2,045
460,794;   -1,086;   -2,983;   -0,227
461,382;    1,084;   -0,529;   -0,864
461,970;    7,355;    1,198;    1,864
462,557;    1,260;   -0,711;   -0,682
463,145;    6,230;   -3,165;   -1,682
463,732;   43,678;    2,016;   -1,045
464,320;   16,196;   -0,075;   -3,045
464,907;   26,899;    2,743;   -0,773
465,495;   13,024;    0,743;   -1,227
466,082;    7,371;   -1,984;   -0,045
466,670;   13,109;   -2,529;    1,227
467,257;    3,226;   -1,711;    2,045
467,844;   10,705;   -0,075;    0,045
468,432;    6,625;    0,834;    3,500
469,019;    4,789;    0,925;   -1,773
469,606;   19,564;    0,470;    3,682
470,193;   16,567;   -1,439;    0,227
470,780;    8,308;   -2,075;    0,864
471,368;    2,447;   -1,257;   -0,773
471,955;   13,878;    1,379;   -0,682
472,542;    6,311;    0,652;   -1,136
473,129;   -0,198;   -0,166;    0,136
473,716;    0,237;    1,470;    0,591
474,303;    7,788;    0,652;   -0,864
474,890;    4,912;   -1,439;   -0,500
475,477;   16,582;   -1,621;    0,409
476,064;    7,113;    1,106;   -1,591
476,650;   24,135;    0,288;    0,318
477,237;    6,863;   -0,258;    0,955
477,824;    3,516;   -1,076;    0,864
478,411;    1,596;   -1,894;   -0,318
478,997;   -2,980;    0,560;   -0,773
479,584;   -3,538;    1,196;   -0,409
480,171;   10,794;   -0,440;   -0,773
480,757;   13,320;    2,651;    0,773
481,344;    5,980;    0,469;    0,409
481,931;   -2,354;    1,105;    1,045
482,517;    5,466;   -1,258;    0,318
483,104;   21,552;    1,106;    2,864
483,690;    4,559;   -1,804;    0,045
484,276;    4,073;   -0,895;    0,227
484,863;   30,675;    2,469;    1,136
485,449;    8,120;   -0,077;    0,318
486,035;    5,586;   -1,986;   -0,136
486,622;   12,531;   -0,895;    0,045
487,208;    3,476;    1,378;    1,500
487,794;   -3,292;    0,741;    0,318
488,380;   -1,634;    0,105;   -1,409
488,967;   -3,077;   -1,168;   -0,409
489,553;   -0,119;   -1,895;   -1,409
490,139;    5,249;    1,559;    0,773
490,725;    1,717;    0,741;   -0,227
491,311;    3,249;    3,287;    3,045
491,897;    2,893;   -0,986;    1,500
492,483;    4,642;    0,105;    1,227
493,069;   68,993;    3,923;    0,864
493,655;   24,680;    1,650;    0,682
494,241;    7,030;    1,377;   -0,955
494,826;    6,424;    0,287;   -1,045
495,412;   11,425;    2,559;   -0,682
495,998;    2,104;   -0,805;   -0,318
496,584;    8,071;    0,377;    1,045
497,169;   12,008;    1,014;   -0,682
497,755;    5,193;    0,650;    1,227
498,341;   18,097;    0,559;    0,318
498,926;   38,592;    1,832;    1,955
499,512;    4,255;    1,286;    2,955
500,097;    0,620;    0,195;   -0,318
500,683;    3,862;   -0,350;    2,136
501,268;    0,322;   -0,169;   -0,955
501,854;    6,444;   -0,169;    1,227
502,439;    3,154;   -0,624;   -1,773
503,024;    2,464;    0,195;    0,500
503,610;    4,548;   -0,078;   -0,682
504,195;    2,578;    0,558;    1,955
504,780;   17,424;    2,922;    1,227
505,366;   34,499;    3,013;    2,864
505,951;   17,582;    0,740;    1,045
506,536;    3,658;   -3,260;   -3,682
507,121;   12,809;    0,285;   -0,318
507,706;   10,272;    2,376;    1,045
508,291;    2,857;    2,649;    1,136
508,876;    5,639;   -0,988;    2,591
509,461;    3,766;   -0,169;   -0,773
510,046;   11,756;    0,194;    0,318
510,631;   14,802;   -0,351;   -0,773
511,216;    7,111;    2,467;   -0,500
511,801;   20,847;   -0,442;    2,591
512,386;   19,913;    0,740;    0,500
512,971;   23,805;   -2,988;    0,955
513,555;   29,754;   -0,897;   -1,500
514,140;   24,319;   -0,442;   -3,136
514,725;   71,493;   -0,715;   -1,136
515,309;   43,659;   -0,533;    0,318
515,894;   26,565;   -0,624;   -2,227
516,479;   43,955;   -0,624;   -0,955
517,063;   44,567;    0,376;    1,227
517,648;   33,487;    1,012;   -1,136
518,232;   22,435;   -0,261;   -1,409
518,817;   80,621;   -0,079;    1,682
519,401;  155,150;    2,194;    0,591
519,985;  156,674;    1,103;    1,136
520,570;   82,359;    0,830;   -1,955
521,154;  149,304;    2,102;    0,591
521,738;  267,923;   -2,352;    2,409
522,323;  164,924;   -0,170;    1,682
522,907;  178,550;    0,466;   -0,136
523,491;  133,285;    0,557;    0,955
524,075;  125,744;    2,284;    0,591
524,659;  279,155;    1,466;    0,591
525,243;  247,803;    1,739;    0,409
525,827;  213,473;    0,648;   -0,045
526,411;  218,791;   -1,989;   -0,136
526,995;  305,999;   -0,352;    1,409
527,579;  371,732;   -0,443;   -1,045
528,163;  322,411;    0,375;   -1,500
528,747;  406,307;    2,466;   -0,773
529,331;  364,841;   -0,080;   -1,409
529,915;  239,054;    1,738;    0,955
530,499;  331,235;   -0,807;    1,227
531,082;  490,818;   -0,534;    1,591
531,666;  566,662;    1,374;    0,773
532,250;  457,584;    1,284;    2,682
532,833;  559,557;    0,920;    2,773
533,417;  418,473;   -1,807;    0,864
534,001;  538,705;    1,647;   -0,318
534,584;  460,943;    0,374;    0,500
535,168;  296,029;    0,465;    1,409
535,751;  642,029;    0,647;    0,045
536,334;  396,053;   -0,898;   -0,409
536,918;  245,592;    0,011;    1,591
537,501;  260,810;   -0,899;    1,318
538,085;  313,283;   -0,444;    1,045
538,668;  397,378;    0,829;    2,409
539,251;  665,837;    1,829;    3,773
539,834;  386,009;    0,101;    0,773
540,418;  508,992;   -1,990;    4,318
541,001;  687,516;   -0,990;    1,773
541,584;  464,911;    2,101;    2,227
542,167;  572,549;    1,374;    2,955
542,750;  401,028;    1,919;   -0,773
543,333;  278,477;    0,555;    2,136
543,916;  505,693;    0,192;    2,500
544,499;  435,900;   -1,354;    0,227
545,082;  513,362;    1,374;    3,591
545,665;  426,251;    1,919;    1,500
546,248;  547,659;    1,010;   -0,318
546,830;  522,100;   -0,445;    1,955
547,413;  483,705;    1,010;   -0,773
547,996;  455,192;    0,555;    0,500
548,579;  415,054;    0,919;    0,955
549,161;  647,789;    1,828;    2,682
549,744;  536,378;   -0,809;    0,409
550,326;  386,201;   -0,809;   -1,136
550,909;  850,419;    2,737;    0,591
551,492;  499,186;   -0,263;    0,227
552,074;  623,986;   -0,173;   -1,318
552,657;  650,079;    2,373;    0,045
553,239;  516,001;   -0,173;   -0,773
553,821;  383,221;   -1,082;    1,045
554,404;  641,348;    1,282;    1,136
554,986;  747,016;    0,464;    1,045
555,568;  584,666;    1,191;   -0,955
556,151;  791,306;    1,191;   -0,227
556,733;  475,276;   -0,264;   -0,864
557,315;  492,451;    0,100;    0,500
557,897;  367,076;    0,554;   -0,500
558,479;  377,536;   -1,991;    1,318
559,061;  466,342;   -0,719;   -0,864
559,643;  513,032;   -0,264;    0,045
560,225;  556,582;    1,645;    2,864
560,807;  402,487;    0,918;    0,318
561,389;  383,592;    0,554;    2,318
561,971;  474,328;    0,463;    2,136
562,553;  395,982;   -1,628;    1,591
563,135;  484,975;   -0,537;    1,136
563,717;  877,881;    3,372;    1,136
564,298;  767,362;    3,645;   -0,045
564,880;  521,838;    0,645;   -1,409
565,462;  362,111;    0,645;    1,318
566,043;  481,025;   -0,446;    2,318
566,625;  788,295;    1,918;    1,227
567,207;  603,252;    1,099;    1,682
567,788;  463,174;   -1,264;    1,500
568,370;  458,784;    1,917;   -0,500
568,951;  459,464;    0,190;    0,227
569,533;  561,366;   -0,628;   -0,500
570,114;  570,504;   -0,446;    0,682
570,695;  603,970;   -0,174;   -1,318
571,277;  585,365;   -0,265;   -1,682
571,858;  790,249;    2,008;   -1,136
572,439;  622,850;    1,554;   -1,045
573,021;  661,627;    2,099;   -2,773
573,602;  773,138;   -1,265;    0,318
574,183;  726,535;   -2,083;    2,227
574,764;  659,981;   -1,629;    0,409
575,345;  860,464;    0,917;   -0,136
575,926;  687,762;   -0,356;    0,136
576,507;  772,135;    1,099;   -0,227
577,088;  723,044;    3,099;    1,682
577,669;  908,275;    0,735;    1,955
578,250; 1095,353;    0,644;   -1,045
578,831;  873,714;   -1,356;   -2,227
579,412;  856,824;   -0,810;    0,955
579,993;  829,740;    1,008;    0,227
580,573;  734,744;   -0,629;   -0,955
581,154;  885,187;    0,735;   -0,591
581,735;  900,816;    0,644;    0,773
582,315; 1051,907;   -0,629;    2,136
582,896;  844,708;   -0,174;    1,227
583,477;  674,407;    0,189;    1,227
584,057;  821,376;    0,553;    0,955
584,638;  950,831;    2,553;    2,318
585,218; 1195,825;   -0,538;    2,682
585,799;  993,987;    0,281;   -0,227
586,379;  855,771;    0,372;    1,591
586,959;  823,082;    0,735;    0,318
587,540;  737,067;   -0,629;    2,227
588,120;  753,960;    1,007;   -0,045
588,700;  761,719;    2,553;    2,136
589,281;  953,833;    0,462;   -0,955
589,861;  804,486;    0,099;   -1,682
590,441;  657,747;    2,371;   -2,682
591,021;  756,556;   -0,265;   -2,591
591,601;  704,572;   -0,537;    0,500
592,181;  687,017;   -0,719;   -0,773
592,761;  591,737;    0,007;    1,409
593,341;  716,806;   -0,901;    0,045
593,921;  719,225;   -0,265;    1,591
594,501;  612,629;   -0,538;    1,318
595,081;  623,129;    0,917;   -0,318
595,661;  695,794;   -1,447;    0,955
596,240;  630,936;   -0,537;    0,136
596,820; 1065,342;    0,372;    1,955
597,400;  763,514;    2,008;    0,773
597,980;  654,825;    2,008;    1,045
598,559;  599,779;    2,735;   -0,227
599,139;  576,704;   -0,174;   -1,227
599,718;  580,431;   -0,174;   -0,409
600,298;  565,598;    0,735;    0,682
600,877; 1074,651;    2,917;    1,409
601,457;  772,602;    2,281;    1,136
602,036;  644,660;    0,190;    2,045
602,616;  697,095;    0,644;    1,682
603,195;  823,054;   -0,355;    3,500
603,774;  882,796;   -0,901;    2,045
604,354;  815,982;    0,826;   -0,500
604,933;  751,109;    0,463;    1,864
605,512;  851,626;    3,554;    0,591
606,091;  849,489;   -0,537;    3,773
606,671;  784,877;    0,281;    0,773
607,250;  971,791;    1,644;    3,136
607,829;  911,276;    2,372;    3,227
608,408;  740,029;    1,190;    2,591
608,987;  864,675;    1,281;    3,409
609,566;  673,887;   -1,265;   -2,500
610,145;  780,593;   -1,082;    0,682
610,723;  821,877;    4,372;    6,864
611,302;  735,378;   -0,446;    1,682
611,881; 1034,854;    5,008;   11,227
612,460;  736,861;    1,645;    3,955
613,039;  605,627;   -0,082;    2,045
613,617;  595,651;    1,736;    4,773
614,196;  612,953;    1,099;    1,227
614,775;  685,076;    1,009;    2,409
615,353;  750,955;    0,736;    0,864
615,932;  709,962;    0,100;    2,409
616,510;  689,619;    0,554;    0,591
617,089; 1218,787;    7,100;   17,591
617,667;  802,510;    2,372;    6,136
618,246;  565,389;   -1,537;    1,318
618,824;  649,126;   -3,355;   -0,955
619,402;  671,765;   -2,900;   -1,773
619,981;  726,003;   -0,173;   -1,045
620,559;  634,342;    0,009;    1,682
621,137;  653,266;   -0,718;    1,864
621,715;  556,823;   -1,173;   -0,682
622,293;  587,717;   -0,537;   -0,773
622,871;  594,269;   -0,718;    0,500
623,450;  537,663;    0,373;   -0,864
624,028;  738,795;    0,191;   -0,955
624,606;  691,222;   -1,718;    1,682
625,183;  508,184;   -1,536;   -1,136
625,761;  655,454;    1,009;    1,136
626,339;  954,688;    1,373;    2,591
626,917;  595,217;   -0,172;   -0,045
627,495;  540,680;   -0,354;    1,318
628,073;  666,915;   -0,263;    2,864
628,650;  682,522;    0,100;    2,136
629,228;  675,290;    0,373;    4,409
629,806;  494,891;    2,282;    1,136
630,383;  553,755;    1,464;   -0,318
630,961;  555,256;    2,555;   -0,955
631,539;  610,203;    2,464;    0,227
632,116; 1330,256;   11,373;   15,409
632,694;  932,942;    2,555;    6,500
633,271;  769,404;    0,828;    2,682
633,848;  871,714;    1,828;    2,045
634,426;  590,922;   -1,081;    1,773
635,003;  458,009;    1,101;   -0,409
635,580;  875,453;    1,192;    3,682
636,158;  744,253;    3,737;    1,227
636,735;  556,678;    0,555;   -0,500
637,312;  551,817;   -0,809;   -0,682
637,889;  553,727;   -4,354;   -0,682
638,466;  535,437;   -3,990;   -0,409
639,043;  589,453;    2,101;   -1,136
639,620;  501,086;   -2,262;   -0,955
640,197;  629,519;    1,100;    1,682
640,774;  453,525;   -0,172;    1,136
641,351;  530,986;    0,737;    1,136
641,928;  737,993;   -0,627;    1,409
642,505;  849,000;    0,828;   -0,500
643,082;  661,915;   -1,718;    1,227
643,658;  528,013;   -0,718;    1,500
644,235;  509,201;    1,191;    2,500
644,812;  715,753;    1,918;    0,773
645,388;  691,850;   -0,991;    1,409
645,965;  467,948;   -0,809;    1,682
646,542;  482,318;   -1,445;   -0,227
647,118;  869,507;    1,009;   -0,955
647,695;  649,968;   -0,263;    1,136
648,271;  463,611;   -0,536;    0,500
648,848;  635,526;    0,736;    2,227
649,424;  768,533;    0,827;    1,318
650,000;  585,539;   -0,354;   -1,045
650,577;  611,728;   -0,627;   -0,955
651,153;  613,098;   -1,809;    0,955
651,729;  560,741;    1,191;    0,864
652,305;  933,475;    0,645;    2,773
652,881;  889,754;   -0,082;    1,136
653,458; 1022,397;    1,100;    0,227
654,034; 1115,858;    0,282;    1,591
654,610; 1264,410;    0,554;    0,773
655,186; 1778,326;    0,645;    3,045
655,762; 1300,787;   -0,991;    0,409
656,338; 1274,793;    0,100;    0,136
656,913; 1357,345;   -0,082;    0,409
657,489; 1114,079;    0,827;   -0,318
658,065; 1235,813;   -0,173;   -1,591
658,641; 1273,183;   -0,900;   -0,864
659,217; 1180,190;   -0,991;    0,409
659,792; 1342,833;    0,645;   -0,409
660,368; 1145,021;   -2,173;   -0,682
660,944; 1169,937;   -2,082;    1,227
661,519; 1057,307;   -0,628;    0,409
662,095;  762,859;   -1,719;    0,591
662,670;  609,956;    1,281;   -0,136
663,246;  516,872;    1,009;   -0,409
663,821;  691,606;    0,281;    1,682
664,396;  636,794;    0,009;    1,864
664,972;  548,983;    0,009;   -0,500
665,547;  608,807;    1,372;    0,136
666,122;  581,905;   -1,082;    0,318
666,698;  778,639;   -0,173;    0,318
667,273;  550,372;   -0,173;    0,136
667,848;  587,197;    2,372;    1,500
668,423;  760,204;    2,190;    2,318
668,998;  608,392;    2,827;   -0,682
669,573;  563,762;   -3,264;   -1,500
670,148;  759,223;   -1,446;   -0,682
670,723;  533,048;   -1,810;    0,318
671,298;  817,691;    2,372;    1,045
671,873;  726,698;   -0,082;   -0,136
672,448;  714,068;    0,645;    0,136
673,023;  699,074;   -1,992;   -0,227
673,597;  803,626;    0,827;    2,318
674,172;  856,269;   -0,355;    0,318
674,747;  753,730;    0,372;   -1,045
675,321;  508,646;   -0,628;    3,318
675,896;  456,107;    0,645;    1,045
676,471;  689,205;    2,645;    1,591
677,045;  607,393;   -1,264;    0,682
677,620;  708,218;    0,190;    1,136
678,194;  536,133;   -2,628;    1,136
678,769;  607,685;   -1,083;   -0,318
679,343;  669,783;   -0,628;    1,773
679,917;  792,153;   -1,446;    1,955
680,492;  640,887;    0,826;    3,227
681,066;  675,621;    3,372;    0,409
681,640;  606,445;    1,463;   -0,318
682,214;  627,997;    0,735;    0,500
682,788;  622,277;   -1,356;   -0,773
683,363;  772,192;   -1,810;    1,682
683,937;  643,199;   -1,719;   -0,318
684,511;  669,115;    0,463;   -0,591
685,085;  681,121;   -1,356;    0,318
685,659;  586,037;   -2,538;    0,864
686,232;  836,407;   -0,356;   -0,318
686,806;  707,504;   -0,901;    0,409
687,380;  588,056;   -0,174;    0,591
687,954;  524,245;   -1,174;    1,136
688,528;  854,524;   -0,719;    1,955
689,101;  674,803;   -3,992;    1,045
689,675;  573,810;   -0,356;   -0,136
690,249;  831,998;   -0,719;    0,409
690,822;  826,823;    0,280;    0,318
691,396;  702,920;   -0,265;    1,227
691,969;  620,382;    1,280;    0,136
692,543;  513,752;   -0,447;   -1,955
693,116;  496,849;   -0,265;   -1,409
693,690;  595,947;    0,099;    0,500
694,263;  533,044;   -1,083;    2,955
694,836;  902,233;    1,371;    3,591
695,410;  788,057;   -0,265;    1,773
695,983;  804,973;    0,189;    0,591
696,556;  594,707;   -0,447;   -1,045
697,129;  506,350;   -0,356;    1,409
697,703;  747,629;   -1,629;    1,955
698,276;  625,363;    1,462;   -0,773
698,849;  791,460;    1,280;    1,409
699,422;  551,012;   -1,083;    0,591
699,995;  449,837;    0,007;    0,136
700,568;  592,935;   -0,629;    3,045
701,140;  615,123;   -2,811;    1,682
701,713;  785,766;   -0,174;    2,409
702,286;  674,045;   -0,538;    0,864
702,859;  754,506;   -0,902;   -0,591
703,432;  834,422;    0,825;    0,682
704,004;  710,065;    0,462;    0,318
704,577;  592,889;   -0,629;    0,136
705,150;  643,442;    0,189;    2,500
705,722;  695,448;   -0,356;   -3,227
706,295;  771,091;   -0,175;   -0,591
706,867;  640,279;   -0,175;    1,955
707,440;  729,922;   -1,720;   -0,409
708,012;  811,929;    0,462;    0,591
708,584;  726,390;    2,462;    0,227
709,157;  495,578;    1,825;   -0,591
709,729;  736,221;    2,280;    2,045
710,301;  580,682;    0,734;    0,045
710,874;  593,598;   -1,447;   -0,227
711,446;  487,786;    0,371;    0,864
712,018;  570,338;    0,098;    0,500
712,590;  518,618;   -1,993;    1,682
713,162;  797,170;    0,825;    1,318
713,734;  579,358;    1,825;   -2,045
714,306;  487,546;   -1,902;   -0,409
714,878;  551,008;    0,825;    0,864
715,450;  496,741;    0,643;    0,864
716,022;  515,475;    1,552;    1,318
716,593;  504,482;    0,189;    0,591
717,165;  553,943;   -3,175;   -1,227
717,737;  818,495;    0,280;    0,409
718,309;  596,410;    0,280;   -0,045
718,880;  512,235;   -0,539;   -1,409
719,452;  584,878;   -0,175;   -1,591
720,024;  688,339;    0,734;   -0,591
720,595;  581,164;   -2,902;    0,955
721,167;  571,989;    0,370;   -2,045
721,738;  700,813;   -0,812;   -1,045
722,309;  850,911;   -0,993;   -1,227
722,881;  573,099;   -1,357;    0,773
723,452;  647,470;   -2,630;    2,864
724,023;  664,931;   -0,721;    2,682
724,595;  731,574;    0,007;    0,682
725,166;  593,307;    0,007;   -0,409
725,737;  797,132;    1,734;    0,227
726,308;  574,230;   -0,266;    0,318
726,879;  488,600;   -1,630;    1,227
727,450;  670,515;    0,552;   -0,045
728,021;  595,431;    3,097;    0,682
728,592;  767,256;    0,734;    0,500
729,163;  857,171;    0,643;   -0,136
729,734;  833,360;    0,188;   -0,227
730,305;  686,548;    1,734;    0,136
730,876;  648,009;    0,188;    2,955
731,447;  980,652;    2,188;    2,682
732,017;  871,295;    1,097;    1,864
732,588;  659,938;    0,734;    1,227
733,159;  932,763;    0,643;   -1,045
733,729;  663,588;    0,006;    0,409
734,300;  823,958;    0,915;    0,864
734,870;  632,782;    3,461;    0,591
735,441;  616,789;    0,370;   -0,591
736,011;  606,977;    0,643;   -1,591
736,582;  611,348;   -0,812;    0,045
737,152;  750,991;   -1,721;   -2,045
737,722;  717,179;   -0,267;   -0,682
738,293;  559,822;   -1,358;    1,318
738,863;  748,010;    2,461;    2,318
739,433; 1018,744;    5,279;    0,318
740,003;  718,296;   -0,994;   -0,682
740,573;  851,212;    2,097;   -1,591
741,143;  721,036;   -1,085;    0,318
741,713;  616,407;    1,188;   -0,500
742,283;  688,686;    0,915;    1,591
742,853;  623,692;    1,915;    1,591
743,423;  451,699;    1,733;    0,045
743,993;  569,706;   -0,358;    1,500
744,563;  625,894;    0,097;   -0,864
745,133;  653,991;   -0,812;   -0,864
745,702;  521,907;   -0,267;    1,773
746,272;  745,459;   -0,176;    0,591
746,842;  767,466;   -1,358;   -0,591
747,411;  544,472;   -0,267;   -0,318
747,981;  440,933;    0,097;    0,500
748,551;  438,031;    2,278;   -1,045
749,120;  641,401;    0,642;   -0,227
749,690;  595,408;   -0,631;    2,409
750,259;  700,050;    1,369;    2,955
750,828;  764,875;    1,551;   -1,955
751,398;  529,064;    1,278;   -0,045
751,967; 1009,888;    2,187;    0,409
752,536;  657,804;   -0,813;   -0,227
753,105;  766,629;    0,096;    0,227
753,675;  600,817;    0,096;    1,773
754,244;  608,824;   -0,904;    3,591
754,813;  649,557;    0,551;    1,227
755,382;  611,564;    0,460;    0,955
755,951;  744,025;    1,551;    3,682
756,520;  858,123;   -0,085;    1,864
757,089;  967,675;    0,278;    0,500
757,658;  690,317;    1,733;    1,227
758,227;  519,960;    1,096;    0,318
758,795;  577,422;    1,187;    1,136
759,364;  588,155;   -0,086;   -0,591
759,933;  530,253;   -1,176;   -0,045
760,501;  459,078;    0,733;   -1,318
761,070;  630,811;   -2,813;   -1,409
761,639;  582,363;   -1,904;    1,318
762,207;  722,915;    1,551;   -0,955
762,776;  759,558;    0,369;    0,864
763,344;  612,201;   -0,995;    0,591
763,913;  421,571;   -0,722;    1,409
764,481;  956,760;    1,005;   -0,136
765,049;  952,494;   -1,358;    1,409
765,618;  868,591;   -0,086;    0,318
766,186;  671,325;    0,278;    0,136
766,754;  720,059;    0,005;    1,864
767,322;  603,247;   -1,995;    0,409
767,890;  550,890;   -0,722;   -1,773
768,459;  549,988;   -2,177;   -0,318
769,027;  777,449;    1,641;    3,409
769,595;  594,364;    3,278;    2,591
770,163;  693,916;    3,823;    2,955
770,730;  670,014;    0,732;   -0,136
771,298;  650,202;    0,187;   -1,409
771,866;  563,118;   -1,541;    4,955
772,434;  597,579;   -0,631;   -1,864
773,002;  812,313;    0,005;    0,682
773,569;  683,047;    0,914;    1,682
774,137;  806,144;   -0,268;   -0,045
774,705;  583,969;    0,278;   -0,136
775,272;  561,975;    0,641;    0,682
775,840;  580,709;   -0,177;    2,682
776,407;  698,352;    0,277;    1,955
776,975;  575,631;   -0,632;    0,318
777,542;  511,729;   -1,086;   -0,045
778,110;  543,372;   -1,268;   -0,045
778,677;  422,196;   -2,359;   -0,864
779,244;  510,930;    2,186;    1,045
779,812;  663,300;    1,823;    0,864
780,379;  751,489;    0,005;    1,136
780,946;  610,405;    1,005;   -0,773
781,513;  519,502;   -1,450;    0,318
782,080;  494,418;   -0,086;    2,864
782,647;  520,788;   -0,268;    3,045
783,214;  500,249;   -0,177;    3,864
783,781;  715,437;   -0,723;   -0,682
784,348;  649,535;   -0,632;    1,500
784,915;  436,996;   -3,177;    0,318
785,482;  677,184;    1,368;    2,591
786,049;  587,827;    0,186;   -0,591
786,615;  464,379;    0,277;   -0,955
787,182;  430,113;    0,186;   -0,682
787,749;  407,756;   -2,814;    1,409
788,315;  645,490;   -1,632;   -0,409
788,882;  517,678;    1,550;   -1,227
789,448;  819,685;    1,732;   -0,955
790,015;  578,237;    1,095;    3,227
790,581;  771,971;    1,459;    0,227
791,148;  585,523;    0,641;    1,045
791,714;  470,893;   -0,541;    3,136
792,280;  477,172;    0,186;    1,591
792,847;  420,997;    0,550;    2,500
793,413;  509,003;   -0,269;   -0,318
793,979;  733,283;    3,459;   -1,318
794,545; 1007,653;    4,459;    2,682
795,111;  883,750;    2,186;    1,318
795,678;  737,848;    0,731;   -1,682
796,244;  894,400;    3,368;    0,136
796,810;  747,861;    1,731;    0,773
797,375;  737,231;    0,549;   -2,136
797,941;  415,419;   -0,541;    0,591
798,507;  431,335;   -0,451;   -0,955
799,073;  468,069;   -0,360;    0,591
799,639;  465,530;   -2,632;    3,136
800,205;  426,355;    0,095;    2,682
800,770;  460,634;    0,640;    1,773
801,336;  477,277;    1,368;   -0,955
801,901; 1069,647;    4,549;    3,136
802,467;  714,290;   -0,542;    2,045
803,033;  505,206;   -0,087;    0,864
803,598;  495,667;    1,913;   -1,045
804,163;  497,946;    1,095;   -0,318
804,729;  604,589;   -0,178;    1,136
805,294;  498,414;    0,822;    2,227
805,859;  442,784;    0,731;   -0,409
806,425;  835,972;    1,186;    2,682
806,990;  810,070;    2,186;    4,318
807,555;  557,258;   -1,451;    2,591
808,120;  712,083;    0,822;   -0,409
808,685;  502,180;    0,185;   -2,500
809,250;  414,096;    0,004;   -0,500
809,815;  399,284;    1,913;    0,682
810,380;  523,927;   -0,269;    1,591
810,945;  714,843;   -1,087;    2,045
811,510;  539,940;    2,094;    1,591
812,075;  602,583;   -0,633;   -1,409
812,640;  840,863;    2,003;    1,409
813,204;  590,415;    0,822;   -0,227
813,769;  719,058;    2,094;   -0,045
814,334;  723,700;    0,458;    0,864
814,898;  446,525;    0,367;    0,591
815,463;  556,895;    1,276;   -0,773
816,027;  497,447;   -0,724;   -2,318
816,592;  412,090;    0,640;   -2,045
817,156;  603,279;    2,094;    1,136
817,721;  720,558;    4,276;    2,318
818,285;  446,474;    2,912;    1,500
818,849;  513,026;   -1,451;    1,682
819,414;  438,941;   -0,269;    2,955
819,978;  387,857;   -1,269;    1,773
820,542;  673,591;    2,003;    0,500
821,106;  505,779;   -0,815;    0,682
821,670;  720,786;   -0,815;    2,591
822,234;  496,520;   -0,270;    1,409
822,798;  388,708;    0,003;    0,500
823,362;  631,260;   -0,633;    4,227
823,926;  489,176;    0,094;    1,136
824,490;  672,637;   -0,997;   -0,682
825,054;  539,461;   -0,088;   -1,136
825,618;  432,104;   -1,542;   -1,500
826,181;  500,293;    0,458;   -1,318
826,745;  611,481;    1,367;   -1,045
827,309;  816,488;    1,185;    1,318
827,872;  687,767;    1,367;    0,955
828,436;  570,410;    1,185;   -0,773
828,999;  460,780;   -0,997;    1,227
829,563;  445,241;   -0,179;    1,136
830,126;  421,430;   -0,179;   -0,591
830,690;  536,891;   -1,997;    2,864
831,253;  451,443;   -0,543;    2,227
831,816;  501,540;   -1,906;    0,500
832,380;  460,547;    0,185;    0,864
832,943;  432,462;   -1,361;   -0,500
833,506;  442,105;    2,639;   -1,227
834,069;  588,566;    3,912;   -0,955
834,632;  430,027;    1,730;    1,318
835,195;  480,307;    1,003;    0,955
835,758;  415,131;   -0,997;    1,955
836,321;  437,865;    0,730;   -1,045
836,884;  404,054;   -0,725;   -0,955
837,447;  352,697;   -2,816;    1,773
838,010;  532,612;    0,366;    3,227
838,573;  524,982;   -1,179;    0,773
839,135;  386,898;   -1,361;   -0,955
839,698;  472,359;    1,275;    0,409
840,261;  415,275;    1,003;   -0,227
840,823;  372,463;   -0,543;    0,864
841,386;  353,561;   -0,452;   -2,409
841,948;  656,749;   -1,361;    1,773
842,511;  446,665;    0,912;    1,682
843,073;  641,580;    1,912;    0,227
843,636;  396,405;   -0,361;   -0,227
844,198;  612,048;    0,911;    0,591
844,760;  567,327;    1,093;    1,955
845,322;  373,425;    0,548;    1,136
845,885;  520,068;    0,730;    0,591
846,447;  452,983;   -1,998;    0,227
847,009;  788,081;    1,911;   -0,682
847,571;  494,724;    0,820;   -2,045
848,133;  446,458;   -1,089;   -1,864
848,695;  311,373;   -0,543;    1,409
849,257;  392,925;   -1,089;   -1,682
849,819;  538,841;   -0,998;   -0,409
850,381;  408,938;   -0,725;   -0,864
850,942;  475,763;    1,093;   -0,591
851,504;  559,770;    1,184;    0,227
852,066;  412,594;    1,275;   -1,591
852,628;  442,965;   -0,180;    1,955
853,189;  343,153;    1,638;    2,682
853,751;  349,432;   -0,907;    1,409
854,312;  513,439;   -0,453;   -1,682
854,874;  645,627;   -2,089;   -0,773
855,435;  453,452;   -0,907;   -1,682
855,997;  483,458;   -1,816;   -0,136
856,558;  612,647;    0,366;    1,773
857,119;  518,653;    0,820;    2,864
857,681;  355,296;    0,002;    0,318
858,242;  631,848;    1,911;   -2,136
858,803;  583,491;    0,456;   -0,773
859,364;  447,770;    0,184;   -4,773
859,925;  539,232;   -2,453;   -0,955
860,486;  406,056;   -0,453;   -0,955
861,047;  359,245;   -0,544;   -1,227
861,608;  407,069;   -1,089;   -0,773
862,169;  271,803;    0,638;   -0,045
862,730;  405,264;    0,456;    1,409
863,291;  447,453;   -0,635;   -0,500
863,852;  425,277;   -0,635;    1,955
864,412;  426,011;   -0,271;   -0,864
864,973;  667,382;   -0,089;    0,500
865,534;  766,479;   -1,726;    0,227
866,094;  548,940;    1,820;    0,227
866,655;  687,492;    1,274;    3,318
867,215;  504,226;    0,274;    0,136
867,776;  348,323;    0,547;   -0,136
868,336;  447,966;   -1,453;    0,136
868,897;  817,791;    2,638;    1,682
869,457;  606,616;    1,365;    0,318
870,017;  391,895;    0,547;   -1,227
870,578;  383,174;   -0,817;    0,773
871,138;  473,817;   -2,089;   -0,955
871,698;  391,915;   -0,817;   -1,318
872,258;  513,558;   -0,453;   -2,864
872,818;  655,291;    2,729;    0,045
873,378;  469,389;    0,638;    1,045
873,938;  451,214;    0,547;    0,500
874,498;  355,766;    0,274;   -1,955
875,058;  474,954;    2,183;    1,773
875,618;  462,961;    1,910;   -2,682
876,177;  507,694;    1,274;    0,136
876,737;  339,883;   -0,090;    1,955
877,297;  691,798;    0,183;    1,955
877,856;  622,078;   -0,362;    0,318
878,416;  398,266;    1,183;   -0,136
878,976;  358,364;   -1,817;    0,409
879,535;  397,370;    0,092;    3,136
880,095;  384,104;   -0,544;    0,045
880,654;  335,656;   -1,090;    1,318
881,213;  624,572;    2,456;    1,500
881,773;  475,305;    2,637;    2,682
882,332;  935,221;    3,365;    5,136
882,891;  453,228;    3,092;    2,136
883,451;  437,962;   -1,272;    1,682
884,010;  405,695;   -2,908;   -0,409
884,569;  342,338;   -0,999;   -0,045
885,128;  517,527;    2,819;   -1,864
885,687;  756,897;    4,455;    0,682
886,246;  921,903;    1,455;    2,136
886,805;  726,910;    2,455;    2,045
887,364;  388,007;   -0,999;   -0,500
887,922;  323,741;   -1,181;    0,045
888,481;  524,475;   -1,545;    0,591
889,040;  585,754;    1,183;    2,136
889,599;  468,034;    2,455;    1,409
890,157;  463,131;    1,455;    2,409
890,716;  401,501;   -0,090;    0,227
891,274;  523,690;    0,092;   -1,136
891,833;  578,151;    1,546;    0,864
892,391;  473,703;   -0,454;    0,500
892,950;  552,073;    1,819;   -0,773
893,508;  367,170;    0,455;   -0,409
894,067;  299,904;    0,637;    0,136
894,625;  403,547;   -0,636;   -1,500
895,183;  363,008;   -0,363;   -0,682
895,741;  624,469;    1,728;   -1,773
896,299;  433,931;   -0,545;   -2,409
896,858;  376,937;    0,819;   -1,591
897,416;  505,489;    2,728;   -1,318
897,974;  426,768;    1,819;    0,318
898,532;  850,775;    6,091;    2,682
899,089;  573,872;    2,091;   -0,682
899,647;  471,334;   -1,454;    1,318
900,205;  469,795;    1,182;    1,045
900,763;  455,710;   -0,454;    0,227
901,321;  411,626;    2,364;   -1,409
901,878;  256,814;   -1,000;   -0,773
902,436;  340,912;   -1,363;    1,318
902,994; 1004,464;    4,728;    3,682
903,551;  583,834;    0,728;    0,409
904,109;  450,386;    0,182;   -1,409
904,666;  412,483;    2,455;    1,045
905,224;  311,217;    0,182;   -0,409
905,781;  478,769;    0,727;   -0,318
906,338;  417,321;   -1,363;    1,045
906,895;  313,691;    0,637;    2,045
907,453;  565,243;    1,727;    1,136
908,010;  425,341;   -0,909;    0,409
908,567;  422,438;    1,273;    0,591
909,124;  278,809;    0,364;   -1,500
909,681;  338,997;   -2,909;    0,682
910,238;  368,458;    0,636;   -1,318
910,795;  276,101;   -0,273;   -1,136
911,352;  295,646;   -2,909;   -2,682
911,909;  341,556;   -1,364;   -0,864
912,466;  337,283;   -3,182;    1,500
913,022;  440,283;   -1,636;    0,500
913,579;  513,283;   -0,909;    2,045
914,136;  401,737;    1,636;    0,955
914,692;  390,556;    0,091;   -1,227
915,249;  422,828;    1,455;    0,409
915,806;  482,737;    0,182;    1,955
916,362;  387,919;    1,909;    1,864
916,918;  368,737;    2,000;    1,045
917,475;  490,374;   -1,182;    0,955
918,031;  342,919;    3,364;   -0,045
918,587;  406,283;   -0,909;   -0,318
919,144;  325,374;   -2,273;    0,227
919,700;  255,919;    1,727;    0,773
920,256;  266,192;    0,727;    0,045
920,812;  328,646;   -0,727;   -1,045
921,368;  290,556;   -1,727;   -1,045
921,924;  324,010;    0,182;   -0,136
922,480;  404,919;   -0,545;    1,227
923,036;  404,192;    1,273;    1,955
923,592;  309,828;    0,455;    0,318
924,148;  329,010;    0,455;   -0,955
924,704;  454,737;   -1,364;   -0,409
925,259;  288,919;   -0,273;    0,591
925,815;  293,283;    1,455;    0,500
926,371;  271,828;    2,909;    1,409
926,926;  412,101;    2,091;    0,591
927,482;  391,465;   -1,364;    0,773
928,037;  326,646;    0,909;    2,045
928,593;  487,556;    1,636;    1,045
929,148;  289,283;   -1,818;   -1,500
929,704;  355,374;   -1,455;   -0,500
930,259;  292,374;    0,091;   -0,136
930,814;  458,283;   -0,818;    1,955
931,369;  397,283;    1,091;   -0,773
931,925;  251,374;   -0,091;    0,136
932,480;  342,737;   -2,818;   -2,591
933,035;  626,192;    0,545;   -0,318
933,590;  538,465;    0,364;   -1,773
934,145;  253,010;   -1,364;   -0,318
934,700;  177,101;    0,455;   -0,591
935,255;  233,919;   -0,091;    0,045
935,809;  511,283;    3,182;    0,864
936,364;  240,010;   -0,455;   -0,136
936,919;  229,919;    0,455;   -1,773
937,474;  173,828;    1,455;    0,136
938,028;  178,556;   -1,636;    1,136
938,583;  511,010;    1,818;    4,682
939,138;  257,465;    2,091;    2,136
939,692;  160,283;    1,636;   -1,136
940,247;  202,919;   -0,727;   -1,045
940,801;  227,192;   -0,636;    0,227
941,355;  164,465;   -0,364;    2,591
941,910;  119,283;   -0,273;   -2,136
942,464;  140,283;   -0,818;   -0,318
943,018;  308,101;    1,000;   -0,227
943,572;  190,646;    2,545;   -0,682
944,126;  255,737;    0,091;   -0,409
944,681;  166,374;    3,091;    0,227
945,235;  125,828;    1,000;   -0,591
945,789;  106,919;    0,364;   -1,864
946,342;  290,283;    0,455;   -0,591
946,896;  146,010;   -2,273;    0,955
947,450;  119,556;    1,545;   -0,227
948,004;  283,556;    1,727;   -0,045
948,558;  170,192;    0,273;   -0,864
949,111;  166,192;   -0,273;   -0,318
949,665;  276,646;    1,636;   -0,682
950,219;  256,101;   -0,091;   -1,045
950,772;  199,646;   -1,909;    1,864
951,326;  191,465;    0,545;   -0,955
951,879;  161,465;    0,727;   -2,318
952,433;  251,465;    0,000;    2,227
952,986;  145,465;    2,909;    0,682
953,539;  122,646;   -0,273;    0,591
954,093;   97,010;    0,545;   -1,318
954,646;  166,192;    0,909;    1,318
955,199;  118,010;    0,000;   -0,500
955,752;  276,010;   -0,455;    1,773
956,305;  169,737;   -0,091;    2,955
956,858;  193,101;    0,818;   -0,318
957,411;  231,465;   -0,545;    2,136
957,964;  191,646;    1,364;    2,136
958,517;  133,646;   -1,545;    3,136
959,070;   99,374;   -0,455;    1,955
959,623;  278,737;    1,091;    1,500
960,176;  243,192;    1,727;    2,045
960,728;  210,737;   -2,727;    0,773
961,281;  168,919;    0,545;    0,500
961,834;  126,919;   -0,909;    0,864
962,386;  134,556;    1,727;    1,045
962,939;  119,646;    0,364;   -0,318
963,491;  151,374;    0,455;    1,136
964,043;  106,101;    1,182;    2,409
964,596;  218,010;   -1,000;    2,227
965,148;  158,646;   -1,000;    1,773
965,700;  108,101;    1,091;   -0,227
966,253;  214,101;   -0,636;    0,318
966,805;  181,465;   -2,273;    0,773
967,357;  140,010;    1,091;   -1,500
967,909;  206,919;    0,455;   -1,227
968,461;  142,101;    0,545;    3,136
969,013;  109,828;   -0,182;   -0,864
969,565;  213,192;   -0,455;   -1,136
970,117;  356,283;   -0,364;    1,045
970,669;  216,101;    0,182;   -0,136
971,220;   95,010;   -0,455;   -1,500
971,772;  143,010;   -0,636;   -0,318
972,324;  198,737;    0,091;   -0,500
972,876;  132,101;    0,818;   -0,045
973,427;  201,919;    1,909;   -1,045
973,979;  251,828;   -0,727;   -2,500
974,530;  140,101;    1,818;    1,318
975,082;  177,646;   -0,545;    1,682
975,633;  142,192;    1,091;    1,682
976,184;  159,465;    0,909;    0,773
976,736;  158,919;    0,091;    0,227
977,287;  181,919;   -0,909;   -0,500
977,838;  150,737;    0,909;   -0,318
978,389;  146,283;   -1,000;   -0,500
978,940;   79,374;    0,545;   -0,409
979,491;   81,283;    0,091;   -0,500
980,042;  136,737;    0,182;    3,045
980,593;  149,646;   -2,545;    0,227
981,144;  196,101;    2,545;   -0,500
981,695;  202,737;    1,455;    1,500
982,246;  174,465;   -0,273;    1,045
982,797;  101,465;   -1,727;    0,682
983,347;  182,465;    0,364;    0,591
983,898;  309,919;    3,091;    0,409
984,449;  297,556;    2,182;    0,773
984,999;  193,556;    1,455;   -1,136
985,550;  172,556;    0,182;   -0,318
986,100;   98,101;   -0,455;   -0,318
986,651;   91,828;   -0,818;    0,045
987,201;  106,374;   -1,000;   -0,591
987,751;  112,646;    0,818;    2,864
988,302;  136,283;    2,636;    1,500
988,852;  170,646;    0,455;   -1,136
989,402;  197,556;    0,091;    0,682
989,952;  218,465;   -2,182;    0,864
990,502;  123,101;   -0,091;    0,682
991,052;   74,010;   -0,727;    0,045
991,602;  105,919;   -2,909;    1,318
992,152;  127,465;    0,455;    0,682
992,702;  153,919;    1,364;   -0,045
993,252;  115,737;   -3,000;   -0,500
993,802;  170,828;   -0,273;    1,318
994,352;  136,192;   -1,545;    1,136
994,901;   88,556;   -0,182;    3,227
995,451;   85,374;   -0,182;    0,318
996,000;  104,283;    1,636;    0,318
996,550;  111,283;    2,273;    0,227
997,100;  133,010;    1,273;   -0,045
997,649;  212,374;    2,182;    0,955
998,198;  111,828;    1,727;   -1,500
998,748;  164,556;    1,091;   -2,318
999,297;  136,010;   -0,818;   -0,409
999,846;  210,101;    1,000;   -0,773
1000,395;  152,010;   -0,818;    0,500
1000,945;  214,374;    1,818;   -0,773
1001,494;  212,192;    2,364;    0,682
1002,043;  218,010;    4,636;    0,864
1002,592;  112,283;   -1,091;    1,955
1003,141;  102,646;   -0,455;   -0,682
1003,690;  206,010;    1,727;    0,500
1004,238;  137,556;    1,455;   -0,045
1004,787;   90,010;    1,364;    1,227
1005,336;  181,192;    0,364;    0,682
1005,885;  150,192;    1,364;   -2,773
1006,433;  149,101;    0,545;    0,955
1006,982;  245,465;    0,455;    1,682
1007,531;  159,737;   -1,818;   -0,227
1008,079;  148,010;   -2,273;    0,500
1008,627;  112,556;   -1,455;    0,409
1009,176;  131,556;    0,000;   -1,955
1009,724;   98,737;    1,091;    0,864
1010,273;  182,010;    1,273;    0,500
1010,821;  110,828;    0,091;    1,409
1011,369;   94,010;   -1,364;    1,318
1011,917;   99,283;   -1,364;   -0,591
1012,465;  144,010;    1,273;   -1,591
1013,013;  134,646;    2,091;   -1,682
1013,561;  200,919;    0,455;   -0,773
1014,109;  255,556;   -1,909;    1,682
1014,657;  178,465;    0,364;    0,591
1015,205;  119,919;    1,636;   -0,955
1015,753;   93,828;   -0,545;   -1,409
1016,301;  132,101;   -2,636;    3,045
1016,848;  179,465;   -1,273;    0,409
1017,396;  168,646;    2,545;    0,045
1017,944;  160,556;    1,182;    1,864
1018,491;  122,465;    0,273;    1,409
1019,039;  293,374;    0,455;    0,591
1019,586;  159,101;   -1,364;    1,682
1020,134;  144,828;    0,455;    1,500
1020,681;  196,101;    0,182;   -1,136
1021,228;  148,556;    2,909;   -2,227
1021,776;  123,919;    1,182;   -1,136
1022,323;  262,101;    0,455;    0,773
1022,870;  193,010;   -1,000;   -0,045
1023,417;  228,465;    2,636;    1,864
1023,964;  141,646;    2,636;    1,227
1024,511;  115,556;    1,000;    0,773
1025,058;  147,192;    3,182;   -0,045
1025,605;  119,101;   -2,273;    3,136
1026,152;  242,010;    1,727;   -0,591
1026,699;  155,828;    1,818;    1,318
1027,245;  140,919;   -0,091;    0,318
1027,792;  104,919;   -1,000;    1,409
1028,339;  244,465;    2,364;   -0,045
1028,885;  153,646;    1,000;   -0,227
1029,432;  128,283;   -0,091;    0,227
1029,978;  179,374;   -1,000;   -1,591
1030,525;  193,101;    1,000;    0,409
1031,071;  118,737;   -1,364;    1,136
1031,618;  275,828;    0,364;    1,682
1032,164;  184,283;   -0,091;    3,045
1032,710;  207,010;    1,636;   -1,500
1033,256;  183,556;   -0,636;   -0,136
1033,803;  101,737;   -0,545;    1,500
1034,349;   39,556;   -1,364;    0,136
1034,895;   64,010;    0,000;   -0,318
1035,441;  105,101;   -0,818;    0,318
1035,987;  126,919;   -2,364;   -0,682
1036,533;  163,465;   -1,455;   -0,955
1037,078;  296,465;    1,455;    1,682
1037,624;  207,374;    2,455;   -0,955
1038,170;  121,919;    0,455;   -0,318
1038,716;  167,556;    1,636;   -0,409
1039,261;  100,556;   -2,273;   -0,773
1039,807;  112,737;   -0,091;    3,409
1040,352;  119,010;   -1,909;   -0,318
1040,898;  115,374;   -1,545;   -0,682
1041,443;   84,010;   -1,455;   -2,591
1041,989;  270,192;    1,091;    1,591
1042,534;  150,465;   -0,364;    2,591
1043,079;   80,101;    2,909;    0,955
1043,625;  137,465;    1,818;    0,500
1044,170;  140,919;   -1,364;    1,045
1044,715;  258,010;    2,455;    0,955
1045,260;  196,646;    2,182;   -0,955
1045,805;  111,919;    1,182;   -0,591
1046,350;   93,101;    1,364;   -0,409
1046,895;  207,919;    2,909;    1,591
1047,440;  190,283;    5,364;    0,409
1047,985;  121,828;    2,818;   -0,955
1048,530;  105,646;    1,545;    1,227
1049,074;  131,374;    0,000;    0,318
1049,619;  100,465;   -1,364;    1,955
1050,164;   97,465;    0,455;    0,227
1050,708;  157,919;   -0,455;    0,045
1051,253;  296,101;    1,273;   -2,227
1051,797;  172,192;    0,818;   -1,318
1052,342;   83,283;   -1,182;    1,045
1052,886;  129,374;    0,364;   -1,409
1053,430;   77,646;   -1,364;    0,136
1053,975;  135,828;   -0,818;   -0,318
1054,519;  128,101;   -0,727;    3,227
1055,063;  165,374;    0,909;    1,318
1055,607;  156,374;   -0,182;    0,227
1056,151;  155,283;    2,909;    1,682
1056,695;  109,828;    2,273;   -1,136
1057,239;  100,010;   -1,727;   -0,682
1057,783;  126,919;    0,818;   -1,500
1058,327;  173,010;    0,000;    1,409
1058,871;  256,828;   -0,545;    1,318
1059,415;  186,101;   -0,818;   -0,045
1059,958;  263,646;    1,455;    2,591
1060,502;  116,556;   -1,000;   -0,773
1061,046;   73,919;    0,364;   -0,955
1061,589;   73,192;   -3,000;   -1,136
1062,133;   62,828;   -1,273;    1,864
1062,676;   84,556;    1,182;    0,864
1063,220;  103,737;    1,091;    0,500
1063,763;  118,465;    0,909;    1,136
1064,306;  128,646;   -0,909;    1,864
1064,849;  129,828;   -0,909;    0,591
1065,393;  112,010;    2,000;   -1,500
1065,936;  111,919;    0,182;   -0,409
1066,479;   76,828;   -1,455;    1,318
1067,022;   90,828;   -0,273;   -0,227
1067,565;   79,010;   -0,091;   -1,318
1068,108;   67,919;    0,727;   -0,591
1068,651;   56,465;   -0,636;    1,409
1069,194;   61,919;   -0,455;   -1,682
1069,736;   67,374;   -1,273;    0,955
1070,279;   57,010;   -1,364;   -0,500
1070,822;  100,101;   -2,000;   -0,318
1071,364;  173,010;   -0,364;    1,318
1071,907;   97,828;   -0,727;    3,227
1072,450;   31,283;    0,000;   -0,045
1072,992;   66,010;   -0,273;    3,136
1073,535;   94,465;    2,091;    2,136
1074,077;   59,283;   -0,727;    2,045
1074,619;   49,919;   -1,364;    0,591
1075,161;   76,646;   -1,091;    1,500
1075,704;  143,556;    1,545;    1,227
1076,246;   75,283;   -0,182;    0,682
1076,788;   41,374;   -0,364;    1,773
1077,330;   40,192;    1,273;    2,136
1077,872;   65,192;    0,909;    0,955
1078,414;  156,010;    2,727;    0,773
1078,956;   81,465;    1,273;   -0,227
1079,498;  148,556;    1,636;    0,318
1080,040;   80,919;    1,909;   -1,318
1080,581;   60,101;    1,636;   -0,318
1081,123;   33,919;    0,091;   -0,773
1081,665;   35,737;   -1,182;   -0,955
1082,206;  131,465;    1,364;   -0,500
1082,748;   83,737;    0,727;    2,045
1083,289;   48,646;   -2,000;    1,318
1083,831;   41,465;   -0,545;    0,227
1084,372;   60,737;    0,000;    0,591
1084,913;   59,465;    1,091;    0,864
1085,455;   43,556;   -1,909;   -2,045
1085,996;   33,192;   -2,273;    0,136
1086,537;   40,646;   -0,091;    0,864
1087,078;   52,010;   -0,909;   -2,136
1087,619;   80,101;   -1,273;    0,227
1088,160;   67,737;    0,000;    1,318
1088,701;   58,919;   -1,091;    0,682
1089,242;   48,556;    1,364;   -2,227
1089,783;   68,919;   -0,273;    1,409
1090,324;   56,646;    0,455;    0,682
1090,865;   37,919;    2,727;   -0,409
1091,405;   28,465;    0,727;    2,227
1091,946;   51,101;    0,182;   -0,955
1092,487;   26,737;    0,818;   -1,409
1093,027;   78,465;   -1,364;   -1,500
1093,568;   45,010;   -0,364;    1,227
1094,108;   60,010;    0,273;    1,773
1094,649;   45,283;   -1,182;    0,136
1095,189;   34,828;   -0,636;   -0,682
1095,729;   34,556;   -0,091;    0,955
1096,269;   28,192;    0,727;   -0,955
1096,810;   99,737;   -1,364;    0,500
1097,350;   68,646;    1,364;   -0,773
1097,890;   46,737;    0,364;    1,227
1098,430;  136,465;    2,364;    2,864
1098,970;   98,101;    2,182;    1,682
1099,510;   41,737;    0,545;   -2,318
1100,050;   35,192;    1,000;   -1,591
1100,589;   40,919;   -0,727;   -0,318
1101,129;   62,465;    0,818;   -0,955
1101,669;   97,283;    1,727;    2,136
1102,209;   62,374;   -0,091;    2,227
1102,748;   45,828;    0,000;    0,955
1103,288;   52,556;    1,273;   -1,227
1103,827;   45,283;    3,091;   -2,227
1104,367;   31,465;   -0,091;   -2,409
1104,906;   33,465;    1,364;   -1,136
1105,445;   54,283;    0,636;   -1,136
1105,985;   40,374;   -0,727;    1,500
1106,524;   45,828;   -1,727;   -0,682
1107,063;   42,919;   -2,727;    1,409
1107,602;   31,374;   -1,909;   -1,500
1108,141;   24,646;   -1,909;    1,500
1108,680;   53,465;   -3,455;   -0,591
1109,219;   41,465;   -0,909;   -0,500
1109,758;   35,919;    0,455;    0,682
1110,297;   34,646;    1,000;   -0,682
1110,836;   22,919;   -0,727;    0,955
1111,375;   27,737;   -2,545;    0,409
1111,913;   55,919;   -1,000;    0,773
1112,452;   42,010;   -0,273;    0,136
1112,991;   22,192;    1,091;    1,955
1113,529;   22,010;   -0,818;   -0,045
1114,068;   34,646;   -0,273;    2,955
1114,606;   19,737;   -0,364;   -0,955
1115,144;   50,828;   -1,273;    1,045
1115,683;   36,556;   -0,727;    0,318
1116,221;   50,556;   -0,455;   -0,864
1116,759;   30,374;    0,636;   -0,864
1117,297;   61,646;    0,000;    1,864
1117,836;   31,192;   -2,182;   -1,227
1118,374;   29,465;    0,182;   -0,682
1118,912;   32,919;    0,909;    2,682
1119,450;   32,192;    1,000;    0,864
1119,988;   30,283;    1,545;    2,136
1120,525;  171,646;    5,091;    3,318
1121,063;   82,737;    1,182;    1,864
1121,601;   31,737;   -0,909;   -1,227
1122,139;   20,556;   -0,727;   -2,045
1122,676;   70,283;   -0,727;    2,773
1123,214;   60,374;   -1,182;    4,409
1123,751;   23,737;    1,727;    2,227
1124,289;   37,828;   -0,091;   -0,409
1124,826;   26,101;    1,727;    0,227
1125,364;   13,283;    1,727;   -0,955
1125,901;   64,737;    1,182;    1,227
1126,438;   53,646;    0,818;    0,955
1126,975;   12,828;   -0,727;   -0,773
1127,513;   19,101;    0,273;    2,136
1128,050;   13,283;    1,636;   -0,682
1128,587;   29,374;    2,000;   -0,227
1129,124;   40,192;    0,091;    1,318
1129,661;   16,101;    0,273;    0,227
1130,198;   50,465;    1,636;    0,773
1130,734;   31,010;    0,182;    1,409
1131,271;   12,646;   -0,909;    0,864
1131,808;   42,465;    2,909;    3,045
1132,345;   21,101;    1,545;    0,318
1132,881;    4,010;   -1,545;   -1,864
1133,418;   24,919;    0,727;   -1,136
1133,954;   15,556;    2,455;   -2,682
1134,491;   29,737;    1,364;   -0,773
1135,027;   17,465;    2,364;    0,864
1135,564;   25,828;    0,273;    2,955
1136,100;   21,646;    0,364;    2,136
1136,636;    8,010;   -1,273;   -1,045
1137,172;   16,737;    0,000;   -1,045
1137,708;   11,192;   -1,364;   -1,045
1138,245;   13,101;    1,273;   -1,227
1138,781;   11,919;    1,091;   -3,318
1139,317;   12,010;    1,273;   -1,409
1139,852;   18,919;    3,091;    0,136
1140,388;   25,828;   -1,182;   -0,409
1140,924;   12,737;   -1,091;   -2,227
1141,460;    6,646;   -1,636;    0,136
1141,996;    2,556;   -1,364;    2,682
1142,531;    5,646;    1,364;    3,318
1143,067;   36,465;    1,182;    1,045
1143,602;   49,010;   -0,091;   -0,318
1144,138;   22,283;   -2,636;    1,045
1144,673;    8,010;   -1,455;    1,409
1145,209;   10,192;   -1,909;   -0,318
1145,744;    3,737;   -0,727;    0,864
1146,279;   18,465;    1,818;   -0,136
1146,815;   14,828;    1,545;   -2,682
1147,350;   21,828;   -1,364;    0,045
1147,885;    9,101;   -0,818;   -1,318
1148,420;    4,828;   -2,273;    0,773
1148,955;    5,374;   -1,727;    1,864
1149,490;    8,465;   -0,909;   -1,591
1150,025;    3,737;    0,455;   -1,773
1150,560;   19,101;    1,091;   -0,955
1151,094;   14,737;    1,455;   -0,591
1151,629;   15,737;    1,636;    0,864
1152,164;    9,919;    1,364;    1,318
1152,698;    6,374;   -0,182;   -0,136
1153,233;    2,465;    0,091;   -0,682
1153,767;    5,737;   -3,000;   -2,318
1154,302;   13,556;   -1,455;    1,773
1154,836;   12,192;   -0,455;   -2,136
1155,371;   15,101;   -1,364;    3,682
1155,905;    7,646;   -0,636;    1,682
1156,439;   10,828;   -0,636;   -0,500
1156,973;   13,465;    0,364;    0,318
1157,507;    6,646;   -0,364;    0,682
1158,042;    9,101;   -0,727;    1,045
1158,576;   13,374;    0,182;    1,773
1159,110;   12,192;   -0,818;    2,409
1159,643;   10,192;    0,636;   -0,045
1160,177;    3,737;   -1,545;    1,500

