
Integration time [ms]:   0,040
Averaging Nr. [scans]: 11
Smoothing Nr. [pixels]: 0
Data measured with spectrometer [name]: 7318044SP
Wave   ;Sample   ;Dark     ;Reference
[nm]   ;[counts] ;[counts] ;[counts] 

186,757;   30,929;   31,551;    1,318
187,357;   26,768;   22,551;    0,955
187,958;   17,595;   15,460;   -1,591
188,558;   23,015;    8,915;   -1,227
189,159;   11,957;    6,733;   -4,500
189,759;    8,408;    7,278;   -3,591
190,360;    9,566;    2,824;   -2,136
190,960;    8,629;    2,915;   -4,136
191,560;   10,006;    3,189;   -6,591
192,161;   53,831;    4,372;   -3,500
192,761;   27,867;    4,010;   -3,227
193,361;   17,818;    1,556;   -3,773
193,962;   26,019;    2,010;   -2,682
194,562;   10,698;    1,189;   -3,955
195,162;    3,580;   -2,448;   -2,227
195,762;   27,465;   -3,176;   -0,045
196,362;   17,497;    1,370;   -2,500
196,963;    4,452;    2,006;   -0,864
197,563;    9,199;    1,551;   -0,955
198,163;    2,747;    0,096;   -0,682
198,763;    8,249;    1,733;   -0,500
199,363;   16,801;    3,096;   -0,500
199,963;   10,522;    0,369;    0,409
200,563;    8,649;    2,823;   -1,409
201,163;    5,965;    3,277;   -0,227
201,763;   10,042;    3,732;    0,318
202,363;    3,974;    1,459;    1,500
202,963;   10,382;    1,459;    1,045
203,563;   20,172;    0,277;    0,500
204,162;   11,637;    2,096;   -1,864
204,762;    3,933;    0,550;    0,591
205,362;    1,705;    3,004;    1,955
205,962;    6,780;    3,096;    1,955
206,562;    3,682;    1,823;    2,318
207,161;    3,325;   -0,087;    0,318
207,761;   15,501;    1,277;    2,409
208,361;    3,279;   -0,268;    1,409
208,960;    6,489;    0,459;    1,500
209,560;    3,668;    1,277;    1,591
210,160;   10,267;    0,550;    1,864
210,759;    5,878;    4,186;    1,227
211,359;    4,071;    1,459;    1,045
211,958;   24,094;    1,277;    2,045
212,558;   23,441;    1,732;    1,864
213,157;    8,203;    1,822;    1,500
213,757;   40,360;    3,822;   -0,227
214,356;   14,228;    1,277;   -0,409
214,956;   29,877;    3,095;    0,409
215,555;    9,373;    2,095;    2,136
216,154;    5,283;   -2,723;   -0,591
216,754;    4,642;    0,277;    0,773
217,353;    3,858;   -0,268;   -1,045
217,952;   -0,936;   -0,178;    0,318
218,552;    5,340;    1,368;   -0,773
219,151;   -0,991;    0,277;    0,955
219,750;    2,061;    0,004;   -0,227
220,349;    1,989;   -0,451;    1,045
220,948;    8,662;   -1,360;    1,136
221,548;    1,142;    0,913;    1,227
222,147;    3,766;   -0,087;   -0,409
222,746;   12,200;   -0,451;   -0,955
223,345;    4,940;    0,731;    0,500
223,944;    7,071;   -0,451;    0,773
224,543;    8,491;    1,004;   -1,409
225,142;    1,810;    0,094;    0,136
225,741;    2,816;   -0,814;    1,045
226,340;    2,284;   -0,451;   -0,955
226,939;   11,124;   -0,996;   -0,136
227,538;    3,990;   -0,360;   -0,773
228,137;   13,193;   -0,814;    0,864
228,735;    8,009;   -0,541;    1,227
229,334;    1,549;   -0,905;   -0,227
229,933;   14,556;    0,459;    0,591
230,532;   10,252;    1,186;   -0,409
231,131;   20,231;    1,732;    0,318
231,729;    8,725;   -2,450;   -2,318
232,328;    6,534;   -0,723;   -1,500
232,927;    7,305;    1,004;   -0,500
233,525;    3,327;    3,640;    0,045
234,124;    7,705;    2,368;   -1,591
234,723;    3,726;    0,913;   -1,045
235,321;    1,586;    2,277;    0,136
235,920;    1,455;    1,186;   -1,227
236,518;   14,314;    3,459;    0,318
237,117;   -0,311;    0,004;   -0,227
237,715;    3,096;    0,640;   -0,500
238,314;    6,350;   -0,087;   -2,318
238,912;   10,169;   -0,723;   -1,409
239,510;    4,886;    0,459;   -1,227
240,109;   15,467;    0,004;    3,773
240,707;   12,570;   -0,996;    1,227
241,305;    3,680;    0,550;    0,136
241,904;    4,135;   -0,178;   -2,045
242,502;   19,234;   -0,632;   -0,227
243,100;    8,091;   -0,087;   -0,955
243,698;    2,407;    0,732;    1,682
244,297;    5,824;   -0,632;    0,682
244,895;    4,944;   -0,269;   -2,318
245,493;   10,425;    2,186;   -0,591
246,091;   15,504;    1,368;   -1,318
246,689;    7,774;    1,004;    0,591
247,287;    5,952;    0,822;   -1,136
247,885;    4,005;   -1,451;    1,227
248,483;    0,949;    1,822;   -0,500
249,081;    4,509;    0,185;    1,591
249,679;    6,045;   -0,178;    1,682
250,277;    4,169;   -1,723;    0,864
250,875;    8,457;   -1,087;   -1,045
251,473;    3,784;   -1,178;    0,500
252,071;    9,585;    1,459;    1,045
252,669;    5,162;   -1,814;    0,318
253,267;    1,615;   -0,087;    0,773
253,864;    3,225;   -0,360;    0,682
254,462;    7,543;    1,640;    1,591
255,060;    2,984;   -0,269;    1,318
255,658;    1,434;    0,822;   -0,136
256,255;    2,586;    0,186;   -2,045
256,853;    5,642;   -0,269;    1,409
257,451;    1,601;    0,822;    1,864
258,048;   26,224;    1,822;    1,864
258,646;   12,086;    1,731;   -1,045
259,243;   11,914;   -0,087;    2,227
259,841;    8,618;   -0,814;    0,318
260,438;    2,189;   -0,087;    0,864
261,036;    6,464;   -1,905;    1,409
261,633;    0,167;   -0,087;    2,227
262,231;   -0,209;    2,731;   -0,045
262,828;    0,355;   -0,905;    1,136
263,425;   -1,781;    0,913;   -0,591
264,023;    1,530;    0,186;    0,045
264,620;    7,535;   -0,360;   -0,318
265,217;    7,346;   -2,087;    3,136
265,815;    3,413;   -1,905;    2,136
266,412;    6,170;    0,731;    0,136
267,009;    2,962;   -1,451;    0,773
267,606;    8,177;    0,822;   -0,955
268,203;    4,476;   -0,269;   -0,591
268,801;    2,251;    1,731;    0,591
269,398;    0,469;   -0,360;    2,500
269,995;    6,628;    0,277;    1,591
270,592;    2,732;   -0,632;   -0,500
271,189;   -0,258;    0,186;    0,409
271,786;    1,677;   -0,632;    1,227
272,383;    7,833;   -1,087;    0,227
272,980;    2,603;    0,277;    0,318
273,577;    3,245;    0,004;    1,227
274,174;    1,893;    0,822;    2,591
274,771;    6,162;   -0,814;   -0,773
275,367;   35,970;    2,277;    1,409
275,964;   14,822;    0,731;   -0,500
276,561;    2,351;    1,549;   -1,045
277,158;    0,136;    0,095;   -1,773
277,755;   10,146;    2,185;    0,409
278,351;    7,538;   -0,451;   -1,500
278,948;    3,597;   -0,815;    0,045
279,545;    1,839;   -1,360;    2,318
280,141;    8,318;   -1,723;   -2,045
280,738;    9,520;   -0,451;   -0,136
281,334;    4,014;   -1,633;    0,591
281,931;   -1,536;   -0,087;   -1,318
282,528;    7,725;    0,822;   -0,500
283,124;    9,907;   -1,087;   -0,500
283,721;    5,727;   -0,451;    1,409
284,317;    3,651;    0,185;    2,500
284,913;    8,185;   -1,360;    0,591
285,510;    4,913;    0,640;   -0,318
286,106;    8,787;   -2,269;   -0,955
286,703;    4,679;   -0,360;    1,955
287,299;    2,436;   -1,451;   -0,591
287,895;    2,718;    0,822;   -1,045
288,491;    2,287;    0,186;    2,136
289,088;    5,310;   -2,360;    2,409
289,684;    5,889;   -1,723;    1,500
290,280;    7,583;    0,368;    0,682
290,876;    8,440;    1,822;    5,500
291,472;    8,046;    1,276;    2,227
292,068;    6,065;    1,367;    0,227
292,665;    3,618;    2,095;    0,773
293,261;    3,293;    0,276;    2,136
293,857;    9,668;    2,913;    2,136
294,453;    4,463;    3,550;    0,955
295,049;   15,137;   -0,268;    1,955
295,644;   10,937;    0,095;    0,136
296,240;    3,619;   -0,905;   -0,136
296,836;    4,379;   -0,995;    0,318
297,432;   12,877;    1,096;   -0,500
298,028;    9,334;    0,732;    0,773
298,624;    8,477;    1,459;    1,864
299,220;   10,998;    2,368;    0,591
299,815;    6,032;    1,005;   -0,409
300,411;   11,864;    0,914;    1,773
301,007;   17,507;    1,368;    0,227
301,602;    8,110;   -0,541;   -2,318
302,198;   26,845;    0,732;   -0,773
302,794;   15,262;    1,187;   -0,500
303,389;    7,452;   -1,177;    1,045
303,985;    7,004;    0,550;    1,409
304,580;   31,623;    1,459;    1,591
305,176;   17,681;   -3,086;    0,136
305,771;    2,615;   -1,268;   -1,227
306,367;   58,724;    4,095;    0,136
306,962;   30,383;    0,641;    1,500
307,558;   30,745;   -0,450;    0,136
308,153;   17,957;    1,095;   -1,136
308,748;    7,576;   -0,814;    1,682
309,344;   42,634;   -0,632;   -1,318
309,939;   40,247;   -1,905;   -1,318
310,534;   15,986;   -0,086;   -1,682
311,130;   12,853;    0,459;   -2,500
311,725;    6,238;    1,004;   -0,500
312,320;   12,024;    2,459;    0,045
312,915;   22,170;    1,459;   -1,045
313,510;   43,515;    1,550;   -0,500
314,105;   14,609;    1,096;    1,409
314,700;    7,448;   -3,086;   -1,045
315,295;   10,714;   -0,904;    0,045
315,890;    6,832;    1,277;    0,864
316,485;   13,698;   -0,359;   -0,318
317,080;    5,206;   -3,086;    1,591
317,675;   34,481;    2,005;   -0,682
318,270;   70,403;    5,550;    3,318
318,865;   39,128;    3,278;    3,045
319,460;   21,473;   -0,904;    0,591
320,055;    5,739;   -0,541;   -1,227
320,650;    6,180;   -1,995;   -0,591
321,244;    9,298;   -0,177;   -1,409
321,839;    7,638;   -1,541;   -0,227
322,434;    8,296;   -1,086;   -1,591
323,029;    4,963;    1,732;    1,591
323,623;    5,304;    1,550;    0,773
324,218;   24,490;    2,368;    1,409
324,812;    9,719;    1,096;    1,591
325,407;    9,564;   -0,814;    2,045
326,002;   28,659;    0,277;   -0,409
326,596;   18,622;    0,914;    1,318
327,191;    7,191;    0,823;   -1,045
327,785;    7,077;   -0,813;   -0,227
328,379;    6,920;    1,368;    0,136
328,974;    8,102;    0,914;   -3,955
329,568;   11,995;    0,186;   -2,409
330,163;   22,333;    2,096;    1,045
330,757;    8,614;    2,459;    1,591
331,351;    7,041;    0,459;    0,682
331,945;    7,350;    0,914;    1,409
332,540;   15,407;   -1,723;   -0,591
333,134;   13,710;   -1,086;    0,773
333,728;   20,497;    0,005;    0,318
334,322;   11,188;   -1,177;   -0,864
334,916;    9,920;    0,277;    0,955
335,510;   37,400;   -0,450;   -0,136
336,105;   31,646;   -1,086;    1,591
336,699;   17,869;   -1,086;    0,591
337,293;   28,095;   -1,723;    0,318
337,887;   18,661;   -2,723;    1,955
338,481;   44,496;    0,459;    0,591
339,074;   75,190;   -0,359;    2,682
339,668;   70,812;   -1,632;    1,227
340,262;  264,713;    1,732;    3,227
340,856;  117,673;    1,822;   -0,682
341,450;   37,786;    1,004;    1,864
342,044;   60,913;    1,459;    0,136
342,637;   99,103;    0,913;   -2,136
343,231;   62,148;   -2,360;    0,682
343,825;   56,594;   -1,086;   -0,591
344,419;   65,730;   -1,995;    0,500
345,012;  291,707;    2,459;    4,045
345,606;  196,690;    4,641;    1,591
346,199;   81,293;   -1,813;   -0,227
346,793;  126,915;    1,914;    2,045
347,386;   61,170;   -0,813;   -1,136
347,980;   36,157;   -0,268;   -0,045
348,573;   70,841;    2,278;    0,409
349,167;  234,247;    5,278;    4,773
349,760;  144,980;    2,914;    2,682
350,354;  131,584;   -0,813;    1,136
350,947;  156,277;    1,096;    1,682
351,540;  108,363;   -0,358;   -1,409
352,134;   58,618;    1,096;    1,136
352,727;   63,780;   -0,086;    1,136
353,320;   68,177;    0,005;    0,591
353,913;   41,376;   -1,995;    1,864
354,507;  136,116;    0,823;   -1,227
355,100;   76,555;    0,460;    0,864
355,693;  312,184;    2,005;    2,409
356,286;  171,797;    0,823;    2,773
356,879;  100,531;   -0,722;    1,227
357,472;  102,449;   -0,904;    1,500
358,065;  113,497;   -0,722;    2,500
358,658;   55,256;   -0,540;    2,318
359,251;   52,261;   -1,631;   -0,591
359,844;  132,489;   -1,904;   -1,136
360,437;  156,650;   -2,995;    0,045
361,030;   83,806;    1,369;   -0,682
361,623;   90,099;    2,824;    0,318
362,215;  202,035;   -0,086;    2,045
362,808;  109,142;   -2,358;   -1,682
363,401;   76,258;   -2,449;    0,136
363,994;  186,506;   -0,631;   -1,500
364,586;   94,703;    0,824;   -1,500
365,179;   72,111;   -0,449;   -1,136
365,772;   21,836;   -1,995;    2,045
366,364;   79,047;    1,915;   -3,227
366,957;   91,016;    2,279;   -0,045
367,549;   67,076;    2,188;   -0,864
368,142;   79,737;    1,825;   -1,500
368,734;   60,879;    0,734;   -2,136
369,327;   41,374;    1,643;   -0,500
369,919;   53,194;   -1,538;    0,409
370,512;   61,705;   -1,083;   -0,500
371,104;  192,567;   -0,901;    1,591
371,696;  187,479;    1,191;   -0,955
372,289;  109,311;    0,373;    1,136
372,881;   84,829;   -2,080;    1,318
373,473;   46,037;   -2,170;    1,136
374,066;   68,849;   -0,169;    0,500
374,658;   66,245;    0,378;    1,136
375,250;   45,670;    0,653;   -1,409
375,842;   60,291;    0,473;   -0,045
376,434;   38,867;   -0,435;   -0,409
377,026;   38,890;    0,204;   -2,500
377,618;   60,760;   -0,158;   -0,682
378,210;   46,708;   -0,338;   -1,955
378,802;   49,831;    0,754;   -0,591
379,394;  209,667;    1,846;    0,682
379,986;   95,861;    1,393;   -0,955
380,578;   56,786;   -0,153;    0,773
381,170;  167,135;   -0,972;    0,045
381,762;  117,476;    0,755;    1,409
382,354;   84,777;   -0,065;   -1,318
382,945;   51,813;   -2,976;    0,318
383,537;   37,720;   -2,705;   -1,955
384,129;   30,786;   -2,160;   -1,136
384,721;   73,208;   -0,252;    0,955
385,312;   56,222;   -0,161;   -0,955
385,904;   82,778;   -2,706;    1,591
386,496;   63,779;   -0,979;    1,045
387,087;  130,617;    1,022;    2,500
387,679;   91,995;   -1,160;    0,045
388,270;   77,025;    2,840;    2,045
388,862;   71,977;    1,295;   -0,318
389,453;   75,132;   -0,887;    1,045
390,045;   73,859;   -0,705;   -2,682
390,636;   32,150;    0,204;   -0,591
391,227;   54,331;   -0,523;   -0,045
391,819;   41,649;    0,204;    0,773
392,410;  161,530;    1,022;    0,045
393,001;   70,082;   -0,979;   -1,591
393,593;   86,032;    1,930;   -0,045
394,184;  104,906;    1,385;   -0,409
394,775;   65,455;    1,839;    2,136
395,366;   34,631;    1,385;    0,773
395,957;   96,354;    0,113;    0,136
396,548;   50,968;   -0,342;    2,682
397,139;  100,317;   -2,433;    0,591
397,730;   68,716;   -1,888;    0,955
398,321;   75,780;   -1,252;    0,955
398,912;   54,074;   -0,615;    0,136
399,503;   51,524;   -3,524;   -1,409
400,094;   63,477;    0,294;    1,682
400,685;   59,770;   -0,433;    0,045
401,276;   52,749;    0,930;   -0,955
401,867;   41,344;   -0,888;    0,773
402,458;   24,197;   -2,251;   -2,318
403,048;   72,454;    1,112;    0,591
403,639;   57,644;    0,840;    0,864
404,230;   99,551;    2,476;    0,318
404,821;  121,615;   -0,615;    0,045
405,411;   83,391;    1,203;   -2,591
406,002;   48,005;   -1,252;   -1,136
406,592;  146,981;    2,294;    0,045
407,183;   88,069;    0,566;   -1,500
407,774;   80,761;    3,475;   -0,136
408,364;   49,555;    0,930;    0,409
408,954;   90,674;    0,384;    1,227
409,545;   96,484;    1,021;    1,045
410,135;   75,740;    1,293;    0,500
410,726;   47,510;    1,838;    0,318
411,316;  128,959;    0,111;    0,773
411,906;   66,382;   -0,253;   -0,409
412,497;   65,375;   -1,070;   -0,045
413,087;   46,473;   -1,980;   -0,227
413,677;   23,874;   -0,707;    3,864
414,267;   22,863;    0,656;    1,409
414,857;   15,242;   -2,980;    4,227
415,448;   17,578;    0,839;    0,500
416,038;   22,411;    0,020;   -0,591
416,628;   30,139;   -0,889;    0,409
417,218;   39,175;    0,565;    3,318
417,808;   80,646;    0,202;   -0,409
418,398;   48,558;    0,020;    2,682
418,988;   14,661;    2,020;    0,591
419,578;   45,980;   -0,707;    1,409
420,168;   24,205;   -1,343;   -0,955
420,757;   48,397;   -1,343;   -1,500
421,347;   21,083;    0,111;   -0,227
421,937;   17,076;    2,292;    1,409
422,527;   41,747;    0,838;   -0,773
423,116;   83,284;   -0,253;   -0,045
423,706;   21,863;   -1,889;    0,318
424,296;    8,767;    1,384;    0,682
424,885;   27,221;   -0,071;   -3,045
425,475;   20,806;    1,474;   -2,864
426,065;    4,893;   -0,980;   -0,318
426,654;    1,549;   -0,435;   -0,318
427,244;   43,727;    0,020;    1,409
427,833;   31,617;    1,383;   -0,500
428,423;   12,337;   -0,526;    1,136
429,012;   12,681;   -0,344;   -1,136
429,601;   28,537;   -1,344;    0,136
430,191;   12,196;    1,292;    4,318
430,780;    1,159;   -0,344;   -0,409
431,369;   25,813;    0,746;   -0,045
431,959;    9,281;   -1,254;    0,500
432,548;    2,563;   -1,163;   -0,045
433,137;   -2,224;   -1,254;   -1,318
433,726;    2,662;    0,292;    0,500
434,315;    6,230;   -0,526;    2,409
434,905;   23,428;   -1,254;    1,409
435,494;   13,648;    0,746;    0,955
436,083;    0,674;   -0,981;   -0,955
436,672;   20,706;    0,110;    0,500
437,261;    8,490;    0,292;   -1,955
437,850;   32,918;    1,383;    0,682
438,439;   46,742;    3,291;    1,955
439,027;   72,036;    3,655;    1,773
439,616;   41,908;    2,927;    1,227
440,205;    9,766;    0,200;   -2,136
440,794;    8,012;    2,109;   -0,045
441,383;    6,714;   -1,346;   -0,591
441,971;    4,340;   -2,436;    0,591
442,560;    1,586;    0,563;   -1,773
443,149;   -4,575;    0,379;   -1,318
443,737;   -5,394;   -0,074;   -2,318
444,326;   -3,315;    0,018;    0,318
444,915;    3,854;   -1,982;    0,864
445,503;    8,916;   -2,891;   -0,318
446,092;   67,301;    0,382;    2,136
446,680;   44,613;    0,382;    0,318
447,269;   15,727;   -0,346;   -0,318
447,857;   11,689;    0,018;   -1,773
448,445;   10,072;    0,563;    1,318
449,034;    4,148;   -1,528;   -1,136
449,622;    6,151;   -1,073;    3,500
450,210;   32,810;    2,017;    2,227
450,799;   23,102;    0,290;   -0,591
451,387;   20,305;    1,381;   -0,591
451,975;   19,731;    2,654;    0,864
452,563;   28,500;    3,472;    2,318
453,151;    7,123;   -0,528;   -1,227
453,739;    7,412;   -1,347;    0,136
454,328;   16,286;    2,381;   -2,136
454,916;   11,875;    2,562;   -0,136
455,504;   21,018;    1,017;    1,227
456,092;    8,530;    0,017;   -1,591
456,679;    4,446;    1,472;    0,682
457,267;   71,044;    4,017;    1,045
457,855;   18,439;    1,017;    1,409
458,443;   -2,316;   -0,165;    1,682
459,031;    7,644;    0,108;    2,409
459,619;    6,336;   -1,801;    2,864
460,206;   -0,275;    0,835;    2,045
460,794;    2,854;   -2,983;   -0,227
461,382;    7,116;   -0,529;   -0,864
461,970;    8,387;    1,198;    1,864
462,557;    2,019;   -0,711;   -0,682
463,145;    6,989;   -3,165;   -1,682
463,732;   41,710;    2,016;   -1,045
464,320;   13,502;   -0,075;   -3,045
464,907;   26,659;    2,743;   -0,773
465,495;    9,512;    0,743;   -1,227
466,082;    5,495;   -1,984;   -0,045
466,670;    8,960;   -2,529;    1,227
467,257;    3,350;   -1,711;    2,045
467,844;   10,738;   -0,075;    0,045
468,432;    4,568;    0,834;    3,500
469,019;    2,823;    0,925;   -1,773
469,606;   15,325;    0,470;    3,682
470,193;   14,056;   -1,439;    0,227
470,780;    9,433;   -2,075;    0,864
471,368;    4,118;   -1,257;   -0,773
471,955;   12,276;    1,379;   -0,682
472,542;    9,709;    0,652;   -1,136
473,129;    5,564;   -0,166;    0,136
473,716;    5,090;    1,470;    0,591
474,303;    1,277;    0,652;   -0,864
474,890;   -0,507;   -1,439;   -0,500
475,477;   14,617;   -1,621;    0,409
476,064;    6,967;    1,106;   -1,591
476,650;   26,898;    0,288;    0,318
477,237;    6,353;   -0,258;    0,955
477,824;    6,733;   -1,076;    0,864
478,411;    1,450;   -1,894;   -0,318
478,997;   -1,126;    0,560;   -0,773
479,584;   -3,683;    1,196;   -0,409
480,171;    6,921;   -0,440;   -0,773
480,757;   13,903;    2,651;    0,773
481,344;    3,471;    0,469;    0,409
481,931;   -4,406;    1,105;    1,045
482,517;    6,049;   -1,258;    0,318
483,104;   17,316;    1,106;    2,864
483,690;    3,415;   -1,804;    0,045
484,276;    1,383;   -0,895;    0,227
484,863;   26,530;    2,469;    1,136
485,449;    9,158;   -0,077;    0,318
486,035;    4,442;   -1,986;   -0,136
486,622;   10,205;   -0,895;    0,045
487,208;    4,332;    1,378;    1,500
487,794;   -3,072;    0,741;    0,318
488,380;   -3,869;    0,105;   -1,409
488,967;   -2,311;   -1,168;   -0,409
489,553;   -2,898;   -1,895;   -1,409
490,139;    5,107;    1,559;    0,773
490,725;    0,574;    0,741;   -0,227
491,311;    6,106;    3,287;    3,045
491,897;    3,750;   -0,986;    1,500
492,483;    0,863;    0,105;    1,227
493,069;   67,760;    3,923;    0,864
493,655;   25,266;    1,650;    0,682
494,241;    7,342;    1,377;   -0,955
494,826;    8,190;    0,287;   -1,045
495,412;    9,828;    2,559;   -0,682
495,998;    0,781;   -0,805;   -0,318
496,584;    6,202;    0,377;    1,045
497,169;    8,048;    1,014;   -0,682
497,755;    5,779;    0,650;    1,227
498,341;   17,137;    0,559;    0,318
498,926;   35,451;    1,832;    1,955
499,512;    6,479;    1,286;    2,955
500,097;    2,753;    0,195;   -0,318
500,683;    5,903;   -0,350;    2,136
501,268;    2,727;   -0,169;   -0,955
501,854;    6,940;   -0,169;    1,227
502,439;    5,014;   -0,624;   -1,773
503,024;    2,415;    0,195;    0,500
503,610;    6,317;   -0,078;   -0,682
504,195;    3,074;    0,558;    1,955
504,780;   16,556;    2,922;    1,227
505,366;   32,813;    3,013;    2,864
505,951;   18,625;    0,740;    1,045
506,536;    6,792;   -3,260;   -3,682
507,121;   10,488;    0,285;   -0,318
507,706;    6,042;    2,376;    1,045
508,291;    1,537;    2,649;    1,136
508,876;    1,047;   -0,988;    2,591
509,461;    3,173;   -0,169;   -0,773
510,046;    8,527;    0,194;    0,318
510,631;   15,300;   -0,351;   -0,773
511,216;    4,973;    2,467;   -0,500
511,801;   15,435;   -0,442;    2,591
512,386;   13,502;    0,740;    0,500
512,971;   18,304;   -2,988;    0,955
513,555;   21,343;   -0,897;   -1,500
514,140;   16,272;   -0,442;   -3,136
514,725;   57,265;   -0,715;   -1,136
515,309;   32,976;   -0,533;    0,318
515,894;   19,973;   -0,624;   -2,227
516,479;   31,272;   -0,624;   -0,955
517,063;   35,248;    0,376;    1,227
517,648;   24,713;    1,012;   -1,136
518,232;   14,844;   -0,261;   -1,409
518,817;   64,667;   -0,079;    1,682
519,401;  128,014;    2,194;    0,591
519,985;  131,447;    1,103;    1,136
520,570;   67,223;    0,830;   -1,955
521,154;  124,532;    2,102;    0,591
521,738;  230,151;   -2,352;    2,409
522,323;  142,516;   -0,170;    1,682
522,907;  149,415;    0,466;   -0,136
523,491;  112,514;    0,557;    0,955
524,075;  106,428;    2,284;    0,591
524,659;  253,474;    1,466;    0,591
525,243;  231,122;    1,739;    0,409
525,827;  198,611;    0,648;   -0,045
526,411;  207,474;   -1,989;   -0,136
526,995;  288,954;   -0,352;    1,409
527,579;  349,325;   -0,443;   -1,045
528,163;  300,914;    0,375;   -1,500
528,747;  392,810;    2,466;   -0,773
529,331;  347,979;   -0,080;   -1,409
529,915;  232,011;    1,738;    0,955
530,499;  316,556;   -0,807;    1,227
531,082;  470,865;   -0,534;    1,591
531,666;  552,075;    1,374;    0,773
532,250;  447,814;    1,284;    2,682
532,833;  541,333;    0,920;    2,773
533,417;  405,339;   -1,807;    0,864
534,001;  532,391;    1,647;   -0,318
534,584;  454,902;    0,374;    0,500
535,168;  291,169;    0,465;    1,409
535,751;  633,987;    0,647;    0,045
536,334;  399,557;   -0,898;   -0,409
536,918;  244,277;    0,011;    1,591
537,501;  263,768;   -0,899;    1,318
538,085;  312,696;   -0,444;    1,045
538,668;  394,882;    0,829;    2,409
539,251;  665,159;    1,829;    3,773
539,834;  382,967;    0,101;    0,773
540,418;  513,678;   -1,990;    4,318
541,001;  685,293;   -0,990;    1,773
541,584;  463,053;    2,101;    2,227
542,167;  572,599;    1,374;    2,955
542,750;  401,351;    1,919;   -0,773
543,333;  283,165;    0,555;    2,136
543,916;  504,107;    0,192;    2,500
544,499;  432,133;   -1,354;    0,227
545,082;  513,776;    1,374;    3,591
545,665;  425,574;    1,919;    1,500
546,248;  555,165;    1,010;   -0,318
546,830;  526,969;   -0,445;    1,955
547,413;  488,393;    1,010;   -0,773
547,996;  457,153;    0,555;    0,500
548,579;  416,925;    0,919;    0,955
549,161;  654,386;    1,828;    2,682
549,744;  534,703;   -0,809;    0,409
550,326;  385,163;   -0,809;   -1,136
550,909;  854,836;    2,737;    0,591
551,492;  504,965;   -0,263;    0,227
552,074;  628,858;   -0,173;   -1,318
552,657;  659,769;    2,373;    0,045
553,239;  529,146;   -0,173;   -0,773
553,821;  391,002;   -1,082;    1,045
554,404;  646,311;    1,282;    1,136
554,986;  754,979;    0,464;    1,045
555,568;  590,810;    1,191;   -0,955
556,151;  795,633;    1,191;   -0,227
556,733;  474,693;   -0,264;   -0,864
557,315;  492,959;    0,100;    0,500
557,897;  370,493;    0,554;   -0,500
558,479;  385,681;   -1,991;    1,318
559,061;  470,579;   -0,719;   -0,864
559,643;  517,905;   -0,264;    0,045
560,225;  567,908;    1,645;    2,864
560,807;  405,541;    0,918;    0,318
561,389;  386,647;    0,554;    2,318
561,971;  477,020;    0,463;    2,136
562,553;  393,946;   -1,628;    1,591
563,135;  483,030;   -0,537;    1,136
563,717;  875,845;    3,372;    1,136
564,298;  771,508;    3,645;   -0,045
564,880;  526,803;    0,645;   -1,409
565,462;  354,894;    0,645;    1,318
566,043;  489,353;   -0,446;    2,318
566,625;  802,350;    1,918;    1,227
567,207;  609,489;    1,099;    1,682
567,788;  461,230;   -1,264;    1,500
568,370;  461,477;    1,917;   -0,500
568,951;  468,429;    0,190;    0,227
569,533;  569,605;   -0,628;   -0,500
570,114;  583,378;   -0,446;    0,682
570,695;  614,572;   -0,174;   -1,318
571,277;  590,331;   -0,265;   -1,682
571,858;  797,305;    2,008;   -1,136
572,439;  630,907;    1,554;   -1,045
573,021;  673,866;    2,099;   -2,773
573,602;  792,104;   -1,265;    0,318
574,183;  730,774;   -2,083;    2,227
574,764;  669,493;   -1,629;    0,409
575,345;  873,704;    0,917;   -0,136
575,926;  693,001;   -0,356;    0,136
576,507;  771,374;    1,099;   -0,227
577,088;  728,555;    3,099;    1,682
577,669;  918,332;    0,735;    1,955
578,250; 1097,047;    0,644;   -1,045
578,831;  885,682;   -1,356;   -2,227
579,412;  857,518;   -0,810;    0,955
579,993;  837,707;    1,008;    0,227
580,573;  754,438;   -0,629;   -0,955
581,154;  898,972;    0,735;   -0,591
581,735;  912,692;    0,644;    0,773
582,315; 1056,510;   -0,629;    2,136
582,896;  850,311;   -0,174;    1,227
583,477;  696,465;    0,189;    1,227
584,057;  836,252;    0,553;    0,955
584,638;  959,434;    2,553;    2,318
585,218; 1202,156;   -0,538;    2,682
585,799; 1009,862;    0,281;   -0,227
586,379;  870,101;    0,372;    1,591
586,959;  831,503;    0,735;    0,318
587,540;  740,853;   -0,629;    2,227
588,120;  757,564;    1,007;   -0,045
588,700;  772,141;    2,553;    2,136
589,281;  960,800;    0,462;   -0,955
589,861;  811,817;    0,099;   -1,682
590,441;  667,441;    2,371;   -2,682
591,021;  766,705;   -0,265;   -2,591
591,601;  717,356;   -0,537;    0,500
592,181;  696,528;   -0,719;   -0,773
592,761;  593,068;    0,007;    1,409
593,341;  716,863;   -0,901;    0,045
593,921;  726,373;   -0,265;    1,591
594,501;  625,050;   -0,538;    1,318
595,081;  627,641;    0,917;   -0,318
595,661;  700,396;   -1,447;    0,955
596,240;  633,084;   -0,537;    0,136
596,820; 1061,580;    0,372;    1,955
597,400;  764,389;    2,008;    0,773
597,980;  663,336;    2,008;    1,045
598,559;  601,654;    2,735;   -0,227
599,139;  587,943;   -0,174;   -1,227
599,718;  585,488;   -0,174;   -0,409
600,298;  568,201;    0,735;    0,682
600,877; 1081,617;    2,917;    1,409
601,457;  774,204;    2,281;    1,136
602,036;  651,717;    0,190;    2,045
602,616;  708,243;    0,644;    1,682
603,195;  831,474;   -0,355;    3,500
603,774;  895,398;   -0,901;    2,045
604,354;  818,948;    0,826;   -0,500
604,933;  752,075;    0,463;    1,864
605,512;  857,682;    3,554;    0,591
606,091;  844,273;   -0,537;    3,773
606,671;  791,297;    0,281;    0,773
607,250;  971,847;    1,644;    3,136
607,829;  910,241;    2,372;    3,227
608,408;  745,267;    1,190;    2,591
608,987;  865,366;    1,281;    3,409
609,566;  685,126;   -1,265;   -2,500
610,145;  782,831;   -1,082;    0,682
610,723;  824,842;    4,372;    6,864
611,302;  738,070;   -0,446;    1,682
611,881; 1048,273;    5,008;   11,227
612,460;  741,098;    1,645;    3,955
613,039;  616,500;   -0,082;    2,045
613,617;  606,889;    1,736;    4,773
614,196;  623,553;    1,099;    1,227
614,775;  696,676;    1,009;    2,409
615,353;  754,737;    0,736;    0,864
615,932;  722,744;    0,100;    2,409
616,510;  700,128;    0,554;    0,591
617,089; 1226,206;    7,100;   17,591
617,667;  814,110;    2,372;    6,136
618,246;  567,807;   -1,537;    1,318
618,824;  645,362;   -3,355;   -0,955
619,402;  673,001;   -2,900;   -1,773
619,981;  733,330;   -0,173;   -1,045
620,559;  644,487;    0,009;    1,682
621,137;  658,048;   -0,718;    1,864
621,715;  566,786;   -1,173;   -0,682
622,293;  585,862;   -0,537;   -0,773
622,871;  599,959;   -0,718;    0,500
623,450;  535,353;    0,373;   -0,864
624,028;  750,485;    0,191;   -0,955
624,606;  706,093;   -1,718;    1,682
625,183;  512,601;   -1,536;   -1,136
625,761;  658,053;    1,009;    1,136
626,339;  961,469;    1,373;    2,591
626,917;  594,724;   -0,172;   -0,045
627,495;  543,461;   -0,354;    1,318
628,073;  676,331;   -0,263;    2,864
628,650;  694,484;    0,100;    2,136
629,228;  691,161;    0,373;    4,409
629,806;  502,399;    2,282;    1,136
630,383;  561,080;    1,464;   -0,318
630,961;  561,218;    2,555;   -0,955
631,539;  615,438;    2,464;    0,227
632,116; 1335,491;   11,373;   15,409
632,694;  936,540;    2,555;    6,500
633,271;  776,456;    0,828;    2,682
633,848;  874,857;    1,828;    2,045
634,426;  592,701;   -1,081;    1,773
635,003;  460,060;    1,101;   -0,409
635,580;  888,958;    1,192;    3,682
636,158;  754,941;    3,737;    1,227
636,735;  559,093;    0,555;   -0,500
637,312;  556,778;   -0,809;   -0,682
637,889;  556,233;   -4,354;   -0,682
638,466;  537,579;   -3,990;   -0,409
639,043;  595,321;    2,101;   -1,136
639,620;  505,227;   -2,262;   -0,955
640,197;  640,662;    1,100;    1,682
640,774;  461,941;   -0,172;    1,136
641,351;  540,221;    0,737;    1,136
641,928;  739,409;   -0,627;    1,409
642,505;  859,507;    0,828;   -0,500
643,082;  676,877;   -1,718;    1,227
643,658;  530,520;   -0,718;    1,500
644,235;  513,345;    1,191;    2,500
644,812;  710,260;    1,918;    0,773
645,388;  694,449;   -0,991;    1,409
645,965;  474,183;   -0,809;    1,682
646,542;  491,098;   -1,445;   -0,227
647,118;  876,378;    1,009;   -0,955
647,695;  660,112;   -0,263;    1,136
648,271;  470,482;   -0,536;    0,500
648,848;  649,216;    0,736;    2,227
649,424;  769,677;    0,827;    1,318
650,000;  592,502;   -0,354;   -1,045
650,577;  615,872;   -0,627;   -0,955
651,153;  620,151;   -1,809;    0,955
651,729;  565,249;    1,191;    0,864
652,305;  942,074;    0,645;    2,773
652,881;  899,808;   -0,082;    1,136
653,458; 1023,723;    1,100;    0,227
654,034; 1132,366;    0,282;    1,591
654,610; 1276,918;    0,554;    0,773
655,186; 1795,107;    0,645;    3,045
655,762; 1319,931;   -0,991;    0,409
656,338; 1284,938;    0,100;    0,136
656,913; 1375,490;   -0,082;    0,409
657,489; 1135,406;    0,827;   -0,318
658,065; 1247,594;   -0,173;   -1,591
658,641; 1282,419;   -0,900;   -0,864
659,217; 1200,062;   -0,991;    0,409
659,792; 1338,978;    0,645;   -0,409
660,368; 1147,348;   -2,173;   -0,682
660,944; 1184,809;   -2,082;    1,227
661,519; 1074,725;   -0,628;    0,409
662,095;  777,095;   -1,719;    0,591
662,670;  608,284;    1,281;   -0,136
663,246;  525,745;    1,009;   -0,409
663,821;  695,206;    0,281;    1,682
664,396;  643,485;    0,009;    1,864
664,972;  556,765;    0,009;   -0,500
665,547;  614,680;    1,372;    0,136
666,122;  588,142;   -1,082;    0,318
666,698;  780,966;   -0,173;    0,318
667,273;  550,064;   -0,173;    0,136
667,848;  590,343;    2,372;    1,500
668,423;  772,350;    2,190;    2,318
668,998;  610,720;    2,827;   -0,682
669,573;  564,272;   -3,264;   -1,500
670,148;  759,733;   -1,446;   -0,682
670,723;  532,104;   -1,810;    0,318
671,298;  831,474;    2,372;    1,045
671,873;  739,299;   -0,082;   -0,136
672,448;  717,942;    0,645;    0,136
673,023;  712,130;   -1,992;   -0,227
673,597;  803,864;    0,827;    2,318
674,172;  863,507;   -0,355;    0,318
674,747;  766,695;    0,372;   -1,045
675,321;  530,066;   -0,628;    3,318
675,896;  467,981;    0,645;    1,045
676,471;  686,988;    2,645;    1,591
677,045;  615,449;   -1,264;    0,682
677,620;  711,547;    0,190;    1,136
678,194;  536,008;   -2,628;    1,136
678,769;  617,014;   -1,083;   -0,318
679,343;  673,385;   -0,628;    1,773
679,917;  807,028;   -1,446;    1,955
680,492;  649,943;    0,826;    3,227
681,066;  685,132;    3,372;    0,409
681,640;  605,047;    1,463;   -0,318
682,214;  626,781;    0,735;    0,500
682,788;  632,333;   -1,356;   -0,773
683,363;  772,340;   -1,810;    1,682
683,937;  641,983;   -1,719;   -0,318
684,511;  675,717;    0,463;   -0,591
685,085;  690,814;   -1,356;    0,318
685,659;  596,094;   -2,538;    0,864
686,232;  846,191;   -0,356;   -0,318
686,806;  707,562;   -0,901;    0,409
687,380;  592,568;   -0,174;    0,591
687,954;  533,575;   -1,174;    1,136
688,528;  872,581;   -0,719;    1,955
689,101;  686,406;   -3,992;    1,045
689,675;  578,504;   -0,356;   -0,136
690,249;  838,147;   -0,719;    0,409
690,822;  830,244;    0,280;    0,318
691,396;  717,342;   -0,265;    1,227
691,969;  633,076;    1,280;    0,136
692,543;  521,810;   -0,447;   -1,955
693,116;  507,725;   -0,265;   -1,409
693,690;  605,732;    0,099;    0,500
694,263;  544,829;   -1,083;    2,955
694,836;  912,291;    1,371;    3,591
695,410;  788,115;   -0,265;    1,773
695,983;  805,940;    0,189;    0,591
696,556;  593,401;   -0,447;   -1,045
697,129;  506,499;   -0,356;    1,409
697,703;  744,505;   -1,629;    1,955
698,276;  632,058;    1,462;   -0,773
698,849;  800,155;    1,280;    1,409
699,422;  552,434;   -1,083;    0,591
699,995;  459,077;    0,007;    0,136
700,568;  595,084;   -0,629;    3,045
701,140;  622,727;   -2,811;    1,682
701,713;  790,734;   -0,174;    2,409
702,286;  685,649;   -0,538;    0,864
702,859;  758,474;   -0,902;   -0,591
703,432;  843,753;    0,825;    0,682
704,004;  723,396;    0,462;    0,318
704,577;  597,130;   -0,629;    0,136
705,150;  648,501;    0,189;    2,500
705,722;  703,416;   -0,356;   -3,227
706,295;  774,877;   -0,175;   -0,591
706,867;  648,793;   -0,175;    1,955
707,440;  743,618;   -1,720;   -0,409
708,012;  818,352;    0,462;    0,591
708,584;  728,358;    2,462;    0,227
709,157;  499,183;    1,825;   -0,591
709,729;  743,917;    2,280;    2,045
710,301;  592,378;    0,734;    0,045
710,874;  608,112;   -1,447;   -0,227
711,446;  489,937;    0,371;    0,864
712,018;  571,762;    0,098;    0,500
712,590;  512,859;   -1,993;    1,682
713,162;  799,048;    0,825;    1,318
713,734;  586,963;    1,825;   -2,045
714,306;  496,152;   -1,902;   -0,409
714,878;  557,158;    0,825;    0,864
715,450;  511,256;    0,643;    0,864
716,022;  523,535;    1,552;    1,318
716,593;  511,997;    0,189;    0,591
717,165;  562,821;   -3,175;   -1,227
717,737;  829,737;    0,280;    0,409
718,309;  604,835;    0,280;   -0,045
718,880;  528,205;   -0,539;   -1,409
719,452;  600,211;   -0,175;   -1,591
720,024;  697,673;    0,734;   -0,591
720,595;  585,497;   -2,902;    0,955
721,167;  571,322;    0,370;   -2,045
721,738;  696,965;   -0,812;   -1,045
722,309;  846,972;   -0,993;   -1,227
722,881;  577,160;   -1,357;    0,773
723,452;  654,985;   -2,630;    2,864
724,023;  674,810;   -0,721;    2,682
724,595;  736,362;    0,007;    0,682
725,166;  601,641;    0,007;   -0,409
725,737;  805,921;    1,734;    0,227
726,308;  594,564;   -0,266;    0,318
726,879;  495,479;   -1,630;    1,227
727,450;  675,577;    0,552;   -0,045
728,021;  606,220;    3,097;    0,682
728,592;  778,499;    0,734;    0,500
729,163;  865,415;    0,643;   -0,136
729,734;  842,603;    0,188;   -0,227
730,305;  697,701;    1,734;    0,136
730,876;  655,435;    0,188;    2,955
731,447;  983,805;    2,188;    2,682
732,017;  891,448;    1,097;    1,864
732,588;  674,455;    0,734;    1,227
733,159;  937,643;    0,643;   -1,045
733,729;  669,468;    0,006;    0,409
734,300;  834,838;    0,915;    0,864
734,870;  643,845;    3,461;    0,591
735,441;  623,397;    0,370;   -0,591
736,011;  616,676;    0,643;   -1,591
736,582;  620,592;   -0,812;    0,045
737,152;  757,780;   -1,721;   -2,045
737,722;  724,605;   -0,267;   -0,682
738,293;  566,339;   -1,358;    1,318
738,863;  754,618;    2,461;    2,318
739,433; 1028,716;    5,279;    0,318
740,003;  729,268;   -0,994;   -0,682
740,573;  859,002;    2,097;   -1,591
741,143;  718,008;   -1,085;    0,318
741,713;  624,924;    1,188;   -0,500
742,283;  698,476;    0,915;    1,591
742,853;  631,937;    1,915;    1,591
743,423;  452,489;    1,733;    0,045
743,993;  570,950;   -0,358;    1,500
744,563;  626,684;    0,097;   -0,864
745,133;  662,418;   -0,812;   -0,864
745,702;  522,334;   -0,267;    1,773
746,272;  752,977;   -0,176;    0,591
746,842;  772,347;   -1,358;   -0,591
747,411;  550,263;   -0,267;   -0,318
747,981;  460,906;    0,097;    0,500
748,551;  448,003;    2,278;   -1,045
749,120;  644,283;    0,642;   -0,227
749,690;  598,198;   -0,631;    2,409
750,259;  712,387;    1,369;    2,955
750,828;  778,939;    1,551;   -1,955
751,398;  536,400;    1,278;   -0,045
751,967; 1031,043;    2,187;    0,409
752,536;  664,322;   -0,813;   -0,227
753,105;  774,784;    0,096;    0,227
753,675;  611,245;    0,096;    1,773
754,244;  625,797;   -0,904;    3,591
754,813;  657,803;    0,551;    1,227
755,382;  618,537;    0,460;    0,955
755,951;  751,453;    1,551;    3,682
756,520;  859,005;   -0,085;    1,864
757,089;  967,466;    0,278;    0,500
757,658;  698,837;    1,733;    1,227
758,227;  525,661;    1,096;    0,318
758,795;  581,668;    1,187;    1,136
759,364;  591,220;   -0,086;   -0,591
759,933;  533,681;   -1,176;   -0,045
760,501;  465,233;    0,733;   -1,318
761,070;  636,149;   -2,813;   -1,409
761,639;  579,065;   -1,904;    1,318
762,207;  715,799;    1,551;   -0,955
762,776;  762,260;    0,369;    0,864
763,344;  621,539;   -0,995;    0,591
763,913;  425,091;   -0,722;    1,409
764,481;  961,916;    1,005;   -0,136
765,049;  956,832;   -1,358;    1,409
765,618;  870,020;   -0,086;    0,318
766,186;  671,845;    0,278;    0,136
766,754;  723,670;    0,005;    1,864
767,322;  600,949;   -1,995;    0,409
767,890;  548,956;   -0,722;   -1,773
768,459;  551,144;   -2,177;   -0,318
769,027;  780,787;    1,641;    3,409
769,595;  598,339;    3,278;    2,591
770,163;  694,073;    3,823;    2,955
770,730;  671,261;    0,732;   -0,136
771,298;  651,904;    0,187;   -1,409
771,866;  578,093;   -1,541;    4,955
772,434;  612,554;   -0,631;   -1,864
773,002;  820,288;    0,005;    0,682
773,569;  690,295;    0,914;    1,682
774,137;  812,210;   -0,268;   -0,045
774,705;  594,308;    0,278;   -0,136
775,272;  563,133;    0,641;    0,682
775,840;  578,230;   -0,177;    2,682
776,407;  703,691;    0,277;    1,955
776,975;  580,062;   -0,632;    0,318
777,542;  519,159;   -1,086;   -0,045
778,110;  552,620;   -1,268;   -0,045
778,677;  431,354;   -2,359;   -0,864
779,244;  511,452;    2,186;    1,045
779,812;  671,186;    1,823;    0,864
780,379;  758,192;    0,005;    1,136
780,946;  620,290;    1,005;   -0,773
781,513;  528,660;   -1,450;    0,318
782,080;  501,121;   -0,086;    2,864
782,647;  537,491;   -0,268;    3,045
783,214;  509,953;   -0,177;    3,864
783,781;  726,868;   -0,723;   -0,682
784,348;  659,057;   -0,632;    1,500
784,915;  441,791;   -3,177;    0,318
785,482;  678,070;    1,368;    2,591
786,049;  606,349;    0,186;   -0,591
786,615;  471,719;    0,277;   -0,955
787,182;  432,999;    0,186;   -0,682
787,749;  415,642;   -2,814;    1,409
788,315;  657,103;   -1,632;   -0,409
788,882;  527,746;    1,550;   -1,227
789,448;  828,753;    1,732;   -0,955
790,015;  589,123;    1,095;    3,227
790,581;  771,493;    1,459;    0,227
791,148;  595,682;    0,641;    1,045
791,714;  477,324;   -0,541;    3,136
792,280;  490,149;    0,186;    1,591
792,847;  430,701;    0,550;    2,500
793,413;  513,435;   -0,269;   -0,318
793,979;  732,896;    3,459;   -1,318
794,545; 1010,267;    4,459;    2,682
795,111;  897,819;    2,186;    1,318
795,678;  746,189;    0,731;   -1,682
796,244;  905,650;    3,368;    0,136
796,810;  739,839;    1,731;    0,773
797,375;  740,391;    0,549;   -2,136
797,941;  423,943;   -0,541;    0,591
798,507;  435,768;   -0,451;   -0,955
799,073;  471,229;   -0,360;    0,591
799,639;  463,781;   -2,632;    3,136
800,205;  422,969;    0,095;    2,682
800,770;  461,339;    0,640;    1,773
801,336;  479,982;    1,368;   -0,955
801,901; 1072,625;    4,549;    3,136
802,467;  722,632;   -0,542;    2,045
803,033;  510,457;   -0,087;    0,864
803,598;  506,100;    1,913;   -1,045
804,163;  511,197;    1,095;   -0,318
804,729;  612,113;   -0,178;    1,136
805,294;  497,483;    0,822;    2,227
805,859;  447,035;    0,731;   -0,409
806,425;  835,224;    1,186;    2,682
806,990;  808,230;    2,186;    4,318
807,555;  560,237;   -1,451;    2,591
808,120;  713,607;    0,822;   -0,409
808,685;  504,705;    0,185;   -2,500
809,250;  422,166;    0,004;   -0,500
809,815;  405,809;    1,913;    0,682
810,380;  530,088;   -0,269;    1,591
810,945;  713,095;   -1,087;    2,045
811,510;  544,011;    2,094;    1,591
812,075;  604,381;   -0,633;   -1,409
812,640;  839,478;    2,003;    1,409
813,204;  590,940;    0,822;   -0,227
813,769;  727,310;    2,094;   -0,045
814,334;  723,135;    0,458;    0,864
814,898;  457,141;    0,367;    0,591
815,463;  572,602;    1,276;   -0,773
816,027;  506,609;   -0,724;   -2,318
816,592;  419,797;    0,640;   -2,045
817,156;  601,531;    2,094;    1,136
817,721;  725,265;    4,276;    2,318
818,285;  458,545;    2,912;    1,500
818,849;  519,551;   -1,451;    1,682
819,414;  447,649;   -0,269;    2,955
819,978;  389,474;   -1,269;    1,773
820,542;  680,207;    2,003;    0,500
821,106;  511,214;   -0,815;    0,682
821,670;  737,766;   -0,815;    2,591
822,234;  507,773;   -0,270;    1,409
822,798;  404,507;    0,003;    0,500
823,362;  640,331;   -0,633;    4,227
823,926;  496,520;    0,094;    1,136
824,490;  678,617;   -0,997;   -0,682
825,054;  544,897;   -0,088;   -1,136
825,618;  447,085;   -1,542;   -1,500
826,181;  505,819;    0,458;   -1,318
826,745;  622,280;    1,367;   -1,045
827,309;  829,923;    1,185;    1,318
827,872;  693,475;    1,367;    0,955
828,436;  569,391;    1,185;   -0,773
828,999;  466,216;   -0,997;    1,227
829,563;  449,586;   -0,179;    1,136
830,126;  421,684;   -0,179;   -0,591
830,690;  535,145;   -1,997;    2,864
831,253;  458,424;   -0,543;    2,227
831,816;  501,158;   -1,906;    0,500
832,380;  460,983;    0,185;    0,864
832,943;  440,262;   -1,361;   -0,500
833,506;  448,996;    2,639;   -1,227
834,069;  600,912;    3,912;   -0,955
834,632;  437,282;    1,730;    1,318
835,195;  481,925;    1,003;    0,955
835,758;  424,841;   -0,997;    1,955
836,321;  445,756;    0,730;   -1,045
836,884;  406,945;   -0,725;   -0,955
837,447;  363,224;   -2,816;    1,773
838,010;  544,322;    0,366;    3,227
838,573;  537,783;   -1,179;    0,773
839,135;  401,608;   -1,361;   -0,955
839,698;  478,705;    1,275;    0,409
840,261;  424,075;    1,003;   -0,227
840,823;  374,082;   -0,543;    0,864
841,386;  351,452;   -0,452;   -2,409
841,948;  660,277;   -1,361;    1,773
842,511;  450,284;    0,912;    1,682
843,073;  645,108;    1,912;    0,227
843,636;  402,661;   -0,361;   -0,227
844,198;  615,758;    0,911;    0,591
844,760;  582,219;    1,093;    1,955
845,322;  385,589;    0,548;    1,136
845,885;  528,505;    0,730;    0,591
846,447;  451,057;   -1,998;    0,227
847,009;  787,973;    1,911;   -0,682
847,571;  504,070;    0,820;   -2,045
848,133;  444,713;   -1,089;   -1,864
848,695;  317,356;   -0,543;    1,409
849,257;  395,818;   -1,089;   -1,682
849,819;  542,461;   -0,998;   -0,409
850,381;  413,922;   -0,725;   -0,864
850,942;  483,019;    1,093;   -0,591
851,504;  561,208;    1,184;    0,227
852,066;  415,851;    1,275;   -1,591
852,628;  446,221;   -0,180;    1,955
853,189;  346,955;    1,638;    2,682
853,751;  364,961;   -0,907;    1,409
854,312;  516,059;   -0,453;   -1,682
854,874;  645,884;   -2,089;   -0,773
855,435;  455,799;   -0,907;   -1,682
855,997;  492,988;   -1,816;   -0,136
856,558;  607,631;    0,366;    1,773
857,119;  519,274;    0,820;    2,864
857,681;  365,190;    0,002;    0,318
858,242;  633,923;    1,911;   -2,136
858,803;  581,021;    0,456;   -0,773
859,364;  453,119;    0,184;   -4,773
859,925;  540,943;   -2,453;   -0,955
860,486;  426,223;   -0,453;   -0,955
861,047;  360,411;   -0,544;   -1,227
861,608;  406,690;   -1,089;   -0,773
862,169;  273,970;    0,638;   -0,045
862,730;  410,158;    0,456;    1,409
863,291;  454,165;   -0,635;   -0,500
863,852;  424,990;   -0,635;    1,955
864,412;  433,633;   -0,271;   -0,864
864,973;  659,457;   -0,089;    0,500
865,534;  771,646;   -1,726;    0,227
866,094;  556,652;    1,820;    0,227
866,655;  696,295;    1,274;    3,318
867,215;  503,302;    0,274;    0,136
867,776;  351,672;    0,547;   -0,136
868,336;  448,315;   -1,453;    0,136
868,897;  817,867;    2,638;    1,682
869,457;  604,783;    1,365;    0,318
870,017;  396,881;    0,547;   -1,227
870,578;  388,705;   -0,817;    0,773
871,138;  483,257;   -2,089;   -0,955
871,698;  400,628;   -0,817;   -1,318
872,258;  516,543;   -0,453;   -2,864
872,818;  655,914;    2,729;    0,045
873,378;  475,102;    0,638;    1,045
873,938;  457,836;    0,547;    0,500
874,498;  363,843;    0,274;   -1,955
875,058;  473,304;    2,183;    1,773
875,618;  472,220;    1,910;   -2,682
876,177;  511,408;    1,274;    0,136
876,737;  342,596;   -0,090;    1,955
877,297;  701,239;    0,183;    1,955
877,856;  625,973;   -0,362;    0,318
878,416;  402,889;    1,183;   -0,136
878,976;  364,805;   -1,817;    0,409
879,535;  399,629;    0,092;    3,136
880,095;  387,000;   -0,544;    0,045
880,654;  338,825;   -1,090;    1,318
881,213;  631,558;    2,456;    1,500
881,773;  477,929;    2,637;    2,682
882,332;  954,663;    3,365;    5,136
882,891;  459,396;    3,092;    2,136
883,451;  445,767;   -1,272;    1,682
884,010;  413,319;   -2,908;   -0,409
884,569;  349,598;   -0,999;   -0,045
885,128;  520,787;    2,819;   -1,864
885,687;  754,248;    4,455;    0,682
886,246;  919,254;    1,455;    2,136
886,805;  735,715;    2,455;    2,045
887,364;  396,177;   -0,999;   -0,500
887,922;  323,456;   -1,181;    0,045
888,481;  526,735;   -1,545;    0,591
889,040;  595,287;    1,183;    2,136
889,599;  471,021;    2,455;    1,409
890,157;  465,664;    1,455;    2,409
890,716;  406,216;   -0,090;    0,227
891,274;  524,587;    0,092;   -1,136
891,833;  579,593;    1,546;    0,864
892,391;  477,509;   -0,454;    0,500
892,950;  556,788;    1,819;   -0,773
893,508;  368,340;    0,455;   -0,409
894,067;  296,438;    0,637;    0,136
894,625;  401,535;   -0,636;   -1,500
895,183;  365,815;   -0,363;   -0,682
895,741;  627,094;    1,728;   -1,773
896,299;  428,101;   -0,545;   -2,409
896,858;  386,107;    0,819;   -1,591
897,416;  517,932;    2,728;   -1,318
897,974;  438,575;    1,819;    0,318
898,532;  846,582;    6,091;    2,682
899,089;  578,407;    2,091;   -0,682
899,647;  475,140;   -1,454;    1,318
900,205;  476,329;    1,182;    1,045
900,763;  458,608;   -0,454;    0,227
901,321;  410,888;    2,364;   -1,409
901,878;  260,258;   -1,000;   -0,773
902,436;  348,810;   -1,363;    1,318
902,994; 1007,180;    4,728;    3,682
903,551;  584,823;    0,728;    0,409
904,109;  453,648;    0,182;   -1,409
904,666;  417,473;    2,455;    1,045
905,224;  312,207;    0,182;   -0,409
905,781;  475,759;    0,727;   -0,318
906,338;  413,311;   -1,363;    1,045
906,895;  314,954;    0,637;    2,045
907,453;  572,142;    1,727;    1,136
908,010;  433,603;   -0,909;    0,409
908,567;  427,155;    1,273;    0,591
909,124;  281,253;    0,364;   -1,500
909,681;  343,259;   -2,909;    0,682
910,238;  365,721;    0,636;   -1,318
910,795;  275,909;   -0,273;   -1,136
911,352;  297,909;   -2,909;   -2,682
911,909;  342,727;   -1,364;   -0,864
912,466;  338,091;   -3,182;    1,500
913,022;  448,182;   -1,636;    0,500
913,579;  519,364;   -0,909;    2,045
914,136;  396,727;    1,636;    0,955
914,692;  391,364;    0,091;   -1,227
915,249;  429,364;    1,455;    0,409
915,806;  490,455;    0,182;    1,955
916,362;  393,273;    1,909;    1,864
916,918;  376,364;    2,000;    1,045
917,475;  496,091;   -1,182;    0,955
918,031;  344,364;    3,364;   -0,045
918,587;  417,091;   -0,909;   -0,318
919,144;  331,091;   -2,273;    0,227
919,700;  260,182;    1,727;    0,773
920,256;  270,273;    0,727;    0,045
920,812;  323,182;   -0,727;   -1,045
921,368;  296,455;   -1,727;   -1,045
921,924;  323,727;    0,182;   -0,136
922,480;  409,000;   -0,545;    1,227
923,036;  412,000;    1,273;    1,955
923,592;  317,545;    0,455;    0,318
924,148;  330,000;    0,455;   -0,955
924,704;  451,455;   -1,364;   -0,409
925,259;  291,455;   -0,273;    0,591
925,815;  290,909;    1,455;    0,500
926,371;  275,727;    2,909;    1,409
926,926;  421,818;    2,091;    0,591
927,482;  395,273;   -1,364;    0,773
928,037;  322,455;    0,909;    2,045
928,593;  492,545;    1,636;    1,045
929,148;  290,455;   -1,818;   -1,500
929,704;  358,636;   -1,455;   -0,500
930,259;  298,364;    0,091;   -0,136
930,814;  458,636;   -0,818;    1,955
931,369;  396,273;    1,091;   -0,773
931,925;  254,091;   -0,091;    0,136
932,480;  344,364;   -2,818;   -2,591
933,035;  630,091;    0,545;   -0,318
933,590;  545,182;    0,364;   -1,773
934,145;  258,455;   -1,364;   -0,318
934,700;  179,273;    0,455;   -0,591
935,255;  227,636;   -0,091;    0,045
935,809;  508,818;    3,182;    0,864
936,364;  238,455;   -0,455;   -0,136
936,919;  230,364;    0,455;   -1,773
937,474;  175,727;    1,455;    0,136
938,028;  186,364;   -1,636;    1,136
938,583;  516,091;    1,818;    4,682
939,138;  254,545;    2,091;    2,136
939,692;  157,636;    1,636;   -1,136
940,247;  198,909;   -0,727;   -1,045
940,801;  231,636;   -0,636;    0,227
941,355;  169,364;   -0,364;    2,591
941,910;  117,818;   -0,273;   -2,136
942,464;  146,091;   -0,818;   -0,318
943,018;  309,636;    1,000;   -0,227
943,572;  199,545;    2,545;   -0,682
944,126;  256,727;    0,091;   -0,409
944,681;  170,727;    3,091;    0,227
945,235;  128,364;    1,000;   -0,591
945,789;  110,273;    0,364;   -1,864
946,342;  292,364;    0,455;   -0,591
946,896;  147,818;   -2,273;    0,955
947,450;  123,000;    1,545;   -0,227
948,004;  286,727;    1,727;   -0,045
948,558;  167,818;    0,273;   -0,864
949,111;  163,818;   -0,273;   -0,318
949,665;  283,091;    1,636;   -0,682
950,219;  265,727;   -0,091;   -1,045
950,772;  204,000;   -1,909;    1,864
951,326;  195,455;    0,545;   -0,955
951,879;  161,455;    0,727;   -2,318
952,433;  247,000;    0,000;    2,227
952,986;  142,455;    2,909;    0,682
953,539;  119,273;   -0,273;    0,591
954,093;   95,364;    0,545;   -1,318
954,646;  167,909;    0,909;    1,318
955,199;  116,455;    0,000;   -0,500
955,752;  277,636;   -0,455;    1,773
956,305;  172,091;   -0,091;    2,955
956,858;  197,182;    0,818;   -0,318
957,411;  227,636;   -0,545;    2,136
957,964;  189,636;    1,364;    2,136
958,517;  132,545;   -1,545;    3,136
959,070;   99,636;   -0,455;    1,955
959,623;  274,364;    1,091;    1,500
960,176;  246,091;    1,727;    2,045
960,728;  209,000;   -2,727;    0,773
961,281;  171,727;    0,545;    0,500
961,834;  123,455;   -0,909;    0,864
962,386;  133,273;    1,727;    1,045
962,939;  119,091;    0,364;   -0,318
963,491;  152,909;    0,455;    1,136
964,043;  115,000;    1,182;    2,409
964,596;  219,545;   -1,000;    2,227
965,148;  157,636;   -1,000;    1,773
965,700;  106,273;    1,091;   -0,227
966,253;  212,182;   -0,636;    0,318
966,805;  183,818;   -2,273;    0,773
967,357;  137,273;    1,091;   -1,500
967,909;  210,091;    0,455;   -1,227
968,461;  145,818;    0,545;    3,136
969,013;  113,909;   -0,182;   -0,864
969,565;  212,455;   -0,455;   -1,136
970,117;  356,364;   -0,364;    1,045
970,669;  217,091;    0,182;   -0,136
971,220;   90,182;   -0,455;   -1,500
971,772;  144,455;   -0,636;   -0,318
972,324;  198,182;    0,091;   -0,500
972,876;  129,727;    0,818;   -0,045
973,427;  202,909;    1,909;   -1,045
973,979;  256,000;   -0,727;   -2,500
974,530;  139,818;    1,818;    1,318
975,082;  180,636;   -0,545;    1,682
975,633;  145,727;    1,091;    1,682
976,184;  160,545;    0,909;    0,773
976,736;  158,091;    0,091;    0,227
977,287;  180,545;   -0,909;   -0,500
977,838;  145,273;    0,909;   -0,318
978,389;  145,636;   -1,000;   -0,500
978,940;   80,545;    0,545;   -0,409
979,491;   80,364;    0,091;   -0,500
980,042;  139,727;    0,182;    3,045
980,593;  150,727;   -2,545;    0,227
981,144;  195,909;    2,545;   -0,500
981,695;  204,727;    1,455;    1,500
982,246;  180,727;   -0,273;    1,045
982,797;  103,273;   -1,727;    0,682
983,347;  188,364;    0,364;    0,591
983,898;  321,364;    3,091;    0,409
984,449;  308,273;    2,182;    0,773
984,999;  196,545;    1,455;   -1,136
985,550;  172,000;    0,182;   -0,318
986,100;   97,273;   -0,455;   -0,318
986,651;   90,818;   -0,818;    0,045
987,201;  104,636;   -1,000;   -0,591
987,751;  112,909;    0,818;    2,864
988,302;  130,091;    2,636;    1,500
988,852;  171,636;    0,455;   -1,136
989,402;  197,273;    0,091;    0,682
989,952;  220,727;   -2,182;    0,864
990,502;  125,818;   -0,091;    0,682
991,052;   68,364;   -0,727;    0,045
991,602;  107,182;   -2,909;    1,318
992,152;  128,727;    0,455;    0,682
992,702;  150,273;    1,364;   -0,045
993,252;  116,273;   -3,000;   -0,500
993,802;  175,727;   -0,273;    1,318
994,352;  138,000;   -1,545;    1,136
994,901;   88,909;   -0,182;    3,227
995,451;   80,182;   -0,182;    0,318
996,000;   98,545;    1,636;    0,318
996,550;  114,909;    2,273;    0,227
997,100;  135,273;    1,273;   -0,045
997,649;  209,909;    2,182;    0,955
998,198;  112,818;    1,727;   -1,500
998,748;  170,455;    1,091;   -2,318
999,297;  137,636;   -0,818;   -0,409
999,846;  214,909;    1,000;   -0,773
1000,395;  152,455;   -0,818;    0,500
1000,945;  218,091;    1,818;   -0,773
1001,494;  213,182;    2,364;    0,682
1002,043;  217,000;    4,636;    0,864
1002,592;  113,182;   -1,091;    1,955
1003,141;  102,636;   -0,455;   -0,682
1003,690;  211,727;    1,727;    0,500
1004,238;  136,818;    1,455;   -0,045
1004,787;   94,091;    1,364;    1,227
1005,336;  184,182;    0,364;    0,682
1005,885;  149,455;    1,364;   -2,773
1006,433;  146,545;    0,545;    0,955
1006,982;  245,182;    0,455;    1,682
1007,531;  163,182;   -1,818;   -0,227
1008,079;  143,818;   -2,273;    0,500
1008,627;  112,000;   -1,455;    0,409
1009,176;  132,636;    0,000;   -1,955
1009,724;  100,818;    1,091;    0,864
1010,273;  181,636;    1,273;    0,500
1010,821;  109,000;    0,091;    1,409
1011,369;   93,455;   -1,364;    1,318
1011,917;   97,182;   -1,364;   -0,591
1012,465;  143,545;    1,273;   -1,591
1013,013;  138,000;    2,091;   -1,682
1013,561;  206,182;    0,455;   -0,773
1014,109;  259,091;   -1,909;    1,682
1014,657;  176,273;    0,364;    0,591
1015,205;  121,000;    1,636;   -0,955
1015,753;   97,000;   -0,545;   -1,409
1016,301;  137,273;   -2,636;    3,045
1016,848;  184,909;   -1,273;    0,409
1017,396;  172,273;    2,545;    0,045
1017,944;  163,364;    1,182;    1,864
1018,491;  122,727;    0,273;    1,409
1019,039;  298,727;    0,455;    0,591
1019,586;  158,727;   -1,364;    1,682
1020,134;  146,364;    0,455;    1,500
1020,681;  195,273;    0,182;   -1,136
1021,228;  145,545;    2,909;   -2,227
1021,776;  126,182;    1,182;   -1,136
1022,323;  266,364;    0,455;    0,773
1022,870;  196,818;   -1,000;   -0,045
1023,417;  230,000;    2,636;    1,864
1023,964;  137,727;    2,636;    1,227
1024,511;  112,909;    1,000;    0,773
1025,058;  150,455;    3,182;   -0,045
1025,605;  119,000;   -2,273;    3,136
1026,152;  244,091;    1,727;   -0,591
1026,699;  154,818;    1,818;    1,318
1027,245;  143,636;   -0,091;    0,318
1027,792;  103,727;   -1,000;    1,409
1028,339;  245,636;    2,364;   -0,045
1028,885;  158,727;    1,000;   -0,227
1029,432;  132,091;   -0,091;    0,227
1029,978;  181,636;   -1,000;   -1,591
1030,525;  188,727;    1,000;    0,409
1031,071;  116,182;   -1,364;    1,136
1031,618;  286,636;    0,364;    1,682
1032,164;  186,000;   -0,091;    3,045
1032,710;  206,545;    1,636;   -1,500
1033,256;  185,000;   -0,636;   -0,136
1033,803;  101,909;   -0,545;    1,500
1034,349;   38,636;   -1,364;    0,136
1034,895;   63,636;    0,000;   -0,318
1035,441;  101,818;   -0,818;    0,318
1035,987;  128,909;   -2,364;   -0,682
1036,533;  167,909;   -1,455;   -0,955
1037,078;  302,364;    1,455;    1,682
1037,624;  205,818;    2,455;   -0,955
1038,170;  119,273;    0,455;   -0,318
1038,716;  168,182;    1,636;   -0,409
1039,261;  101,273;   -2,273;   -0,773
1039,807;  114,455;   -0,091;    3,409
1040,352;  120,818;   -1,909;   -0,318
1040,898;  112,273;   -1,545;   -0,682
1041,443;   86,545;   -1,455;   -2,591
1041,989;  272,818;    1,091;    1,591
1042,534;  155,182;   -0,364;    2,591
1043,079;   82,727;    2,909;    0,955
1043,625;  136,091;    1,818;    0,500
1044,170;  145,000;   -1,364;    1,045
1044,715;  262,727;    2,455;    0,955
1045,260;  202,636;    2,182;   -0,955
1045,805;  114,727;    1,182;   -0,591
1046,350;   95,273;    1,364;   -0,409
1046,895;  207,909;    2,909;    1,591
1047,440;  191,000;    5,364;    0,409
1047,985;  119,091;    2,818;   -0,955
1048,530;  108,364;    1,545;    1,227
1049,074;  135,182;    0,000;    0,318
1049,619;  100,727;   -1,364;    1,955
1050,164;  100,818;    0,455;    0,227
1050,708;  161,636;   -0,455;    0,045
1051,253;  295,364;    1,273;   -2,227
1051,797;  174,818;    0,818;   -1,318
1052,342;   82,636;   -1,182;    1,045
1052,886;  131,909;    0,364;   -1,409
1053,430;   81,091;   -1,364;    0,136
1053,975;  134,727;   -0,818;   -0,318
1054,519;  132,273;   -0,727;    3,227
1055,063;  159,545;    0,909;    1,318
1055,607;  159,364;   -0,182;    0,227
1056,151;  156,545;    2,909;    1,682
1056,695;  110,545;    2,273;   -1,136
1057,239;  103,909;   -1,727;   -0,682
1057,783;  130,909;    0,818;   -1,500
1058,327;  179,818;    0,000;    1,409
1058,871;  261,545;   -0,545;    1,318
1059,415;  187,091;   -0,818;   -0,045
1059,958;  261,182;    1,455;    2,591
1060,502;  115,545;   -1,000;   -0,773
1061,046;   76,455;    0,364;   -0,955
1061,589;   75,364;   -3,000;   -1,136
1062,133;   61,182;   -1,273;    1,864
1062,676;   86,818;    1,182;    0,864
1063,220;  100,636;    1,091;    0,500
1063,763;  115,818;    0,909;    1,136
1064,306;  125,545;   -0,909;    1,864
1064,849;  131,091;   -0,909;    0,591
1065,393;  117,091;    2,000;   -1,500
1065,936;  115,182;    0,182;   -0,409
1066,479;   79,727;   -1,455;    1,318
1067,022;   93,000;   -0,273;   -0,227
1067,565;   77,545;   -0,091;   -1,318
1068,108;   67,091;    0,727;   -0,591
1068,651;   55,909;   -0,636;    1,409
1069,194;   60,182;   -0,455;   -1,682
1069,736;   68,182;   -1,273;    0,955
1070,279;   59,455;   -1,364;   -0,500
1070,822;  101,818;   -2,000;   -0,318
1071,364;  176,091;   -0,364;    1,318
1071,907;  100,545;   -0,727;    3,227
1072,450;   33,000;    0,000;   -0,045
1072,992;   63,455;   -0,273;    3,136
1073,535;   98,818;    2,091;    2,136
1074,077;   66,364;   -0,727;    2,045
1074,619;   53,000;   -1,364;    0,591
1075,161;   74,455;   -1,091;    1,500
1075,704;  146,364;    1,545;    1,227
1076,246;   76,636;   -0,182;    0,682
1076,788;   43,364;   -0,364;    1,773
1077,330;   42,727;    1,273;    2,136
1077,872;   63,818;    0,909;    0,955
1078,414;  158,000;    2,727;    0,773
1078,956;   83,000;    1,273;   -0,227
1079,498;  142,455;    1,636;    0,318
1080,040;   79,727;    1,909;   -1,318
1080,581;   62,182;    1,636;   -0,318
1081,123;   33,273;    0,091;   -0,773
1081,665;   39,000;   -1,182;   -0,955
1082,206;  135,818;    1,364;   -0,500
1082,748;   89,455;    0,727;    2,045
1083,289;   47,909;   -2,000;    1,318
1083,831;   39,091;   -0,545;    0,227
1084,372;   61,909;    0,000;    0,591
1084,913;   64,182;    1,091;    0,864
1085,455;   40,636;   -1,909;   -2,045
1085,996;   32,091;   -2,273;    0,136
1086,537;   45,455;   -0,091;    0,864
1087,078;   56,727;   -0,909;   -2,136
1087,619;   85,000;   -1,273;    0,227
1088,160;   67,364;    0,000;    1,318
1088,701;   56,000;   -1,091;    0,682
1089,242;   51,909;    1,364;   -2,227
1089,783;   72,091;   -0,273;    1,409
1090,324;   58,000;    0,455;    0,682
1090,865;   40,182;    2,727;   -0,409
1091,405;   30,909;    0,727;    2,227
1091,946;   52,182;    0,182;   -0,955
1092,487;   27,545;    0,818;   -1,409
1093,027;   77,727;   -1,364;   -1,500
1093,568;   41,727;   -0,364;    1,227
1094,108;   57,091;    0,273;    1,773
1094,649;   45,364;   -1,182;    0,136
1095,189;   33,909;   -0,636;   -0,682
1095,729;   31,091;   -0,091;    0,955
1096,269;   24,364;    0,727;   -0,955
1096,810;   95,727;   -1,364;    0,500
1097,350;   68,182;    1,364;   -0,773
1097,890;   49,727;    0,364;    1,227
1098,430;  135,182;    2,364;    2,864
1098,970;   96,273;    2,182;    1,682
1099,510;   41,727;    0,545;   -2,318
1100,050;   37,000;    1,000;   -1,591
1100,589;   45,364;   -0,727;   -0,318
1101,129;   66,182;    0,818;   -0,955
1101,669;  102,182;    1,727;    2,136
1102,209;   65,091;   -0,091;    2,227
1102,748;   45,636;    0,000;    0,955
1103,288;   51,000;    1,273;   -1,227
1103,827;   42,182;    3,091;   -2,227
1104,367;   30,636;   -0,091;   -2,409
1104,906;   35,727;    1,364;   -1,136
1105,445;   54,909;    0,636;   -1,136
1105,985;   42,091;   -0,727;    1,500
1106,524;   48,455;   -1,727;   -0,682
1107,063;   37,182;   -2,727;    1,409
1107,602;   28,636;   -1,909;   -1,500
1108,141;   23,636;   -1,909;    1,500
1108,680;   53,364;   -3,455;   -0,591
1109,219;   38,364;   -0,909;   -0,500
1109,758;   36,000;    0,455;    0,682
1110,297;   36,636;    1,000;   -0,682
1110,836;   25,545;   -0,727;    0,955
1111,375;   31,273;   -2,545;    0,409
1111,913;   55,091;   -1,000;    0,773
1112,452;   43,545;   -0,273;    0,136
1112,991;   23,818;    1,091;    1,955
1113,529;   23,000;   -0,818;   -0,045
1114,068;   34,455;   -0,273;    2,955
1114,606;   20,727;   -0,364;   -0,955
1115,144;   49,273;   -1,273;    1,045
1115,683;   38,000;   -0,727;    0,318
1116,221;   49,091;   -0,455;   -0,864
1116,759;   30,364;    0,636;   -0,864
1117,297;   55,000;    0,000;    1,864
1117,836;   28,091;   -2,182;   -1,227
1118,374;   30,727;    0,182;   -0,682
1118,912;   35,364;    0,909;    2,682
1119,450;   35,909;    1,000;    0,864
1119,988;   31,182;    1,545;    2,136
1120,525;  175,455;    5,091;    3,318
1121,063;   83,636;    1,182;    1,864
1121,601;   33,909;   -0,909;   -1,227
1122,139;   24,182;   -0,727;   -2,045
1122,676;   71,364;   -0,727;    2,773
1123,214;   58,091;   -1,182;    4,409
1123,751;   21,182;    1,727;    2,227
1124,289;   36,727;   -0,091;   -0,409
1124,826;   24,273;    1,727;    0,227
1125,364;   11,182;    1,727;   -0,955
1125,901;   60,545;    1,182;    1,227
1126,438;   56,636;    0,818;    0,955
1126,975;   12,273;   -0,727;   -0,773
1127,513;   19,909;    0,273;    2,136
1128,050;   12,545;    1,636;   -0,682
1128,587;   23,273;    2,000;   -0,227
1129,124;   35,000;    0,091;    1,318
1129,661;   18,364;    0,273;    0,227
1130,198;   49,364;    1,636;    0,773
1130,734;   31,091;    0,182;    1,409
1131,271;   14,909;   -0,909;    0,864
1131,808;   39,818;    2,909;    3,045
1132,345;   21,909;    1,545;    0,318
1132,881;    6,273;   -1,545;   -1,864
1133,418;   22,182;    0,727;   -1,136
1133,954;   12,455;    2,455;   -2,682
1134,491;   28,000;    1,364;   -0,773
1135,027;   16,273;    2,364;    0,864
1135,564;   25,273;    0,273;    2,955
1136,100;   23,909;    0,364;    2,136
1136,636;   12,818;   -1,273;   -1,045
1137,172;   18,727;    0,000;   -1,045
1137,708;   14,818;   -1,364;   -1,045
1138,245;    8,727;    1,273;   -1,227
1138,781;    5,545;    1,091;   -3,318
1139,317;   13,818;    1,273;   -1,409
1139,852;   20,091;    3,091;    0,136
1140,388;   29,455;   -1,182;   -0,409
1140,924;   16,182;   -1,091;   -2,227
1141,460;    7,091;   -1,636;    0,136
1141,996;    4,818;   -1,364;    2,682
1142,531;    5,909;    1,364;    3,318
1143,067;   35,455;    1,182;    1,045
1143,602;   50,364;   -0,091;   -0,318
1144,138;   23,727;   -2,636;    1,045
1144,673;    9,818;   -1,455;    1,409
1145,209;   15,091;   -1,909;   -0,318
1145,744;    5,273;   -0,727;    0,864
1146,279;   17,182;    1,818;   -0,136
1146,815;    8,545;    1,545;   -2,682
1147,350;   18,545;   -1,364;    0,045
1147,885;    7,364;   -0,818;   -1,318
1148,420;    8,273;   -2,273;    0,773
1148,955;    9,000;   -1,727;    1,864
1149,490;    7,909;   -0,909;   -1,591
1150,025;    4,182;    0,455;   -1,773
1150,560;   19,182;    1,091;   -0,955
1151,094;   14,182;    1,455;   -0,591
1151,629;   12,364;    1,636;    0,864
1152,164;    9,545;    1,364;    1,318
1152,698;    9,091;   -0,182;   -0,136
1153,233;    3,182;    0,091;   -0,682
1153,767;    7,727;   -3,000;   -2,318
1154,302;   14,091;   -1,455;    1,773
1154,836;    9,636;   -0,455;   -2,136
1155,371;   12,000;   -1,364;    3,682
1155,905;   10,091;   -0,636;    1,682
1156,439;    7,091;   -0,636;   -0,500
1156,973;   11,000;    0,364;    0,318
1157,507;    3,909;   -0,364;    0,682
1158,042;    6,727;   -0,727;    1,045
1158,576;   12,727;    0,182;    1,773
1159,110;   10,091;   -0,818;    2,409
1159,643;    7,455;    0,636;   -0,045
1160,177;    6,455;   -1,545;    1,500

