
Integration time [ms]:   0,040
Averaging Nr. [scans]: 11
Smoothing Nr. [pixels]: 0
Data measured with spectrometer [name]: 7318044SP
Wave   ;Sample   ;Dark     ;Reference
[nm]   ;[counts] ;[counts] ;[counts] 

186,757;   39,211;   31,551;    1,318
187,357;   38,082;   22,551;    0,955
187,958;   25,463;   15,460;   -1,591
188,558;   34,020;    8,915;   -1,227
189,159;   19,460;    6,733;   -4,500
189,759;   12,635;    7,278;   -3,591
190,360;   11,697;    2,824;   -2,136
190,960;   21,114;    2,915;   -4,136
191,560;   22,002;    3,189;   -6,591
192,161;  104,829;    4,372;   -3,500
192,761;   56,349;    4,010;   -3,227
193,361;   36,985;    1,556;   -3,773
193,962;   49,523;    2,010;   -2,682
194,562;   17,679;    1,189;   -3,955
195,162;   19,843;   -2,448;   -2,227
195,762;   62,132;   -3,176;   -0,045
196,362;   44,827;    1,370;   -2,500
196,963;   17,184;    2,006;   -0,864
197,563;   35,116;    1,551;   -0,955
198,163;   17,560;    0,096;   -0,682
198,763;   21,661;    1,733;   -0,500
199,363;   38,219;    3,096;   -0,500
199,963;   29,012;    0,369;    0,409
200,563;   24,713;    2,823;   -1,409
201,163;   16,701;    3,277;   -0,227
201,763;   32,404;    3,732;    0,318
202,363;   18,992;    1,459;    1,500
202,963;   27,891;    1,459;    1,045
203,563;   60,294;    0,277;    0,500
204,162;   30,586;    2,096;   -1,864
204,762;   26,705;    0,550;    0,591
205,362;   13,529;    3,004;    1,955
205,962;   29,060;    3,096;    1,955
206,562;   25,851;    1,823;    2,318
207,161;   21,302;   -0,087;    0,318
207,761;   71,852;    1,277;    2,409
208,361;   32,687;   -0,268;    1,409
208,960;   43,466;    0,459;    1,500
209,560;   41,719;    1,277;    1,591
210,160;   53,106;    0,550;    1,864
210,759;   40,331;    4,186;    1,227
211,359;   31,792;    1,459;    1,045
211,958;  115,757;    1,277;    2,045
212,558;  121,364;    1,732;    1,864
213,157;   68,972;    1,822;    1,500
213,757;  193,003;    3,822;   -0,227
214,356;   98,018;    1,277;   -0,409
214,956;  190,784;    3,095;    0,409
215,555;   82,846;    2,095;    2,136
216,154;   55,120;   -2,723;   -0,591
216,754;   58,474;    0,277;    0,773
217,353;   78,370;   -0,268;   -1,045
217,952;   29,219;   -0,178;    0,318
218,552;  108,315;    1,368;   -0,773
219,151;   66,193;    0,277;    0,955
219,750;   53,289;    0,004;   -0,227
220,349;   47,974;   -0,451;    1,045
220,948;  124,133;   -1,360;    1,136
221,548;   69,013;    0,913;    1,227
222,147;   90,081;   -0,087;   -0,409
222,746;  199,027;   -0,451;   -0,955
223,345;  123,597;    0,731;    0,500
223,944;  130,867;   -0,451;    0,773
224,543;  148,167;    1,004;   -1,409
225,142;  147,148;    0,094;    0,136
225,741;  142,536;   -0,814;    1,045
226,340;  134,743;   -0,451;   -0,955
226,939;  239,253;   -0,996;   -0,136
227,538;  132,523;   -0,360;   -0,773
228,137;  248,213;   -0,814;    0,864
228,735;  209,208;   -0,541;    1,227
229,334;  109,107;   -0,905;   -0,227
229,933;  277,393;    0,459;    0,591
230,532;  288,971;    1,186;   -0,409
231,131;  365,752;    1,732;    0,318
231,729;  257,368;   -2,450;   -2,318
232,328;  195,261;   -0,723;   -1,500
232,927;  213,084;    1,004;   -0,500
233,525;  201,563;    3,640;    0,045
234,124;  242,060;    2,368;   -1,591
234,723;  176,917;    0,913;   -1,045
235,321;  172,903;    2,277;    0,136
235,920;  216,646;    1,186;   -1,227
236,518;  380,813;    3,459;    0,318
237,117;  221,562;    0,004;   -0,227
237,715;  239,565;    0,640;   -0,500
238,314;  293,713;   -0,087;   -2,318
238,912;  429,260;   -0,723;   -1,409
239,510;  317,877;    0,459;   -1,227
240,109;  436,683;    0,004;    3,773
240,707;  390,615;   -0,996;    1,227
241,305;  248,560;    0,550;    0,136
241,904;  356,106;   -0,178;   -2,045
242,502;  465,575;   -0,632;   -0,227
243,100;  356,282;   -0,087;   -0,955
243,698;  293,831;    0,732;    1,682
244,297;  335,657;   -0,632;    0,682
244,895;  332,893;   -0,269;   -2,318
245,493;  521,667;    2,186;   -0,591
246,091;  516,919;    1,368;   -1,318
246,689;  448,187;    1,004;    0,591
247,287;  411,180;    0,822;   -1,136
247,885;  369,459;   -1,451;    1,227
248,483;  337,719;    1,822;   -0,500
249,081;  427,459;    0,185;    1,591
249,679;  466,351;   -0,178;    1,682
250,277;  331,243;   -1,723;    0,864
250,875;  469,378;   -1,087;   -1,045
251,473;  360,023;   -1,178;    0,500
252,071;  465,628;    1,459;    1,045
252,669;  384,685;   -1,814;    0,318
253,267;  326,850;   -0,087;    0,773
253,864;  384,453;   -0,360;    0,682
254,462;  543,263;    1,640;    1,591
255,060;  325,239;   -0,269;    1,318
255,658;  320,958;    0,822;   -0,136
256,255;  407,903;    0,186;   -2,045
256,853;  452,005;   -0,269;    1,409
257,451;  424,385;    0,822;    1,864
258,048;  851,815;    1,822;    1,864
258,646;  551,531;    1,731;   -1,045
259,243;  655,550;   -0,087;    2,227
259,841;  525,688;   -0,814;    0,318
260,438;  373,099;   -0,087;    0,864
261,036;  508,846;   -1,905;    1,409
261,633;  393,058;   -0,087;    2,227
262,231;  347,217;    2,731;   -0,045
262,828;  361,812;   -0,905;    1,136
263,425;  417,441;    0,913;   -0,591
264,023;  424,148;    0,186;    0,045
264,620;  576,339;   -0,360;   -0,318
265,217;  710,872;   -2,087;    3,136
265,815;  426,813;   -1,905;    2,136
266,412;  555,518;    0,731;    0,136
267,009;  580,743;   -1,451;    0,773
267,606;  670,622;    0,822;   -0,955
268,203;  458,685;   -0,269;   -0,591
268,801;  503,954;    1,731;    0,591
269,398;  409,566;   -0,360;    2,500
269,995;  571,812;    0,277;    1,591
270,592;  497,836;   -0,632;   -0,500
271,189;  409,477;    0,186;    0,409
271,786;  381,812;   -0,632;    1,227
272,383;  655,855;   -1,087;    0,227
272,980;  497,297;    0,277;    0,318
273,577;  442,141;    0,004;    1,227
274,174;  408,162;    0,822;    2,591
274,771;  559,958;   -0,814;   -0,773
275,367;  959,227;    2,277;    1,409
275,964;  755,471;    0,731;   -0,500
276,561;  532,972;    1,549;   -1,045
277,158;  453,623;    0,095;   -1,773
277,755;  703,096;    2,185;    0,409
278,351;  577,890;   -0,451;   -1,500
278,948;  652,544;   -0,815;    0,045
279,545;  579,760;   -1,360;    2,318
280,141;  795,456;   -1,723;   -2,045
280,738;  725,221;   -0,451;   -0,136
281,334;  513,112;   -1,633;    0,591
281,931;  539,725;   -0,087;   -1,318
282,528;  651,612;    0,822;   -0,500
283,124;  744,445;   -1,087;   -0,500
283,721;  734,979;   -0,451;    1,409
284,317;  565,006;    0,185;    2,500
284,913;  771,714;   -1,360;    0,591
285,510; 1050,169;    0,640;   -0,318
286,106;  839,013;   -2,269;   -0,955
286,703;  593,527;   -0,360;    1,955
287,299;  545,506;   -1,451;   -0,591
287,895;  524,704;    0,822;   -1,045
288,491;  526,839;    0,186;    2,136
289,088;  652,427;   -2,360;    2,409
289,684;  705,140;   -1,723;    1,500
290,280;  863,896;    0,368;    0,682
290,876;  814,969;    1,822;    5,500
291,472;  702,079;    1,276;    2,227
292,068;  713,386;    1,367;    0,227
292,665;  574,688;    2,095;    0,773
293,261;  456,487;    0,276;    2,136
293,857;  671,614;    2,913;    2,136
294,453;  581,297;    3,550;    0,955
295,049;  806,305;   -0,268;    1,955
295,644;  623,531;    0,095;    0,136
296,240;  476,083;   -0,905;   -0,136
296,836;  621,703;   -0,995;    0,318
297,432;  770,344;    1,096;   -0,500
298,028;  824,529;    0,732;    0,773
298,624;  662,627;    1,459;    1,864
299,220;  627,218;    2,368;    0,591
299,815;  610,643;    1,005;   -0,409
300,411;  723,942;    0,914;    1,773
301,007;  856,333;    1,368;    0,227
301,602;  672,620;   -0,541;   -2,318
302,198;  798,102;    0,732;   -0,773
302,794;  631,565;    1,187;   -0,500
303,389;  586,489;   -1,177;    1,045
303,985;  640,411;    0,550;    1,409
304,580;  762,924;    1,459;    1,591
305,176;  660,122;   -3,086;    0,136
305,771;  534,167;   -1,268;   -1,227
306,367;  953,472;    4,095;    0,136
306,962;  701,620;    0,641;    1,500
307,558;  740,617;   -0,450;    0,136
308,153;  826,490;    1,095;   -1,136
308,748;  603,096;   -0,814;    1,682
309,344; 1002,474;   -0,632;   -1,318
309,939; 1022,068;   -1,905;   -1,318
310,534;  678,908;   -0,086;   -1,682
311,130;  636,377;    0,459;   -2,500
311,725;  579,416;    1,004;   -0,500
312,320;  657,992;    2,459;    0,045
312,915;  774,367;    1,459;   -1,045
313,510;  995,695;    1,550;   -0,500
314,105;  708,171;    1,096;    1,409
314,700;  527,755;   -3,086;   -1,045
315,295;  622,833;   -0,904;    0,045
315,890;  551,611;    1,277;    0,864
316,485;  675,607;   -0,359;   -0,318
317,080;  588,994;   -3,086;    1,591
317,675;  926,815;    2,005;   -0,682
318,270; 1129,945;    5,550;    3,318
318,865; 1022,849;    3,278;    3,045
319,460;  830,528;   -0,904;    0,591
320,055;  663,895;   -0,541;   -1,227
320,650;  659,778;   -1,995;   -0,591
321,244;  663,192;   -0,177;   -1,409
321,839;  713,679;   -1,541;   -0,227
322,434;  775,537;   -1,086;   -1,591
323,029;  671,516;    1,732;    1,591
323,623;  625,096;    1,550;    0,773
324,218;  812,028;    2,368;    1,409
324,812;  740,934;    1,096;    1,591
325,407;  753,437;   -0,814;    2,045
326,002;  870,445;    0,277;   -0,409
326,596;  808,104;    0,914;    1,318
327,191;  633,784;    0,823;   -1,045
327,785;  605,468;   -0,813;   -0,227
328,379;  654,786;    1,368;    0,136
328,974;  701,333;    0,914;   -3,955
329,568;  728,758;    0,186;   -2,409
330,163;  802,619;    2,096;    1,045
330,757;  636,529;    2,459;    1,591
331,351;  574,659;    0,459;    0,682
331,945;  571,833;    0,914;    1,409
332,540;  729,846;   -1,723;   -0,591
333,134;  710,537;   -1,086;    0,773
333,728;  695,117;    0,005;    0,318
334,322;  588,960;   -1,177;   -0,864
334,916;  563,862;    0,277;    0,955
335,510;  754,560;   -0,450;   -0,136
336,105;  757,421;   -1,086;    1,591
336,699;  630,042;   -1,086;    0,591
337,293;  660,396;   -1,723;    0,318
337,887;  588,630;   -2,723;    1,955
338,481;  761,843;    0,459;    0,591
339,074;  887,312;   -0,359;    2,682
339,668;  849,377;   -1,632;    1,227
340,262; 1459,635;    1,732;    3,227
340,856; 1028,364;    1,822;   -0,682
341,450;  641,406;    1,004;    1,864
342,044;  715,851;    1,459;    0,136
342,637;  872,774;    0,913;   -2,136
343,231;  880,661;   -2,360;    0,682
343,825;  718,856;   -1,086;   -0,591
344,419;  691,317;   -1,995;    0,500
345,012; 1272,638;    2,459;    4,045
345,606; 1060,153;    4,641;    1,591
346,199;  703,909;   -1,813;   -0,227
346,793;  847,065;    1,914;    2,045
347,386;  628,745;   -0,813;   -1,136
347,980;  500,917;   -0,268;   -0,045
348,573;  625,747;    2,278;    0,409
349,167;  945,658;    5,278;    4,773
349,760;  831,124;    2,914;    2,682
350,354;  777,715;   -0,813;    1,136
350,947;  831,364;    1,096;    1,682
351,540;  657,901;   -0,358;   -1,409
352,134;  508,034;    1,096;    1,136
352,727;  545,802;   -0,086;    1,136
353,320;  574,151;    0,005;    0,591
353,913;  494,455;   -1,995;    1,864
354,507;  722,752;    0,823;   -1,227
355,100;  594,086;    0,460;    0,864
355,693; 1043,633;    2,005;    2,409
356,286;  770,666;    0,823;    2,773
356,879;  600,588;   -0,722;    1,227
357,472;  586,241;   -0,904;    1,500
358,065;  649,434;   -0,722;    2,500
358,658;  487,765;   -0,540;    2,318
359,251;  442,956;   -1,631;   -0,591
359,844;  660,874;   -1,904;   -1,136
360,437;  742,640;   -2,995;    0,045
361,030;  570,500;    1,369;   -0,682
361,623;  572,825;    2,824;    0,318
362,215;  830,239;   -0,086;    2,045
362,808;  662,541;   -2,358;   -1,682
363,401;  576,057;   -2,449;    0,136
363,994;  825,375;   -0,631;   -1,500
364,586;  577,963;    0,824;   -1,500
365,179;  509,241;   -0,449;   -1,136
365,772;  360,843;   -1,995;    2,045
366,364;  540,382;    1,915;   -3,227
366,957;  621,613;    2,279;   -0,045
367,549;  546,829;    2,188;   -0,864
368,142;  556,161;    1,825;   -1,500
368,734;  519,556;    0,734;   -2,136
369,327;  421,282;    1,643;   -0,500
369,919;  473,847;   -1,538;    0,409
370,512;  510,342;   -1,083;   -0,500
371,104;  805,922;   -0,901;    1,591
371,696;  850,881;    1,191;   -0,955
372,289;  677,573;    0,373;    1,136
372,881;  610,658;   -2,080;    1,318
373,473;  481,659;   -2,170;    1,136
374,066;  602,994;   -0,169;    0,500
374,658;  566,339;    0,378;    1,136
375,250;  487,737;    0,653;   -1,409
375,842;  563,994;    0,473;   -0,045
376,434;  504,866;   -0,435;   -0,409
377,026;  505,208;    0,204;   -2,500
377,618;  548,423;   -0,158;   -0,682
378,210;  475,506;   -0,338;   -1,955
378,802;  444,094;    0,754;   -0,591
379,394;  926,185;    1,846;    0,682
379,986;  649,525;    1,393;   -0,955
380,578;  540,023;   -0,153;    0,773
381,170;  825,770;   -0,972;    0,045
381,762;  700,307;    0,755;    1,409
382,354;  649,920;   -0,065;   -1,318
382,945;  533,368;   -2,976;    0,318
383,537;  466,184;   -2,705;   -1,955
384,129;  466,609;   -2,160;   -1,136
384,721;  613,157;   -0,252;    0,955
385,312;  516,167;   -0,161;   -0,955
385,904;  643,837;   -2,706;    1,591
386,496;  539,217;   -0,979;    1,045
387,087;  700,284;    1,022;    2,500
387,679;  635,779;   -1,160;    0,045
388,270;  621,213;    2,840;    2,045
388,862;  580,292;    1,295;   -0,318
389,453;  544,425;   -0,887;    1,045
390,045;  570,515;   -0,705;   -2,682
390,636;  446,836;    0,204;   -0,591
391,227;  512,638;   -0,523;   -0,045
391,819;  499,994;    0,204;    0,773
392,410;  806,745;    1,022;    0,045
393,001;  589,274;   -0,979;   -1,591
393,593;  670,076;    1,930;   -0,045
394,184;  730,557;    1,385;   -0,409
394,775;  560,199;    1,839;    2,136
395,366;  483,477;    1,385;    0,773
395,957;  723,938;    0,113;    0,136
396,548;  586,065;   -0,342;    2,682
397,139;  757,507;   -2,433;    0,591
397,730;  636,284;   -1,888;    0,955
398,321;  641,219;   -1,252;    0,955
398,912;  561,169;   -0,615;    0,136
399,503;  565,615;   -3,524;   -1,409
400,094;  623,240;    0,294;    1,682
400,685;  612,474;   -0,433;    0,045
401,276;  524,980;    0,930;   -0,955
401,867;  514,346;   -0,888;    0,773
402,458;  481,696;   -2,251;   -2,318
403,048;  683,471;    1,112;    0,591
403,639;  586,411;    0,840;    0,864
404,230;  753,573;    2,476;    0,318
404,821;  816,797;   -0,615;    0,045
405,411;  686,432;    1,203;   -2,591
406,002;  567,027;   -1,252;   -1,136
406,592;  845,967;    2,294;    0,045
407,183;  668,584;    0,566;   -1,500
407,774;  636,792;    3,475;   -0,136
408,364;  595,565;    0,930;    0,409
408,954;  750,798;    0,384;    1,227
409,545;  749,602;    1,021;    1,045
410,135;  671,920;    1,293;    0,500
410,726;  623,892;    1,838;    0,318
411,316;  857,443;    0,111;    0,773
411,906;  627,642;   -0,253;   -0,409
412,497;  637,464;   -1,070;   -0,045
413,087;  572,659;   -1,980;   -0,227
413,677;  503,530;   -0,707;    3,864
414,267;  487,509;    0,656;    1,409
414,857;  456,357;   -2,980;    4,227
415,448;  471,503;    0,839;    0,500
416,038;  509,892;    0,020;   -0,591
416,628;  584,152;   -0,889;    0,409
417,218;  663,128;    0,565;    3,318
417,808;  849,612;    0,202;   -0,409
418,398;  680,254;    0,020;    2,682
418,988;  533,550;    2,020;    0,591
419,578;  651,831;   -0,707;    1,409
420,168;  605,834;   -1,343;   -0,955
420,757;  804,414;   -1,343;   -1,500
421,347;  658,202;    0,111;   -0,227
421,937;  608,371;    2,292;    1,409
422,527;  768,889;    0,838;   -0,773
423,116;  943,797;   -0,253;   -0,045
423,706;  583,949;   -1,889;    0,318
424,296;  520,576;    1,384;    0,682
424,885;  728,758;   -0,071;   -3,045
425,475;  695,376;    1,474;   -2,864
426,065;  535,095;   -0,980;   -0,318
426,654;  502,207;   -0,435;   -0,318
427,244;  880,852;    0,020;    1,409
427,833;  846,545;    1,383;   -0,500
428,423;  658,788;   -0,526;    1,136
429,012;  688,374;   -0,344;   -1,136
429,601;  832,808;   -1,344;    0,136
430,191;  683,410;    1,292;    4,318
430,780;  536,433;   -0,344;   -0,409
431,369;  823,540;    0,746;   -0,045
431,959;  694,384;   -1,254;    0,500
432,548;  589,764;   -1,163;   -0,045
433,137;  496,368;   -1,254;   -1,318
433,726;  635,324;    0,292;    0,500
434,315;  640,275;   -0,526;    2,409
434,905;  784,835;   -1,254;    1,409
435,494;  825,194;    0,746;    0,955
436,083;  628,528;   -0,981;   -0,955
436,672;  724,314;    0,110;    0,500
437,261;  649,965;    0,292;   -1,955
437,850; 1014,369;    1,383;    0,682
438,439; 1058,457;    3,291;    1,955
439,027; 1196,496;    3,655;    1,773
439,616; 1130,777;    2,927;    1,227
440,205;  824,773;    0,200;   -2,136
440,794;  722,165;    2,109;   -0,045
441,383;  611,557;   -1,346;   -0,591
441,971;  537,265;   -2,436;    0,591
442,560;  567,475;    0,563;   -1,773
443,149;  434,758;    0,379;   -1,318
443,737;  542,573;   -0,074;   -2,318
444,326;  565,126;    0,018;    0,318
444,915;  649,557;   -1,982;    0,864
445,503;  665,595;   -2,891;   -0,318
446,092; 1013,906;    0,382;    2,136
446,680;  934,979;    0,382;    0,318
447,269;  830,931;   -0,346;   -0,318
447,857;  779,937;    0,018;   -1,773
448,445;  706,609;    0,563;    1,318
449,034;  637,582;   -1,528;   -1,136
449,622;  626,859;   -1,073;    3,500
450,210; 1082,159;    2,017;    2,227
450,799;  964,739;    0,290;   -0,591
451,387;  859,234;    1,381;   -0,591
451,975;  841,181;    2,654;    0,864
452,563;  980,546;    3,472;    2,318
453,151;  673,687;   -0,528;   -1,227
453,739;  765,430;   -1,347;    0,136
454,328;  960,456;    2,381;   -2,136
454,916;  828,900;    2,562;   -0,136
455,504;  835,192;    1,017;    1,227
456,092;  675,948;    0,017;   -1,591
456,679;  592,870;    1,472;    0,682
457,267; 1250,422;    4,017;    1,045
457,855;  751,297;    1,017;    1,409
458,443;  497,414;   -0,165;    1,682
459,031;  833,250;    0,108;    2,409
459,619;  768,003;   -1,801;    2,864
460,206;  588,594;    0,835;    2,045
460,794;  599,119;   -2,983;   -0,227
461,382;  696,630;   -0,529;   -0,864
461,970;  659,718;    1,198;    1,864
462,557;  551,255;   -0,711;   -0,682
463,145;  792,654;   -3,165;   -1,682
463,732; 1143,719;    2,016;   -1,045
464,320;  781,201;   -0,075;   -3,045
464,907; 1010,247;    2,743;   -0,773
465,495;  871,479;    0,743;   -1,227
466,082;  736,552;   -1,984;   -0,045
466,670;  748,390;   -2,529;    1,227
467,257;  589,257;   -1,711;    2,045
467,844;  771,575;   -0,075;    0,045
468,432;  752,868;    0,834;    3,500
469,019;  648,367;    0,925;   -1,773
469,606;  760,287;    0,470;    3,682
470,193;  825,006;   -1,439;    0,227
470,780;  777,773;   -2,075;    0,864
471,368;  650,044;   -1,257;   -0,773
471,955;  812,000;    1,379;   -0,682
472,542;  742,310;    0,652;   -1,136
473,129;  546,209;   -0,166;    0,136
473,716;  559,083;    1,470;    0,591
474,303;  625,638;    0,652;   -0,864
474,890;  637,414;   -1,439;   -0,500
475,477;  791,203;   -1,621;    0,409
476,064;  634,162;    1,106;   -1,591
476,650;  820,399;    0,288;    0,318
477,237;  702,399;   -0,258;    0,955
477,824;  660,430;   -1,076;    0,864
478,411;  502,047;   -1,894;   -0,318
478,997;  502,977;    0,560;   -0,773
479,584;  409,485;    1,196;   -0,409
480,171;  765,881;   -0,440;   -0,773
480,757;  877,832;    2,651;    0,773
481,344;  671,889;    0,469;    0,409
481,931;  489,827;    1,105;    1,045
482,517;  787,298;   -1,258;    0,318
483,104;  934,393;    1,106;    2,864
483,690;  761,498;   -1,804;    0,045
484,276;  717,970;   -0,895;    0,227
484,863; 1096,271;    2,469;    1,136
485,449;  818,058;   -0,077;    0,318
486,035;  740,988;   -1,986;   -0,136
486,622;  943,522;   -0,895;    0,045
487,208;  780,771;    1,378;    1,500
487,794;  631,410;    0,741;    0,318
488,380;  643,086;    0,105;   -1,409
488,967;  658,094;   -1,168;   -0,409
489,553;  682,381;   -1,895;   -1,409
490,139;  845,207;    1,559;    0,773
490,725;  668,413;    0,741;   -0,227
491,311;  730,206;    3,287;    3,045
491,897;  620,311;   -0,986;    1,500
492,483;  616,897;    0,105;    1,227
493,069; 1370,784;    3,923;    0,864
493,655;  878,514;    1,650;    0,682
494,241;  673,488;    1,377;   -0,955
494,826;  724,194;    0,287;   -1,045
495,412;  828,923;    2,559;   -0,682
495,998;  661,626;   -0,805;   -0,318
496,584;  776,473;    0,377;    1,045
497,169;  742,616;    1,014;   -0,682
497,755;  616,972;    0,650;    1,227
498,341;  938,066;    0,559;    0,318
498,926; 1121,688;    1,832;    1,955
499,512;  692,347;    1,286;    2,955
500,097;  677,181;    0,195;   -0,318
500,683;  702,759;   -0,350;    2,136
501,268;  612,589;   -0,169;   -0,955
501,854;  644,918;   -0,169;    1,227
502,439;  586,600;   -0,624;   -1,773
503,024;  717,955;    0,195;    0,500
503,610;  770,488;   -0,078;   -0,682
504,195;  602,361;    0,558;    1,955
504,780;  764,063;    2,922;    1,227
505,366;  922,852;    3,013;    2,864
505,951;  794,084;    0,740;    1,045
506,536;  669,056;   -3,260;   -3,682
507,121;  748,999;    0,285;   -0,318
507,706;  668,196;    2,376;    1,045
508,291;  580,997;    2,649;    1,136
508,876;  572,721;   -0,988;    2,591
509,461;  672,801;   -0,169;   -0,773
510,046;  738,783;    0,194;    0,318
510,631;  723,337;   -0,351;   -0,773
511,216;  598,858;    2,467;   -0,500
511,801;  711,342;   -0,442;    2,591
512,386;  742,283;    0,740;    0,500
512,971;  771,419;   -2,988;    0,955
513,555;  837,962;   -0,897;   -1,500
514,140;  784,361;   -0,442;   -3,136
514,725;  916,242;   -0,715;   -1,136
515,309;  784,031;   -0,533;    0,318
515,894;  637,298;   -0,624;   -2,227
516,479;  673,346;   -0,624;   -0,955
517,063;  680,575;    0,376;    1,227
517,648;  624,049;    1,012;   -1,136
518,232;  583,017;   -0,261;   -1,409
518,817;  696,388;   -0,079;    1,682
519,401;  870,449;    2,194;    0,591
519,985;  776,773;    1,103;    1,136
520,570;  595,135;    0,830;   -1,955
521,154;  761,747;    2,102;    0,591
521,738; 1013,156;   -2,352;    2,409
522,323;  799,991;   -0,170;    1,682
522,907;  764,140;    0,466;   -0,136
523,491;  640,791;    0,557;    0,955
524,075;  573,254;    2,284;    0,591
524,659;  827,082;    1,466;    0,591
525,243;  735,466;    1,739;    0,409
525,827;  659,802;    0,648;   -0,045
526,411;  681,900;   -1,989;   -0,136
526,995;  839,401;   -0,352;    1,409
527,579;  894,763;   -0,443;   -1,045
528,163;  802,116;    0,375;   -1,500
528,747;  959,909;    2,466;   -0,773
529,331;  885,796;   -0,080;   -1,409
529,915;  655,854;    1,738;    0,955
530,499;  781,034;   -0,807;    1,227
531,082;  948,844;   -0,534;    1,591
531,666; 1025,789;    1,374;    0,773
532,250;  908,917;    1,284;    2,682
532,833; 1042,854;    0,920;    2,773
533,417;  820,593;   -1,807;    0,864
534,001;  966,323;    1,647;   -0,318
534,584;  878,245;    0,374;    0,500
535,168;  667,235;    0,465;    1,409
535,751; 1099,341;    0,647;    0,045
536,334;  770,294;   -0,898;   -0,409
536,918;  628,008;    0,011;    1,591
537,501;  636,258;   -0,899;    1,318
538,085;  683,656;   -0,444;    1,045
538,668;  763,846;    0,829;    2,409
539,251; 1124,581;    1,829;    3,773
539,834;  804,016;    0,101;    0,773
540,418;  939,336;   -1,990;    4,318
541,001; 1140,932;   -0,990;    1,773
541,584;  862,159;    2,101;    2,227
542,167;  971,630;    1,374;    2,955
542,750;  796,584;    1,919;   -0,773
543,333;  627,198;    0,555;    2,136
543,916;  919,183;    0,192;    2,500
544,499;  803,958;   -1,354;    0,227
545,082;  900,880;    1,374;    3,591
545,665;  804,843;    1,919;    1,500
546,248;  952,471;    1,010;   -0,318
546,830;  932,536;   -0,445;    1,955
547,413;  903,101;    1,010;   -0,773
547,996;  888,708;    0,555;    0,500
548,579;  795,425;    0,919;    0,955
549,161; 1075,075;    1,828;    2,682
549,744;  940,065;   -0,809;    0,409
550,326;  799,620;   -0,809;   -1,136
550,909; 1331,686;    2,737;    0,591
551,492;  942,500;   -0,263;    0,227
552,074; 1071,182;   -0,173;   -1,318
552,657; 1105,094;    2,373;    0,045
553,239;  932,209;   -0,173;   -0,773
553,821;  803,930;   -1,082;    1,045
554,404; 1078,633;    1,282;    1,136
554,986; 1211,782;    0,464;    1,045
555,568; 1041,716;    1,191;   -0,955
556,151; 1271,815;    1,191;   -0,227
556,733;  897,940;   -0,264;   -0,864
557,315;  901,823;    0,100;    0,500
557,897;  746,074;    0,554;   -0,500
558,479;  751,631;   -1,991;    1,318
559,061;  876,050;   -0,719;   -0,864
559,643;  957,071;   -0,264;    0,045
560,225; 1005,092;    1,645;    2,864
560,807;  841,889;    0,918;    0,318
561,389;  798,644;    0,554;    2,318
561,971;  887,375;    0,463;    2,136
562,553;  840,329;   -1,628;    1,591
563,135;  931,225;   -0,537;    1,136
563,717; 1357,128;    3,372;    1,136
564,298; 1217,996;    3,645;   -0,045
564,880;  944,113;    0,645;   -1,409
565,462;  773,931;    0,645;    1,318
566,043;  997,954;   -0,446;    2,318
566,625; 1284,404;    1,918;    1,227
567,207; 1053,219;    1,099;    1,682
567,788;  931,879;   -1,264;    1,500
568,370;  967,545;    1,917;   -0,500
568,951;  910,730;    0,190;    0,227
569,533; 1052,795;   -0,628;   -0,500
570,114; 1113,636;   -0,446;    0,682
570,695; 1146,917;   -0,174;   -1,318
571,277; 1121,248;   -0,265;   -1,682
571,858; 1347,473;    2,008;   -1,136
572,439; 1240,499;    1,554;   -1,045
573,021; 1255,214;    2,099;   -2,773
573,602; 1382,514;   -1,265;    0,318
574,183; 1339,939;   -2,083;    2,227
574,764; 1321,196;   -1,629;    0,409
575,345; 1506,795;    0,917;   -0,136
575,926; 1379,764;   -0,356;    0,136
576,507; 1466,691;    1,099;   -0,227
577,088; 1463,962;    3,099;    1,682
577,669; 1631,689;    0,735;    1,955
578,250; 1847,667;    0,644;   -1,045
578,831; 1638,649;   -1,356;   -2,227
579,412; 1553,788;   -0,810;    0,955
579,993; 1663,710;    1,008;    0,227
580,573; 1624,626;   -0,629;   -0,955
581,154; 1594,150;    0,735;   -0,591
581,735; 1626,410;    0,644;    0,773
582,315; 1699,319;   -0,629;    2,136
582,896; 1660,741;   -0,174;    1,227
583,477; 1502,404;    0,189;    1,227
584,057; 1607,345;    0,553;    0,955
584,638; 1706,710;    2,553;    2,318
585,218; 1948,517;   -0,538;    2,682
585,799; 1790,934;    0,281;   -0,227
586,379; 1644,235;    0,372;    1,591
586,959; 1582,397;    0,735;    0,318
587,540; 1458,356;   -0,629;    2,227
588,120; 1443,676;    1,007;   -0,045
588,700; 1394,293;    2,553;    2,136
589,281; 1609,532;    0,462;   -0,955
589,861; 1473,472;    0,099;   -1,682
590,441; 1350,451;    2,371;   -2,682
591,021; 1369,069;   -0,265;   -2,591
591,601; 1355,839;   -0,537;    0,500
592,181; 1380,912;   -0,719;   -0,773
592,761; 1189,145;    0,007;    1,409
593,341; 1348,482;   -0,901;    0,045
593,921; 1332,233;   -0,265;    1,591
594,501; 1206,308;   -0,538;    1,318
595,081; 1201,861;    0,917;   -0,318
595,661; 1358,004;   -1,447;    0,955
596,240; 1314,295;   -0,537;    0,136
596,820; 1678,840;    0,372;    1,955
597,400; 1371,355;    2,008;    0,773
597,980; 1306,348;    2,008;    1,045
598,559; 1275,340;    2,735;   -0,227
599,139; 1229,551;   -0,174;   -1,227
599,718; 1225,642;   -0,174;   -0,409
600,298; 1246,706;    0,735;    0,682
600,877; 1729,181;    2,917;    1,409
601,457; 1493,363;    2,281;    1,136
602,036; 1340,107;    0,190;    2,045
602,616; 1348,980;    0,644;    1,682
603,195; 1489,813;   -0,355;    3,500
603,774; 1520,386;   -0,901;    2,045
604,354; 1432,576;    0,826;   -0,500
604,933; 1345,460;    0,463;    1,864
605,512; 1509,407;    3,554;    0,591
606,091; 1504,686;   -0,537;    3,773
606,671; 1462,457;    0,281;    0,773
607,250; 1594,922;    1,644;    3,136
607,829; 1555,446;    2,372;    3,227
608,408; 1388,311;    1,190;    2,591
608,987; 1470,888;    1,281;    3,409
609,566; 1288,918;   -1,265;   -2,500
610,145; 1390,542;   -1,082;    0,682
610,723; 1455,199;    4,372;    6,864
611,302; 1331,207;   -0,446;    1,682
611,881; 1604,246;    5,008;   11,227
612,460; 1326,805;    1,645;    3,955
613,039; 1273,345;   -0,082;    2,045
613,617; 1173,194;    1,736;    4,773
614,196; 1199,079;    1,099;    1,227
614,775; 1307,789;    1,009;    2,409
615,353; 1354,733;    0,736;    0,864
615,932; 1287,019;    0,100;    2,409
616,510; 1324,784;    0,554;    0,591
617,089; 1862,850;    7,100;   17,591
617,667; 1426,297;    2,372;    6,136
618,246; 1111,240;   -1,537;    1,318
618,824; 1219,803;   -3,355;   -0,955
619,402; 1238,899;   -2,900;   -1,773
619,981; 1335,108;   -0,173;   -1,045
620,559; 1255,063;    0,009;    1,682
621,137; 1291,818;   -0,718;    1,864
621,715; 1086,839;   -1,173;   -0,682
622,293; 1122,902;   -0,537;   -0,773
622,871; 1242,005;   -0,718;    0,500
623,450; 1124,983;    0,373;   -0,864
624,028; 1320,514;    0,191;   -0,955
624,606; 1278,553;   -1,718;    1,682
625,183; 1096,574;   -1,536;   -1,136
625,761; 1188,660;    1,009;    1,136
626,339; 1570,576;    1,373;    2,591
626,917; 1204,922;   -0,172;   -0,045
627,495; 1172,847;   -0,354;    1,318
628,073; 1256,594;   -0,263;    2,864
628,650; 1249,527;    0,100;    2,136
629,228; 1280,784;    0,373;    4,409
629,806; 1041,901;    2,282;    1,136
630,383; 1101,180;    1,464;   -0,318
630,961; 1102,539;    2,555;   -0,955
631,539; 1139,532;    2,464;    0,227
632,116; 1916,902;   11,373;   15,409
632,694; 1508,372;    2,555;    6,500
633,271; 1310,945;    0,828;    2,682
633,848; 1428,286;    1,828;    2,045
634,426; 1152,076;   -1,081;    1,773
635,003; 1005,899;    1,101;   -0,409
635,580; 1450,334;    1,192;    3,682
636,158; 1279,015;    3,737;    1,227
636,735; 1059,946;    0,555;   -0,500
637,312; 1074,217;   -0,809;   -0,682
637,889; 1081,232;   -4,354;   -0,682
638,466; 1067,214;   -3,990;   -0,409
639,043; 1099,893;    2,101;   -1,136
639,620; 1043,614;   -2,262;   -0,955
640,197; 1190,352;    1,100;    1,682
640,774; 1044,274;   -0,172;    1,136
641,351; 1135,286;    0,737;    1,136
641,928; 1298,298;   -0,627;    1,409
642,505; 1435,946;    0,828;   -0,500
643,082; 1265,140;   -1,718;    1,227
643,658; 1021,789;   -0,718;    1,500
644,235; 1050,801;    1,191;    2,500
644,812; 1270,722;    1,918;    0,773
645,388; 1236,735;   -0,991;    1,409
645,965;  981,565;   -0,809;    1,682
646,542;  990,668;   -1,445;   -0,227
647,118; 1456,316;    1,009;   -0,955
647,695; 1227,783;   -0,263;    1,136
648,271;  993,795;   -0,536;    0,500
648,848; 1185,807;    0,736;    2,227
649,424; 1329,274;    0,827;    1,318
650,000; 1089,832;   -0,354;   -1,045
650,577; 1138,389;   -0,627;   -0,955
651,153; 1195,220;   -1,809;    0,955
651,729; 1138,596;    1,191;    0,864
652,305; 1494,153;    0,645;    2,773
652,881; 1581,620;   -0,082;    1,136
653,458; 1982,177;    1,100;    0,227
654,034; 2299,008;    0,282;    1,591
654,610; 2388,020;    0,554;    0,773
655,186; 2833,578;    0,645;    3,045
655,762; 2446,681;   -0,991;    0,409
656,338; 2404,147;    0,100;    0,136
656,913; 2590,069;   -0,082;    0,409
657,489; 2357,626;    0,827;   -0,318
658,065; 2456,366;   -0,173;   -1,591
658,641; 2582,560;   -0,900;   -0,864
659,217; 2414,663;   -0,991;    0,409
659,792; 2366,493;    0,645;   -0,409
660,368; 2309,869;   -2,173;   -0,682
660,944; 2439,426;   -2,082;    1,227
661,519; 2141,439;   -0,628;    0,409
662,095; 1625,723;   -1,719;    0,591
662,670; 1229,554;    1,281;   -0,136
663,246; 1163,839;    1,009;   -0,409
663,821; 1313,124;    0,281;    1,682
664,396; 1185,954;    0,009;    1,864
664,972; 1110,239;    0,009;   -0,500
665,547; 1236,342;    1,372;    0,136
666,122; 1185,899;   -1,082;    0,318
666,698; 1396,093;   -0,173;    0,318
667,273; 1106,287;   -0,173;    0,136
667,848; 1183,390;    2,372;    1,500
668,423; 1357,403;    2,190;    2,318
668,998; 1215,324;    2,827;   -0,682
669,573; 1183,336;   -3,264;   -1,500
670,148; 1395,166;   -1,446;   -0,682
670,723; 1125,269;   -1,810;    0,318
671,298; 1492,100;    2,372;    1,045
671,873; 1349,021;   -0,082;   -0,136
672,448; 1347,942;    0,645;    0,136
673,023; 1346,227;   -1,992;   -0,227
673,597; 1479,967;    0,827;    2,318
674,172; 1508,615;   -0,355;    0,318
674,747; 1390,718;    0,372;   -1,045
675,321; 1133,003;   -0,628;    3,318
675,896; 1043,379;    0,645;    1,045
676,471; 1283,209;    2,645;    1,591
677,045; 1190,130;   -1,264;    0,682
677,620; 1284,506;    0,190;    1,136
678,194; 1168,337;   -2,628;    1,136
678,769; 1209,621;   -1,083;   -0,318
679,343; 1273,452;   -0,628;    1,773
679,917; 1405,646;   -1,446;    1,955
680,492; 1231,294;    0,826;    3,227
681,066; 1275,943;    3,372;    0,409
681,640; 1220,955;    1,463;   -0,318
682,214; 1261,149;    0,735;    0,500
682,788; 1251,888;   -1,356;   -0,773
683,363; 1383,810;   -1,810;    1,682
683,937; 1225,822;   -1,719;   -0,318
684,511; 1324,470;    0,463;   -0,591
685,085; 1319,937;   -1,356;    0,318
685,659; 1187,313;   -2,538;    0,864
686,232; 1469,234;   -0,356;   -0,318
686,806; 1335,792;   -0,901;    0,409
687,380; 1283,713;   -0,174;    0,591
687,954; 1240,907;   -1,174;    1,136
688,528; 1514,555;   -0,719;    1,955
689,101; 1397,386;   -3,992;    1,045
689,675; 1244,852;   -0,356;   -0,136
690,249; 1486,956;   -0,719;    0,409
690,822; 1487,513;    0,280;    0,318
691,396; 1335,980;   -0,265;    1,227
691,969; 1245,901;    1,280;    0,136
692,543; 1208,277;   -0,447;   -1,955
693,116; 1100,471;   -0,265;   -1,409
693,690; 1191,119;    0,099;    0,500
694,263; 1203,677;   -1,083;    2,955
694,836; 1567,598;    1,371;    3,591
695,410; 1398,792;   -0,265;    1,773
695,983; 1412,077;    0,189;    0,591
696,556; 1208,544;   -0,447;   -1,045
697,129; 1170,920;   -0,356;    1,409
697,703; 1342,114;   -1,629;    1,955
698,276; 1260,398;    1,462;   -0,773
698,849; 1404,047;    1,280;    1,409
699,422; 1152,241;   -1,083;    0,591
699,995; 1035,526;    0,007;    0,136
700,568; 1215,447;   -0,629;    3,045
701,140; 1239,914;   -2,811;    1,682
701,713; 1408,199;   -0,174;    2,409
702,286; 1299,938;   -0,538;    0,864
702,859; 1362,678;   -0,902;   -0,591
703,432; 1403,326;    0,825;    0,682
704,004; 1297,884;    0,462;    0,318
704,577; 1147,169;   -0,629;    0,136
705,150; 1205,363;    0,189;    2,500
705,722; 1290,647;   -0,356;   -3,227
706,295; 1354,114;   -0,175;   -0,591
706,867; 1186,581;   -0,175;    1,955
707,440; 1342,502;   -1,720;   -0,409
708,012; 1422,969;    0,462;    0,591
708,584; 1286,526;    2,462;    0,227
709,157; 1135,811;    1,825;   -0,591
709,729; 1351,642;    2,280;    2,045
710,301; 1280,927;    0,734;    0,045
710,874; 1272,393;   -1,447;   -0,227
711,446; 1044,314;    0,371;    0,864
712,018; 1146,872;    0,098;    0,500
712,590; 1083,611;   -1,993;    1,682
713,162; 1429,351;    0,825;    1,318
713,734; 1215,909;    1,825;   -2,045
714,306; 1135,557;   -1,902;   -0,409
714,878; 1128,115;    0,825;    0,864
715,450; 1131,036;    0,643;    0,864
716,022; 1124,775;    1,552;    1,318
716,593; 1130,151;    0,189;    0,591
717,165; 1194,981;   -3,175;   -1,227
717,737; 1441,994;    0,280;    0,409
718,309; 1211,460;    0,280;   -0,045
718,880; 1125,927;   -0,539;   -1,409
719,452; 1218,303;   -0,175;   -1,591
720,024; 1281,315;    0,734;   -0,591
720,595; 1192,782;   -2,902;    0,955
721,167; 1153,339;    0,370;   -2,045
721,738; 1250,079;   -0,812;   -1,045
722,309; 1372,818;   -0,993;   -1,227
722,881; 1126,376;   -1,357;    0,773
723,452; 1247,388;   -2,630;    2,864
724,023; 1274,036;   -0,721;    2,682
724,595; 1347,958;    0,007;    0,682
725,166; 1152,424;    0,007;   -0,409
725,737; 1389,255;    1,734;    0,227
726,308; 1187,812;   -0,266;    0,318
726,879; 1086,006;   -1,630;    1,227
727,450; 1274,837;    0,552;   -0,045
728,021; 1156,576;    3,097;    0,682
728,592; 1356,770;    0,734;    0,500
729,163; 1485,419;    0,643;   -0,136
729,734; 1468,613;    0,188;   -0,227
730,305; 1278,170;    1,734;    0,136
730,876; 1238,546;    0,188;    2,955
731,447; 1614,376;    2,188;    2,682
732,017; 1485,025;    1,097;    1,864
732,588; 1305,946;    0,734;    1,227
733,159; 1558,958;    0,643;   -1,045
733,729; 1253,789;    0,006;    0,409
734,300; 1397,255;    0,915;    0,864
734,870; 1233,086;    3,461;    0,591
735,441; 1219,825;    0,370;   -0,591
736,011; 1159,019;    0,643;   -1,591
736,582; 1190,940;   -0,812;    0,045
737,152; 1307,316;   -1,721;   -2,045
737,722; 1289,874;   -0,267;   -0,682
738,293; 1126,977;   -1,358;    1,318
738,863; 1321,171;    2,461;    2,318
739,433; 1624,910;    5,279;    0,318
740,003; 1348,831;   -0,994;   -0,682
740,573; 1459,753;    2,097;   -1,591
741,143; 1337,128;   -1,085;    0,318
741,713; 1226,232;    1,188;   -0,500
742,283; 1289,244;    0,915;    1,591
742,853; 1191,438;    1,915;    1,591
743,423; 1021,723;    1,733;    0,045
743,993; 1123,462;   -0,358;    1,500
744,563; 1127,565;    0,097;   -0,864
745,133; 1180,668;   -0,812;   -0,864
745,702; 1111,862;   -0,267;    1,773
746,272; 1312,783;   -0,176;    0,591
746,842; 1317,432;   -1,358;   -0,591
747,411; 1109,262;   -0,267;   -0,318
747,981; 1014,274;    0,097;    0,500
748,551; 1022,468;    2,278;   -1,045
749,120; 1211,935;    0,642;   -0,227
749,690; 1163,947;   -0,631;    2,409
750,259; 1298,868;    1,369;    2,955
750,828; 1348,972;    1,551;   -1,955
751,398; 1128,075;    1,278;   -0,045
751,967; 1626,359;    2,187;    0,409
752,536; 1243,099;   -0,813;   -0,227
753,105; 1387,111;    0,096;    0,227
753,675; 1192,123;    0,096;    1,773
754,244; 1198,317;   -0,904;    3,591
754,813; 1226,057;    0,551;    1,227
755,382; 1176,887;    0,460;    0,955
755,951; 1337,354;    1,551;    3,682
756,520; 1425,911;   -0,085;    1,864
757,089; 1597,105;    0,278;    0,500
757,658; 1286,390;    1,733;    1,227
758,227; 1107,311;    1,096;    0,318
758,795; 1178,505;    1,187;    1,136
759,364; 1238,427;   -0,086;   -0,591
759,933; 1102,621;   -1,176;   -0,045
760,501; 1041,633;    0,733;   -1,318
761,070; 1205,918;   -2,813;   -1,409
761,639; 1265,112;   -1,904;    1,318
762,207; 1301,124;    1,551;   -0,955
762,776; 1350,409;    0,369;    0,864
763,344; 1185,330;   -0,995;    0,591
763,913;  921,160;   -0,722;    1,409
764,481; 1570,900;    1,005;   -0,136
765,049; 1535,821;   -1,358;    1,409
765,618; 1432,197;   -0,086;    0,318
766,186; 1248,027;    0,278;    0,136
766,754; 1280,585;    0,005;    1,864
767,322; 1098,051;   -1,995;    0,409
767,890; 1049,973;   -0,722;   -1,773
768,459; 1108,348;   -2,177;   -0,318
769,027; 1360,179;    1,641;    3,409
769,595; 1135,827;    3,278;    2,591
770,163; 1201,748;    3,823;    2,955
770,730; 1205,124;    0,732;   -0,136
771,298; 1173,500;    0,187;   -1,409
771,866; 1114,149;   -1,541;    4,955
772,434; 1149,433;   -0,631;   -1,864
773,002; 1400,537;    0,005;    0,682
773,569; 1250,003;    0,914;    1,682
774,137; 1373,288;   -0,268;   -0,045
774,705; 1186,573;    0,278;   -0,136
775,272; 1108,312;    0,641;    0,682
775,840; 1168,325;   -0,177;    2,682
776,407; 1259,519;    0,277;    1,955
776,975; 1076,258;   -0,632;    0,318
777,542; 1069,997;   -1,086;   -0,045
778,110; 1113,191;   -1,268;   -0,045
778,677;  967,840;   -2,359;   -0,864
779,244; 1046,307;    2,186;    1,045
779,812; 1236,228;    1,823;    0,864
780,379; 1313,058;    0,005;    1,136
780,946; 1145,889;    1,005;   -0,773
781,513; 1084,446;   -1,450;    0,318
782,080; 1018,277;   -0,086;    2,864
782,647; 1062,743;   -0,268;    3,045
783,214; 1028,028;   -0,177;    3,864
783,781; 1257,404;   -0,723;   -0,682
784,348; 1202,143;   -0,632;    1,500
784,915;  966,974;   -3,177;    0,318
785,482; 1202,168;    1,368;    2,591
786,049; 1170,816;    0,186;   -0,591
786,615; 1057,737;    0,277;   -0,955
787,182;  995,568;    0,186;   -0,682
787,749;  983,580;   -2,814;    1,409
788,315; 1169,228;   -1,632;   -0,409
788,882; 1071,695;    1,550;   -1,227
789,448; 1384,707;    1,732;   -0,955
790,015; 1137,810;    1,095;    3,227
790,581; 1328,550;    1,459;    0,227
791,148; 1104,289;    0,641;    1,045
791,714; 1012,847;   -0,541;    3,136
792,280; 1012,950;    0,186;    1,591
792,847;  953,508;    0,550;    2,500
793,413; 1049,429;   -0,269;   -0,318
793,979; 1236,805;    3,459;   -1,318
794,545; 1569,817;    4,459;    2,682
795,111; 1424,647;    2,186;    1,318
795,678; 1248,386;    0,731;   -1,682
796,244; 1446,580;    3,368;    0,136
796,810; 1306,229;    1,731;    0,773
797,375; 1302,605;    0,549;   -2,136
797,941;  917,253;   -0,541;    0,591
798,507;  900,084;   -0,451;   -0,955
799,073;  945,914;   -0,360;    0,591
799,639;  974,017;   -2,632;    3,136
800,205;  917,756;    0,095;    2,682
800,770;  921,950;    0,640;    1,773
801,336;  923,690;    1,368;   -0,955
801,901; 1604,157;    4,549;    3,136
802,467; 1224,078;   -0,542;    2,045
803,033;  953,090;   -0,087;    0,864
803,598;  958,466;    1,913;   -1,045
804,163;  979,569;    1,095;   -0,318
804,729; 1098,126;   -0,178;    1,136
805,294;  989,411;    0,822;    2,227
805,859;  896,878;    0,731;   -0,409
806,425; 1325,708;    1,186;    2,682
806,990; 1315,175;    2,186;    4,318
807,555; 1042,369;   -1,451;    2,591
808,120; 1221,109;    0,822;   -0,409
808,685;  964,302;    0,185;   -2,500
809,250;  841,769;    0,004;   -0,500
809,815;  864,963;    1,913;    0,682
810,380; 1039,066;   -0,269;    1,591
810,945; 1221,897;   -1,087;    2,045
811,510; 1034,636;    2,094;    1,591
812,075; 1071,648;   -0,633;   -1,409
812,640; 1343,478;    2,003;    1,409
813,204; 1076,945;    0,822;   -0,227
813,769; 1257,048;    2,094;   -0,045
814,334; 1231,242;    0,458;    0,864
814,898;  925,163;    0,367;    0,591
815,463; 1033,903;    1,276;   -0,773
816,027;  957,551;   -0,724;   -2,318
816,592;  900,745;    0,640;   -2,045
817,156; 1074,212;    2,094;    1,136
817,721; 1172,406;    4,276;    2,318
818,285;  880,146;    2,912;    1,500
818,849;  968,430;   -1,451;    1,682
819,414;  883,352;   -0,269;    2,955
819,978;  825,000;   -1,269;    1,773
820,542; 1202,376;    2,003;    0,500
821,106; 1005,934;   -0,815;    0,682
821,670; 1228,128;   -0,815;    2,591
822,234;  981,958;   -0,270;    1,409
822,798;  846,425;    0,003;    0,500
823,362; 1135,164;   -0,633;    4,227
823,926;  917,631;    0,094;    1,136
824,490; 1150,552;   -0,997;   -0,682
825,054; 1017,746;   -0,088;   -1,136
825,618;  862,576;   -1,542;   -1,500
826,181;  924,679;    0,458;   -1,318
826,745; 1054,146;    1,367;   -1,045
827,309; 1296,522;    1,185;    1,318
827,872; 1154,716;    1,367;    0,955
828,436; 1033,001;    1,185;   -0,773
828,999;  927,922;   -0,997;    1,227
829,563;  900,934;   -0,179;    1,136
830,126;  861,219;   -0,179;   -0,591
830,690;  956,049;   -1,997;    2,864
831,253;  864,880;   -0,543;    2,227
831,816;  920,528;   -1,906;    0,500
832,380;  858,813;    0,185;    0,864
832,943;  842,643;   -1,361;   -0,500
833,506;  865,565;    2,639;   -1,227
834,069; 1040,395;    3,912;   -0,955
834,632;  882,134;    1,730;    1,318
835,195;  929,965;    1,003;    0,955
835,758;  848,886;   -0,997;    1,955
836,321;  839,535;    0,730;   -1,045
836,884;  820,729;   -0,725;   -0,955
837,447;  767,650;   -2,816;    1,773
838,010;  953,571;    0,366;    3,227
838,573;  986,947;   -1,179;    0,773
839,135;  849,323;   -1,361;   -0,955
839,698;  895,789;    1,275;    0,409
840,261;  838,438;    1,003;   -0,227
840,823;  772,814;   -0,543;    0,864
841,386;  741,553;   -0,452;   -2,409
841,948; 1115,202;   -1,361;    1,773
842,511;  839,577;    0,912;    1,682
843,073; 1107,862;    1,912;    0,227
843,636;  822,511;   -0,361;   -0,227
844,198; 1078,250;    0,911;    0,591
844,760; 1022,899;    1,093;    1,955
845,322;  788,002;    0,548;    1,136
845,885;  943,014;    0,730;    0,591
846,447;  875,117;   -1,998;    0,227
847,009; 1247,129;    1,911;   -0,682
847,571;  910,414;    0,820;   -2,045
848,133;  869,154;   -1,089;   -1,864
848,695;  715,438;   -0,543;    1,409
849,257;  809,178;   -1,089;   -1,682
849,819;  991,826;   -0,998;   -0,409
850,381;  831,202;   -0,725;   -0,864
850,942;  914,578;    1,093;   -0,591
851,504;  978,772;    1,184;    0,227
852,066;  829,693;    1,275;   -1,591
852,628;  862,069;   -0,180;    1,955
853,189;  721,263;    1,638;    2,682
853,751;  749,093;   -0,907;    1,409
854,312;  957,924;   -0,453;   -1,682
854,874; 1112,299;   -2,089;   -0,773
855,435;  879,312;   -0,907;   -1,682
855,997;  946,233;   -1,816;   -0,136
856,558; 1063,881;    0,366;    1,773
857,119;  930,984;    0,820;    2,864
857,681;  752,360;    0,002;    0,318
858,242; 1037,827;    1,911;   -2,136
858,803; 1036,475;    0,456;   -0,773
859,364;  892,760;    0,184;   -4,773
859,925;  971,318;   -2,453;   -0,955
860,486;  846,330;   -0,453;   -0,955
861,047;  755,797;   -0,544;   -1,227
861,608;  806,263;   -1,089;   -0,773
862,169;  678,639;    0,638;   -0,045
862,730;  803,924;    0,456;    1,409
863,291;  850,391;   -0,635;   -0,500
863,852;  824,858;   -0,635;    1,955
864,412;  814,142;   -0,271;   -0,864
864,973; 1066,246;   -0,089;    0,500
865,534; 1205,803;   -1,726;    0,227
866,094;  967,815;    1,820;    0,227
866,655; 1106,009;    1,274;    3,318
867,215;  909,476;    0,274;    0,136
867,776;  755,306;    0,547;   -0,136
868,336;  845,955;   -1,453;    0,136
868,897; 1257,694;    2,638;    1,682
869,457; 1036,888;    1,365;    0,318
870,017;  804,173;    0,547;   -1,227
870,578;  790,731;   -0,817;    0,773
871,138;  861,743;   -2,089;   -0,955
871,698;  750,846;   -0,817;   -1,318
872,258;  901,404;   -0,453;   -2,864
872,818; 1101,688;    2,729;    0,045
873,378;  884,337;    0,638;    1,045
873,938;  838,895;    0,547;    0,500
874,498;  727,270;    0,274;   -1,955
875,058;  841,464;    2,183;    1,773
875,618;  836,567;    1,910;   -2,682
876,177;  887,761;    1,274;    0,136
876,737;  679,319;   -0,090;    1,955
877,297; 1113,422;    0,183;    1,955
877,856; 1034,252;   -0,362;    0,318
878,416;  760,992;    1,183;   -0,136
878,976;  720,640;   -1,817;    0,409
879,535;  770,198;    0,092;    3,136
880,095;  754,483;   -0,544;    0,045
880,654;  676,313;   -1,090;    1,318
881,213; 1034,234;    2,456;    1,500
881,773;  849,792;    2,637;    2,682
882,332; 1418,713;    3,365;    5,136
882,891;  820,998;    3,092;    2,136
883,451;  825,374;   -1,272;    1,682
884,010;  770,295;   -2,908;   -0,409
884,569;  703,853;   -0,999;   -0,045
885,128;  923,774;    2,819;   -1,864
885,687; 1212,241;    4,455;    0,682
886,246; 1402,707;    1,455;    2,136
886,805; 1142,901;    2,455;    2,045
887,364;  761,095;   -0,999;   -0,500
887,922;  669,289;   -1,181;    0,045
888,481;  883,756;   -1,545;    0,591
889,040;  998,405;    1,183;    2,136
889,599;  854,417;    2,455;    1,409
890,157;  852,156;    1,455;    2,409
890,716;  783,441;   -0,090;    0,227
891,274;  909,362;    0,092;   -1,136
891,833;  993,193;    1,546;    0,864
892,391;  847,114;   -0,454;    0,500
892,950;  976,944;    1,819;   -0,773
893,508;  752,138;    0,455;   -0,409
894,067;  645,969;    0,637;    0,136
894,625;  765,526;   -0,636;   -1,500
895,183;  718,447;   -0,363;   -0,682
895,741; 1045,460;    1,728;   -1,773
896,299;  818,472;   -0,545;   -2,409
896,858;  735,757;    0,819;   -1,591
897,416;  886,405;    2,728;   -1,318
897,974;  795,963;    1,819;    0,318
898,532; 1288,520;    6,091;    2,682
899,089;  951,351;    2,091;   -0,682
899,647;  837,636;   -1,454;    1,318
900,205;  866,375;    1,182;    1,045
900,763;  844,024;   -0,454;    0,227
901,321;  780,672;    2,364;   -1,409
901,878;  599,866;   -1,000;   -0,773
902,436;  690,060;   -1,363;    1,318
902,994; 1487,345;    4,728;    3,682
903,551;  991,812;    0,728;    0,409
904,109;  841,097;    0,182;   -1,409
904,666;  786,836;    2,455;    1,045
905,224;  655,575;    0,182;   -0,409
905,781;  838,769;    0,727;   -0,318
906,338;  770,145;   -1,363;    1,045
906,895;  644,885;    0,637;    2,045
907,453;  958,260;    1,727;    1,136
908,010;  781,909;   -0,909;    0,409
908,567;  748,830;    1,273;    0,591
909,124;  575,751;    0,364;   -1,500
909,681;  656,127;   -2,909;    0,682
910,238;  699,230;    0,636;   -1,318
910,795;  617,697;   -0,273;   -1,136
911,352;  631,242;   -2,909;   -2,682
911,909;  681,242;   -1,364;   -0,864
912,466;  692,515;   -3,182;    1,500
913,022;  774,061;   -1,636;    0,500
913,579;  862,697;   -0,909;    2,045
914,136;  725,697;    1,636;    0,955
914,692;  746,606;    0,091;   -1,227
915,249;  744,152;    1,455;    0,409
915,806;  825,152;    0,182;    1,955
916,362;  713,152;    1,909;    1,864
916,918;  667,606;    2,000;    1,045
917,475;  846,697;   -1,182;    0,955
918,031;  667,879;    3,364;   -0,045
918,587;  747,424;   -0,909;   -0,318
919,144;  640,424;   -2,273;    0,227
919,700;  571,606;    1,727;    0,773
920,256;  567,242;    0,727;    0,045
920,812;  639,333;   -0,727;   -1,045
921,368;  579,333;   -1,727;   -1,045
921,924;  595,788;    0,182;   -0,136
922,480;  710,697;   -0,545;    1,227
923,036;  712,697;    1,273;    1,955
923,592;  601,152;    0,455;    0,318
924,148;  622,515;    0,455;   -0,955
924,704;  790,515;   -1,364;   -0,409
925,259;  597,333;   -0,273;    0,591
925,815;  577,061;    1,455;    0,500
926,371;  545,697;    2,909;    1,409
926,926;  712,333;    2,091;    0,591
927,482;  690,606;   -1,364;    0,773
928,037;  607,697;    0,909;    2,045
928,593;  801,061;    1,636;    1,045
929,148;  558,242;   -1,818;   -1,500
929,704;  638,152;   -1,455;   -0,500
930,259;  537,515;    0,091;   -0,136
930,814;  747,970;   -0,818;    1,955
931,369;  679,879;    1,091;   -0,773
931,925;  484,970;   -0,091;    0,136
932,480;  594,697;   -2,818;   -2,591
933,035;  958,606;    0,545;   -0,318
933,590;  844,879;    0,364;   -1,773
934,145;  468,879;   -1,364;   -0,318
934,700;  375,061;    0,455;   -0,591
935,255;  445,697;   -0,091;    0,045
935,809;  782,697;    3,182;    0,864
936,364;  435,333;   -0,455;   -0,136
936,919;  427,606;    0,455;   -1,773
937,474;  350,424;    1,455;    0,136
938,028;  374,515;   -1,636;    1,136
938,583;  767,515;    1,818;    4,682
939,138;  439,697;    2,091;    2,136
939,692;  317,152;    1,636;   -1,136
940,247;  367,152;   -0,727;   -1,045
940,801;  417,152;   -0,636;    0,227
941,355;  328,879;   -0,364;    2,591
941,910;  249,242;   -0,273;   -2,136
942,464;  285,879;   -0,818;   -0,318
943,018;  517,697;    1,000;   -0,227
943,572;  363,697;    2,545;   -0,682
944,126;  424,697;    0,091;   -0,409
944,681;  313,879;    3,091;    0,227
945,235;  260,788;    1,000;   -0,591
945,789;  228,697;    0,364;   -1,864
946,342;  487,152;    0,455;   -0,591
946,896;  273,515;   -2,273;    0,955
947,450;  249,515;    1,545;   -0,227
948,004;  467,515;    1,727;   -0,045
948,558;  302,879;    0,273;   -0,864
949,111;  304,879;   -0,273;   -0,318
949,665;  470,515;    1,636;   -0,682
950,219;  435,697;   -0,091;   -1,045
950,772;  364,788;   -1,909;    1,864
951,326;  352,242;    0,545;   -0,955
951,879;  290,242;    0,727;   -2,318
952,433;  414,788;    0,000;    2,227
952,986;  274,970;    2,909;    0,682
953,539;  240,424;   -0,273;    0,591
954,093;  194,970;    0,545;   -1,318
954,646;  304,788;    0,909;    1,318
955,199;  244,333;    0,000;   -0,500
955,752;  438,242;   -0,455;    1,773
956,305;  299,970;   -0,091;    2,955
956,858;  336,152;    0,818;   -0,318
957,411;  390,152;   -0,545;    2,136
957,964;  313,606;    1,364;    2,136
958,517;  242,697;   -1,545;    3,136
959,070;  204,333;   -0,455;    1,955
959,623;  447,697;    1,091;    1,500
960,176;  399,697;    1,727;    2,045
960,728;  358,515;   -2,727;    0,773
961,281;  311,879;    0,545;    0,500
961,834;  250,061;   -0,909;    0,864
962,386;  259,697;    1,727;    1,045
962,939;  230,879;    0,364;   -0,318
963,491;  268,242;    0,455;    1,136
964,043;  209,606;    1,182;    2,409
964,596;  369,879;   -1,000;    2,227
965,148;  287,242;   -1,000;    1,773
965,700;  210,424;    1,091;   -0,227
966,253;  351,333;   -0,636;    0,318
966,805;  313,970;   -2,273;    0,773
967,357;  252,242;    1,091;   -1,500
967,909;  354,333;    0,455;   -1,227
968,461;  255,515;    0,545;    3,136
969,013;  220,879;   -0,182;   -0,864
969,565;  351,242;   -0,455;   -1,136
970,117;  552,606;   -0,364;    1,045
970,669;  351,697;    0,182;   -0,136
971,220;  182,788;   -0,455;   -1,500
971,772;  259,788;   -0,636;   -0,318
972,324;  338,333;    0,091;   -0,500
972,876;  255,152;    0,818;   -0,045
973,427;  354,242;    1,909;   -1,045
973,979;  416,242;   -0,727;   -2,500
974,530;  247,061;    1,818;    1,318
975,082;  304,515;   -0,545;    1,682
975,633;  257,152;    1,091;    1,682
976,184;  296,424;    0,909;    0,773
976,736;  288,515;    0,091;    0,227
977,287;  312,424;   -0,909;   -0,500
977,838;  266,788;    0,909;   -0,318
978,389;  270,697;   -1,000;   -0,500
978,940;  169,061;    0,545;   -0,409
979,491;  167,424;    0,091;   -0,500
980,042;  252,242;    0,182;    3,045
980,593;  256,424;   -2,545;    0,227
981,144;  331,788;    2,545;   -0,500
981,695;  366,970;    1,455;    1,500
982,246;  319,970;   -0,273;    1,045
982,797;  209,061;   -1,727;    0,682
983,347;  328,697;    0,364;    0,591
983,898;  505,061;    3,091;    0,409
984,449;  476,606;    2,182;    0,773
984,999;  332,242;    1,455;   -1,136
985,550;  297,333;    0,182;   -0,318
986,100;  183,788;   -0,455;   -0,318
986,651;  174,515;   -0,818;    0,045
987,201;  206,970;   -1,000;   -0,591
987,751;  215,606;    0,818;    2,864
988,302;  248,152;    2,636;    1,500
988,852;  295,879;    0,455;   -1,136
989,402;  338,152;    0,091;    0,682
989,952;  363,061;   -2,182;    0,864
990,502;  229,879;   -0,091;    0,682
991,052;  155,697;   -0,727;    0,045
991,602;  196,424;   -2,909;    1,318
992,152;  242,152;    0,455;    0,682
992,702;  264,697;    1,364;   -0,045
993,252;  216,515;   -3,000;   -0,500
993,802;  297,061;   -0,273;    1,318
994,352;  255,879;   -1,545;    1,136
994,901;  178,879;   -0,182;    3,227
995,451;  171,242;   -0,182;    0,318
996,000;  205,424;    1,636;    0,318
996,550;  214,424;    2,273;    0,227
997,100;  244,788;    1,273;   -0,045
997,649;  358,152;    2,182;    0,955
998,198;  214,970;    1,727;   -1,500
998,748;  301,606;    1,091;   -2,318
999,297;  254,879;   -0,818;   -0,409
999,846;  357,515;    1,000;   -0,773
1000,395;  282,606;   -0,818;    0,500
1000,945;  374,879;    1,818;   -0,773
1001,494;  373,061;    2,364;    0,682
1002,043;  362,788;    4,636;    0,864
1002,592;  216,152;   -1,091;    1,955
1003,141;  204,424;   -0,455;   -0,682
1003,690;  346,515;    1,727;    0,500
1004,238;  245,515;    1,455;   -0,045
1004,787;  180,424;    1,364;    1,227
1005,336;  325,333;    0,364;    0,682
1005,885;  282,970;    1,364;   -2,773
1006,433;  268,697;    0,545;    0,955
1006,982;  423,061;    0,455;    1,682
1007,531;  300,697;   -1,818;   -0,227
1008,079;  266,061;   -2,273;    0,500
1008,627;  213,515;   -1,455;    0,409
1009,176;  236,515;    0,000;   -1,955
1009,724;  194,970;    1,091;    0,864
1010,273;  319,970;    1,273;    0,500
1010,821;  214,333;    0,091;    1,409
1011,369;  186,152;   -1,364;    1,318
1011,917;  205,788;   -1,364;   -0,591
1012,465;  267,788;    1,273;   -1,591
1013,013;  252,152;    2,091;   -1,682
1013,561;  347,424;    0,455;   -0,773
1014,109;  429,515;   -1,909;    1,682
1014,657;  317,606;    0,364;    0,591
1015,205;  233,515;    1,636;   -0,955
1015,753;  184,697;   -0,545;   -1,409
1016,301;  249,152;   -2,636;    3,045
1016,848;  312,606;   -1,273;    0,409
1017,396;  304,606;    2,545;    0,045
1017,944;  298,333;    1,182;    1,864
1018,491;  233,515;    0,273;    1,409
1019,039;  485,879;    0,455;    0,591
1019,586;  288,606;   -1,364;    1,682
1020,134;  266,970;    0,455;    1,500
1020,681;  330,970;    0,182;   -1,136
1021,228;  257,970;    2,909;   -2,227
1021,776;  251,879;    1,182;   -1,136
1022,323;  433,515;    0,455;    0,773
1022,870;  352,242;   -1,000;   -0,045
1023,417;  389,697;    2,636;    1,864
1023,964;  255,606;    2,636;    1,227
1024,511;  228,515;    1,000;    0,773
1025,058;  261,061;    3,182;   -0,045
1025,605;  228,879;   -2,273;    3,136
1026,152;  402,333;    1,727;   -0,591
1026,699;  281,970;    1,818;    1,318
1027,245;  262,152;   -0,091;    0,318
1027,792;  209,242;   -1,000;    1,409
1028,339;  407,061;    2,364;   -0,045
1028,885;  280,970;    1,000;   -0,227
1029,432;  239,515;   -0,091;    0,227
1029,978;  324,242;   -1,000;   -1,591
1030,525;  327,879;    1,000;    0,409
1031,071;  213,515;   -1,364;    1,136
1031,618;  453,242;    0,364;    1,682
1032,164;  315,697;   -0,091;    3,045
1032,710;  353,515;    1,636;   -1,500
1033,256;  325,152;   -0,636;   -0,136
1033,803;  201,242;   -0,545;    1,500
1034,349;   96,970;   -1,364;    0,136
1034,895;  136,697;    0,000;   -0,318
1035,441;  199,697;   -0,818;    0,318
1035,987;  236,424;   -2,364;   -0,682
1036,533;  292,424;   -1,455;   -0,955
1037,078;  465,333;    1,455;    1,682
1037,624;  341,333;    2,455;   -0,955
1038,170;  222,879;    0,455;   -0,318
1038,716;  288,788;    1,636;   -0,409
1039,261;  201,061;   -2,273;   -0,773
1039,807;  217,061;   -0,091;    3,409
1040,352;  233,606;   -1,909;   -0,318
1040,898;  222,242;   -1,545;   -0,682
1041,443;  175,152;   -1,455;   -2,591
1041,989;  427,152;    1,091;    1,591
1042,534;  257,333;   -0,364;    2,591
1043,079;  162,515;    2,909;    0,955
1043,625;  252,424;    1,818;    0,500
1044,170;  266,242;   -1,364;    1,045
1044,715;  426,152;    2,455;    0,955
1045,260;  344,606;    2,182;   -0,955
1045,805;  214,061;    1,182;   -0,591
1046,350;  187,424;    1,364;   -0,409
1046,895;  339,879;    2,909;    1,591
1047,440;  329,061;    5,364;    0,409
1047,985;  223,697;    2,818;   -0,955
1048,530;  203,515;    1,545;    1,227
1049,074;  249,879;    0,000;    0,318
1049,619;  200,061;   -1,364;    1,955
1050,164;  194,152;    0,455;    0,227
1050,708;  274,333;   -0,455;    0,045
1051,253;  466,788;    1,273;   -2,227
1051,797;  297,152;    0,818;   -1,318
1052,342;  161,424;   -1,182;    1,045
1052,886;  240,242;    0,364;   -1,409
1053,430;  152,788;   -1,364;    0,136
1053,975;  230,242;   -0,818;   -0,318
1054,519;  229,879;   -0,727;    3,227
1055,063;  287,242;    0,909;    1,318
1055,607;  279,152;   -0,182;    0,227
1056,151;  268,424;    2,909;    1,682
1056,695;  207,970;    2,273;   -1,136
1057,239;  195,697;   -1,727;   -0,682
1057,783;  237,333;    0,818;   -1,500
1058,327;  300,152;    0,000;    1,409
1058,871;  413,970;   -0,545;    1,318
1059,415;  306,606;   -0,818;   -0,045
1059,958;  426,697;    1,455;    2,591
1060,502;  228,970;   -1,000;   -0,773
1061,046;  152,788;    0,364;   -0,955
1061,589;  146,697;   -3,000;   -1,136
1062,133;  122,788;   -1,273;    1,864
1062,676;  160,061;    1,182;    0,864
1063,220;  194,424;    1,091;    0,500
1063,763;  214,879;    0,909;    1,136
1064,306;  228,879;   -0,909;    1,864
1064,849;  231,970;   -0,909;    0,591
1065,393;  210,879;    2,000;   -1,500
1065,936;  214,333;    0,182;   -0,409
1066,479;  153,333;   -1,455;    1,318
1067,022;  168,333;   -0,273;   -0,227
1067,565;  146,697;   -0,091;   -1,318
1068,108;  127,788;    0,727;   -0,591
1068,651;  115,061;   -0,636;    1,409
1069,194;  121,697;   -0,455;   -1,682
1069,736;  136,242;   -1,273;    0,955
1070,279;  117,606;   -1,364;   -0,500
1070,822;  183,879;   -2,000;   -0,318
1071,364;  289,879;   -0,364;    1,318
1071,907;  176,606;   -0,727;    3,227
1072,450;   67,242;    0,000;   -0,045
1072,992;  131,697;   -0,273;    3,136
1073,535;  179,697;    2,091;    2,136
1074,077;  124,879;   -0,727;    2,045
1074,619;  116,515;   -1,364;    0,591
1075,161;  143,788;   -1,091;    1,500
1075,704;  241,606;    1,545;    1,227
1076,246;  134,061;   -0,182;    0,682
1076,788;   88,152;   -0,364;    1,773
1077,330;   90,061;    1,273;    2,136
1077,872;  124,333;    0,909;    0,955
1078,414;  261,152;    2,727;    0,773
1078,956;  150,061;    1,273;   -0,227
1079,498;  249,970;    1,636;    0,318
1080,040;  141,606;    1,909;   -1,318
1080,581;  111,061;    1,636;   -0,318
1081,123;   72,242;    0,091;   -0,773
1081,665;   83,242;   -1,182;   -0,955
1082,206;  222,970;    1,364;   -0,500
1082,748;  154,606;    0,727;    2,045
1083,289;   94,788;   -2,000;    1,318
1083,831;   86,061;   -0,545;    0,227
1084,372;  122,061;    0,000;    0,591
1084,913;  119,333;    1,091;    0,864
1085,455;   86,970;   -1,909;   -2,045
1085,996;   83,970;   -2,273;    0,136
1086,537;  104,788;   -0,091;    0,864
1087,078;  116,152;   -0,909;   -2,136
1087,619;  152,333;   -1,273;    0,227
1088,160;  124,152;    0,000;    1,318
1088,701;  108,424;   -1,091;    0,682
1089,242;   95,788;    1,364;   -2,227
1089,783;  132,515;   -0,273;    1,409
1090,324;  115,424;    0,455;    0,682
1090,865;   75,515;    2,727;   -0,409
1091,405;   60,788;    0,727;    2,227
1091,946;   93,970;    0,182;   -0,955
1092,487;   61,242;    0,818;   -1,409
1093,027;  139,515;   -1,364;   -1,500
1093,568;   88,515;   -0,364;    1,227
1094,108;  110,333;    0,273;    1,773
1094,649;   85,697;   -1,182;    0,136
1095,189;   68,152;   -0,636;   -0,682
1095,729;   67,697;   -0,091;    0,955
1096,269;   58,697;    0,727;   -0,955
1096,810;  171,606;   -1,364;    0,500
1097,350;  127,333;    1,364;   -0,773
1097,890;   91,970;    0,364;    1,227
1098,430;  220,333;    2,364;    2,864
1098,970;  168,879;    2,182;    1,682
1099,510;   83,515;    0,545;   -2,318
1100,050;   65,152;    1,000;   -1,591
1100,589;   80,424;   -0,727;   -0,318
1101,129;  111,879;    0,818;   -0,955
1101,669;  176,152;    1,727;    2,136
1102,209;  121,879;   -0,091;    2,227
1102,748;   89,424;    0,000;    0,955
1103,288;   97,061;    1,273;   -1,227
1103,827;   91,424;    3,091;   -2,227
1104,367;   65,333;   -0,091;   -2,409
1104,906;   64,697;    1,364;   -1,136
1105,445;  100,333;    0,636;   -1,136
1105,985;   79,333;   -0,727;    1,500
1106,524;   89,788;   -1,727;   -0,682
1107,063;   81,788;   -2,727;    1,409
1107,602;   59,970;   -1,909;   -1,500
1108,141;   48,970;   -1,909;    1,500
1108,680;   92,879;   -3,455;   -0,591
1109,219;   73,515;   -0,909;   -0,500
1109,758;   67,697;    0,455;    0,682
1110,297;   68,879;    1,000;   -0,682
1110,836;   47,424;   -0,727;    0,955
1111,375;   61,788;   -2,545;    0,409
1111,913;   98,061;   -1,000;    0,773
1112,452;   77,879;   -0,273;    0,136
1112,991;   50,424;    1,091;    1,955
1113,529;   50,606;   -0,818;   -0,045
1114,068;   63,970;   -0,273;    2,955
1114,606;   43,970;   -0,364;   -0,955
1115,144;   89,061;   -1,273;    1,045
1115,683;   67,970;   -0,727;    0,318
1116,221;   92,152;   -0,455;   -0,864
1116,759;   58,515;    0,636;   -0,864
1117,297;  112,242;    0,000;    1,864
1117,836;   64,061;   -2,182;   -1,227
1118,374;   64,606;    0,182;   -0,682
1118,912;   62,606;    0,909;    2,682
1119,450;   61,606;    1,000;    0,864
1119,988;   54,879;    1,545;    2,136
1120,525;  257,697;    5,091;    3,318
1121,063;  128,242;    1,182;    1,864
1121,601;   58,879;   -0,909;   -1,227
1122,139;   44,970;   -0,727;   -2,045
1122,676;  119,242;   -0,727;    2,773
1123,214;  104,697;   -1,182;    4,409
1123,751;   48,242;    1,727;    2,227
1124,289;   69,061;   -0,091;   -0,409
1124,826;   47,606;    1,727;    0,227
1125,364;   26,788;    1,727;   -0,955
1125,901;  101,515;    1,182;    1,227
1126,438;  101,152;    0,818;    0,955
1126,975;   30,879;   -0,727;   -0,773
1127,513;   42,333;    0,273;    2,136
1128,050;   28,424;    1,636;   -0,682
1128,587;   53,788;    2,000;   -0,227
1129,124;   65,515;    0,091;    1,318
1129,661;   31,970;    0,273;    0,227
1130,198;   86,970;    1,636;    0,773
1130,734;   56,061;    0,182;    1,409
1131,271;   26,606;   -0,909;    0,864
1131,808;   75,515;    2,909;    3,045
1132,345;   43,333;    1,545;    0,318
1132,881;   13,242;   -1,545;   -1,864
1133,418;   46,970;    0,727;   -1,136
1133,954;   29,788;    2,455;   -2,682
1134,491;   51,424;    1,364;   -0,773
1135,027;   27,242;    2,364;    0,864
1135,564;   49,152;    0,273;    2,955
1136,100;   40,606;    0,364;    2,136
1136,636;   23,697;   -1,273;   -1,045
1137,172;   38,606;    0,000;   -1,045
1137,708;   28,242;   -1,364;   -1,045
1138,245;   20,970;    1,273;   -1,227
1138,781;   14,879;    1,091;   -3,318
1139,317;   30,606;    1,273;   -1,409
1139,852;   38,879;    3,091;    0,136
1140,388;   54,061;   -1,182;   -0,409
1140,924;   29,061;   -1,091;   -2,227
1141,460;   12,788;   -1,636;    0,136
1141,996;    8,606;   -1,364;    2,682
1142,531;   18,879;    1,364;    3,318
1143,067;   65,697;    1,182;    1,045
1143,602;   89,333;   -0,091;   -0,318
1144,138;   43,970;   -2,636;    1,045
1144,673;   16,333;   -1,455;    1,409
1145,209;   28,061;   -1,909;   -0,318
1145,744;   16,515;   -0,727;    0,864
1146,279;   37,152;    1,818;   -0,136
1146,815;   23,152;    1,545;   -2,682
1147,350;   33,515;   -1,364;    0,045
1147,885;   14,424;   -0,818;   -1,318
1148,420;   16,152;   -2,273;    0,773
1148,955;   16,606;   -1,727;    1,864
1149,490;   18,424;   -0,909;   -1,591
1150,025;   13,152;    0,455;   -1,773
1150,560;   38,606;    1,091;   -0,955
1151,094;   28,424;    1,455;   -0,591
1151,629;   30,061;    1,636;    0,864
1152,164;   16,697;    1,364;    1,318
1152,698;   12,970;   -0,182;   -0,136
1153,233;    5,697;    0,091;   -0,682
1153,767;    9,788;   -3,000;   -2,318
1154,302;   21,424;   -1,455;    1,773
1154,836;   18,424;   -0,455;   -2,136
1155,371;   27,333;   -1,364;    3,682
1155,905;   16,242;   -0,636;    1,682
1156,439;   17,879;   -0,636;   -0,500
1156,973;   22,061;    0,364;    0,318
1157,507;   10,424;   -0,364;    0,682
1158,042;   15,242;   -0,727;    1,045
1158,576;   19,515;    0,182;    1,773
1159,110;   20,879;   -0,818;    2,409
1159,643;   16,424;    0,636;   -0,045
1160,177;    8,697;   -1,545;    1,500

