
Integration time [ms]:   0,040
Averaging Nr. [scans]: 11
Smoothing Nr. [pixels]: 0
Data measured with spectrometer [name]: 7318044SP
Wave   ;Sample   ;Dark     ;Reference
[nm]   ;[counts] ;[counts] ;[counts] 

186,757;   36,347;   31,551;    1,318
187,357;   32,009;   22,551;    0,955
187,958;   20,746;   15,460;   -1,591
188,558;   23,706;    8,915;   -1,227
189,159;   16,289;    6,733;   -4,500
189,759;    7,922;    7,278;   -3,591
190,360;    8,544;    2,824;   -2,136
190,960;   12,161;    2,915;   -4,136
191,560;   15,467;    3,189;   -6,591
192,161;   58,241;    4,372;   -3,500
192,761;   33,043;    4,010;   -3,227
193,361;   17,179;    1,556;   -3,773
193,962;   23,177;    2,010;   -2,682
194,562;    7,532;    1,189;   -3,955
195,162;    7,388;   -2,448;   -2,227
195,762;   33,807;   -3,176;   -0,045
196,362;   21,381;    1,370;   -2,500
196,963;   10,424;    2,006;   -0,864
197,563;   13,527;    1,551;   -0,955
198,163;    5,613;    0,096;   -0,682
198,763;    9,572;    1,733;   -0,500
199,363;   19,124;    3,096;   -0,500
199,963;   13,294;    0,369;    0,409
200,563;   10,963;    2,823;   -1,409
201,163;    8,457;    3,277;   -0,227
201,763;   14,172;    3,732;    0,318
202,363;    8,375;    1,459;    1,500
202,963;   12,144;    1,459;    1,045
203,563;   26,390;    0,277;    0,500
204,162;   12,582;    2,096;   -1,864
204,762;    6,323;    0,550;    0,591
205,362;    8,099;    3,004;    1,955
205,962;   13,819;    3,096;    1,955
206,562;   15,351;    1,823;    2,318
207,161;    6,895;   -0,087;    0,318
207,761;   34,715;    1,277;    2,409
208,361;   13,405;   -0,268;    1,409
208,960;   16,976;    0,459;    1,500
209,560;   14,422;    1,277;    1,591
210,160;   23,297;    0,550;    1,864
210,759;   15,727;    4,186;    1,227
211,359;   12,186;    1,459;    1,045
211,958;   55,304;    1,277;    2,045
212,558;   52,016;    1,732;    1,864
213,157;   27,957;    1,822;    1,500
213,757;   96,110;    3,822;   -0,227
214,356;   41,344;    1,277;   -0,409
214,956;   85,636;    3,095;    0,409
215,555;   37,667;    2,095;    2,136
216,154;   17,395;   -2,723;   -0,591
216,754;   19,390;    0,277;    0,773
217,353;   27,247;   -0,268;   -1,045
217,952;    5,536;   -0,178;    0,318
218,552;   40,175;    1,368;   -0,773
219,151;   22,478;    0,277;    0,955
219,750;   16,617;    0,004;   -0,227
220,349;   11,095;   -0,451;    1,045
220,948;   54,312;   -1,360;    1,136
221,548;   25,524;    0,913;    1,227
222,147;   33,694;   -0,087;   -0,409
222,746;   86,031;   -0,451;   -0,955
223,345;   50,862;    0,731;    0,500
223,944;   51,360;   -0,451;    0,773
224,543;   59,783;    1,004;   -1,409
225,142;   45,092;    0,094;    0,136
225,741;   55,467;   -0,814;    1,045
226,340;   51,844;   -0,451;   -0,955
226,939;  103,417;   -0,996;   -0,136
227,538;   54,915;   -0,360;   -0,773
228,137;  120,214;   -0,814;    0,864
228,735;   92,666;   -0,541;    1,227
229,334;   34,752;   -0,905;   -0,227
229,933;  131,668;    0,459;    0,591
230,532;  136,911;    1,186;   -0,409
231,131;  184,620;    1,732;    0,318
231,729;  114,110;   -2,450;   -2,318
232,328;   78,284;   -0,723;   -1,500
232,927;   94,786;    1,004;   -0,500
233,525;   84,072;    3,640;    0,045
234,124;  108,820;    2,368;   -1,591
234,723;   68,021;    0,913;   -1,045
235,321;   60,332;    2,277;    0,136
235,920;   88,931;    1,186;   -1,227
236,518;  185,060;    3,459;    0,318
237,117;   89,707;    0,004;   -0,227
237,715;  110,027;    0,640;   -0,500
238,314;  134,828;   -0,087;   -2,318
238,912;  217,374;   -0,723;   -1,409
239,510;  152,092;    0,459;   -1,227
240,109;  227,495;    0,004;    3,773
240,707;  200,052;   -0,996;    1,227
241,305;  101,706;    0,550;    0,136
241,904;  164,797;   -0,178;   -2,045
242,502;  257,168;   -0,632;   -0,227
243,100;  179,204;   -0,087;   -0,955
243,698;  126,887;    0,732;    1,682
244,297;  158,937;   -0,632;    0,682
244,895;  151,600;   -0,269;   -2,318
245,493;  275,896;    2,186;   -0,591
246,091;  285,886;    1,368;   -1,318
246,689;  220,974;    1,004;    0,591
247,287;  206,426;    0,822;   -1,136
247,885;  174,565;   -1,451;    1,227
248,483;  146,422;    1,822;   -0,500
249,081;  211,793;    0,185;    1,591
249,679;  237,057;   -0,178;    1,682
250,277;  144,003;   -1,723;    0,864
250,875;  239,843;   -1,087;   -1,045
251,473;  164,165;   -1,178;    0,500
252,071;  245,877;    1,459;    1,045
252,669;  179,451;   -1,814;    0,318
253,267;  138,625;   -0,087;    0,773
253,864;  181,698;   -0,360;    0,682
254,462;  291,285;    1,640;    1,591
255,060;  143,273;   -0,269;    1,318
255,658;  141,542;    0,822;   -0,136
256,255;  186,878;    0,186;   -2,045
256,853;  224,838;   -0,269;    1,409
257,451;  195,255;    0,822;    1,864
258,048;  506,243;    1,822;    1,864
258,646;  296,828;    1,731;   -1,045
259,243;  377,475;   -0,087;    2,227
259,841;  280,816;   -0,814;    0,318
260,438;  165,203;   -0,087;    0,864
261,036;  259,667;   -1,905;    1,409
261,633;  174,819;   -0,087;    2,227
262,231;  146,444;    2,731;   -0,045
262,828;  145,923;   -0,905;    1,136
263,425;  182,602;    0,913;   -0,591
264,023;  187,182;    0,186;    0,045
264,620;  304,005;   -0,360;   -0,318
265,217;  397,271;   -2,087;    3,136
265,815;  197,970;   -1,905;    2,136
266,412;  291,640;    0,731;    0,136
267,009;  300,707;   -1,451;    0,773
267,606;  361,101;    0,822;   -0,955
268,203;  230,132;   -0,269;   -0,591
268,801;  249,358;    1,731;    0,591
269,398;  183,574;   -0,360;    2,500
269,995;  299,468;    0,277;    1,591
270,592;  258,390;   -0,632;   -0,500
271,189;  182,938;    0,186;    0,409
271,786;  161,150;   -0,632;    1,227
272,383;  348,854;   -1,087;    0,227
272,980;  240,711;    0,277;    0,318
273,577;  198,724;    0,004;    1,227
274,174;  181,280;    0,822;    2,591
274,771;  296,814;   -0,814;   -0,773
275,367;  610,721;    2,277;    1,409
275,964;  438,480;    0,731;   -0,500
276,561;  266,458;    1,549;   -1,045
277,158;  191,148;    0,095;   -1,773
277,755;  395,338;    2,185;    0,409
278,351;  314,917;   -0,451;   -1,500
278,948;  357,881;   -0,815;    0,045
279,545;  312,670;   -1,360;    2,318
280,141;  449,791;   -1,723;   -2,045
280,738;  428,355;   -0,451;   -0,136
281,334;  258,937;   -1,633;    0,591
281,931;  274,199;   -0,087;   -1,318
282,528;  363,915;    0,822;   -0,500
283,124;  420,740;   -1,087;   -0,500
283,721;  422,371;   -0,451;    1,409
284,317;  296,203;    0,185;    2,500
284,913;  435,648;   -1,360;    0,591
285,510;  630,102;    0,640;   -0,318
286,106;  472,888;   -2,269;   -0,955
286,703;  329,782;   -0,360;    1,955
287,299;  283,271;   -1,451;   -0,591
287,895;  262,370;    0,822;   -1,045
288,491;  236,846;    0,186;    2,136
289,088;  339,777;   -2,360;    2,409
289,684;  375,178;   -1,723;    1,500
290,280;  504,420;    0,368;    0,682
290,876;  465,820;    1,822;    5,500
291,472;  383,967;    1,276;    2,227
292,068;  394,893;    1,367;    0,227
292,665;  299,725;    2,095;    0,773
293,261;  218,398;    0,276;    2,136
293,857;  372,233;    2,913;    2,136
294,453;  304,211;    3,550;    0,955
295,049;  489,714;   -0,268;    1,955
295,644;  344,873;    0,095;    0,136
296,240;  223,649;   -0,905;   -0,136
296,836;  328,504;   -0,995;    0,318
297,432;  433,006;    1,096;   -0,500
298,028;  459,826;    0,732;    0,773
298,624;  346,420;    1,459;    1,864
299,220;  323,488;    2,368;    0,591
299,815;  316,974;    1,005;   -0,409
300,411;  400,532;    0,914;    1,773
301,007;  489,091;    1,368;    0,227
301,602;  344,508;   -0,541;   -2,318
302,198;  460,067;    0,732;   -0,773
302,794;  325,026;    1,187;   -0,500
303,389;  274,578;   -1,177;    1,045
303,985;  313,312;    0,550;    1,409
304,580;  432,841;    1,459;    1,591
305,176;  348,986;   -3,086;    0,136
305,771;  241,282;   -1,268;   -1,227
306,367;  578,025;    4,095;    0,136
306,962;  376,417;    0,641;    1,500
307,558;  423,506;   -0,450;    0,136
308,153;  473,352;    1,095;   -1,136
308,748;  292,882;   -0,814;    1,682
309,344;  612,117;   -0,632;   -1,318
309,939;  613,005;   -1,905;   -1,318
310,534;  346,925;   -0,086;   -1,682
311,130;  322,886;    0,459;   -2,500
311,725;  294,724;    1,004;   -0,500
312,320;  340,148;    2,459;    0,045
312,915;  423,745;    1,459;   -1,045
313,510;  610,273;    1,550;   -0,500
314,105;  347,647;    1,096;    1,409
314,700;  241,212;   -3,086;   -1,045
315,295;  317,296;   -0,904;    0,045
315,890;  273,321;    1,277;    0,864
316,485;  368,002;   -0,359;   -0,318
317,080;  281,331;   -3,086;    1,591
317,675;  556,696;    2,005;   -0,682
318,270;  744,897;    5,550;    3,318
318,865;  639,895;    3,278;    3,045
319,460;  489,053;   -0,904;    0,591
320,055;  335,054;   -0,541;   -1,227
320,650;  337,495;   -1,995;   -0,591
321,244;  349,793;   -0,177;   -1,409
321,839;  352,764;   -1,541;   -0,227
322,434;  405,239;   -1,086;   -1,591
323,029;  341,365;    1,732;    1,591
323,623;  306,791;    1,550;    0,773
324,218;  477,529;    2,368;    1,409
324,812;  414,664;    1,096;    1,591
325,407;  416,962;   -0,814;    2,045
326,002;  533,057;    0,277;   -0,409
326,596;  469,113;    0,914;    1,318
327,191;  321,408;    0,823;   -1,045
327,785;  324,386;   -0,813;   -0,227
328,379;  329,500;    1,368;    0,136
328,974;  380,592;    0,914;   -3,955
329,568;  400,122;    0,186;   -2,409
330,163;  470,189;    2,096;    1,045
330,757;  321,008;    2,459;    1,591
331,351;  272,437;    0,459;    0,682
331,945;  257,569;    0,914;    1,409
332,540;  390,530;   -1,723;   -0,591
333,134;  385,194;   -1,086;    0,773
333,728;  385,529;    0,005;    0,318
334,322;  276,859;   -1,177;   -0,864
334,916;  276,038;    0,277;    0,955
335,510;  429,705;   -0,450;   -0,136
336,105;  413,499;   -1,086;    1,591
336,699;  320,810;   -1,086;    0,591
337,293;  355,760;   -1,723;    0,318
337,887;  293,149;   -2,723;    1,955
338,481;  429,528;    0,459;    0,591
339,074;  524,218;   -0,359;    2,682
339,668;  501,296;   -1,632;    1,227
340,262; 1011,834;    1,732;    3,227
340,856;  640,335;    1,822;   -0,682
341,450;  343,902;    1,004;    1,864
342,044;  388,305;    1,459;    0,136
342,637;  519,767;    0,913;   -2,136
343,231;  499,711;   -2,360;    0,682
343,825;  401,353;   -1,086;   -0,591
344,419;  373,311;   -1,995;    0,500
345,012;  860,471;    2,459;    4,045
345,606;  673,092;    4,641;    1,591
346,199;  388,334;   -1,813;   -0,227
346,793;  501,593;    1,914;    2,045
347,386;  318,843;   -0,813;   -1,136
347,980;  229,929;   -0,268;   -0,045
348,573;  326,161;    2,278;    0,409
349,167;  600,753;    5,278;    4,773
349,760;  486,304;    2,914;    2,682
350,354;  452,735;   -0,813;    1,136
350,947;  489,696;    1,096;    1,682
351,540;  363,874;   -0,358;   -1,409
352,134;  246,850;    1,096;    1,136
352,727;  266,644;   -0,086;    1,136
353,320;  289,500;    0,005;    0,591
353,913;  230,606;   -1,995;    1,864
354,507;  421,527;    0,823;   -1,227
355,100;  301,513;    0,460;    0,864
355,693;  688,786;    2,005;    2,409
356,286;  465,211;    0,823;    2,773
356,879;  323,763;   -0,722;    1,227
357,472;  323,590;   -0,904;    1,500
358,065;  368,095;   -0,722;    2,500
358,658;  232,943;   -0,540;    2,318
359,251;  210,857;   -1,631;   -0,591
359,844;  384,724;   -1,904;   -1,136
360,437;  452,335;   -2,995;    0,045
361,030;  300,583;    1,369;   -0,682
361,623;  308,972;    2,824;    0,318
362,215;  531,907;   -0,086;    2,045
362,808;  376,558;   -2,358;   -1,682
363,401;  307,406;   -2,449;    0,136
363,994;  514,293;   -0,631;   -1,500
364,586;  318,586;    0,824;   -1,500
365,179;  269,906;   -0,449;   -1,136
365,772;  145,527;   -1,995;    2,045
366,364;  297,841;    1,915;   -3,227
366,957;  352,364;    2,279;   -0,045
367,549;  300,063;    2,188;   -0,864
368,142;  312,456;    1,825;   -1,500
368,734;  272,244;    0,734;   -2,136
369,327;  212,925;    1,643;   -0,500
369,919;  251,934;   -1,538;    0,409
370,512;  267,090;   -1,083;   -0,500
371,104;  526,151;   -0,901;    1,591
371,696;  545,993;    1,191;   -0,955
372,289;  403,474;    0,373;    1,136
372,881;  355,378;   -2,080;    1,318
373,473;  249,241;   -2,170;    1,136
374,066;  336,451;   -0,169;    0,500
374,658;  314,802;    0,378;    1,136
375,250;  250,725;    0,653;   -1,409
375,842;  305,940;    0,473;   -0,045
376,434;  263,464;   -0,435;   -0,409
377,026;  252,085;    0,204;   -2,500
377,618;  304,461;   -0,158;   -0,682
378,210;  241,999;   -0,338;   -1,955
378,802;  242,245;    0,754;   -0,591
379,394;  618,107;    1,846;    0,682
379,986;  378,321;    1,393;   -0,955
380,578;  294,160;   -0,153;    0,773
381,170;  532,672;   -0,972;    0,045
381,762;  431,624;    0,755;    1,409
382,354;  378,888;   -0,065;   -1,318
382,945;  293,433;   -2,976;    0,318
383,537;  238,208;   -2,705;   -1,955
384,129;  225,605;   -2,160;   -1,136
384,721;  336,198;   -0,252;    0,955
385,312;  282,658;   -0,161;   -0,955
385,904;  371,402;   -2,706;    1,591
386,496;  299,410;   -0,979;    1,045
387,087;  433,260;    1,022;    2,500
387,679;  376,553;   -1,160;    0,045
388,270;  355,678;    2,840;    2,045
388,862;  329,900;    1,295;   -0,318
389,453;  319,330;   -0,887;    1,045
390,045;  326,875;   -0,705;   -2,682
390,636;  218,262;    0,204;   -0,591
391,227;  280,255;   -0,523;   -0,045
391,819;  259,751;    0,204;    0,773
392,410;  513,536;    1,022;    0,045
393,001;  321,438;   -0,979;   -1,591
393,593;  386,749;    1,930;   -0,045
394,184;  437,170;    1,385;   -0,409
394,775;  315,810;    1,839;    2,136
395,366;  233,721;    1,385;    0,773
395,957;  433,178;    0,113;    0,136
396,548;  321,606;   -0,342;    2,682
397,139;  433,962;   -2,433;    0,591
397,730;  351,624;   -1,888;    0,955
398,321;  367,138;   -1,252;    0,955
398,912;  299,613;   -0,615;    0,136
399,503;  294,336;   -3,524;   -1,409
400,094;  351,740;    0,294;    1,682
400,685;  343,402;   -0,433;    0,045
401,276;  290,927;    0,930;   -0,955
401,867;  261,792;   -0,888;    0,773
402,458;  226,649;   -2,251;   -2,318
403,048;  378,900;    1,112;    0,591
403,639;  323,733;    0,840;    0,864
404,230;  435,360;    2,476;    0,318
404,821;  497,609;   -0,615;    0,045
405,411;  401,199;    1,203;   -2,591
406,002;  310,724;   -1,252;   -1,136
406,592;  541,967;    2,294;    0,045
407,183;  397,685;    0,566;   -1,500
407,774;  377,834;    3,475;   -0,136
408,364;  331,811;    0,930;    0,409
408,954;  449,565;    0,384;    1,227
409,545;  442,739;    1,021;    1,045
410,135;  408,899;    1,293;    0,500
410,726;  353,113;    1,838;    0,318
411,316;  545,933;    0,111;    0,773
411,906;  372,533;   -0,253;   -0,409
412,497;  390,262;   -1,070;   -0,045
413,087;  331,177;   -1,980;   -0,227
413,677;  255,114;   -0,707;    3,864
414,267;  244,285;    0,656;    1,409
414,857;  221,482;   -2,980;    4,227
415,448;  229,190;    0,839;    0,500
416,038;  266,385;    0,020;   -0,591
416,628;  318,925;   -0,889;    0,409
417,218;  385,231;    0,565;    3,318
417,808;  545,246;    0,202;   -0,409
418,398;  404,976;    0,020;    2,682
418,988;  279,715;    2,020;    0,591
419,578;  386,037;   -0,707;    1,409
420,168;  318,175;   -1,343;   -0,955
420,757;  487,464;   -1,343;   -1,500
421,347;  378,769;    0,111;   -0,227
421,937;  336,853;    2,292;    1,409
422,527;  482,067;    0,838;   -0,773
423,116;  638,520;   -0,253;   -0,045
423,706;  323,642;   -1,889;    0,318
424,296;  275,001;    1,384;    0,682
424,885;  435,092;   -0,071;   -3,045
425,475;  398,583;    1,474;   -2,864
426,065;  268,397;   -0,980;   -0,318
426,654;  250,772;   -0,435;   -0,318
427,244;  559,412;    0,020;    1,409
427,833;  530,849;    1,383;   -0,500
428,423;  376,017;   -0,526;    1,136
429,012;  379,628;   -0,344;   -1,136
429,601;  526,663;   -1,344;    0,136
430,191;  405,691;    1,292;    4,318
430,780;  292,112;   -0,344;   -0,409
431,369;  510,030;    0,746;   -0,045
431,959;  378,770;   -1,254;    0,500
432,548;  304,142;   -1,163;   -0,045
433,137;  231,262;   -1,254;   -1,318
433,726;  331,967;    0,292;    0,500
434,315;  357,988;   -0,526;    2,409
434,905;  481,724;   -1,254;    1,409
435,494;  487,403;    0,746;    0,955
436,083;  329,524;   -0,981;   -0,955
436,672;  425,281;    0,110;    0,500
437,261;  367,788;    0,292;   -1,955
437,850;  651,127;    1,383;    0,682
438,439;  700,035;    3,291;    1,955
439,027;  823,691;    3,655;    1,773
439,616;  745,286;    2,927;    1,227
440,205;  491,420;    0,200;   -2,136
440,794;  420,298;    2,109;   -0,045
441,383;  329,540;   -1,346;   -0,591
441,971;  287,258;   -2,436;    0,591
442,560;  309,136;    0,563;   -1,773
443,149;  175,827;    0,379;   -1,318
443,737;  258,868;   -0,074;   -2,318
444,326;  289,234;    0,018;    0,318
444,915;  361,495;   -1,982;    0,864
445,503;  371,287;   -2,891;   -0,318
446,092;  672,942;    0,382;    2,136
446,680;  601,888;    0,382;    0,318
447,269;  495,728;   -0,346;   -0,318
447,857;  469,049;    0,018;   -1,773
448,445;  408,886;    0,563;    1,318
449,034;  335,326;   -1,528;   -1,136
449,622;  338,329;   -1,073;    3,500
450,210;  702,889;    2,017;    2,227
450,799;  599,815;    0,290;   -0,591
451,387;  534,744;    1,381;   -0,591
451,975;  519,808;    2,654;    0,864
452,563;  621,945;    3,472;    2,318
453,151;  378,016;   -0,528;   -1,227
453,739;  447,661;   -1,347;    0,136
454,328;  594,356;    2,381;   -2,136
454,916;  499,760;    2,562;   -0,136
455,504;  507,269;    1,017;    1,227
456,092;  368,693;    0,017;   -1,591
456,679;  316,790;    1,472;    0,682
457,267;  844,475;    4,017;    1,045
457,855;  436,686;    1,017;    1,409
458,443;  244,290;   -0,165;    1,682
459,031;  490,435;    0,108;    2,409
459,619;  434,221;   -1,801;    2,864
460,206;  294,607;    0,835;    2,045
460,794;  301,006;   -2,983;   -0,227
461,382;  369,353;   -0,529;   -0,864
461,970;  360,533;    1,198;    1,864
462,557;  261,075;   -0,711;   -0,682
463,145;  441,320;   -3,165;   -1,682
463,732;  748,125;    2,016;   -1,045
464,320;  449,003;   -0,075;   -3,045
464,907;  637,889;    2,743;   -0,773
465,495;  521,642;    0,743;   -1,227
466,082;  412,269;   -1,984;   -0,045
466,670;  437,097;   -2,529;    1,227
467,257;  292,213;   -1,711;    2,045
467,844;  442,781;   -0,075;    0,045
468,432;  404,610;    0,834;    3,500
469,019;  337,223;    0,925;   -1,773
469,606;  439,910;    0,470;    3,682
470,193;  485,907;   -1,439;    0,227
470,780;  442,653;   -2,075;    0,864
471,368;  336,607;   -1,257;   -0,773
471,955;  482,039;    1,379;   -0,682
472,542;  417,922;    0,652;   -1,136
473,129;  260,144;   -0,166;    0,136
473,716;  281,672;    1,470;    0,591
474,303;  328,131;    0,652;   -0,864
474,890;  339,793;   -1,439;   -0,500
475,477;  466,369;   -1,621;    0,409
476,064;  335,077;    1,106;   -1,591
476,650;  494,649;    0,288;    0,318
477,237;  391,286;   -0,258;    0,955
477,824;  362,119;   -1,076;    0,864
478,411;  233,928;   -1,894;   -0,318
478,997;  233,620;    0,560;   -0,773
479,584;  156,875;    1,196;   -0,409
480,171;  418,664;   -0,440;   -0,773
480,757;  510,185;    2,651;    0,773
481,344;  349,850;    0,469;    0,409
481,931;  213,138;    1,105;    1,045
482,517;  430,509;   -1,258;    0,318
483,104;  561,783;    1,106;    2,864
483,690;  395,245;   -1,804;    0,045
484,276;  361,391;   -0,895;    0,227
484,863;  688,632;    2,469;    1,136
485,449;  456,707;   -0,077;    0,318
486,035;  381,082;   -1,986;   -0,136
486,622;  544,848;   -0,895;    0,045
487,208;  410,064;    1,378;    1,500
487,794;  281,475;    0,741;    0,318
488,380;  271,040;    0,105;   -1,409
488,967;  295,863;   -1,168;   -0,409
489,553;  321,279;   -1,895;   -1,409
490,139;  452,010;    1,559;    0,773
490,725;  307,113;    0,741;   -0,227
491,311;  372,737;    3,287;    3,045
491,897;  318,653;   -0,986;    1,500
492,483;  311,310;    0,105;    1,227
493,069;  914,662;    3,923;    0,864
493,655;  522,618;    1,650;    0,682
494,241;  339,696;    1,377;   -0,955
494,826;  367,640;    0,287;   -1,045
495,412;  471,914;    2,559;   -0,682
495,998;  327,038;   -0,805;   -0,318
496,584;  417,553;    0,377;    1,045
497,169;  422,397;    1,014;   -0,682
497,755;  322,303;    0,650;    1,227
498,341;  540,667;    0,559;    0,318
498,926;  707,524;    1,832;    1,955
499,512;  338,900;    1,286;    2,955
500,097;  341,090;    0,195;   -0,318
500,683;  367,878;   -0,350;    2,136
501,268;  291,157;   -0,169;   -0,955
501,854;  309,095;   -0,169;    1,227
502,439;  287,072;   -0,624;   -1,773
503,024;  362,113;    0,195;    0,500
503,610;  404,743;   -0,078;   -0,682
504,195;  293,771;    0,558;    1,955
504,780;  428,621;    2,922;    1,227
505,366;  549,152;    3,013;    2,864
505,951;  441,678;    0,740;    1,045
506,536;  326,119;   -3,260;   -3,682
507,121;  411,727;    0,285;   -0,318
507,706;  332,734;    2,376;    1,045
508,291;  256,953;    2,649;    1,136
508,876;  260,180;   -0,988;    2,591
509,461;  342,037;   -0,169;   -0,773
510,046;  392,938;    0,194;    0,318
510,631;  389,805;   -0,351;   -0,773
511,216;  281,111;    2,467;   -0,500
511,801;  365,125;   -0,442;    2,591
512,386;  399,096;    0,740;    0,500
512,971;  401,801;   -2,988;    0,955
513,555;  462,390;   -0,897;   -1,500
514,140;  397,045;   -0,442;   -3,136
514,725;  527,577;   -0,715;   -1,136
515,309;  412,562;   -0,533;    0,318
515,894;  292,195;   -0,624;   -2,227
516,479;  336,856;   -0,624;   -0,955
517,063;  342,743;    0,376;    1,227
517,648;  281,571;    1,012;   -1,136
518,232;  248,783;   -0,261;   -1,409
518,817;  347,696;   -0,079;    1,682
519,401;  487,771;    2,194;    0,591
519,985;  443,479;    1,103;    1,136
520,570;  284,433;    0,830;   -1,955
521,154;  397,648;    2,102;    0,591
521,738;  580,808;   -2,352;    2,409
522,323;  393,997;   -0,170;    1,682
522,907;  388,163;    0,466;   -0,136
523,491;  290,534;    0,557;    0,955
524,075;  256,175;    2,284;    0,591
524,659;  448,861;    1,466;    0,591
525,243;  391,326;    1,739;    0,409
525,827;  335,904;    0,648;   -0,045
526,411;  338,589;   -1,989;   -0,136
526,995;  434,612;   -0,352;    1,409
527,579;  488,885;   -0,443;   -1,045
528,163;  416,107;    0,375;   -1,500
528,747;  507,458;    2,466;   -0,773
529,331;  447,628;   -0,080;   -1,409
529,915;  295,021;    1,738;    0,955
530,499;  387,475;   -0,807;    1,227
531,082;  550,153;   -0,534;    1,591
531,666;  621,807;    1,374;    0,773
532,250;  501,644;    1,284;    2,682
532,833;  599,522;    0,920;    2,773
533,417;  446,709;   -1,807;    0,864
534,001;  563,757;    1,647;   -0,318
534,584;  480,082;    0,374;    0,500
535,168;  307,713;    0,465;    1,409
535,751;  655,083;    0,647;    0,045
536,334;  405,560;   -0,898;   -0,409
536,918;  248,917;    0,011;    1,591
537,501;  264,497;   -0,899;    1,318
538,085;  307,514;   -0,444;    1,045
538,668;  387,064;    0,829;    2,409
539,251;  661,704;    1,829;    3,773
539,834;  381,603;    0,101;    0,773
540,418;  503,491;   -1,990;    4,318
541,001;  677,561;   -0,990;    1,773
541,584;  451,039;    2,101;    2,227
542,167;  564,047;    1,374;    2,955
542,750;  388,706;    1,919;   -0,773
543,333;  266,786;    0,555;    2,136
543,916;  482,279;    0,192;    2,500
544,499;  416,757;   -1,354;    0,227
545,082;  493,127;    1,374;    3,591
545,665;  406,563;    1,919;    1,500
546,248;  526,150;    1,010;   -0,318
546,830;  507,773;   -0,445;    1,955
547,413;  460,192;    1,010;   -0,773
547,996;  419,678;    0,555;    0,500
548,579;  384,901;    0,919;    0,955
549,161;  623,453;    1,828;    2,682
549,744;  513,493;   -0,809;    0,409
550,326;  353,226;   -0,809;   -1,136
550,909;  806,532;    2,737;    0,591
551,492;  466,393;   -0,263;    0,227
552,074;  591,007;   -0,173;   -1,318
552,657;  614,554;    2,373;    0,045
553,239;  488,475;   -0,173;   -0,773
553,821;  361,063;   -1,082;    1,045
554,404;  611,369;    1,282;    1,136
554,986;  706,035;    0,464;    1,045
555,568;  541,501;    1,191;   -0,955
556,151;  747,051;    1,191;   -0,227
556,733;  439,477;   -0,264;   -0,864
557,315;  465,737;    0,100;    0,500
557,897;  343,908;    0,554;   -0,500
558,479;  352,096;   -1,991;    1,318
559,061;  441,533;   -0,719;   -0,864
559,643;  478,225;   -0,264;    0,045
560,225;  521,599;    1,645;    2,864
560,807;  370,134;    0,918;    0,318
561,389;  356,784;    0,554;    2,318
561,971;  442,605;    0,463;    2,136
562,553;  365,445;   -1,628;    1,591
563,135;  451,348;   -0,537;    1,136
563,717;  828,890;    3,372;    1,136
564,298;  724,188;    3,645;   -0,045
564,880;  486,020;    0,645;   -1,409
565,462;  322,929;    0,645;    1,318
566,043;  439,122;   -0,446;    2,318
566,625;  745,119;    1,918;    1,227
567,207;  567,800;    1,099;    1,682
567,788;  419,630;   -1,264;    1,500
568,370;  418,691;    1,917;   -0,500
568,951;  420,828;    0,190;    0,227
569,533;  522,907;   -0,628;   -0,500
570,114;  527,326;   -0,446;    0,682
570,695;  557,695;   -0,174;   -1,318
571,277;  544,724;   -0,265;   -1,682
571,858;  744,791;    2,008;   -1,136
572,439;  577,213;    1,554;   -1,045
573,021;  615,071;    2,099;   -2,773
573,602;  727,221;   -1,265;    0,318
574,183;  676,979;   -2,083;    2,227
574,764;  611,062;   -1,629;    0,409
575,345;  807,362;    0,917;   -0,136
575,926;  631,755;   -0,356;    0,136
576,507;  713,037;    1,099;   -0,227
577,088;  663,581;    3,099;    1,682
577,669;  853,991;    0,735;    1,955
578,250; 1033,707;    0,644;   -1,045
578,831;  812,698;   -1,356;   -2,227
579,412;  802,813;   -0,810;    0,955
579,993;  769,729;    1,008;    0,227
580,573;  673,186;   -0,629;   -0,955
581,154;  832,267;    0,735;   -0,591
581,735;  845,169;    0,644;    0,773
582,315; 1002,078;   -0,629;    2,136
582,896;  787,335;   -0,174;    1,227
583,477;  622,121;    0,189;    1,227
584,057;  763,546;    0,553;    0,955
584,638;  895,638;    2,553;    2,318
585,218; 1120,723;   -0,538;    2,682
585,799;  931,159;    0,281;   -0,227
586,379;  804,036;    0,372;    1,591
586,959;  769,890;    0,735;    0,318
587,540;  680,416;   -0,629;    2,227
588,120;  701,121;    1,007;   -0,045
588,700;  716,066;    2,553;    2,136
589,281;  893,367;    0,462;   -0,955
589,861;  749,291;    0,099;   -1,682
590,441;  599,190;    2,371;   -2,682
591,021;  708,090;   -0,265;   -2,591
591,601;  652,838;   -0,537;    0,500
592,181;  640,647;   -0,719;   -0,773
592,761;  548,356;    0,007;    1,409
593,341;  664,796;   -0,901;    0,045
593,921;  673,399;   -0,265;    1,591
594,501;  569,800;   -0,538;    1,318
595,081;  575,940;    0,917;   -0,318
595,661;  645,603;   -1,447;    0,955
596,240;  575,657;   -0,537;    0,136
596,820;  992,338;    0,372;    1,955
597,400;  713,232;    2,008;    0,773
597,980;  604,365;    2,008;    1,045
598,559;  545,680;    2,735;   -0,227
599,139;  534,785;   -0,174;   -1,227
599,718;  530,331;   -0,174;   -0,409
600,298;  508,317;    0,735;    0,682
600,877; 1015,827;    2,917;    1,409
601,457;  709,872;    2,281;    1,136
602,036;  584,744;    0,190;    2,045
602,616;  641,636;    0,644;    1,682
603,195;  771,143;   -0,355;    3,500
603,774;  832,429;   -0,901;    2,045
604,354;  771,615;    0,826;   -0,500
604,933;  704,649;    0,463;    1,864
605,512;  799,894;    3,554;    0,591
606,091;  785,670;   -0,537;    3,773
606,671;  724,419;    0,281;    0,773
607,250;  908,879;    1,644;    3,136
607,829;  846,368;    2,372;    3,227
608,408;  689,937;    1,190;    2,591
608,987;  813,407;    1,281;    3,409
609,566;  624,787;   -1,265;   -2,500
610,145;  728,143;   -1,082;    0,682
610,723;  769,517;    4,372;    6,864
611,302;  686,294;   -0,446;    1,682
611,881;  984,495;    5,008;   11,227
612,460;  672,865;    1,645;    3,955
613,039;  558,090;   -0,082;    2,045
613,617;  558,106;    1,736;    4,773
614,196;  577,684;    1,099;    1,227
614,775;  641,902;    1,009;    2,409
615,353;  699,420;    0,736;    0,864
615,932;  662,063;    0,100;    2,409
616,510;  639,173;    0,554;    0,591
617,089; 1155,615;    7,100;   17,591
617,667;  758,065;    2,372;    6,136
618,246;  531,946;   -1,537;    1,318
618,824;  596,318;   -3,355;   -0,955
619,402;  618,957;   -2,900;   -1,773
619,981;  681,744;   -0,173;   -1,045
620,559;  585,630;    0,009;    1,682
621,137;  605,280;   -0,718;    1,864
621,715;  517,018;   -1,173;   -0,682
622,293;  540,095;   -0,537;   -0,773
622,871;  541,101;   -0,718;    0,500
623,450;  488,772;    0,373;   -0,864
624,028;  684,537;    0,191;   -0,955
624,606;  644,420;   -1,718;    1,682
625,183;  465,021;   -1,536;   -1,136
625,761;  609,383;    1,009;    1,136
626,339;  896,613;    1,373;    2,591
626,917;  543,513;   -0,172;   -0,045
627,495;  486,521;   -0,354;    1,318
628,073;  621,303;   -0,263;    2,864
628,650;  637,180;    0,100;    2,136
629,228;  636,581;    0,373;    4,409
629,806;  454,457;    2,282;    1,136
630,383;  507,506;    1,464;   -0,318
630,961;  510,094;    2,555;   -0,955
631,539;  557,864;    2,464;    0,227
632,116; 1270,822;   11,373;   15,409
632,694;  883,056;    2,555;    6,500
633,271;  720,342;    0,828;    2,682
633,848;  821,831;    1,828;    2,045
634,426;  546,862;   -1,081;    1,773
635,003;  408,955;    1,101;   -0,409
635,580;  828,763;    1,192;    3,682
636,158;  700,468;    3,737;    1,227
636,735;  511,979;    0,555;   -0,500
637,312;  505,933;   -0,809;   -0,682
637,889;  511,576;   -4,354;   -0,682
638,466;  491,294;   -3,990;   -0,409
639,043;  538,588;    2,101;   -1,136
639,620;  452,130;   -2,262;   -0,955
640,197;  588,273;    1,100;    1,682
640,774;  413,098;   -0,172;    1,136
641,351;  485,649;    0,737;    1,136
641,928;  684,383;   -0,627;    1,409
642,505;  799,843;    0,828;   -0,500
643,082;  612,758;   -1,718;    1,227
643,658;  491,583;   -0,718;    1,500
644,235;  475,498;    1,191;    2,500
644,812;  657,322;    1,918;    0,773
645,388;  640,783;   -0,991;    1,409
645,965;  437,698;   -0,809;    1,682
646,542;  446,613;   -1,445;   -0,227
647,118;  816,892;    1,009;   -0,955
647,695;  608,807;   -0,263;    1,136
648,271;  426,723;   -0,536;    0,500
648,848;  599,183;    0,736;    2,227
649,424;  724,553;    0,827;    1,318
650,000;  541,832;   -0,354;   -1,045
650,577;  563,111;   -0,627;   -0,955
651,153;  566,299;   -1,809;    0,955
651,729;  516,850;    1,191;    0,864
652,305;  878,402;    0,645;    2,773
652,881;  827,862;   -0,082;    1,136
653,458;  946,960;    1,100;    0,227
654,034; 1017,057;    0,282;    1,591
654,610; 1174,517;    0,554;    0,773
655,186; 1689,432;    0,645;    3,045
655,762; 1205,620;   -0,991;    0,409
656,338; 1187,445;    0,100;    0,136
656,913; 1258,996;   -0,082;    0,409
657,489; 1031,275;    0,827;   -0,318
658,065; 1140,099;   -0,173;   -1,591
658,641; 1172,833;   -0,900;   -0,864
659,217; 1091,112;   -0,991;    0,409
659,792; 1253,754;    0,645;   -0,409
660,368; 1041,397;   -2,173;   -0,682
660,944; 1058,948;   -2,082;    1,227
661,519;  970,863;   -0,628;    0,409
662,095;  704,779;   -1,719;    0,591
662,670;  564,785;    1,281;   -0,136
663,246;  473,973;    1,009;   -0,409
663,821;  636,342;    0,281;    1,682
664,396;  591,621;    0,009;    1,864
664,972;  512,446;    0,009;   -0,500
665,547;  561,270;    1,372;    0,136
666,122;  529,094;   -1,082;    0,318
666,698;  721,373;   -0,173;    0,318
667,273;  501,015;   -0,173;    0,136
667,848;  543,476;    2,372;    1,500
668,423;  714,573;    2,190;    2,318
668,998;  560,579;    2,827;   -0,682
669,573;  514,131;   -3,264;   -1,500
670,148;  701,319;   -1,446;   -0,682
670,723;  486,416;   -1,810;    0,318
671,298;  771,422;    2,372;    1,045
671,873;  678,064;   -0,082;   -0,136
672,448;  665,616;    0,645;    0,136
673,023;  654,349;   -1,992;   -0,227
673,597;  746,355;    0,827;    2,318
674,172;  803,453;   -0,355;    0,318
674,747;  711,186;    0,372;   -1,045
675,321;  473,737;   -0,628;    3,318
675,896;  418,744;    0,645;    1,045
676,471;  644,022;    2,645;    1,591
677,045;  562,574;   -1,264;    0,682
677,620;  656,944;    0,190;    1,136
678,194;  489,132;   -2,628;    1,136
678,769;  567,774;   -1,083;   -0,318
679,343;  618,962;   -0,628;    1,773
679,917;  739,968;   -1,446;    1,955
680,492;  596,338;    0,826;    3,227
681,066;  627,435;    3,372;    0,409
681,640;  554,168;    1,463;   -0,318
682,214;  568,175;    0,735;    0,500
682,788;  571,544;   -1,356;   -0,773
683,363;  724,460;   -1,810;    1,682
683,937;  594,920;   -1,719;   -0,318
684,511;  622,744;    0,463;   -0,591
685,085;  639,478;   -1,356;    0,318
685,659;  544,575;   -2,538;    0,864
686,232;  793,217;   -0,356;   -0,318
686,806;  658,405;   -0,901;    0,409
687,380;  538,139;   -0,174;    0,591
687,954;  476,418;   -1,174;    1,136
688,528;  810,060;   -0,719;    1,955
689,101;  626,975;   -3,992;    1,045
689,675;  528,800;   -0,356;   -0,136
690,249;  774,897;   -0,719;    0,409
690,822;  768,812;    0,280;    0,318
691,396;  659,091;   -0,265;    1,227
691,969;  574,369;    1,280;    0,136
692,543;  466,103;   -0,447;   -1,955
693,116;  459,654;   -0,265;   -1,409
693,690;  550,661;    0,099;    0,500
694,263;  487,667;   -1,083;    2,955
694,836;  841,764;    1,371;    3,591
695,410;  728,952;   -0,265;    1,773
695,983;  750,412;    0,189;    0,591
696,556;  545,055;   -0,447;   -1,045
697,129;  451,243;   -0,356;    1,409
697,703;  685,340;   -1,629;    1,955
698,276;  573,255;    1,462;   -0,773
698,849;  734,170;    1,280;    1,409
699,422;  503,267;   -1,083;    0,591
699,995;  410,091;    0,007;    0,136
700,568;  548,370;   -0,629;    3,045
701,140;  566,195;   -2,811;    1,682
701,713;  729,564;   -0,174;    2,409
702,286;  616,389;   -0,538;    0,864
702,859;  705,304;   -0,902;   -0,591
703,432;  791,401;    0,825;    0,682
704,004;  664,589;    0,462;    0,318
704,577;  548,777;   -0,629;    0,136
705,150;  595,783;    0,189;    2,500
705,722;  653,789;   -0,356;   -3,227
706,295;  717,432;   -0,175;   -0,591
706,867;  594,801;   -0,175;    1,955
707,440;  682,171;   -1,720;   -0,409
708,012;  768,086;    0,462;    0,591
708,584;  682,820;    2,462;    0,227
709,157;  454,735;    1,825;   -0,591
709,729;  689,923;    2,280;    2,045
710,301;  538,929;    0,734;    0,045
710,874;  554,844;   -1,447;   -0,227
711,446;  450,850;    0,371;    0,864
712,018;  519,584;    0,098;    0,500
712,590;  472,499;   -1,993;    1,682
713,162;  747,323;    0,825;    1,318
713,734;  528,966;    1,825;   -2,045
714,306;  441,790;   -1,902;   -0,409
714,878;  511,796;    0,825;    0,864
715,450;  452,893;    0,643;    0,864
716,022;  468,172;    1,552;    1,318
716,593;  455,451;    0,189;    0,591
717,165;  508,821;   -3,175;   -1,227
717,737;  776,463;    0,280;    0,409
718,309;  546,742;    0,280;   -0,045
718,880;  472,021;   -0,539;   -1,409
719,452;  540,481;   -0,175;   -1,591
720,024;  647,487;    0,734;   -0,591
720,595;  528,584;   -2,902;    0,955
721,167;  525,227;    0,370;   -2,045
721,738;  651,869;   -0,812;   -1,045
722,309;  800,966;   -0,993;   -1,227
722,881;  529,973;   -1,357;    0,773
723,452;  596,615;   -2,630;    2,864
724,023;  608,985;   -0,721;    2,682
724,595;  676,082;    0,007;    0,682
725,166;  548,270;    0,007;   -0,409
725,737;  748,458;    1,734;    0,227
726,308;  537,373;   -0,266;    0,318
726,879;  454,015;   -1,630;    1,227
727,450;  622,203;    0,552;   -0,045
728,021;  555,937;    3,097;    0,682
728,592;  725,761;    0,734;    0,500
729,163;  815,494;    0,643;   -0,136
729,734;  790,682;    0,188;   -0,227
730,305;  647,870;    1,734;    0,136
730,876;  599,786;    0,188;    2,955
731,447;  923,337;    2,188;    2,682
732,017;  824,616;    1,097;    1,864
732,588;  616,986;    0,734;    1,227
733,159;  878,446;    0,643;   -1,045
733,729;  613,634;    0,006;    0,409
734,300;  783,186;    0,915;    0,864
734,870;  590,919;    3,461;    0,591
735,441;  575,834;    0,370;   -0,591
736,011;  574,841;    0,643;   -1,591
736,582;  568,392;   -0,812;    0,045
737,152;  702,307;   -1,721;   -2,045
737,722;  674,041;   -0,267;   -0,682
738,293;  516,138;   -1,358;    1,318
738,863;  699,871;    2,461;    2,318
739,433;  959,332;    5,279;    0,318
740,003;  668,338;   -0,994;   -0,682
740,573;  802,890;    2,097;   -1,591
741,143;  672,077;   -1,085;    0,318
741,713;  574,447;    1,188;   -0,500
742,283;  645,453;    0,915;    1,591
742,853;  582,278;    1,915;    1,591
743,423;  409,557;    1,733;    0,045
743,993;  526,744;   -0,358;    1,500
744,563;  583,387;    0,097;   -0,864
745,133;  610,575;   -0,812;   -0,864
745,702;  474,672;   -0,267;    1,773
746,272;  693,042;   -0,176;    0,591
746,842;  718,048;   -1,358;   -0,591
747,411;  507,781;   -0,267;   -0,318
747,981;  406,787;    0,097;    0,500
748,551;  403,702;    2,278;   -1,045
749,120;  604,618;    0,642;   -0,227
749,690;  552,533;   -0,631;    2,409
750,259;  643,448;    1,369;    2,955
750,828;  714,000;    1,551;   -1,955
751,398;  493,733;    1,278;   -0,045
751,967;  967,739;    2,187;    0,409
752,536;  617,109;   -0,813;   -0,227
753,105;  727,297;    0,096;    0,227
753,675;  565,212;    0,096;    1,773
754,244;  571,218;   -0,904;    3,591
754,813;  611,133;    0,551;    1,227
755,382;  567,230;    0,460;    0,955
755,951;  694,055;    1,551;    3,682
756,520;  810,970;   -0,085;    1,864
757,089;  906,340;    0,278;    0,500
757,658;  654,528;    1,733;    1,227
758,227;  486,261;    1,096;    0,318
758,795;  539,449;    1,187;    1,136
759,364;  541,637;   -0,086;   -0,591
759,933;  482,461;   -1,176;   -0,045
760,501;  423,740;    0,733;   -1,318
761,070;  594,292;   -2,813;   -1,409
761,639;  537,752;   -1,904;    1,318
762,207;  672,031;    1,551;   -0,955
762,776;  712,765;    0,369;    0,864
763,344;  562,680;   -0,995;    0,591
763,913;  376,777;   -0,722;    1,409
764,481;  900,510;    1,005;   -0,136
765,049;  894,971;   -1,358;    1,409
765,618;  815,250;   -0,086;    0,318
766,186;  620,710;    0,278;    0,136
766,754;  666,989;    0,005;    1,864
767,322;  553,086;   -1,995;    0,409
767,890;  512,274;   -0,722;   -1,773
768,459;  504,826;   -2,177;   -0,318
769,027;  725,650;    1,641;    3,409
769,595;  551,383;    3,278;    2,591
770,163;  649,844;    3,823;    2,955
770,730;  623,032;    0,732;   -0,136
771,298;  607,220;    0,187;   -1,409
771,866;  532,772;   -1,541;    4,955
772,434;  565,505;   -0,631;   -1,864
773,002;  764,056;    0,005;    0,682
773,569;  641,972;    0,914;    1,682
774,137;  749,160;   -0,268;   -0,045
774,705;  534,802;    0,278;   -0,136
775,272;  517,081;    0,641;    0,682
775,840;  537,451;   -0,177;    2,682
776,407;  657,820;    0,277;    1,955
776,975;  539,099;   -0,632;    0,318
777,542;  469,833;   -1,086;   -0,045
778,110;  501,112;   -1,268;   -0,045
778,677;  388,663;   -2,359;   -0,864
779,244;  466,215;    2,186;    1,045
779,812;  617,766;    1,823;    0,864
780,379;  701,681;    0,005;    1,136
780,946;  571,869;    1,005;   -0,773
781,513;  476,239;   -1,450;    0,318
782,080;  458,882;   -0,086;    2,864
782,647;  483,706;   -0,268;    3,045
783,214;  466,712;   -0,177;    3,864
783,781;  673,445;   -0,723;   -0,682
784,348;  611,179;   -0,632;    1,500
784,915;  399,640;   -3,177;    0,318
785,482;  634,373;    1,368;    2,591
786,049;  546,197;    0,186;   -0,591
786,615;  431,385;    0,277;   -0,955
787,182;  387,664;    0,186;   -0,682
787,749;  364,943;   -2,814;    1,409
788,315;  613,494;   -1,632;   -0,409
788,882;  484,228;    1,550;   -1,227
789,448;  777,234;    1,732;   -0,955
790,015;  540,149;    1,095;    3,227
790,581;  716,883;    1,459;    0,227
791,148;  536,252;    0,641;    1,045
791,714;  422,349;   -0,541;    3,136
792,280;  436,901;    0,186;    1,591
792,847;  381,089;    0,550;    2,500
793,413;  471,186;   -0,269;   -0,318
793,979;  692,647;    3,459;   -1,318
794,545;  965,380;    4,459;    2,682
795,111;  849,750;    2,186;    1,318
795,678;  700,119;    0,731;   -1,682
796,244;  850,853;    3,368;    0,136
796,810;  694,041;    1,731;    0,773
797,375;  687,774;    0,549;   -2,136
797,941;  378,235;   -0,541;    0,591
798,507;  398,514;   -0,451;   -0,955
799,073;  436,520;   -0,360;    0,591
799,639;  418,435;   -2,632;    3,136
800,205;  381,350;    0,095;    2,682
800,770;  423,538;    0,640;    1,773
801,336;  444,272;    1,368;   -0,955
801,901; 1023,459;    4,549;    3,136
802,467;  674,920;   -0,542;    2,045
803,033;  455,017;   -0,087;    0,864
803,598;  454,205;    1,913;   -1,045
804,163;  463,120;    1,095;   -0,318
804,729;  570,763;   -0,178;    1,136
805,294;  463,951;    0,822;    2,227
805,859;  406,411;    0,731;   -0,409
806,425;  786,690;    1,186;    2,682
806,990;  763,515;    2,186;    4,318
807,555;  520,975;   -1,451;    2,591
808,120;  671,890;    0,822;   -0,409
808,685;  472,533;    0,185;   -2,500
809,250;  385,266;    0,004;   -0,500
809,815;  361,727;    1,913;    0,682
810,380;  491,279;   -0,269;    1,591
810,945;  674,466;   -1,087;    2,045
811,510;  499,018;    2,094;    1,591
812,075;  563,479;   -0,633;   -1,409
812,640;  788,758;    2,003;    1,409
813,204;  545,673;    0,822;   -0,227
813,769;  679,042;    2,094;   -0,045
814,334;  676,958;    0,458;    0,864
814,898;  408,509;    0,367;    0,591
815,463;  513,243;    1,276;   -0,773
816,027;  457,522;   -0,724;   -2,318
816,592;  382,800;    0,640;   -2,045
817,156;  568,170;    2,094;    1,136
817,721;  679,631;    4,276;    2,318
818,285;  417,637;    2,912;    1,500
818,849;  475,370;   -1,451;    1,682
819,414;  401,740;   -0,269;    2,955
819,978;  360,837;   -1,269;    1,773
820,542;  629,116;    2,003;    0,500
821,106;  467,486;   -0,815;    0,682
821,670;  693,128;   -0,815;    2,591
822,234;  466,589;   -0,270;    1,409
822,798;  373,322;    0,003;    0,500
823,362;  600,056;   -0,633;    4,227
823,926;  458,698;    0,094;    1,136
824,490;  637,704;   -0,997;   -0,682
825,054;  503,438;   -0,088;   -1,136
825,618;  406,807;   -1,542;   -1,500
826,181;  465,268;    0,458;   -1,318
826,745;  576,183;    1,367;   -1,045
827,309;  770,462;    1,185;    1,318
827,872;  642,014;    1,367;    0,955
828,436;  528,020;    1,185;   -0,773
828,999;  428,480;   -0,997;    1,227
829,563;  403,668;   -0,179;    1,136
830,126;  386,674;   -0,179;   -0,591
830,690;  502,862;   -1,997;    2,864
831,253;  420,050;   -0,543;    2,227
831,816;  468,784;   -1,906;    0,500
832,380;  426,699;    0,185;    0,864
832,943;  398,796;   -1,361;   -0,500
833,506;  405,348;    2,639;   -1,227
834,069;  553,990;    3,912;   -0,955
834,632;  399,633;    1,730;    1,318
835,195;  449,366;    1,003;    0,955
835,758;  388,372;   -0,997;    1,955
836,321;  413,651;    0,730;   -1,045
836,884;  378,384;   -0,725;   -0,955
837,447;  324,118;   -2,816;    1,773
838,010;  503,396;    0,366;    3,227
838,573;  497,766;   -1,179;    0,773
839,135;  354,863;   -1,361;   -0,955
839,698;  436,597;    1,275;    0,409
840,261;  387,966;    1,003;   -0,227
840,823;  343,791;   -0,543;    0,864
841,386;  332,797;   -0,452;   -2,409
841,948;  626,348;   -1,361;    1,773
842,511;  416,809;    0,912;    1,682
843,073;  605,633;    1,912;    0,227
843,636;  369,549;   -0,361;   -0,227
844,198;  582,191;    0,911;    0,591
844,760;  537,197;    1,093;    1,955
845,322;  346,476;    0,548;    1,136
845,885;  488,664;    0,730;    0,591
846,447;  421,397;   -1,998;    0,227
847,009;  749,858;    1,911;   -0,682
847,571;  465,137;    0,820;   -2,045
848,133;  412,416;   -1,089;   -1,864
848,695;  280,331;   -0,543;    1,409
849,257;  361,155;   -1,089;   -1,682
849,819;  495,889;   -0,998;   -0,409
850,381;  370,895;   -0,725;   -0,864
850,942;  436,901;    1,093;   -0,591
851,504;  511,725;    1,184;    0,227
852,066;  380,822;    1,275;   -1,591
852,628;  411,192;   -0,180;    1,955
853,189;  323,925;    1,638;    2,682
853,751;  319,750;   -0,907;    1,409
854,312;  471,028;   -0,453;   -1,682
854,874;  601,307;   -2,089;   -0,773
855,435;  420,132;   -0,907;   -1,682
855,997;  450,501;   -1,816;   -0,136
856,558;  572,962;    0,366;    1,773
857,119;  481,786;    0,820;    2,864
857,681;  334,883;    0,002;    0,318
858,242;  602,617;    1,911;   -2,136
858,803;  549,441;    0,456;   -0,773
859,364;  417,811;    0,184;   -4,773
859,925;  507,635;   -2,453;   -0,955
860,486;  381,369;   -0,453;   -0,955
861,047;  334,284;   -0,544;   -1,227
861,608;  379,472;   -1,089;   -0,773
862,169;  238,660;    0,638;   -0,045
862,730;  376,757;    0,456;    1,409
863,291;  415,126;   -0,635;   -0,500
863,852;  390,587;   -0,635;    1,955
864,412;  393,230;   -0,271;   -0,864
864,973;  623,508;   -0,089;    0,500
865,534;  724,878;   -1,726;    0,227
866,094;  513,430;    1,820;    0,227
866,655;  647,618;    1,274;    3,318
867,215;  467,442;    0,274;    0,136
867,776;  319,903;    0,547;   -0,136
868,336;  407,545;   -1,453;    0,136
868,897;  774,733;    2,638;    1,682
869,457;  564,012;    1,365;    0,318
870,017;  359,382;    0,547;   -1,227
870,578;  351,660;   -0,817;    0,773
871,138;  442,667;   -2,089;   -0,955
871,698;  362,945;   -0,817;   -1,318
872,258;  475,497;   -0,453;   -2,864
872,818;  616,685;    2,729;    0,045
873,378;  442,055;    0,638;    1,045
873,938;  427,061;    0,547;    0,500
874,498;  326,794;    0,274;   -1,955
875,058;  437,709;    2,183;    1,773
875,618;  434,806;    1,910;   -2,682
876,177;  472,813;    1,274;    0,136
876,737;  314,273;   -0,090;    1,955
877,297;  662,643;    0,183;    1,955
877,856;  595,013;   -0,362;    0,318
878,416;  369,655;    1,183;   -0,136
878,976;  330,934;   -1,817;    0,409
879,535;  371,577;    0,092;    3,136
880,095;  349,128;   -0,544;    0,045
880,654;  306,771;   -1,090;    1,318
881,213;  590,686;    2,456;    1,500
881,773;  438,419;    2,637;    2,682
882,332;  896,971;    3,365;    5,136
882,891;  425,431;    3,092;    2,136
883,451;  405,165;   -1,272;    1,682
884,010;  375,807;   -2,908;   -0,409
884,569;  315,723;   -0,999;   -0,045
885,128;  480,638;    2,819;   -1,864
885,687;  710,189;    4,455;    0,682
886,246;  881,650;    1,455;    2,136
886,805;  697,202;    2,455;    2,045
887,364;  363,571;   -0,999;   -0,500
887,922;  300,577;   -1,181;    0,045
888,481;  498,402;   -1,545;    0,591
889,040;  557,408;    1,183;    2,136
889,599;  443,869;    2,455;    1,409
890,157;  435,875;    1,455;    2,409
890,716;  371,517;   -0,090;    0,227
891,274;  486,523;    0,092;   -1,136
891,833;  540,620;    1,546;    0,864
892,391;  443,626;   -0,454;    0,500
892,950;  520,632;    1,819;   -0,773
893,508;  339,457;    0,455;   -0,409
894,067;  275,281;    0,637;    0,136
894,625;  371,105;   -0,636;   -1,500
895,183;  335,202;   -0,363;   -0,682
895,741;  584,572;    1,728;   -1,773
896,299;  400,396;   -0,545;   -2,409
896,858;  352,766;    0,819;   -1,591
897,416;  478,681;    2,728;   -1,318
897,974;  400,778;    1,819;    0,318
898,532;  814,694;    6,091;    2,682
899,089;  542,063;    2,091;   -0,682
899,647;  441,070;   -1,454;    1,318
900,205;  436,803;    1,182;    1,045
900,763;  423,900;   -0,454;    0,227
901,321;  381,361;    2,364;   -1,409
901,878;  232,912;   -1,000;   -0,773
902,436;  321,555;   -1,363;    1,318
902,994;  961,379;    4,728;    3,682
903,551;  555,749;    0,728;    0,409
904,109;  418,118;    0,182;   -1,409
904,666;  386,488;    2,455;    1,045
905,224;  282,494;    0,182;   -0,409
905,781;  446,682;    0,727;   -0,318
906,338;  387,052;   -1,363;    1,045
906,895;  291,149;    0,637;    2,045
907,453;  541,337;    1,727;    1,136
908,010;  406,798;   -0,909;    0,409
908,567;  401,622;    1,273;    0,591
909,124;  258,992;    0,364;   -1,500
909,681;  316,271;   -2,909;    0,682
910,238;  337,004;    0,636;   -1,318
910,795;  246,192;   -0,273;   -1,136
911,352;  273,465;   -2,909;   -2,682
911,909;  312,374;   -1,364;   -0,864
912,466;  312,010;   -3,182;    1,500
913,022;  413,737;   -1,636;    0,500
913,579;  481,010;   -0,909;    2,045
914,136;  367,556;    1,636;    0,955
914,692;  366,101;    0,091;   -1,227
915,249;  400,646;    1,455;    0,409
915,806;  459,192;    0,182;    1,955
916,362;  363,374;    1,909;    1,864
916,918;  346,283;    2,000;    1,045
917,475;  456,737;   -1,182;    0,955
918,031;  315,010;    3,364;   -0,045
918,587;  382,737;   -0,909;   -0,318
919,144;  301,646;   -2,273;    0,227
919,700;  233,556;    1,727;    0,773
920,256;  244,737;    0,727;    0,045
920,812;  306,919;   -0,727;   -1,045
921,368;  273,101;   -1,727;   -1,045
921,924;  301,465;    0,182;   -0,136
922,480;  384,374;   -0,545;    1,227
923,036;  384,737;    1,273;    1,955
923,592;  289,556;    0,455;    0,318
924,148;  300,465;    0,455;   -0,955
924,704;  419,283;   -1,364;   -0,409
925,259;  265,010;   -0,273;    0,591
925,815;  269,828;    1,455;    0,500
926,371;  250,919;    2,909;    1,409
926,926;  393,010;    2,091;    0,591
927,482;  368,010;   -1,364;    0,773
928,037;  305,101;    0,909;    2,045
928,593;  461,283;    1,636;    1,045
929,148;  269,101;   -1,818;   -1,500
929,704;  340,010;   -1,455;   -0,500
930,259;  276,010;    0,091;   -0,136
930,814;  431,828;   -0,818;    1,955
931,369;  374,737;    1,091;   -0,773
931,925;  240,465;   -0,091;    0,136
932,480;  323,192;   -2,818;   -2,591
933,035;  594,828;    0,545;   -0,318
933,590;  512,646;    0,364;   -1,773
934,145;  241,010;   -1,364;   -0,318
934,700;  159,101;    0,455;   -0,591
935,255;  215,101;   -0,091;    0,045
935,809;  482,919;    3,182;    0,864
936,364;  219,101;   -0,455;   -0,136
936,919;  208,919;    0,455;   -1,773
937,474;  155,010;    1,455;    0,136
938,028;  167,101;   -1,636;    1,136
938,583;  489,010;    1,818;    4,682
939,138;  238,283;    2,091;    2,136
939,692;  145,010;    1,636;   -1,136
940,247;  184,646;   -0,727;   -1,045
940,801;  208,828;   -0,636;    0,227
941,355;  152,101;   -0,364;    2,591
941,910;  111,010;   -0,273;   -2,136
942,464;  129,646;   -0,818;   -0,318
943,018;  283,828;    1,000;   -0,227
943,572;  183,374;    2,545;   -0,682
944,126;  240,828;    0,091;   -0,409
944,681;  161,737;    3,091;    0,227
945,235;  116,737;    1,000;   -0,591
945,789;  101,192;    0,364;   -1,864
946,342;  277,283;    0,455;   -0,591
946,896;  136,737;   -2,273;    0,955
947,450;  109,283;    1,545;   -0,227
948,004;  267,828;    1,727;   -0,045
948,558;  157,374;    0,273;   -0,864
949,111;  154,010;   -0,273;   -0,318
949,665;  262,010;    1,636;   -0,682
950,219;  247,737;   -0,091;   -1,045
950,772;  189,737;   -1,909;    1,864
951,326;  179,646;    0,545;   -0,955
951,879;  152,646;    0,727;   -2,318
952,433;  239,556;    0,000;    2,227
952,986;  138,646;    2,909;    0,682
953,539;  114,283;   -0,273;    0,591
954,093;   85,646;    0,545;   -1,318
954,646;  151,737;    0,909;    1,318
955,199;  104,101;    0,000;   -0,500
955,752;  266,556;   -0,455;    1,773
956,305;  161,556;   -0,091;    2,955
956,858;  187,556;    0,818;   -0,318
957,411;  218,101;   -0,545;    2,136
957,964;  178,919;    1,364;    2,136
958,517;  124,465;   -1,545;    3,136
959,070;   93,101;   -0,455;    1,955
959,623;  258,101;    1,091;    1,500
960,176;  231,465;    1,727;    2,045
960,728;  195,192;   -2,727;    0,773
961,281;  160,737;    0,545;    0,500
961,834;  115,828;   -0,909;    0,864
962,386;  125,283;    1,727;    1,045
962,939;  113,192;    0,364;   -0,318
963,491;  139,192;    0,455;    1,136
964,043;  103,101;    1,182;    2,409
964,596;  207,374;   -1,000;    2,227
965,148;  142,374;   -1,000;    1,773
965,700;   98,465;    1,091;   -0,227
966,253;  200,465;   -0,636;    0,318
966,805;  169,101;   -2,273;    0,773
967,357;  130,192;    1,091;   -1,500
967,909;  192,010;    0,455;   -1,227
968,461;  132,737;    0,545;    3,136
969,013;  103,101;   -0,182;   -0,864
969,565;  203,465;   -0,455;   -1,136
970,117;  338,374;   -0,364;    1,045
970,669;  209,374;    0,182;   -0,136
971,220;   86,646;   -0,455;   -1,500
971,772;  133,919;   -0,636;   -0,318
972,324;  183,828;    0,091;   -0,500
972,876;  121,737;    0,818;   -0,045
973,427;  189,101;    1,909;   -1,045
973,979;  237,192;   -0,727;   -2,500
974,530;  130,010;    1,818;    1,318
975,082;  169,919;   -0,545;    1,682
975,633;  137,465;    1,091;    1,682
976,184;  153,192;    0,909;    0,773
976,736;  150,919;    0,091;    0,227
977,287;  172,101;   -0,909;   -0,500
977,838;  140,465;    0,909;   -0,318
978,389;  134,556;   -1,000;   -0,500
978,940;   73,737;    0,545;   -0,409
979,491;   77,010;    0,091;   -0,500
980,042;  132,010;    0,182;    3,045
980,593;  139,465;   -2,545;    0,227
981,144;  181,465;    2,545;   -0,500
981,695;  190,737;    1,455;    1,500
982,246;  165,192;   -0,273;    1,045
982,797;   96,010;   -1,727;    0,682
983,347;  173,737;    0,364;    0,591
983,898;  303,101;    3,091;    0,409
984,449;  284,465;    2,182;    0,773
984,999;  184,192;    1,455;   -1,136
985,550;  155,374;    0,182;   -0,318
986,100;   89,737;   -0,455;   -0,318
986,651;   83,737;   -0,818;    0,045
987,201;   95,646;   -1,000;   -0,591
987,751;  102,919;    0,818;    2,864
988,302;  126,465;    2,636;    1,500
988,852;  162,010;    0,455;   -1,136
989,402;  188,556;    0,091;    0,682
989,952;  212,919;   -2,182;    0,864
990,502;  119,737;   -0,091;    0,682
991,052;   64,465;   -0,727;    0,045
991,602;   92,283;   -2,909;    1,318
992,152;  114,010;    0,455;    0,682
992,702;  141,828;    1,364;   -0,045
993,252;  107,828;   -3,000;   -0,500
993,802;  161,101;   -0,273;    1,318
994,352;  129,101;   -1,545;    1,136
994,901;   80,192;   -0,182;    3,227
995,451;   76,919;   -0,182;    0,318
996,000;   91,737;    1,636;    0,318
996,550;  102,828;    2,273;    0,227
997,100;  125,283;    1,273;   -0,045
997,649;  195,737;    2,182;    0,955
998,198;  104,919;    1,727;   -1,500
998,748;  156,646;    1,091;   -2,318
999,297;  128,828;   -0,818;   -0,409
999,846;  194,919;    1,000;   -0,773
1000,395;  142,646;   -0,818;    0,500
1000,945;  208,192;    1,818;   -0,773
1001,494;  201,101;    2,364;    0,682
1002,043;  204,828;    4,636;    0,864
1002,592;  107,828;   -1,091;    1,955
1003,141;  100,465;   -0,455;   -0,682
1003,690;  198,556;    1,727;    0,500
1004,238;  123,737;    1,455;   -0,045
1004,787;   85,010;    1,364;    1,227
1005,336;  169,465;    0,364;    0,682
1005,885;  138,737;    1,364;   -2,773
1006,433;  137,737;    0,545;    0,955
1006,982;  234,010;    0,455;    1,682
1007,531;  151,919;   -1,818;   -0,227
1008,079;  135,828;   -2,273;    0,500
1008,627;  103,646;   -1,455;    0,409
1009,176;  122,283;    0,000;   -1,955
1009,724;   92,919;    1,091;    0,864
1010,273;  169,101;    1,273;    0,500
1010,821;  107,465;    0,091;    1,409
1011,369;   90,646;   -1,364;    1,318
1011,917;   91,465;   -1,364;   -0,591
1012,465;  133,828;    1,273;   -1,591
1013,013;  127,828;    2,091;   -1,682
1013,561;  185,374;    0,455;   -0,773
1014,109;  241,828;   -1,909;    1,682
1014,657;  167,101;    0,364;    0,591
1015,205;  114,828;    1,636;   -0,955
1015,753;   92,465;   -0,545;   -1,409
1016,301;  125,192;   -2,636;    3,045
1016,848;  169,283;   -1,273;    0,409
1017,396;  155,465;    2,545;    0,045
1017,944;  151,283;    1,182;    1,864
1018,491;  115,010;    0,273;    1,409
1019,039;  282,919;    0,455;    0,591
1019,586;  146,283;   -1,364;    1,682
1020,134;  135,737;    0,455;    1,500
1020,681;  187,010;    0,182;   -1,136
1021,228;  138,374;    2,909;   -2,227
1021,776;  121,374;    1,182;   -1,136
1022,323;  249,828;    0,455;    0,773
1022,870;  182,828;   -1,000;   -0,045
1023,417;  209,101;    2,636;    1,864
1023,964;  128,646;    2,636;    1,227
1024,511;  105,737;    1,000;    0,773
1025,058;  142,737;    3,182;   -0,045
1025,605;  110,556;   -2,273;    3,136
1026,152;  227,919;    1,727;   -0,591
1026,699;  143,374;    1,818;    1,318
1027,245;  137,465;   -0,091;    0,318
1027,792;   93,737;   -1,000;    1,409
1028,339;  229,101;    2,364;   -0,045
1028,885;  150,101;    1,000;   -0,227
1029,432;  123,828;   -0,091;    0,227
1029,978;  171,192;   -1,000;   -1,591
1030,525;  184,192;    1,000;    0,409
1031,071;  109,374;   -1,364;    1,136
1031,618;  266,101;    0,364;    1,682
1032,164;  167,828;   -0,091;    3,045
1032,710;  189,283;    1,636;   -1,500
1033,256;  171,465;   -0,636;   -0,136
1033,803;   98,283;   -0,545;    1,500
1034,349;   35,556;   -1,364;    0,136
1034,895;   55,919;    0,000;   -0,318
1035,441;   93,828;   -0,818;    0,318
1035,987;  115,283;   -2,364;   -0,682
1036,533;  154,465;   -1,455;   -0,955
1037,078;  276,283;    1,455;    1,682
1037,624;  185,919;    2,455;   -0,955
1038,170;  105,101;    0,455;   -0,318
1038,716;  153,919;    1,636;   -0,409
1039,261;   94,010;   -2,273;   -0,773
1039,807;  100,919;   -0,091;    3,409
1040,352;  112,101;   -1,909;   -0,318
1040,898;  110,101;   -1,545;   -0,682
1041,443;   75,556;   -1,455;   -2,591
1041,989;  256,556;    1,091;    1,591
1042,534;  140,737;   -0,364;    2,591
1043,079;   75,374;    2,909;    0,955
1043,625;  127,646;    1,818;    0,500
1044,170;  131,192;   -1,364;    1,045
1044,715;  244,192;    2,455;    0,955
1045,260;  191,374;    2,182;   -0,955
1045,805;  106,192;    1,182;   -0,591
1046,350;   91,192;    1,364;   -0,409
1046,895;  195,101;    2,909;    1,591
1047,440;  177,283;    5,364;    0,409
1047,985;  110,101;    2,818;   -0,955
1048,530;   97,828;    1,545;    1,227
1049,074;  121,192;    0,000;    0,318
1049,619;   91,737;   -1,364;    1,955
1050,164;   91,737;    0,455;    0,227
1050,708;  149,828;   -0,455;    0,045
1051,253;  278,737;    1,273;   -2,227
1051,797;  157,919;    0,818;   -1,318
1052,342;   75,374;   -1,182;    1,045
1052,886;  116,919;    0,364;   -1,409
1053,430;   70,737;   -1,364;    0,136
1053,975;  124,737;   -0,818;   -0,318
1054,519;  121,465;   -0,727;    3,227
1055,063;  154,283;    0,909;    1,318
1055,607;  148,465;   -0,182;    0,227
1056,151;  143,737;    2,909;    1,682
1056,695;  100,101;    2,273;   -1,136
1057,239;   94,192;   -1,727;   -0,682
1057,783;  123,192;    0,818;   -1,500
1058,327;  167,010;    0,000;    1,409
1058,871;  243,828;   -0,545;    1,318
1059,415;  175,374;   -0,818;   -0,045
1059,958;  247,646;    1,455;    2,591
1060,502;  107,556;   -1,000;   -0,773
1061,046;   68,828;    0,364;   -0,955
1061,589;   65,919;   -3,000;   -1,136
1062,133;   52,828;   -1,273;    1,864
1062,676;   77,374;    1,182;    0,864
1063,220;   93,556;    1,091;    0,500
1063,763;  110,283;    0,909;    1,136
1064,306;  115,919;   -0,909;    1,864
1064,849;  120,192;   -0,909;    0,591
1065,393;  107,374;    2,000;   -1,500
1065,936;  105,465;    0,182;   -0,409
1066,479;   73,283;   -1,455;    1,318
1067,022;   84,374;   -0,273;   -0,227
1067,565;   72,374;   -0,091;   -1,318
1068,108;   58,737;    0,727;   -0,591
1068,651;   51,737;   -0,636;    1,409
1069,194;   54,010;   -0,455;   -1,682
1069,736;   63,374;   -1,273;    0,955
1070,279;   51,646;   -1,364;   -0,500
1070,822;   95,919;   -2,000;   -0,318
1071,364;  167,192;   -0,364;    1,318
1071,907;   93,556;   -0,727;    3,227
1072,450;   29,646;    0,000;   -0,045
1072,992;   61,919;   -0,273;    3,136
1073,535;   90,646;    2,091;    2,136
1074,077;   61,101;   -0,727;    2,045
1074,619;   50,283;   -1,364;    0,591
1075,161;   71,465;   -1,091;    1,500
1075,704;  136,192;    1,545;    1,227
1076,246;   70,737;   -0,182;    0,682
1076,788;   40,010;   -0,364;    1,773
1077,330;   40,101;    1,273;    2,136
1077,872;   56,828;    0,909;    0,955
1078,414;  144,556;    2,727;    0,773
1078,956;   74,374;    1,273;   -0,227
1079,498;  133,556;    1,636;    0,318
1080,040;   73,737;    1,909;   -1,318
1080,581;   54,465;    1,636;   -0,318
1081,123;   30,556;    0,091;   -0,773
1081,665;   36,828;   -1,182;   -0,955
1082,206;  126,556;    1,364;   -0,500
1082,748;   77,828;    0,727;    2,045
1083,289;   42,556;   -2,000;    1,318
1083,831;   38,737;   -0,545;    0,227
1084,372;   60,919;    0,000;    0,591
1084,913;   56,283;    1,091;    0,864
1085,455;   37,737;   -1,909;   -2,045
1085,996;   30,828;   -2,273;    0,136
1086,537;   40,646;   -0,091;    0,864
1087,078;   48,465;   -0,909;   -2,136
1087,619;   76,919;   -1,273;    0,227
1088,160;   59,646;    0,000;    1,318
1088,701;   52,828;   -1,091;    0,682
1089,242;   45,737;    1,364;   -2,227
1089,783;   64,556;   -0,273;    1,409
1090,324;   52,465;    0,455;    0,682
1090,865;   35,828;    2,727;   -0,409
1091,405;   26,556;    0,727;    2,227
1091,946;   47,010;    0,182;   -0,955
1092,487;   25,192;    0,818;   -1,409
1093,027;   73,828;   -1,364;   -1,500
1093,568;   45,192;   -0,364;    1,227
1094,108;   52,828;    0,273;    1,773
1094,649;   41,919;   -1,182;    0,136
1095,189;   31,101;   -0,636;   -0,682
1095,729;   28,010;   -0,091;    0,955
1096,269;   28,010;    0,727;   -0,955
1096,810;   91,192;   -1,364;    0,500
1097,350;   65,010;    1,364;   -0,773
1097,890;   46,101;    0,364;    1,227
1098,430;  130,283;    2,364;    2,864
1098,970;   92,737;    2,182;    1,682
1099,510;   39,192;    0,545;   -2,318
1100,050;   35,101;    1,000;   -1,591
1100,589;   41,919;   -0,727;   -0,318
1101,129;   57,919;    0,818;   -0,955
1101,669;   94,556;    1,727;    2,136
1102,209;   59,919;   -0,091;    2,227
1102,748;   43,374;    0,000;    0,955
1103,288;   48,283;    1,273;   -1,227
1103,827;   41,737;    3,091;   -2,227
1104,367;   28,556;   -0,091;   -2,409
1104,906;   32,737;    1,364;   -1,136
1105,445;   51,828;    0,636;   -1,136
1105,985;   35,283;   -0,727;    1,500
1106,524;   41,283;   -1,727;   -0,682
1107,063;   36,737;   -2,727;    1,409
1107,602;   29,646;   -1,909;   -1,500
1108,141;   25,101;   -1,909;    1,500
1108,680;   49,101;   -3,455;   -0,591
1109,219;   37,737;   -0,909;   -0,500
1109,758;   33,828;    0,455;    0,682
1110,297;   31,010;    1,000;   -0,682
1110,836;   20,737;   -0,727;    0,955
1111,375;   28,556;   -2,545;    0,409
1111,913;   52,283;   -1,000;    0,773
1112,452;   41,556;   -0,273;    0,136
1112,991;   20,737;    1,091;    1,955
1113,529;   24,737;   -0,818;   -0,045
1114,068;   31,556;   -0,273;    2,955
1114,606;   18,192;   -0,364;   -0,955
1115,144;   42,828;   -1,273;    1,045
1115,683;   33,737;   -0,727;    0,318
1116,221;   47,283;   -0,455;   -0,864
1116,759;   27,465;    0,636;   -0,864
1117,297;   55,192;    0,000;    1,864
1117,836;   29,283;   -2,182;   -1,227
1118,374;   28,919;    0,182;   -0,682
1118,912;   34,919;    0,909;    2,682
1119,450;   32,556;    1,000;    0,864
1119,988;   30,646;    1,545;    2,136
1120,525;  162,465;    5,091;    3,318
1121,063;   74,101;    1,182;    1,864
1121,601;   28,374;   -0,909;   -1,227
1122,139;   21,010;   -0,727;   -2,045
1122,676;   65,556;   -0,727;    2,773
1123,214;   54,010;   -1,182;    4,409
1123,751;   19,828;    1,727;    2,227
1124,289;   35,374;   -0,091;   -0,409
1124,826;   26,465;    1,727;    0,227
1125,364;   13,374;    1,727;   -0,955
1125,901;   61,646;    1,182;    1,227
1126,438;   54,465;    0,818;    0,955
1126,975;   11,010;   -0,727;   -0,773
1127,513;   17,192;    0,273;    2,136
1128,050;   13,465;    1,636;   -0,682
1128,587;   23,192;    2,000;   -0,227
1129,124;   34,010;    0,091;    1,318
1129,661;   16,556;    0,273;    0,227
1130,198;   48,283;    1,636;    0,773
1130,734;   30,919;    0,182;    1,409
1131,271;   10,646;   -0,909;    0,864
1131,808;   37,919;    2,909;    3,045
1132,345;   21,465;    1,545;    0,318
1132,881;    3,646;   -1,545;   -1,864
1133,418;   20,737;    0,727;   -1,136
1133,954;   13,010;    2,455;   -2,682
1134,491;   28,465;    1,364;   -0,773
1135,027;   16,283;    2,364;    0,864
1135,564;   22,556;    0,273;    2,955
1136,100;   20,828;    0,364;    2,136
1136,636;    8,374;   -1,273;   -1,045
1137,172;   18,192;    0,000;   -1,045
1137,708;   14,192;   -1,364;   -1,045
1138,245;   11,283;    1,273;   -1,227
1138,781;    8,737;    1,091;   -3,318
1139,317;   11,010;    1,273;   -1,409
1139,852;   18,646;    3,091;    0,136
1140,388;   27,101;   -1,182;   -0,409
1140,924;   15,737;   -1,091;   -2,227
1141,460;    6,101;   -1,636;    0,136
1141,996;    4,283;   -1,364;    2,682
1142,531;    5,101;    1,364;    3,318
1143,067;   34,919;    1,182;    1,045
1143,602;   49,828;   -0,091;   -0,318
1144,138;   21,465;   -2,636;    1,045
1144,673;    8,828;   -1,455;    1,409
1145,209;   10,737;   -1,909;   -0,318
1145,744;    3,465;   -0,727;    0,864
1146,279;   20,556;    1,818;   -0,136
1146,815;   14,192;    1,545;   -2,682
1147,350;   16,556;   -1,364;    0,045
1147,885;    5,374;   -0,818;   -1,318
1148,420;    7,828;   -2,273;    0,773
1148,955;    3,556;   -1,727;    1,864
1149,490;    7,556;   -0,909;   -1,591
1150,025;    8,101;    0,455;   -1,773
1150,560;   20,556;    1,091;   -0,955
1151,094;   14,374;    1,455;   -0,591
1151,629;   15,737;    1,636;    0,864
1152,164;   10,646;    1,364;    1,318
1152,698;    5,646;   -0,182;   -0,136
1153,233;    2,919;    0,091;   -0,682
1153,767;    6,192;   -3,000;   -2,318
1154,302;    9,283;   -1,455;    1,773
1154,836;    8,919;   -0,455;   -2,136
1155,371;   13,010;   -1,364;    3,682
1155,905;    8,737;   -0,636;    1,682
1156,439;   13,828;   -0,636;   -0,500
1156,973;   11,828;    0,364;    0,318
1157,507;    4,737;   -0,364;    0,682
1158,042;    5,737;   -0,727;    1,045
1158,576;    8,101;    0,182;    1,773
1159,110;   11,646;   -0,818;    2,409
1159,643;    9,646;    0,636;   -0,045
1160,177;    6,374;   -1,545;    1,500

