
Integration time [ms]:   0,040
Averaging Nr. [scans]: 11
Smoothing Nr. [pixels]: 0
Data measured with spectrometer [name]: 7318044SP
Wave   ;Sample   ;Dark     ;Reference
[nm]   ;[counts] ;[counts] ;[counts] 

186,757;   34,906;   31,551;    1,318
187,357;   34,221;   22,551;    0,955
187,958;   24,513;   15,460;   -1,591
188,558;   33,714;    8,915;   -1,227
189,159;   21,055;    6,733;   -4,500
189,759;   12,866;    7,278;   -3,591
190,360;   11,730;    2,824;   -2,136
190,960;   16,948;    2,915;   -4,136
191,560;   22,800;    3,189;   -6,591
192,161;  108,641;    4,372;   -3,500
192,761;   59,362;    4,010;   -3,227
193,361;   37,355;    1,556;   -3,773
193,962;   57,570;    2,010;   -2,682
194,562;   17,823;    1,189;   -3,955
195,162;   18,398;   -2,448;   -2,227
195,762;   65,163;   -3,176;   -0,045
196,362;   45,408;    1,370;   -2,500
196,963;   14,408;    2,006;   -0,864
197,563;   33,992;    1,551;   -0,955
198,163;   15,268;    0,096;   -0,682
198,763;   17,817;    1,733;   -0,500
199,363;   41,467;    3,096;   -0,500
199,963;   27,908;    0,369;    0,409
200,563;   26,342;    2,823;   -1,409
201,163;   17,700;    3,277;   -0,227
201,763;   29,855;    3,732;    0,318
202,363;   19,083;    1,459;    1,500
202,963;   33,534;    1,459;    1,045
203,563;   62,841;    0,277;    0,500
204,162;   32,408;    2,096;   -1,864
204,762;   22,633;    0,550;    0,591
205,362;   16,906;    3,004;    1,955
205,962;   36,513;    3,096;    1,955
206,562;   33,861;    1,823;    2,318
207,161;   21,417;   -0,087;    0,318
207,761;   78,044;    1,277;    2,409
208,361;   34,509;   -0,268;    1,409
208,960;   45,565;    0,459;    1,500
209,560;   45,013;    1,277;    1,591
210,160;   56,394;    0,550;    1,864
210,759;   41,343;    4,186;    1,227
211,359;   33,182;    1,459;    1,045
211,958;  125,046;    1,277;    2,045
212,558;  131,742;    1,732;    1,864
213,157;   73,174;    1,822;    1,500
213,757;  208,668;    3,822;   -0,227
214,356;  105,586;    1,277;   -0,409
214,956;  206,251;    3,095;    0,409
215,555;   89,513;    2,095;    2,136
216,154;   63,878;   -2,723;   -0,591
216,754;   63,686;    0,277;    0,773
217,353;   85,301;   -0,268;   -1,045
217,952;   31,621;   -0,178;    0,318
218,552;  110,354;    1,368;   -0,773
219,151;   69,509;    0,277;    0,955
219,750;   60,794;    0,004;   -0,227
220,349;   49,560;   -0,451;    1,045
220,948;  138,906;   -1,360;    1,136
221,548;   74,049;    0,913;    1,227
222,147;  100,389;   -0,087;   -0,409
222,746;  210,345;   -0,451;   -0,955
223,345;  134,462;    0,731;    0,500
223,944;  138,270;   -0,451;    0,773
224,543;  155,383;    1,004;   -1,409
225,142;  159,110;    0,094;    0,136
225,741;  163,305;   -0,814;    1,045
226,340;  146,605;   -0,451;   -0,955
226,939;  251,923;   -0,996;   -0,136
227,538;  144,291;   -0,360;   -0,773
228,137;  270,062;   -0,814;    0,864
228,735;  227,693;   -0,541;    1,227
229,334;  122,500;   -0,905;   -0,227
229,933;  298,878;    0,459;    0,591
230,532;  311,179;    1,186;   -0,409
231,131;  384,775;    1,732;    0,318
231,729;  275,125;   -2,450;   -2,318
232,328;  213,653;   -0,723;   -1,500
232,927;  229,742;    1,004;   -0,500
233,525;  213,418;    3,640;    0,045
234,124;  264,632;    2,368;   -1,591
234,723;  195,401;    0,913;   -1,045
235,321;  192,483;    2,277;    0,136
235,920;  244,130;    1,186;   -1,227
236,518;  405,030;    3,459;    0,318
237,117;  245,326;    0,004;   -0,227
237,715;  256,595;    0,640;   -0,500
238,314;  310,376;   -0,087;   -2,318
238,912;  457,105;   -0,723;   -1,409
239,510;  345,357;    0,459;   -1,227
240,109;  467,520;    0,004;    3,773
240,707;  422,271;   -0,996;    1,227
241,305;  271,764;    0,550;    0,136
241,904;  390,401;   -0,178;   -2,045
242,502;  499,326;   -0,632;   -0,227
243,100;  396,130;   -0,087;   -0,955
243,698;  322,581;    0,732;    1,682
244,297;  358,869;   -0,632;    0,682
244,895;  362,563;   -0,269;   -2,318
245,493;  559,523;    2,186;   -0,591
246,091;  554,137;    1,368;   -1,318
246,689;  475,859;    1,004;    0,591
247,287;  438,488;    0,822;   -1,136
247,885;  391,775;   -1,451;    1,227
248,483;  362,845;    1,822;   -0,500
249,081;  455,145;    0,185;    1,591
249,679;  505,217;   -0,178;    1,682
250,277;  367,375;   -1,723;    0,864
250,875;  507,590;   -1,087;   -1,045
251,473;  392,878;   -1,178;    0,500
252,071;  501,118;    1,459;    1,045
252,669;  417,088;   -1,814;    0,318
253,267;  360,721;   -0,087;    0,773
253,864;  412,670;   -0,360;    0,682
254,462;  586,032;    1,640;    1,591
255,060;  359,642;   -0,269;    1,318
255,658;  353,906;    0,822;   -0,136
256,255;  441,028;    0,186;   -2,045
256,853;  481,502;   -0,269;    1,409
257,451;  456,513;    0,822;    1,864
258,048;  895,850;    1,822;    1,864
258,646;  579,754;    1,731;   -1,045
259,243;  688,957;   -0,087;    2,227
259,841;  565,091;   -0,814;    0,318
260,438;  402,506;   -0,087;    0,864
261,036;  542,967;   -1,905;    1,409
261,633;  432,644;   -0,087;    2,227
262,231;  386,256;    2,731;   -0,045
262,828;  393,385;   -0,905;    1,136
263,425;  454,476;    0,913;   -0,591
264,023;  459,915;    0,186;    0,045
264,620;  618,198;   -0,360;   -0,318
265,217;  746,457;   -2,087;    3,136
265,815;  459,044;   -1,905;    2,136
266,412;  593,740;    0,731;    0,136
267,009;  632,235;   -1,451;    0,773
267,606;  720,481;    0,822;   -0,955
268,203;  495,444;   -0,269;   -0,591
268,801;  546,357;    1,731;    0,591
269,398;  451,520;   -0,360;    2,500
269,995;  617,385;    0,277;    1,591
270,592;  538,593;   -0,632;   -0,500
271,189;  449,158;    0,186;    0,409
271,786;  429,574;   -0,632;    1,227
272,383;  702,250;   -1,087;    0,227
272,980;  534,971;    0,277;    0,318
273,577;  482,712;    0,004;    1,227
274,174;  440,553;    0,822;    2,591
274,771;  592,451;   -0,814;   -0,773
275,367; 1001,979;    2,277;    1,409
275,964;  809,682;    0,731;   -0,500
276,561;  580,013;    1,549;   -1,045
277,158;  494,490;    0,095;   -1,773
277,755;  750,873;    2,185;    0,409
278,351;  617,385;   -0,451;   -1,500
278,948;  699,138;   -0,815;    0,045
279,545;  622,259;   -1,360;    2,318
280,141;  849,764;   -1,723;   -2,045
280,738;  770,441;   -0,451;   -0,136
281,334;  555,701;   -1,633;    0,591
281,931;  588,691;   -0,087;   -1,318
282,528;  696,939;    0,822;   -0,500
283,124;  795,486;   -1,087;   -0,500
283,721;  784,488;   -0,451;    1,409
284,317;  616,154;    0,185;    2,500
284,913;  824,679;   -1,360;    0,591
285,510; 1100,951;    0,640;   -0,318
286,106;  889,609;   -2,269;   -0,955
286,703;  636,576;   -0,360;    1,955
287,299;  587,000;   -1,451;   -0,591
287,895;  573,200;    0,822;   -1,045
288,491;  564,883;    0,186;    2,136
289,088;  703,565;   -2,360;    2,409
289,684;  755,088;   -1,723;    1,500
290,280;  915,021;    0,368;    0,682
290,876;  867,555;    1,822;    5,500
291,472;  750,673;    1,276;    2,227
292,068;  765,528;    1,367;    0,227
292,665;  624,546;    2,095;    0,773
293,261;  509,168;    0,276;    2,136
293,857;  715,738;    2,913;    2,136
294,453;  622,418;    3,550;    0,955
295,049;  857,042;   -0,268;    1,955
295,644;  673,278;    0,095;    0,136
296,240;  524,642;   -0,905;   -0,136
296,836;  673,436;   -0,995;    0,318
297,432;  827,434;    1,096;   -0,500
298,028;  890,074;    0,732;    0,773
298,624;  710,633;    1,459;    1,864
299,220;  670,766;    2,368;    0,591
299,815;  657,378;    1,005;   -0,409
300,411;  770,406;    0,914;    1,773
301,007;  905,786;    1,368;    0,227
301,602;  724,990;   -0,541;   -2,318
302,198;  853,369;    0,732;   -0,773
302,794;  677,931;    1,187;   -0,500
303,389;  630,674;   -1,177;    1,045
303,985;  696,688;    0,550;    1,409
304,580;  820,198;    1,459;    1,591
305,176;  711,950;   -3,086;    0,136
305,771;  592,181;   -1,268;   -1,227
306,367; 1010,761;    4,095;    0,136
306,962;  754,990;    0,641;    1,500
307,558;  786,441;   -0,450;    0,136
308,153;  876,773;    1,095;   -1,136
308,748;  658,467;   -0,814;    1,682
309,344; 1067,854;   -0,632;   -1,318
309,939; 1079,808;   -1,905;   -1,318
310,534;  735,285;   -0,086;   -1,682
311,130;  690,022;    0,459;   -2,500
311,725;  626,791;    1,004;   -0,500
312,320;  702,999;    2,459;    0,045
312,915;  835,563;    1,459;   -1,045
313,510; 1054,707;    1,550;   -0,500
314,105;  773,897;    1,096;    1,409
314,700;  590,303;   -3,086;   -1,045
315,295;  672,744;   -0,904;    0,045
315,890;  592,889;    1,277;    0,864
316,485;  730,892;   -0,359;   -0,318
317,080;  637,910;   -3,086;    1,591
317,675;  982,913;    2,005;   -0,682
318,270; 1195,850;    5,550;    3,318
318,865; 1091,390;    3,278;    3,045
319,460;  893,079;   -0,904;    0,591
320,055;  723,614;   -0,541;   -1,227
320,650;  699,586;   -1,995;   -0,591
321,244;  706,731;   -0,177;   -1,409
321,839;  780,773;   -1,541;   -0,227
322,434;  842,817;   -1,086;   -1,591
323,029;  732,696;    1,732;    1,591
323,623;  677,013;    1,550;    0,773
324,218;  859,660;    2,368;    1,409
324,812;  794,118;    1,096;    1,591
325,407;  798,079;   -0,814;    2,045
326,002;  913,815;    0,277;   -0,409
326,596;  852,015;    0,914;    1,318
327,191;  682,698;    0,823;   -1,045
327,785;  654,742;   -0,813;   -0,227
328,379;  708,609;    1,368;    0,136
328,974;  758,611;    0,914;   -3,955
329,568;  781,852;    0,186;   -2,409
330,163;  850,800;    2,096;    1,045
330,757;  694,633;    2,459;    1,591
331,351;  626,214;    0,459;    0,682
331,945;  629,107;    0,914;    1,409
332,540;  787,765;   -1,723;   -0,591
333,134;  760,097;   -1,086;    0,773
333,728;  737,399;    0,005;    0,318
334,322;  630,873;   -1,177;   -0,864
334,916;  606,516;    0,277;    0,955
335,510;  811,569;   -0,450;   -0,136
336,105;  805,789;   -1,086;    1,591
336,699;  678,053;   -1,086;    0,591
337,293;  710,231;   -1,723;    0,318
337,887;  640,910;   -2,723;    1,955
338,481;  821,579;    0,459;    0,591
339,074;  938,056;   -0,359;    2,682
339,668;  898,119;   -1,632;    1,227
340,262; 1524,831;    1,732;    3,227
340,856; 1077,294;    1,822;   -0,682
341,450;  689,249;    1,004;    1,864
342,044;  759,049;    1,459;    0,136
342,637;  927,520;    0,913;   -2,136
343,231;  940,243;   -2,360;    0,682
343,825;  767,957;   -1,086;   -0,591
344,419;  741,775;   -1,995;    0,500
345,012; 1329,093;    2,459;    4,045
345,606; 1114,424;    4,641;    1,591
346,199;  755,994;   -1,813;   -0,227
346,793;  901,329;    1,914;    2,045
347,386;  683,747;   -0,813;   -1,136
347,980;  545,995;   -0,268;   -0,045
348,573;  685,455;    2,278;    0,409
349,167;  997,268;    5,278;    4,773
349,760;  896,462;    2,914;    2,682
350,354;  829,945;   -0,813;    1,136
350,947;  881,511;    1,096;    1,682
351,540;  695,502;   -0,358;   -1,409
352,134;  537,282;    1,096;    1,136
352,727;  590,424;   -0,086;    1,136
353,320;  626,128;    0,005;    0,591
353,913;  536,071;   -1,995;    1,864
354,507;  776,460;    0,823;   -1,227
355,100;  636,338;    0,460;    0,864
355,693; 1087,780;    2,005;    2,409
356,286;  816,641;    0,823;    2,773
356,879;  651,018;   -0,722;    1,227
357,472;  627,127;   -0,904;    1,500
358,065;  695,859;   -0,722;    2,500
358,658;  524,104;   -0,540;    2,318
359,251;  473,114;   -1,631;   -0,591
359,844;  701,934;   -1,904;   -1,136
360,437;  789,529;   -2,995;    0,045
361,030;  611,385;    1,369;   -0,682
361,623;  605,791;    2,824;    0,318
362,215;  871,391;   -0,086;    2,045
362,808;  698,422;   -2,358;   -1,682
363,401;  614,475;   -2,449;    0,136
363,994;  878,789;   -0,631;   -1,500
364,586;  626,093;    0,824;   -1,500
365,179;  556,001;   -0,449;   -1,136
365,772;  393,810;   -1,995;    2,045
366,364;  575,691;    1,915;   -3,227
366,957;  660,814;    2,279;   -0,045
367,549;  575,844;    2,188;   -0,864
368,142;  581,985;    1,825;   -1,500
368,734;  549,270;    0,734;   -2,136
369,327;  457,807;    1,643;   -0,500
369,919;  514,360;   -1,538;    0,409
370,512;  547,110;   -1,083;   -0,500
371,104;  841,566;   -0,901;    1,591
371,696;  887,578;    1,191;   -0,955
372,289;  717,428;    0,373;    1,136
372,881;  659,743;   -2,080;    1,318
373,473;  516,710;   -2,170;    1,136
374,066;  632,980;   -0,169;    0,500
374,658;  598,784;    0,378;    1,136
375,250;  528,283;    0,653;   -1,409
375,842;  587,266;    0,473;   -0,045
376,434;  543,974;   -0,435;   -0,409
377,026;  547,398;    0,204;   -2,500
377,618;  606,426;   -0,158;   -0,682
378,210;  523,334;   -0,338;   -1,955
378,802;  489,226;    0,754;   -0,591
379,394;  976,450;    1,846;    0,682
379,986;  690,480;    1,393;   -0,955
380,578;  588,331;   -0,153;    0,773
381,170;  867,023;   -0,972;    0,045
381,762;  739,609;    0,755;    1,409
382,354;  691,654;   -0,065;   -1,318
382,945;  570,989;   -2,976;    0,318
383,537;  508,882;   -2,705;   -1,955
384,129;  518,732;   -2,160;   -1,136
384,721;  649,301;   -0,252;    0,955
385,312;  557,235;   -0,161;   -0,955
385,904;  686,621;   -2,706;    1,591
386,496;  569,079;   -0,979;    1,045
387,087;  743,578;    1,022;    2,500
387,679;  677,153;   -1,160;    0,045
388,270;  668,851;    2,840;    2,045
388,862;  617,209;    1,295;   -0,318
389,453;  576,066;   -0,887;    1,045
390,045;  602,973;   -0,705;   -2,682
390,636;  487,921;    0,204;   -0,591
391,227;  551,008;   -0,523;   -0,045
391,819;  544,370;    0,204;    0,773
392,410;  840,585;    1,022;    0,045
393,001;  626,686;   -0,979;   -1,591
393,593;  714,130;    1,930;   -0,045
394,184;  769,424;    1,385;   -0,409
394,775;  591,794;    1,839;    2,136
395,366;  530,149;    1,385;    0,773
395,957;  766,233;    0,113;    0,136
396,548;  629,551;   -0,342;    2,682
397,139;  799,615;   -2,433;    0,591
397,730;  676,592;   -1,888;    0,955
398,321;  682,808;   -1,252;    0,955
398,912;  611,852;   -0,615;    0,136
399,503;  617,480;   -3,524;   -1,409
400,094;  667,838;    0,294;    1,682
400,685;  658,335;   -0,433;    0,045
401,276;  573,293;    0,930;   -0,955
401,867;  555,483;   -0,888;    0,773
402,458;  517,099;   -2,251;   -2,318
403,048;  719,156;    1,112;    0,591
403,639;  626,812;    0,840;    0,864
404,230;  794,896;    2,476;    0,318
404,821;  866,662;   -0,615;    0,045
405,411;  728,212;    1,203;   -2,591
406,002;  614,078;   -1,252;   -1,136
406,592;  894,391;    2,294;    0,045
407,183;  710,383;    0,566;   -1,500
407,774;  677,950;    3,475;   -0,136
408,364;  638,901;    0,930;    0,409
408,954;  785,593;    0,384;    1,227
409,545;  788,123;    1,021;    1,045
410,135;  711,179;    1,293;    0,500
410,726;  668,261;    1,838;    0,318
411,316;  900,161;    0,111;    0,773
411,906;  677,915;   -0,253;   -0,409
412,497;  680,904;   -1,070;   -0,045
413,087;  616,100;   -1,980;   -0,227
413,677;  549,535;   -0,707;    3,864
414,267;  535,331;    0,656;    1,409
414,857;  504,362;   -2,980;    4,227
415,448;  512,037;    0,839;    0,500
416,038;  547,793;    0,020;   -0,591
416,628;  613,156;   -0,889;    0,409
417,218;  705,410;    0,565;    3,318
417,808;  891,896;    0,202;   -0,409
418,398;  715,903;    0,020;    2,682
418,988;  575,109;    2,020;    0,591
419,578;  694,111;   -0,707;    1,409
420,168;  655,107;   -1,343;   -0,955
420,757;  849,857;   -1,343;   -1,500
421,347;  696,224;    0,111;   -0,227
421,937;  641,937;    2,292;    1,409
422,527;  818,097;    0,838;   -0,773
423,116;  996,899;   -0,253;   -0,045
423,706;  628,602;   -1,889;    0,318
424,296;  552,228;    1,384;    0,682
424,885;  770,046;   -0,071;   -3,045
425,475;  729,488;    1,474;   -2,864
426,065;  580,025;   -0,980;   -0,318
426,654;  550,243;   -0,435;   -0,318
427,244;  931,602;    0,020;    1,409
427,833;  890,838;    1,383;   -0,500
428,423;  707,548;   -0,526;    1,136
429,012;  730,871;   -0,344;   -1,136
429,601;  877,946;   -1,344;    0,136
430,191;  723,357;    1,292;    4,318
430,780;  574,738;   -0,344;   -0,409
431,369;  875,860;    0,746;   -0,045
431,959;  752,161;   -1,254;    0,500
432,548;  632,088;   -1,163;   -0,045
433,137;  540,151;   -1,254;   -1,318
433,726;  681,649;    0,292;    0,500
434,315;  682,876;   -0,526;    2,409
434,905;  840,633;   -1,254;    1,409
435,494;  875,894;    0,746;    0,955
436,083;  668,764;   -0,981;   -0,955
436,672;  762,282;    0,110;    0,500
437,261;  708,304;    0,292;   -1,955
437,850; 1073,614;    1,383;    0,682
438,439; 1124,988;    3,291;    1,955
439,027; 1259,666;    3,655;    1,773
439,616; 1187,136;    2,927;    1,227
440,205;  861,944;    0,200;   -2,136
440,794;  763,708;    2,109;   -0,045
441,383;  660,019;   -1,346;   -0,591
441,971;  576,726;   -2,436;    0,591
442,560;  615,671;    0,563;   -1,773
443,149;  485,788;    0,379;   -1,318
443,737;  590,072;   -0,074;   -2,318
444,326;  604,869;    0,018;    0,318
444,915;  688,208;   -1,982;    0,864
445,503;  704,969;   -2,891;   -0,318
446,092; 1053,011;    0,382;    2,136
446,680;  976,998;    0,382;    0,318
447,269;  879,407;   -0,346;   -0,318
447,857;  821,421;    0,018;   -1,773
448,445;  754,187;    0,563;    1,318
449,034;  684,339;   -1,528;   -1,136
449,622;  662,072;   -1,073;    3,500
450,210; 1132,388;    2,017;    2,227
450,799; 1011,334;    0,290;   -0,591
451,387;  902,105;    1,381;   -0,591
451,975;  891,138;    2,654;    0,864
452,563; 1034,496;    3,472;    2,318
453,151;  715,921;   -0,528;   -1,227
453,739;  810,953;   -1,347;    0,136
454,328; 1010,610;    2,381;   -2,136
454,916;  877,059;    2,562;   -0,136
455,504;  876,164;    1,017;    1,227
456,092;  723,643;    0,017;   -1,591
456,679;  636,021;    1,472;    0,682
457,267; 1307,217;    4,017;    1,045
457,855;  802,278;    1,017;    1,409
458,443;  548,131;   -0,165;    1,682
459,031;  894,598;    0,108;    2,409
459,619;  819,255;   -1,801;    2,864
460,206;  644,213;    0,835;    2,045
460,794;  648,925;   -2,983;   -0,227
461,382;  750,720;   -0,529;   -0,864
461,970;  700,626;    1,198;    1,864
462,557;  597,435;   -0,711;   -0,682
463,145;  837,648;   -3,165;   -1,682
463,732; 1188,543;    2,016;   -1,045
464,320;  828,853;   -0,075;   -3,045
464,907; 1052,713;    2,743;   -0,773
465,495;  918,417;    0,743;   -1,227
466,082;  775,566;   -1,984;   -0,045
466,670;  782,587;   -2,529;    1,227
467,257;  628,367;   -1,711;    2,045
467,844;  825,688;   -0,075;    0,045
468,432;  803,893;    0,834;    3,500
469,019;  694,856;    0,925;   -1,773
469,606;  804,316;    0,470;    3,682
470,193;  871,048;   -1,439;    0,227
470,780;  828,076;   -2,075;    0,864
471,368;  700,263;   -1,257;   -0,773
471,955;  869,944;    1,379;   -0,682
472,542;  788,354;    0,652;   -1,136
473,129;  585,519;   -0,166;    0,136
473,716;  598,935;    1,470;    0,591
474,303;  667,491;    0,652;   -0,864
474,890;  686,739;   -1,439;   -0,500
475,477;  846,260;   -1,621;    0,409
476,064;  690,139;    1,106;   -1,591
476,650;  858,367;    0,288;    0,318
477,237;  746,276;   -0,258;    0,955
477,824;  707,491;   -1,076;    0,864
478,411;  545,197;   -1,894;   -0,318
478,997;  546,863;    0,560;   -0,773
479,584;  451,655;    1,196;   -0,409
480,171;  820,319;   -0,440;   -0,773
480,757;  941,281;    2,651;    0,773
481,344;  730,146;    0,469;    0,409
481,931;  532,660;    1,105;    1,045
482,517;  839,391;   -1,258;    0,318
483,104;  988,562;    1,106;    2,864
483,690;  809,851;   -1,804;    0,045
484,276;  768,422;   -0,895;    0,227
484,863; 1144,536;    2,469;    1,136
485,449;  881,335;   -0,077;    0,318
486,035;  793,539;   -1,986;   -0,136
486,622;  994,884;   -0,895;    0,045
487,208;  840,046;    1,378;    1,500
487,794;  688,511;    0,741;    0,318
488,380;  702,644;    0,105;   -1,409
488,967;  720,212;   -1,168;   -0,409
489,553;  740,858;   -1,895;   -1,409
490,139;  902,412;    1,559;    0,773
490,725;  714,529;    0,741;   -0,227
491,311;  782,955;    3,287;    3,045
491,897;  666,153;   -0,986;    1,500
492,483;  657,378;    0,105;    1,227
493,069; 1424,809;    3,923;    0,864
493,655;  928,546;    1,650;    0,682
494,241;  713,973;    1,377;   -0,955
494,826;  766,670;    0,287;   -1,045
495,412;  880,763;    2,559;   -0,682
495,998;  720,121;   -0,805;   -0,318
496,584;  818,510;    0,377;    1,045
497,169;  789,293;    1,014;   -0,682
497,755;  659,571;    0,650;    1,227
498,341;  990,742;    0,559;    0,318
498,926; 1181,824;    1,832;    1,955
499,512;  750,967;    1,286;    2,955
500,097;  725,062;    0,195;   -0,318
500,683;  754,544;   -0,350;    2,136
501,268;  659,738;   -0,169;   -0,955
501,854;  696,709;   -0,169;    1,227
502,439;  642,128;   -0,624;   -1,773
503,024;  771,840;    0,195;    0,500
503,610;  823,735;   -0,078;   -0,682
504,195;  652,613;    0,558;    1,955
504,780;  816,032;    2,922;    1,227
505,366;  978,637;    3,013;    2,864
505,951;  843,258;    0,740;    1,045
506,536;  713,591;   -3,260;   -3,682
507,121;  797,712;    0,285;   -0,318
507,706;  720,546;    2,376;    1,045
508,291;  628,445;    2,649;    1,136
508,876;  623,007;   -0,988;    2,591
509,461;  725,806;   -0,169;   -0,773
510,046;  788,060;    0,194;    0,318
510,631;  768,607;   -0,351;   -0,773
511,216;  646,952;    2,467;   -0,500
511,801;  772,969;   -0,442;    2,591
512,386;  796,829;    0,740;    0,500
512,971;  818,431;   -2,988;    0,955
513,555;  890,693;   -0,897;   -1,500
514,140;  836,186;   -0,442;   -3,136
514,725;  981,079;   -0,715;   -1,136
515,309;  841,139;   -0,533;    0,318
515,894;  692,313;   -0,624;   -2,227
516,479;  734,002;   -0,624;   -0,955
517,063;  735,682;    0,376;    1,227
517,648;  680,249;    1,012;   -1,136
518,232;  639,326;   -0,261;   -1,409
518,817;  752,698;   -0,079;    1,682
519,401;  930,574;    2,194;    0,591
519,985;  828,350;    1,103;    1,136
520,570;  645,719;    0,830;   -1,955
521,154;  809,427;    2,102;    0,591
521,738; 1071,937;   -2,352;    2,409
522,323;  861,941;   -0,170;    1,682
522,907;  816,193;    0,466;   -0,136
523,491;  695,936;    0,557;    0,955
524,075;  628,944;    2,284;    0,591
524,659;  890,948;    1,466;    0,591
525,243;  786,698;    1,739;    0,409
525,827;  709,675;    0,648;   -0,045
526,411;  741,584;   -1,989;   -0,136
526,995;  896,453;   -0,352;    1,409
527,579;  957,647;   -0,443;   -1,045
528,163;  866,096;    0,375;   -1,500
528,747; 1019,797;    2,466;   -0,773
529,331;  942,773;   -0,080;   -1,409
529,915;  718,018;    1,738;    0,955
530,499;  839,470;   -0,807;    1,227
531,082; 1010,728;   -0,534;    1,591
531,666; 1081,689;    1,374;    0,773
532,250;  965,715;    1,284;    2,682
532,833; 1106,116;    0,920;    2,773
533,417;  884,673;   -1,807;    0,864
534,001; 1023,593;    1,647;   -0,318
534,584;  934,705;    0,374;    0,500
535,168;  730,149;    0,465;    1,409
535,751; 1157,878;    0,647;    0,045
536,334;  825,016;   -0,898;   -0,409
536,918;  689,456;    0,011;    1,591
537,501;  693,530;   -0,899;    1,318
538,085;  750,203;   -0,444;    1,045
538,668;  810,303;    0,829;    2,409
539,251; 1187,675;    1,829;    3,773
539,834;  864,745;    0,101;    0,773
540,418; 1008,893;   -1,990;    4,318
541,001; 1214,122;   -0,990;    1,773
541,584;  917,458;    2,101;    2,227
542,167; 1032,371;    1,374;    2,955
542,750;  864,238;    1,919;   -0,773
543,333;  683,136;    0,555;    2,136
543,916;  979,023;    0,192;    2,500
544,499;  865,710;   -1,354;    0,227
545,082;  972,360;    1,374;    3,591
545,665;  857,047;    1,919;    1,500
546,248; 1012,864;    1,010;   -0,318
546,830;  992,563;   -0,445;    1,955
547,413;  967,773;    1,010;   -0,773
547,996;  955,657;    0,555;    0,500
548,579;  850,017;    0,919;    0,955
549,161; 1132,395;    1,828;    2,682
549,744; 1009,755;   -0,809;    0,409
550,326;  872,493;   -0,809;   -1,136
550,909; 1402,928;    2,737;    0,591
551,492; 1012,461;   -0,263;    0,227
552,074; 1138,699;   -0,173;   -1,318
552,657; 1166,339;    2,373;    0,045
553,239;  994,729;   -0,173;   -0,773
553,821;  880,897;   -1,082;    1,045
554,404; 1151,877;    1,282;    1,136
554,986; 1281,122;    0,464;    1,045
555,568; 1107,239;    1,191;   -0,955
556,151; 1343,793;    1,191;   -0,227
556,733;  973,278;   -0,264;   -0,864
557,315;  974,173;    0,100;    0,500
557,897;  819,786;    0,554;   -0,500
558,479;  824,435;   -1,991;    1,318
559,061;  947,501;   -0,719;   -0,864
559,643; 1042,335;   -0,264;    0,045
560,225; 1086,890;    1,645;    2,864
560,807;  918,517;    0,918;    0,318
561,389;  874,365;    0,554;    2,318
561,971;  961,110;    0,463;    2,136
562,553;  910,599;   -1,628;    1,591
563,135; 1001,222;   -0,537;    1,136
563,717; 1424,306;    3,372;    1,136
564,298; 1294,633;    3,645;   -0,045
564,880; 1018,584;    0,645;   -1,409
565,462;  842,220;    0,645;    1,318
566,043; 1078,685;   -0,446;    2,318
566,625; 1371,862;    1,918;    1,227
567,207; 1128,592;    1,099;    1,682
567,788; 1017,528;   -1,264;    1,500
568,370; 1061,930;    1,917;   -0,500
568,951;  997,926;    0,190;    0,227
569,533; 1136,912;   -0,628;   -0,500
570,114; 1213,370;   -0,446;    0,682
570,695; 1248,757;   -0,174;   -1,318
571,277; 1220,092;   -0,265;   -1,682
571,858; 1441,951;    2,008;   -1,136
572,439; 1360,153;    1,554;   -1,045
573,021; 1370,433;    2,099;   -2,773
573,602; 1490,456;   -1,265;    0,318
574,183; 1458,886;   -2,083;    2,227
574,764; 1444,050;   -1,629;    0,409
575,345; 1621,108;    0,917;   -0,136
575,926; 1502,795;   -0,356;    0,136
576,507; 1588,541;    1,099;   -0,227
577,088; 1596,358;    3,099;    1,682
577,669; 1773,819;    0,735;    1,955
578,250; 1989,522;    0,644;   -1,045
578,831; 1788,608;   -1,356;   -2,227
579,412; 1697,010;   -0,810;    0,955
579,993; 1820,842;    1,008;    0,227
580,573; 1783,576;   -0,629;   -0,955
581,154; 1722,281;    0,735;   -0,591
581,735; 1770,903;    0,644;    0,773
582,315; 1806,812;   -0,629;    2,136
582,896; 1810,323;   -0,174;    1,227
583,477; 1646,721;    0,189;    1,227
584,057; 1751,659;    0,553;    0,955
584,638; 1846,297;    2,553;    2,318
585,218; 2080,012;   -0,538;    2,682
585,799; 1937,608;    0,281;   -0,227
586,379; 1787,994;    0,372;    1,591
586,959; 1724,162;    0,735;    0,318
587,540; 1595,132;   -0,629;    2,227
588,120; 1568,008;    1,007;   -0,045
588,700; 1518,344;    2,553;    2,136
589,281; 1739,937;    0,462;   -0,955
589,861; 1598,242;    0,099;   -1,682
590,441; 1477,038;    2,371;   -2,682
591,021; 1478,291;   -0,265;   -2,591
591,601; 1479,868;   -0,537;    0,500
592,181; 1513,940;   -0,719;   -0,773
592,761; 1302,926;    0,007;    1,409
593,341; 1451,791;   -0,901;    0,045
593,921; 1429,902;   -0,265;    1,591
594,501; 1314,164;   -0,538;    1,318
595,081; 1308,438;    0,917;   -0,318
595,661; 1475,040;   -1,447;    0,955
596,240; 1448,325;   -0,537;    0,136
596,820; 1799,590;    0,372;    1,955
597,400; 1477,480;    2,008;    0,773
597,980; 1423,466;    2,008;    1,045
598,559; 1382,374;    2,735;   -0,227
599,139; 1349,314;   -0,174;   -1,227
599,718; 1348,223;   -0,174;   -0,409
600,298; 1372,648;    0,735;    0,682
600,877; 1852,937;    2,917;    1,409
601,457; 1624,930;    2,281;    1,136
602,036; 1467,227;    0,190;    2,045
602,616; 1459,734;    0,644;    1,682
603,195; 1617,924;   -0,355;    3,500
603,774; 1624,772;   -0,901;    2,045
604,354; 1536,054;    0,826;   -0,500
604,933; 1457,125;    0,463;    1,864
605,512; 1626,977;    3,554;    0,591
606,091; 1621,613;   -0,537;    3,773
606,671; 1582,297;    0,281;    0,773
607,250; 1704,762;    1,644;    3,136
607,829; 1673,368;    2,372;    3,227
608,408; 1507,510;    1,190;    2,591
608,987; 1576,620;    1,281;    3,409
609,566; 1409,590;   -1,265;   -2,500
610,145; 1496,821;   -1,082;    0,682
610,723; 1572,480;    4,372;    6,864
611,302; 1441,755;   -0,446;    1,682
611,881; 1699,797;    5,008;   11,227
612,460; 1447,538;    1,645;    3,955
613,039; 1393,980;   -0,082;    2,045
613,617; 1279,028;    1,736;    4,773
614,196; 1296,449;    1,099;    1,227
614,775; 1425,695;    1,009;    2,409
615,353; 1470,636;    0,736;    0,864
615,932; 1390,377;    0,100;    2,409
616,510; 1434,236;    0,554;    0,591
617,089; 1968,937;    7,100;   17,591
617,667; 1535,928;    2,372;    6,136
618,246; 1211,503;   -1,537;    1,318
618,824; 1324,159;   -3,355;   -0,955
619,402; 1338,073;   -2,900;   -1,773
619,981; 1447,641;   -0,173;   -1,045
620,559; 1377,229;    0,009;    1,682
621,137; 1403,804;   -0,718;    1,864
621,715; 1185,281;   -1,173;   -0,682
622,293; 1219,979;   -0,537;   -0,773
622,871; 1364,900;   -0,718;    0,500
623,450; 1231,234;    0,373;   -0,864
624,028; 1425,316;    0,191;   -0,955
624,606; 1380,715;   -1,718;    1,682
625,183; 1209,276;   -1,536;   -1,136
625,761; 1295,544;    1,009;    1,136
626,339; 1670,557;    1,373;    2,591
626,917; 1305,524;   -0,172;   -0,045
627,495; 1276,451;   -0,354;    1,318
628,073; 1355,283;   -0,263;    2,864
628,650; 1349,407;    0,100;    2,136
629,228; 1374,306;    0,373;    4,409
629,806; 1139,690;    2,282;    1,136
630,383; 1209,145;    1,464;   -0,318
630,961; 1219,056;    2,555;   -0,955
631,539; 1237,951;    2,464;    0,227
632,116; 2004,328;   11,373;   15,409
632,694; 1590,883;    2,555;    6,500
633,271; 1398,444;    0,828;    2,682
633,848; 1514,426;    1,828;    2,045
634,426; 1249,390;   -1,081;    1,773
635,003; 1101,472;    1,101;   -0,409
635,580; 1545,996;    1,192;    3,682
636,158; 1363,142;    3,737;    1,227
636,735; 1158,537;    0,555;   -0,500
637,312; 1164,087;   -0,809;   -0,682
637,889; 1174,544;   -4,354;   -0,682
638,466; 1166,056;   -3,990;   -0,409
639,043; 1192,815;    2,101;   -1,136
639,620; 1136,899;   -2,262;   -0,955
640,197; 1283,037;    1,100;    1,682
640,774; 1151,232;   -0,172;    1,136
641,351; 1236,063;    0,737;    1,136
641,928; 1388,531;   -0,627;    1,409
642,505; 1535,180;    0,828;   -0,500
643,082; 1359,921;   -1,718;    1,227
643,658; 1107,206;   -0,718;    1,500
644,235; 1152,492;    1,191;    2,500
644,812; 1364,596;    1,918;    0,773
645,388; 1328,700;   -0,991;    1,409
645,965; 1079,531;   -0,809;    1,682
646,542; 1080,454;   -1,445;   -0,227
647,118; 1540,467;    1,009;   -0,955
647,695; 1321,025;   -0,263;    1,136
648,271; 1101,584;   -0,536;    0,500
648,848; 1271,961;    0,736;    2,227
649,424; 1422,246;    0,827;    1,318
650,000; 1179,532;   -0,354;   -1,045
650,577; 1237,636;   -0,627;   -0,955
651,153; 1300,286;   -1,809;    0,955
651,729; 1227,481;    1,191;    0,864
652,305; 1594,312;    0,645;    2,773
652,881; 1719,052;   -0,082;    1,136
653,458; 2181,065;    1,100;    0,227
654,034; 2505,169;    0,282;    1,591
654,610; 2587,364;    0,554;    0,773
655,186; 3028,196;    0,645;    3,045
655,762; 2645,845;   -0,991;    0,409
656,338; 2632,131;    0,100;    0,136
656,913; 2819,144;   -0,082;    0,409
657,489; 2583,157;    0,827;   -0,318
658,065; 2678,079;   -0,173;   -1,591
658,641; 2820,274;   -0,900;   -0,864
659,217; 2640,651;   -0,991;    0,409
659,792; 2568,028;    0,645;   -0,409
660,368; 2538,950;   -2,173;   -0,682
660,944; 2668,872;   -2,082;    1,227
661,519; 2337,067;   -0,628;    0,409
662,095; 1776,989;   -1,719;    0,591
662,670; 1340,275;    1,281;   -0,136
663,246; 1288,470;    1,009;   -0,409
663,821; 1420,756;    0,281;    1,682
664,396; 1270,496;    0,009;    1,864
664,972; 1216,600;    0,009;   -0,500
665,547; 1335,068;    1,372;    0,136
666,122; 1295,262;   -1,082;    0,318
666,698; 1499,003;   -0,173;    0,318
667,273; 1199,470;   -0,173;    0,136
667,848; 1294,484;    2,372;    1,500
668,423; 1458,678;    2,190;    2,318
668,998; 1318,146;    2,827;   -0,682
669,573; 1299,977;   -3,264;   -1,500
670,148; 1503,627;   -1,446;   -0,682
670,723; 1230,822;   -1,810;    0,318
671,298; 1599,744;    2,372;    1,045
671,873; 1457,939;   -0,082;   -0,136
672,448; 1453,134;    0,645;    0,136
673,023; 1459,511;   -1,992;   -0,227
673,597; 1592,160;    0,827;    2,318
674,172; 1618,082;   -0,355;    0,318
674,747; 1502,550;    0,372;   -1,045
675,321; 1241,745;   -0,628;    3,318
675,896; 1148,212;    0,645;    1,045
676,471; 1385,316;    2,645;    1,591
677,045; 1300,329;   -1,264;    0,682
677,620; 1377,979;    0,190;    1,136
678,194; 1269,356;   -2,628;    1,136
678,769; 1308,732;   -1,083;   -0,318
679,343; 1389,473;   -0,628;    1,773
679,917; 1520,031;   -1,446;    1,955
680,492; 1337,317;    0,826;    3,227
681,066; 1387,512;    3,372;    0,409
681,640; 1325,798;    1,463;   -0,318
682,214; 1368,811;    0,735;    0,500
682,788; 1359,460;   -1,356;   -0,773
683,363; 1477,746;   -1,810;    1,682
683,937; 1331,305;   -1,719;   -0,318
684,511; 1437,136;    0,463;   -0,591
685,085; 1429,876;   -1,356;    0,318
685,659; 1298,071;   -2,538;    0,864
686,232; 1578,903;   -0,356;   -0,318
686,806; 1441,279;   -0,901;    0,409
687,380; 1390,202;   -0,174;    0,591
687,954; 1368,942;   -1,174;    1,136
688,528; 1630,773;   -0,719;    1,955
689,101; 1525,514;   -3,992;    1,045
689,675; 1368,708;   -0,356;   -0,136
690,249; 1589,631;   -0,719;    0,409
690,822; 1596,098;    0,280;    0,318
691,396; 1447,930;   -0,265;    1,227
691,969; 1347,852;    1,280;    0,136
692,543; 1318,228;   -0,447;   -1,955
693,116; 1199,696;   -0,265;   -1,409
693,690; 1289,436;    0,099;    0,500
694,263; 1322,268;   -1,083;    2,955
694,836; 1672,099;    1,371;    3,591
695,410; 1486,658;   -0,265;    1,773
695,983; 1497,580;    0,189;    0,591
696,556; 1302,411;   -0,447;   -1,045
697,129; 1278,424;   -0,356;    1,409
697,703; 1437,437;   -1,629;    1,955
698,276; 1368,541;    1,462;   -0,773
698,849; 1497,282;    1,280;    1,409
699,422; 1275,022;   -1,083;    0,591
699,995; 1149,853;    0,007;    0,136
700,568; 1323,503;   -0,629;    3,045
701,140; 1356,698;   -2,811;    1,682
701,713; 1517,074;   -0,174;    2,409
702,286; 1397,815;   -0,538;    0,864
702,859; 1453,919;   -0,902;   -0,591
703,432; 1494,295;    0,825;    0,682
704,004; 1400,945;    0,462;    0,318
704,577; 1250,776;   -0,629;    0,136
705,150; 1302,880;    0,189;    2,500
705,722; 1400,075;   -0,356;   -3,227
706,295; 1463,997;   -0,175;   -0,591
706,867; 1288,010;   -0,175;    1,955
707,440; 1453,751;   -1,720;   -0,409
708,012; 1532,946;    0,462;    0,591
708,584; 1380,777;    2,462;    0,227
709,157; 1236,881;    1,825;   -0,591
709,729; 1461,712;    2,280;    2,045
710,301; 1413,180;    0,734;    0,045
710,874; 1390,920;   -1,447;   -0,227
711,446; 1152,842;    0,371;    0,864
712,018; 1258,765;    0,098;    0,500
712,590; 1189,050;   -1,993;    1,682
713,162; 1524,609;    0,825;    1,318
713,734; 1318,804;    1,825;   -2,045
714,306; 1247,453;   -1,902;   -0,409
714,878; 1222,285;    0,825;    0,864
715,450; 1237,661;    0,643;    0,864
716,022; 1261,129;    1,552;    1,318
716,593; 1252,960;    0,189;    0,591
717,165; 1310,246;   -3,175;   -1,227
717,737; 1547,350;    0,280;    0,409
718,309; 1330,363;    0,280;   -0,045
718,880; 1247,467;   -0,539;   -1,409
719,452; 1335,935;   -0,175;   -1,591
720,024; 1377,221;    0,734;   -0,591
720,595; 1315,688;   -2,902;    0,955
721,167; 1270,883;    0,370;   -2,045
721,738; 1343,351;   -0,812;   -1,045
722,309; 1452,273;   -0,993;   -1,227
722,881; 1209,741;   -1,357;    0,773
723,452; 1355,299;   -2,630;    2,864
724,023; 1381,130;   -0,721;    2,682
724,595; 1440,416;    0,007;    0,682
725,166; 1250,520;    0,007;   -0,409
725,737; 1492,806;    1,734;    0,227
726,308; 1293,910;   -0,266;    0,318
726,879; 1197,378;   -1,630;    1,227
727,450; 1393,754;    0,552;   -0,045
728,021; 1271,858;    3,097;    0,682
728,592; 1460,872;    0,734;    0,500
729,163; 1582,976;    0,643;   -0,136
729,734; 1574,170;    0,188;   -0,227
730,305; 1375,729;    1,734;    0,136
730,876; 1341,106;    0,188;    2,955
731,447; 1712,392;    2,188;    2,682
732,017; 1590,405;    1,097;    1,864
732,588; 1415,509;    0,734;    1,227
733,159; 1650,795;    0,643;   -1,045
733,729; 1355,080;    0,006;    0,409
734,300; 1498,912;    0,915;    0,864
734,870; 1337,470;    3,461;    0,591
735,441; 1325,665;    0,370;   -0,591
736,011; 1250,224;    0,643;   -1,591
736,582; 1298,509;   -0,812;    0,045
737,152; 1395,159;   -1,721;   -2,045
737,722; 1380,808;   -0,267;   -0,682
738,293; 1220,185;   -1,358;    1,318
738,863; 1417,289;    2,461;    2,318
739,433; 1717,484;    5,279;    0,318
740,003; 1461,043;   -0,994;   -0,682
740,573; 1563,510;    2,097;   -1,591
741,143; 1449,160;   -1,085;    0,318
741,713; 1347,264;    1,188;   -0,500
742,283; 1386,095;    0,915;    1,591
742,853; 1291,563;    1,915;    1,591
743,423; 1122,030;    1,733;    0,045
743,993; 1239,134;   -0,358;    1,500
744,563; 1225,602;    0,097;   -0,864
745,133; 1266,979;   -0,812;   -0,864
745,702; 1208,810;   -0,267;    1,773
746,272; 1402,368;   -0,176;    0,591
746,842; 1416,291;   -1,358;   -0,591
747,411; 1213,213;   -0,267;   -0,318
747,981; 1122,044;    0,097;    0,500
748,551; 1139,057;    2,278;   -1,045
749,120; 1304,707;    0,642;   -0,227
749,690; 1277,629;   -0,631;    2,409
750,259; 1417,642;    1,369;    2,955
750,828; 1460,110;    1,551;   -1,955
751,398; 1228,941;    1,278;   -0,045
751,967; 1705,318;    2,187;    0,409
752,536; 1349,785;   -0,813;   -0,227
753,105; 1481,344;    0,096;    0,227
753,675; 1282,993;    0,096;    1,773
754,244; 1300,824;   -0,904;    3,591
754,813; 1331,656;    0,551;    1,227
755,382; 1276,487;    0,460;    0,955
755,951; 1433,864;    1,551;    3,682
756,520; 1512,059;   -0,085;    1,864
757,089; 1695,254;    0,278;    0,500
757,658; 1386,994;    1,733;    1,227
758,227; 1218,825;    1,096;    0,318
758,795; 1291,838;    1,187;    1,136
759,364; 1358,033;   -0,086;   -0,591
759,933; 1199,683;   -1,176;   -0,045
760,501; 1135,787;    0,733;   -1,318
761,070; 1308,345;   -2,813;   -1,409
761,639; 1391,904;   -1,904;    1,318
762,207; 1397,190;    1,551;   -0,955
762,776; 1450,930;    0,369;    0,864
763,344; 1290,034;   -0,995;    0,591
763,913; 1019,411;   -0,722;    1,409
764,481; 1658,697;    1,005;   -0,136
765,049; 1633,801;   -1,358;    1,409
765,618; 1518,723;   -0,086;    0,318
766,186; 1344,736;    0,278;    0,136
766,754; 1374,203;    0,005;    1,864
767,322; 1188,762;   -1,995;    0,409
767,890; 1142,321;   -0,722;   -1,773
768,459; 1213,515;   -2,177;   -0,318
769,027; 1461,710;    1,641;    3,409
769,595; 1227,905;    3,278;    2,591
770,163; 1289,191;    3,823;    2,955
770,730; 1293,113;    0,732;   -0,136
771,298; 1271,490;    0,187;   -1,409
771,866; 1207,139;   -1,541;    4,955
772,434; 1235,698;   -0,631;   -1,864
773,002; 1486,529;    0,005;    0,682
773,569; 1340,906;    0,914;    1,682
774,137; 1468,555;   -0,268;   -0,045
774,705; 1308,841;    0,278;   -0,136
775,272; 1205,673;    0,641;    0,682
775,840; 1280,867;   -0,177;    2,682
776,407; 1350,335;    0,277;    1,955
776,975; 1172,803;   -0,632;    0,318
777,542; 1171,907;   -1,086;   -0,045
778,110; 1204,374;   -1,268;   -0,045
778,677; 1069,024;   -2,359;   -0,864
779,244; 1142,582;    2,186;    1,045
779,812; 1324,959;    1,823;    0,864
780,379; 1392,790;    0,005;    1,136
780,946; 1239,349;    1,005;   -0,773
781,513; 1189,544;   -1,450;    0,318
782,080; 1099,830;   -0,086;    2,864
782,647; 1163,479;   -0,268;    3,045
783,214; 1121,129;   -0,177;    3,864
783,781; 1351,869;   -0,723;   -0,682
784,348; 1276,246;   -0,632;    1,500
784,915; 1057,622;   -3,177;    0,318
785,482; 1291,545;    1,368;    2,591
786,049; 1275,830;    0,186;   -0,591
786,615; 1162,480;    0,277;   -0,955
787,182; 1096,493;    0,186;   -0,682
787,749; 1079,142;   -2,814;    1,409
788,315; 1254,701;   -1,632;   -0,409
788,882; 1181,987;    1,550;   -1,227
789,448; 1485,818;    1,732;   -0,955
790,015; 1232,377;    1,095;    3,227
790,581; 1428,299;    1,459;    0,227
791,148; 1203,676;    0,641;    1,045
791,714; 1114,870;   -0,541;    3,136
792,280; 1122,702;    0,186;    1,591
792,847; 1050,897;    0,550;    2,500
793,413; 1145,819;   -0,269;   -0,318
793,979; 1327,468;    3,459;   -1,318
794,545; 1667,209;    4,459;    2,682
795,111; 1500,949;    2,186;    1,318
795,678; 1338,053;    0,731;   -1,682
796,244; 1527,884;    3,368;    0,136
796,810; 1399,170;    1,731;    0,773
797,375; 1390,456;    0,549;   -2,136
797,941; 1003,378;   -0,541;    0,591
798,507;  990,119;   -0,451;   -0,955
799,073; 1032,404;   -0,360;    0,591
799,639; 1064,417;   -2,632;    3,136
800,205; 1006,885;    0,095;    2,682
800,770; 1009,262;    0,640;    1,773
801,336; 1000,639;    1,368;   -0,955
801,901; 1677,561;    4,549;    3,136
802,467; 1312,937;   -0,542;    2,045
803,033; 1042,314;   -0,087;    0,864
803,598; 1039,327;    1,913;   -1,045
804,163; 1060,977;    1,095;   -0,318
804,729; 1181,626;   -0,178;    1,136
805,294; 1083,367;    0,822;    2,227
805,859;  972,652;    0,731;   -0,409
806,425; 1411,120;    1,186;    2,682
806,990; 1391,224;    2,186;    4,318
807,555; 1132,783;   -1,451;    2,591
808,120; 1307,705;    0,822;   -0,409
808,685; 1035,172;    0,185;   -2,500
809,250;  911,913;    0,004;   -0,500
809,815;  943,380;    1,913;    0,682
810,380; 1129,757;   -0,269;    1,591
810,945; 1309,770;   -1,087;    2,045
811,510; 1135,783;    2,094;    1,591
812,075; 1143,251;   -0,633;   -1,409
812,640; 1426,810;    2,003;    1,409
813,204; 1159,004;    0,822;   -0,227
813,769; 1340,290;    2,094;   -0,045
814,334; 1321,394;    0,458;    0,864
814,898; 1017,407;    0,367;    0,591
815,463; 1108,966;    1,276;   -0,773
816,027; 1052,615;   -0,724;   -2,318
816,592;  989,538;    0,640;   -2,045
817,156; 1149,005;    2,094;    1,136
817,721; 1245,018;    4,276;    2,318
818,285;  973,850;    2,912;    1,500
818,849; 1055,044;   -1,451;    1,682
819,414;  968,694;   -0,269;    2,955
819,978;  899,434;   -1,269;    1,773
820,542; 1279,993;    2,003;    0,500
821,106; 1092,370;   -0,815;    0,682
821,670; 1314,655;   -0,815;    2,591
822,234; 1059,305;   -0,270;    1,409
822,798;  914,409;    0,003;    0,500
823,362; 1213,604;   -0,633;    4,227
823,926;  995,526;    0,094;    1,136
824,490; 1215,448;   -0,997;   -0,682
825,054; 1093,643;   -0,088;   -1,136
825,618;  949,929;   -1,542;   -1,500
826,181; 1004,487;    0,458;   -1,318
826,745; 1108,137;    1,367;   -1,045
827,309; 1367,059;    1,185;    1,318
827,872; 1226,618;    1,367;    0,955
828,436; 1115,176;    1,185;   -0,773
828,999; 1012,917;   -0,997;    1,227
829,563;  973,566;   -0,179;    1,136
830,126;  941,761;   -0,179;   -0,591
830,690; 1021,683;   -1,997;    2,864
831,253;  931,878;   -0,543;    2,227
831,816;  990,346;   -1,906;    0,500
832,380;  929,813;    0,185;    0,864
832,943;  916,554;   -1,361;   -0,500
833,506;  937,385;    2,639;   -1,227
834,069; 1112,853;    3,912;   -0,955
834,632;  962,866;    1,730;    1,318
835,195; 1009,424;    1,003;    0,955
835,758;  933,528;   -0,997;    1,955
836,321;  899,996;    0,730;   -1,045
836,884;  891,554;   -0,725;   -0,955
837,447;  845,567;   -2,816;    1,773
838,010; 1033,581;    0,366;    3,227
838,573; 1060,957;   -1,179;    0,773
839,135;  928,425;   -1,361;   -0,955
839,698;  956,438;    1,275;    0,409
840,261;  895,178;    1,003;   -0,227
840,823;  839,192;   -0,543;    0,864
841,386;  811,386;   -0,452;   -2,409
841,948; 1184,854;   -1,361;    1,773
842,511;  916,413;    0,912;    1,682
843,073; 1183,698;    1,912;    0,227
843,636;  897,075;   -0,361;   -0,227
844,198; 1150,088;    0,911;    0,591
844,760; 1096,829;    1,093;    1,955
845,322;  854,660;    0,548;    1,136
845,885; 1006,128;    0,730;    0,591
846,447;  946,413;   -1,998;    0,227
847,009; 1331,699;    1,911;   -0,682
847,571;  988,258;    0,820;   -2,045
848,133;  936,725;   -1,089;   -1,864
848,695;  779,466;   -0,543;    1,409
849,257;  869,388;   -1,089;   -1,682
849,819; 1053,219;   -0,998;   -0,409
850,381;  895,778;   -0,725;   -0,864
850,942;  984,882;    1,093;   -0,591
851,504; 1044,077;    1,184;    0,227
852,066;  903,999;    1,275;   -1,591
852,628;  933,103;   -0,180;    1,955
853,189;  791,752;    1,638;    2,682
853,751;  820,947;   -0,907;    1,409
854,312; 1009,960;   -0,453;   -1,682
854,874; 1174,882;   -2,089;   -0,773
855,435;  945,986;   -0,907;   -1,682
855,997; 1025,545;   -1,816;   -0,136
856,558; 1126,558;    0,366;    1,773
857,119; 1000,844;    0,820;    2,864
857,681;  817,130;    0,002;    0,318
858,242; 1104,597;    1,911;   -2,136
858,803; 1106,429;    0,456;   -0,773
859,364;  962,624;    0,184;   -4,773
859,925; 1046,273;   -2,453;   -0,955
860,486;  923,286;   -0,453;   -0,955
861,047;  827,299;   -0,544;   -1,227
861,608;  880,312;   -1,089;   -0,773
862,169;  748,144;    0,638;   -0,045
862,730;  866,520;    0,456;    1,409
863,291;  924,352;   -0,635;   -0,500
863,852;  897,547;   -0,635;    1,955
864,412;  866,560;   -0,271;   -0,864
864,973; 1118,845;   -0,089;    0,500
865,534; 1269,949;   -1,726;    0,227
866,094; 1027,963;    1,820;    0,227
866,655; 1159,885;    1,274;    3,318
867,215;  969,807;    0,274;    0,136
867,776;  827,275;    0,547;   -0,136
868,336;  922,197;   -1,453;    0,136
868,897; 1339,392;    2,638;    1,682
869,457; 1107,132;    1,365;    0,318
870,017;  881,691;    0,547;   -1,227
870,578;  871,249;   -0,817;    0,773
871,138;  932,080;   -2,089;   -0,955
871,698;  818,094;   -0,817;   -1,318
872,258;  976,743;   -0,453;   -2,864
872,818; 1159,756;    2,729;    0,045
873,378;  936,860;    0,638;    1,045
873,938;  906,419;    0,547;    0,500
874,498;  798,977;    0,274;   -1,955
875,058;  897,263;    2,183;    1,773
875,618;  898,094;    1,910;   -2,682
876,177;  947,835;    1,274;    0,136
876,737;  720,030;   -0,090;    1,955
877,297; 1169,224;    0,183;    1,955
877,856; 1097,874;   -0,362;    0,318
878,416;  821,705;    1,183;   -0,136
878,976;  783,082;   -1,817;    0,409
879,535;  834,368;    0,092;    3,136
880,095;  813,654;   -0,544;    0,045
880,654;  730,848;   -1,090;    1,318
881,213; 1096,225;    2,456;    1,500
881,773;  913,784;    2,637;    2,682
882,332; 1488,524;    3,365;    5,136
882,891;  884,264;    3,092;    2,136
883,451;  891,914;   -1,272;    1,682
884,010;  830,472;   -2,908;   -0,409
884,569;  767,122;   -0,999;   -0,045
885,128;  985,862;    2,819;   -1,864
885,687; 1288,694;    4,455;    0,682
886,246; 1476,252;    1,455;    2,136
886,805; 1215,083;    2,455;    2,045
887,364;  835,097;   -0,999;   -0,500
887,922;  734,110;   -1,181;    0,045
888,481;  941,850;   -1,545;    0,591
889,040; 1066,136;    1,183;    2,136
889,599;  913,240;    2,455;    1,409
890,157;  913,980;    1,455;    2,409
890,716;  847,266;   -0,090;    0,227
891,274;  970,915;    0,092;   -1,136
891,833; 1055,838;    1,546;    0,864
892,391;  905,123;   -0,454;    0,500
892,950; 1044,864;    1,819;   -0,773
893,508;  810,422;    0,455;   -0,409
894,067;  710,254;    0,637;    0,136
894,625;  837,267;   -0,636;   -1,500
895,183;  781,098;   -0,363;   -0,682
895,741; 1109,657;    1,728;   -1,773
896,299;  869,942;   -0,545;   -2,409
896,858;  793,137;    0,819;   -1,591
897,416;  944,423;    2,728;   -1,318
897,974;  862,800;    1,819;    0,318
898,532; 1360,267;    6,091;    2,682
899,089; 1011,917;    2,091;   -0,682
899,647;  896,657;   -1,454;    1,318
900,205;  926,852;    1,182;    1,045
900,763;  914,320;   -0,454;    0,227
901,321;  851,424;    2,364;   -1,409
901,878;  666,892;   -1,000;   -0,773
902,436;  752,632;   -1,363;    1,318
902,994; 1557,009;    4,728;    3,682
903,551; 1052,931;    0,728;    0,409
904,109;  907,308;    0,182;   -1,409
904,666;  852,230;    2,455;    1,045
905,224;  724,697;    0,182;   -0,409
905,781;  917,983;    0,727;   -0,318
906,338;  830,451;   -1,363;    1,045
906,895;  699,555;    0,637;    2,045
907,453; 1013,841;    1,727;    1,136
908,010;  847,217;   -0,909;    0,409
908,567;  812,685;    1,273;    0,591
909,124;  634,153;    0,364;   -1,500
909,681;  710,166;   -2,909;    0,682
910,238;  756,361;    0,636;   -1,318
910,795;  675,101;   -0,273;   -1,136
911,352;  689,101;   -2,909;   -2,682
911,909;  728,556;   -1,364;   -0,864
912,466;  736,374;   -3,182;    1,500
913,022;  823,646;   -1,636;    0,500
913,579;  912,283;   -0,909;    2,045
914,136;  778,192;    1,636;    0,955
914,692;  800,919;    0,091;   -1,227
915,249;  802,010;    1,455;    0,409
915,806;  886,010;    0,182;    1,955
916,362;  771,465;    1,909;    1,864
916,918;  718,010;    2,000;    1,045
917,475;  907,919;   -1,182;    0,955
918,031;  721,737;    3,364;   -0,045
918,587;  795,919;   -0,909;   -0,318
919,144;  692,192;   -2,273;    0,227
919,700;  626,737;    1,727;    0,773
920,256;  616,192;    0,727;    0,045
920,812;  671,737;   -0,727;   -1,045
921,368;  627,737;   -1,727;   -1,045
921,924;  650,556;    0,182;   -0,136
922,480;  759,646;   -0,545;    1,227
923,036;  772,919;    1,273;    1,955
923,592;  650,101;    0,455;    0,318
924,148;  676,101;    0,455;   -0,955
924,704;  828,737;   -1,364;   -0,409
925,259;  643,010;   -0,273;    0,591
925,815;  628,828;    1,455;    0,500
926,371;  597,465;    2,909;    1,409
926,926;  762,374;    2,091;    0,591
927,482;  733,919;   -1,364;    0,773
928,037;  656,283;    0,909;    2,045
928,593;  855,374;    1,636;    1,045
929,148;  599,374;   -1,818;   -1,500
929,704;  683,374;   -1,455;   -0,500
930,259;  583,737;    0,091;   -0,136
930,814;  796,646;   -0,818;    1,955
931,369;  723,283;    1,091;   -0,773
931,925;  520,828;   -0,091;    0,136
932,480;  630,828;   -2,818;   -2,591
933,035; 1003,283;    0,545;   -0,318
933,590;  883,192;    0,364;   -1,773
934,145;  505,374;   -1,364;   -0,318
934,700;  411,465;    0,455;   -0,591
935,255;  481,556;   -0,091;    0,045
935,809;  822,919;    3,182;    0,864
936,364;  464,374;   -0,455;   -0,136
936,919;  463,737;    0,455;   -1,773
937,474;  376,374;    1,455;    0,136
938,028;  407,192;   -1,636;    1,136
938,583;  802,556;    1,818;    4,682
939,138;  470,465;    2,091;    2,136
939,692;  347,192;    1,636;   -1,136
940,247;  401,101;   -0,727;   -1,045
940,801;  455,556;   -0,636;    0,227
941,355;  360,374;   -0,364;    2,591
941,910;  272,737;   -0,273;   -2,136
942,464;  311,556;   -0,818;   -0,318
943,018;  547,556;    1,000;   -0,227
943,572;  386,192;    2,545;   -0,682
944,126;  447,737;    0,091;   -0,409
944,681;  332,465;    3,091;    0,227
945,235;  279,192;    1,000;   -0,591
945,789;  245,283;    0,364;   -1,864
946,342;  512,556;    0,455;   -0,591
946,896;  295,737;   -2,273;    0,955
947,450;  274,283;    1,545;   -0,227
948,004;  494,556;    1,727;   -0,045
948,558;  328,919;    0,273;   -0,864
949,111;  321,010;   -0,273;   -0,318
949,665;  493,465;    1,636;   -0,682
950,219;  457,192;   -0,091;   -1,045
950,772;  385,374;   -1,909;    1,864
951,326;  375,374;    0,545;   -0,955
951,879;  316,192;    0,727;   -2,318
952,433;  441,192;    0,000;    2,227
952,986;  289,465;    2,909;    0,682
953,539;  258,283;   -0,273;    0,591
954,093;  210,646;    0,545;   -1,318
954,646;  329,192;    0,909;    1,318
955,199;  264,374;    0,000;   -0,500
955,752;  468,010;   -0,455;    1,773
956,305;  320,737;   -0,091;    2,955
956,858;  364,556;    0,818;   -0,318
957,411;  414,646;   -0,545;    2,136
957,964;  339,101;    1,364;    2,136
958,517;  263,556;   -1,545;    3,136
959,070;  225,101;   -0,455;    1,955
959,623;  471,919;    1,091;    1,500
960,176;  430,192;    1,727;    2,045
960,728;  388,646;   -2,727;    0,773
961,281;  334,919;    0,545;    0,500
961,834;  266,737;   -0,909;    0,864
962,386;  271,737;    1,727;    1,045
962,939;  240,919;    0,364;   -0,318
963,491;  282,737;    0,455;    1,136
964,043;  229,828;    1,182;    2,409
964,596;  381,192;   -1,000;    2,227
965,148;  303,283;   -1,000;    1,773
965,700;  224,556;    1,091;   -0,227
966,253;  373,919;   -0,636;    0,318
966,805;  339,010;   -2,273;    0,773
967,357;  270,374;    1,091;   -1,500
967,909;  376,374;    0,455;   -1,227
968,461;  278,828;    0,545;    3,136
969,013;  233,737;   -0,182;   -0,864
969,565;  372,283;   -0,455;   -1,136
970,117;  577,465;   -0,364;    1,045
970,669;  368,010;    0,182;   -0,136
971,220;  193,919;   -0,455;   -1,500
971,772;  272,374;   -0,636;   -0,318
972,324;  353,101;    0,091;   -0,500
972,876;  271,828;    0,818;   -0,045
973,427;  373,192;    1,909;   -1,045
973,979;  436,828;   -0,727;   -2,500
974,530;  261,556;    1,818;    1,318
975,082;  318,283;   -0,545;    1,682
975,633;  270,646;    1,091;    1,682
976,184;  315,556;    0,909;    0,773
976,736;  306,919;    0,091;    0,227
977,287;  331,374;   -0,909;   -0,500
977,838;  294,919;    0,909;   -0,318
978,389;  297,374;   -1,000;   -0,500
978,940;  187,646;    0,545;   -0,409
979,491;  183,465;    0,091;   -0,500
980,042;  267,919;    0,182;    3,045
980,593;  278,192;   -2,545;    0,227
981,144;  349,374;    2,545;   -0,500
981,695;  386,010;    1,455;    1,500
982,246;  336,828;   -0,273;    1,045
982,797;  222,737;   -1,727;    0,682
983,347;  350,556;    0,364;    0,591
983,898;  528,283;    3,091;    0,409
984,449;  498,374;    2,182;    0,773
984,999;  353,737;    1,455;   -1,136
985,550;  316,465;    0,182;   -0,318
986,100;  199,556;   -0,455;   -0,318
986,651;  193,737;   -0,818;    0,045
987,201;  217,192;   -1,000;   -0,591
987,751;  230,919;    0,818;    2,864
988,302;  270,465;    2,636;    1,500
988,852;  315,737;    0,455;   -1,136
989,402;  359,556;    0,091;    0,682
989,952;  381,101;   -2,182;    0,864
990,502;  247,010;   -0,091;    0,682
991,052;  168,828;   -0,727;    0,045
991,602;  213,192;   -2,909;    1,318
992,152;  254,556;    0,455;    0,682
992,702;  285,192;    1,364;   -0,045
993,252;  233,465;   -3,000;   -0,500
993,802;  317,374;   -0,273;    1,318
994,352;  276,101;   -1,545;    1,136
994,901;  199,919;   -0,182;    3,227
995,451;  191,374;   -0,182;    0,318
996,000;  222,828;    1,636;    0,318
996,550;  228,737;    2,273;    0,227
997,100;  263,192;    1,273;   -0,045
997,649;  380,919;    2,182;    0,955
998,198;  228,192;    1,727;   -1,500
998,748;  320,919;    1,091;   -2,318
999,297;  268,465;   -0,818;   -0,409
999,846;  379,646;    1,000;   -0,773
1000,395;  296,192;   -0,818;    0,500
1000,945;  397,556;    1,818;   -0,773
1001,494;  390,737;    2,364;    0,682
1002,043;  385,828;    4,636;    0,864
1002,592;  227,919;   -1,091;    1,955
1003,141;  217,737;   -0,455;   -0,682
1003,690;  367,737;    1,727;    0,500
1004,238;  260,283;    1,455;   -0,045
1004,787;  193,374;    1,364;    1,227
1005,336;  342,828;    0,364;    0,682
1005,885;  296,101;    1,364;   -2,773
1006,433;  289,737;    0,545;    0,955
1006,982;  446,192;    0,455;    1,682
1007,531;  315,192;   -1,818;   -0,227
1008,079;  279,556;   -2,273;    0,500
1008,627;  228,737;   -1,455;    0,409
1009,176;  252,101;    0,000;   -1,955
1009,724;  208,374;    1,091;    0,864
1010,273;  336,737;    1,273;    0,500
1010,821;  230,919;    0,091;    1,409
1011,369;  206,646;   -1,364;    1,318
1011,917;  216,283;   -1,364;   -0,591
1012,465;  281,556;    1,273;   -1,591
1013,013;  270,374;    2,091;   -1,682
1013,561;  373,646;    0,455;   -0,773
1014,109;  450,010;   -1,909;    1,682
1014,657;  335,374;    0,364;    0,591
1015,205;  250,919;    1,636;   -0,955
1015,753;  199,919;   -0,545;   -1,409
1016,301;  266,283;   -2,636;    3,045
1016,848;  338,465;   -1,273;    0,409
1017,396;  329,101;    2,545;    0,045
1017,944;  326,374;    1,182;    1,864
1018,491;  248,919;    0,273;    1,409
1019,039;  514,192;    0,455;    0,591
1019,586;  302,919;   -1,364;    1,682
1020,134;  289,374;    0,455;    1,500
1020,681;  359,192;    0,182;   -1,136
1021,228;  281,556;    2,909;   -2,227
1021,776;  263,192;    1,182;   -1,136
1022,323;  458,283;    0,455;    0,773
1022,870;  371,556;   -1,000;   -0,045
1023,417;  417,828;    2,636;    1,864
1023,964;  274,192;    2,636;    1,227
1024,511;  254,374;    1,000;    0,773
1025,058;  281,828;    3,182;   -0,045
1025,605;  245,374;   -2,273;    3,136
1026,152;  425,010;    1,727;   -0,591
1026,699;  302,556;    1,818;    1,318
1027,245;  284,919;   -0,091;    0,318
1027,792;  220,374;   -1,000;    1,409
1028,339;  422,919;    2,364;   -0,045
1028,885;  303,101;    1,000;   -0,227
1029,432;  262,374;   -0,091;    0,227
1029,978;  348,465;   -1,000;   -1,591
1030,525;  352,192;    1,000;    0,409
1031,071;  238,101;   -1,364;    1,136
1031,618;  489,556;    0,364;    1,682
1032,164;  339,646;   -0,091;    3,045
1032,710;  372,737;    1,636;   -1,500
1033,256;  340,374;   -0,636;   -0,136
1033,803;  219,556;   -0,545;    1,500
1034,349;  107,192;   -1,364;    0,136
1034,895;  149,556;    0,000;   -0,318
1035,441;  217,465;   -0,818;    0,318
1035,987;  255,374;   -2,364;   -0,682
1036,533;  315,283;   -1,455;   -0,955
1037,078;  490,919;    1,455;    1,682
1037,624;  367,101;    2,455;   -0,955
1038,170;  248,556;    0,455;   -0,318
1038,716;  315,646;    1,636;   -0,409
1039,261;  213,010;   -2,273;   -0,773
1039,807;  227,919;   -0,091;    3,409
1040,352;  249,646;   -1,909;   -0,318
1040,898;  240,556;   -1,545;   -0,682
1041,443;  184,192;   -1,455;   -2,591
1041,989;  453,283;    1,091;    1,591
1042,534;  275,283;   -0,364;    2,591
1043,079;  176,283;    2,909;    0,955
1043,625;  271,101;    1,818;    0,500
1044,170;  280,646;   -1,364;    1,045
1044,715;  448,556;    2,455;    0,955
1045,260;  363,465;    2,182;   -0,955
1045,805;  230,101;    1,182;   -0,591
1046,350;  202,192;    1,364;   -0,409
1046,895;  365,465;    2,909;    1,591
1047,440;  352,465;    5,364;    0,409
1047,985;  237,556;    2,818;   -0,955
1048,530;  220,919;    1,545;    1,227
1049,074;  262,828;    0,000;    0,318
1049,619;  215,556;   -1,364;    1,955
1050,164;  205,374;    0,455;    0,227
1050,708;  287,374;   -0,455;    0,045
1051,253;  486,737;    1,273;   -2,227
1051,797;  312,374;    0,818;   -1,318
1052,342;  174,737;   -1,182;    1,045
1052,886;  253,192;    0,364;   -1,409
1053,430;  166,737;   -1,364;    0,136
1053,975;  246,192;   -0,818;   -0,318
1054,519;  246,192;   -0,727;    3,227
1055,063;  299,737;    0,909;    1,318
1055,607;  291,828;   -0,182;    0,227
1056,151;  290,828;    2,909;    1,682
1056,695;  218,556;    2,273;   -1,136
1057,239;  211,465;   -1,727;   -0,682
1057,783;  250,828;    0,818;   -1,500
1058,327;  314,737;    0,000;    1,409
1058,871;  429,919;   -0,545;    1,318
1059,415;  326,010;   -0,818;   -0,045
1059,958;  451,465;    1,455;    2,591
1060,502;  244,465;   -1,000;   -0,773
1061,046;  171,737;    0,364;   -0,955
1061,589;  156,737;   -3,000;   -1,136
1062,133;  129,556;   -1,273;    1,864
1062,676;  171,465;    1,182;    0,864
1063,220;  200,465;    1,091;    0,500
1063,763;  226,374;    0,909;    1,136
1064,306;  244,828;   -0,909;    1,864
1064,849;  246,556;   -0,909;    0,591
1065,393;  229,283;    2,000;   -1,500
1065,936;  228,737;    0,182;   -0,409
1066,479;  162,192;   -1,455;    1,318
1067,022;  181,465;   -0,273;   -0,227
1067,565;  162,374;   -0,091;   -1,318
1068,108;  139,283;    0,727;   -0,591
1068,651;  125,010;   -0,636;    1,409
1069,194;  129,283;   -0,455;   -1,682
1069,736;  149,010;   -1,273;    0,955
1070,279;  128,919;   -1,364;   -0,500
1070,822;  196,646;   -2,000;   -0,318
1071,364;  305,646;   -0,364;    1,318
1071,907;  192,283;   -0,727;    3,227
1072,450;   78,283;    0,000;   -0,045
1072,992;  137,101;   -0,273;    3,136
1073,535;  197,192;    2,091;    2,136
1074,077;  135,646;   -0,727;    2,045
1074,619;  127,919;   -1,364;    0,591
1075,161;  155,646;   -1,091;    1,500
1075,704;  253,828;    1,545;    1,227
1076,246;  146,646;   -0,182;    0,682
1076,788;   92,374;   -0,364;    1,773
1077,330;   96,556;    1,273;    2,136
1077,872;  129,646;    0,909;    0,955
1078,414;  270,192;    2,727;    0,773
1078,956;  158,556;    1,273;   -0,227
1079,498;  264,828;    1,636;    0,318
1080,040;  157,374;    1,909;   -1,318
1080,581;  126,283;    1,636;   -0,318
1081,123;   78,374;    0,091;   -0,773
1081,665;   89,737;   -1,182;   -0,955
1082,206;  241,556;    1,364;   -0,500
1082,748;  168,192;    0,727;    2,045
1083,289;   99,646;   -2,000;    1,318
1083,831;   94,010;   -0,545;    0,227
1084,372;  133,646;    0,000;    0,591
1084,913;  130,919;    1,091;    0,864
1085,455;   92,737;   -1,909;   -2,045
1085,996;   83,556;   -2,273;    0,136
1086,537;  107,101;   -0,091;    0,864
1087,078;  120,828;   -0,909;   -2,136
1087,619;  164,919;   -1,273;    0,227
1088,160;  131,283;    0,000;    1,318
1088,701;  114,828;   -1,091;    0,682
1089,242;   99,101;    1,364;   -2,227
1089,783;  138,919;   -0,273;    1,409
1090,324;  122,101;    0,455;    0,682
1090,865;   84,101;    2,727;   -0,409
1091,405;   66,919;    0,727;    2,227
1091,946;  103,101;    0,182;   -0,955
1092,487;   65,192;    0,818;   -1,409
1093,027;  156,556;   -1,364;   -1,500
1093,568;   94,828;   -0,364;    1,227
1094,108;  121,010;    0,273;    1,773
1094,649;   97,737;   -1,182;    0,136
1095,189;   76,374;   -0,636;   -0,682
1095,729;   73,919;   -0,091;    0,955
1096,269;   66,374;    0,727;   -0,955
1096,810;  181,374;   -1,364;    0,500
1097,350;  136,192;    1,364;   -0,773
1097,890;  103,101;    0,364;    1,227
1098,430;  232,465;    2,364;    2,864
1098,970;  172,556;    2,182;    1,682
1099,510;   83,737;    0,545;   -2,318
1100,050;   74,374;    1,000;   -1,591
1100,589;   84,374;   -0,727;   -0,318
1101,129;  119,737;    0,818;   -0,955
1101,669;  182,192;    1,727;    2,136
1102,209;  127,828;   -0,091;    2,227
1102,748;   98,465;    0,000;    0,955
1103,288;  106,283;    1,273;   -1,227
1103,827;   96,374;    3,091;   -2,227
1104,367;   69,737;   -0,091;   -2,409
1104,906;   72,010;    1,364;   -1,136
1105,445;  103,556;    0,636;   -1,136
1105,985;   83,374;   -0,727;    1,500
1106,524;   94,556;   -1,727;   -0,682
1107,063;   86,919;   -2,727;    1,409
1107,602;   65,465;   -1,909;   -1,500
1108,141;   55,283;   -1,909;    1,500
1108,680;  102,101;   -3,455;   -0,591
1109,219;   81,010;   -0,909;   -0,500
1109,758;   73,192;    0,455;    0,682
1110,297;   71,646;    1,000;   -0,682
1110,836;   53,283;   -0,727;    0,955
1111,375;   74,374;   -2,545;    0,409
1111,913;  106,374;   -1,000;    0,773
1112,452;   84,010;   -0,273;    0,136
1112,991;   51,828;    1,091;    1,955
1113,529;   53,919;   -0,818;   -0,045
1114,068;   69,374;   -0,273;    2,955
1114,606;   47,010;   -0,364;   -0,955
1115,144;   94,465;   -1,273;    1,045
1115,683;   75,192;   -0,727;    0,318
1116,221;   96,828;   -0,455;   -0,864
1116,759;   62,010;    0,636;   -0,864
1117,297;  117,101;    0,000;    1,864
1117,836;   61,646;   -2,182;   -1,227
1118,374;   64,556;    0,182;   -0,682
1118,912;   70,919;    0,909;    2,682
1119,450;   67,283;    1,000;    0,864
1119,988;   67,465;    1,545;    2,136
1120,525;  279,010;    5,091;    3,318
1121,063;  140,465;    1,182;    1,864
1121,601;   65,828;   -0,909;   -1,227
1122,139;   49,192;   -0,727;   -2,045
1122,676;  129,465;   -0,727;    2,773
1123,214;  107,010;   -1,182;    4,409
1123,751;   49,465;    1,727;    2,227
1124,289;   73,646;   -0,091;   -0,409
1124,826;   50,192;    1,727;    0,227
1125,364;   23,828;    1,727;   -0,955
1125,901;  105,374;    1,182;    1,227
1126,438;  106,737;    0,818;    0,955
1126,975;   33,465;   -0,727;   -0,773
1127,513;   46,556;    0,273;    2,136
1128,050;   31,010;    1,636;   -0,682
1128,587;   54,919;    2,000;   -0,227
1129,124;   68,192;    0,091;    1,318
1129,661;   35,101;    0,273;    0,227
1130,198;   85,646;    1,636;    0,773
1130,734;   64,010;    0,182;    1,409
1131,271;   28,556;   -0,909;    0,864
1131,808;   79,556;    2,909;    3,045
1132,345;   42,828;    1,545;    0,318
1132,881;   14,646;   -1,545;   -1,864
1133,418;   51,465;    0,727;   -1,136
1133,954;   33,737;    2,455;   -2,682
1134,491;   57,556;    1,364;   -0,773
1135,027;   32,919;    2,364;    0,864
1135,564;   51,828;    0,273;    2,955
1136,100;   44,465;    0,364;    2,136
1136,636;   25,283;   -1,273;   -1,045
1137,172;   41,283;    0,000;   -1,045
1137,708;   26,101;   -1,364;   -1,045
1138,245;   22,010;    1,273;   -1,227
1138,781;   17,283;    1,091;   -3,318
1139,317;   32,556;    1,273;   -1,409
1139,852;   41,737;    3,091;    0,136
1140,388;   56,010;   -1,182;   -0,409
1140,924;   29,192;   -1,091;   -2,227
1141,460;   17,283;   -1,636;    0,136
1141,996;   10,556;   -1,364;    2,682
1142,531;   18,283;    1,364;    3,318
1143,067;   71,192;    1,182;    1,045
1143,602;   97,465;   -0,091;   -0,318
1144,138;   50,192;   -2,636;    1,045
1144,673;   19,374;   -1,455;    1,409
1145,209;   29,010;   -1,909;   -0,318
1145,744;   14,192;   -0,727;    0,864
1146,279;   41,192;    1,818;   -0,136
1146,815;   24,101;    1,545;   -2,682
1147,350;   33,828;   -1,364;    0,045
1147,885;   16,828;   -0,818;   -1,318
1148,420;   17,101;   -2,273;    0,773
1148,955;   16,828;   -1,727;    1,864
1149,490;   21,646;   -0,909;   -1,591
1150,025;   10,374;    0,455;   -1,773
1150,560;   39,283;    1,091;   -0,955
1151,094;   30,010;    1,455;   -0,591
1151,629;   27,737;    1,636;    0,864
1152,164;   20,919;    1,364;    1,318
1152,698;   14,465;   -0,182;   -0,136
1153,233;    4,010;    0,091;   -0,682
1153,767;   14,010;   -3,000;   -2,318
1154,302;   22,828;   -1,455;    1,773
1154,836;   18,465;   -0,455;   -2,136
1155,371;   27,283;   -1,364;    3,682
1155,905;   19,828;   -0,636;    1,682
1156,439;   18,737;   -0,636;   -0,500
1156,973;   25,101;    0,364;    0,318
1157,507;   12,828;   -0,364;    0,682
1158,042;   16,646;   -0,727;    1,045
1158,576;   22,646;    0,182;    1,773
1159,110;   21,101;   -0,818;    2,409
1159,643;   16,465;    0,636;   -0,045
1160,177;    7,465;   -1,545;    1,500

