
Integration time [ms]:   0,040
Averaging Nr. [scans]: 11
Smoothing Nr. [pixels]: 0
Data measured with spectrometer [name]: 7318044SP
Wave   ;Sample   ;Dark     ;Reference
[nm]   ;[counts] ;[counts] ;[counts] 

186,757;   41,368;   31,551;    1,318
187,357;   37,115;   22,551;    0,955
187,958;   24,488;   15,460;   -1,591
188,558;   26,635;    8,915;   -1,227
189,159;   14,214;    6,733;   -4,500
189,759;    7,119;    7,278;   -3,591
190,360;   10,186;    2,824;   -2,136
190,960;   11,975;    2,915;   -4,136
191,560;   16,260;    3,189;   -6,591
192,161;   58,899;    4,372;   -3,500
192,761;   32,387;    4,010;   -3,227
193,361;   18,610;    1,556;   -3,773
193,962;   28,450;    2,010;   -2,682
194,562;   10,587;    1,189;   -3,955
195,162;    8,653;   -2,448;   -2,227
195,762;   38,175;   -3,176;   -0,045
196,362;   21,571;    1,370;   -2,500
196,963;    6,980;    2,006;   -0,864
197,563;   16,365;    1,551;   -0,955
198,163;    7,278;    0,096;   -0,682
198,763;   11,324;    1,733;   -0,500
199,363;   16,149;    3,096;   -0,500
199,963;   12,416;    0,369;    0,409
200,563;   10,179;    2,823;   -1,409
201,163;    8,768;    3,277;   -0,227
201,763;   13,028;    3,732;    0,318
202,363;    9,505;    1,459;    1,500
202,963;   15,004;    1,459;    1,045
203,563;   28,976;    0,277;    0,500
204,162;   13,714;    2,096;   -1,864
204,762;   12,465;    0,550;    0,591
205,362;    9,055;    3,004;    1,955
205,962;   13,220;    3,096;    1,955
206,562;   13,759;    1,823;    2,318
207,161;   11,675;   -0,087;    0,318
207,761;   43,942;    1,277;    2,409
208,361;   18,264;   -0,268;    1,409
208,960;   18,566;    0,459;    1,500
209,560;   14,655;    1,277;    1,591
210,160;   24,254;    0,550;    1,864
210,759;   15,501;    4,186;    1,227
211,359;   13,967;    1,459;    1,045
211,958;   62,898;    1,277;    2,045
212,558;   58,155;    1,732;    1,864
213,157;   29,189;    1,822;    1,500
213,757;  103,801;    3,822;   -0,227
214,356;   45,669;    1,277;   -0,409
214,956;   97,681;    3,095;    0,409
215,555;   37,360;    2,095;    2,136
216,154;   22,088;   -2,723;   -0,591
216,754;   20,992;    0,277;    0,773
217,353;   32,481;   -0,268;   -1,045
217,952;    7,961;   -0,178;    0,318
218,552;   42,418;    1,368;   -0,773
219,151;   23,633;    0,277;    0,955
219,750;   20,685;    0,004;   -0,227
220,349;   18,794;   -0,451;    1,045
220,948;   64,377;   -1,360;    1,136
221,548;   30,311;    0,913;    1,227
222,147;   34,935;   -0,087;   -0,409
222,746;   95,096;   -0,451;   -0,955
223,345;   55,837;    0,731;    0,500
223,944;   62,149;   -0,451;    0,773
224,543;   69,296;    1,004;   -1,409
225,142;   52,616;    0,094;    0,136
225,741;   63,985;   -0,814;    1,045
226,340;   60,544;   -0,451;   -0,955
226,939;  115,566;   -0,996;   -0,136
227,538;   58,523;   -0,360;   -0,773
228,137;  131,089;   -0,814;    0,864
228,735;  102,359;   -0,541;    1,227
229,334;   39,445;   -0,905;   -0,227
229,933;  150,452;    0,459;    0,591
230,532;  150,693;    1,186;   -0,409
231,131;  202,581;    1,732;    0,318
231,729;  125,348;   -2,450;   -2,318
232,328;   87,248;   -0,723;   -1,500
232,927;  107,110;    1,004;   -0,500
233,525;   92,677;    3,640;    0,045
234,124;  120,692;    2,368;   -1,591
234,723;   78,895;    0,913;   -1,045
235,321;   73,482;    2,277;    0,136
235,920;   96,350;    1,186;   -1,227
236,518;  200,938;    3,459;    0,318
237,117;  101,586;    0,004;   -0,227
237,715;  120,538;    0,640;   -0,500
238,314;  149,246;   -0,087;   -2,318
238,912;  240,702;   -0,723;   -1,409
239,510;  168,964;    0,459;   -1,227
240,109;  250,362;    0,004;    3,773
240,707;  224,102;   -0,996;    1,227
241,305;  119,394;    0,550;    0,136
241,904;  185,576;   -0,178;   -2,045
242,502;  278,039;   -0,632;   -0,227
243,100;  196,532;   -0,087;   -0,955
243,698;  141,939;    0,732;    1,682
244,297;  170,629;   -0,632;    0,682
244,895;  166,840;   -0,269;   -2,318
245,493;  298,775;    2,186;   -0,591
246,091;  304,400;    1,368;   -1,318
246,689;  240,397;    1,004;    0,591
247,287;  220,303;    0,822;   -1,136
247,885;  191,538;   -1,451;    1,227
248,483;  166,572;    1,822;   -0,500
249,081;  235,406;    0,185;    1,591
249,679;  258,305;   -0,178;    1,682
250,277;  160,701;   -1,723;    0,864
250,875;  262,353;   -1,087;   -1,045
251,473;  179,044;   -1,178;    0,500
252,071;  262,209;    1,459;    1,045
252,669;  198,058;   -1,814;    0,318
253,267;  152,876;   -0,087;    0,773
253,864;  198,394;   -0,360;    0,682
254,462;  315,621;    1,640;    1,591
255,060;  158,699;   -0,269;    1,318
255,658;  157,876;    0,822;   -0,136
256,255;  207,391;    0,186;   -2,045
256,853;  248,175;   -0,269;    1,409
257,451;  218,861;    0,822;    1,864
258,048;  547,938;    1,822;    1,864
258,646;  323,891;    1,731;   -1,045
259,243;  403,084;   -0,087;    2,227
259,841;  307,605;   -0,814;    0,318
260,438;  186,904;   -0,087;    0,864
261,036;  279,633;   -1,905;    1,409
261,633;  190,700;   -0,087;    2,227
262,231;  161,596;    2,731;   -0,045
262,828;  162,432;   -0,905;    1,136
263,425;  210,297;    0,913;   -0,591
264,023;  213,971;    0,186;    0,045
264,620;  332,795;   -0,360;   -0,318
265,217;  431,879;   -2,087;    3,136
265,815;  220,583;   -1,905;    2,136
266,412;  316,248;    0,731;    0,136
267,009;  327,586;   -1,451;    0,773
267,606;  390,982;    0,822;   -0,955
268,203;  252,372;   -0,269;   -0,591
268,801;  272,783;    1,731;    0,591
269,398;  199,729;   -0,360;    2,500
269,995;  326,251;    0,277;    1,591
270,592;  285,537;   -0,632;   -0,500
271,189;  200,002;    0,186;    0,409
271,786;  178,573;   -0,632;    1,227
272,383;  382,820;   -1,087;    0,227
272,980;  265,317;    0,277;    0,318
273,577;  222,868;    0,004;    1,227
274,174;  203,880;    0,822;    2,591
274,771;  318,603;   -0,814;   -0,773
275,367;  635,593;    2,277;    1,409
275,964;  467,627;    0,731;   -0,500
276,561;  294,248;    1,549;   -1,045
277,158;  217,396;    0,095;   -1,773
277,755;  421,770;    2,185;    0,409
278,351;  338,979;   -0,451;   -1,500
278,948;  388,312;   -0,815;    0,045
279,545;  341,644;   -1,360;    2,318
280,141;  490,305;   -1,723;   -2,045
280,738;  459,507;   -0,451;   -0,136
281,334;  284,092;   -1,633;    0,591
281,931;  299,543;   -0,087;   -1,318
282,528;  388,258;    0,822;   -0,500
283,124;  450,985;   -1,087;   -0,500
283,721;  453,351;   -0,451;    1,409
284,317;  324,093;    0,185;    2,500
284,913;  475,446;   -1,360;    0,591
285,510;  683,992;    0,640;   -0,318
286,106;  521,138;   -2,269;   -0,955
286,703;  355,939;   -0,360;    1,955
287,299;  306,332;   -1,451;   -0,591
287,895;  285,068;    0,822;   -1,045
288,491;  263,638;    0,186;    2,136
289,088;  373,752;   -2,360;    2,409
289,684;  414,876;   -1,723;    1,500
290,280;  548,206;    0,368;    0,682
290,876;  502,064;    1,822;    5,500
291,472;  417,579;    1,276;    2,227
292,068;  431,961;    1,367;    0,227
292,665;  329,241;    2,095;    0,773
293,261;  245,735;    0,276;    2,136
293,857;  413,746;    2,913;    2,136
294,453;  331,904;    3,550;    0,955
295,049;  528,486;   -0,268;    1,955
295,644;  377,651;    0,095;    0,136
296,240;  255,241;   -0,905;   -0,136
296,836;  355,273;   -0,995;    0,318
297,432;  469,590;    1,096;   -0,500
298,028;  501,319;    0,732;    0,773
298,624;  376,281;    1,459;    1,864
299,220;  351,075;    2,368;    0,591
299,815;  345,108;    1,005;   -0,409
300,411;  435,486;    0,914;    1,773
301,007;  528,311;    1,368;    0,227
301,602;  379,460;   -0,541;   -2,318
302,198;  495,466;    0,732;   -0,773
302,794;  357,975;    1,187;   -0,500
303,389;  303,074;   -1,177;    1,045
303,985;  346,263;    0,550;    1,409
304,580;  466,881;    1,459;    1,591
305,176;  381,304;   -3,086;    0,136
305,771;  273,147;   -1,268;   -1,227
306,367;  624,255;    4,095;    0,136
306,962;  407,914;    0,641;    1,500
307,558;  458,912;   -0,450;    0,136
308,153;  508,306;    1,095;   -1,136
308,748;  317,653;   -0,814;    1,682
309,344;  661,165;   -0,632;   -1,318
309,939;  666,779;   -1,905;   -1,318
310,534;  386,972;   -0,086;   -1,682
311,130;  358,476;    0,459;   -2,500
311,725;  323,042;    1,004;   -0,500
312,320;  365,555;    2,459;    0,045
312,915;  459,429;    1,459;   -1,045
313,510;  651,137;    1,550;   -0,500
314,105;  385,594;    1,096;    1,409
314,700;  266,616;   -3,086;   -1,045
315,295;  351,881;   -0,904;    0,045
315,890;  303,545;    1,277;    0,864
316,485;  399,866;   -0,359;   -0,318
317,080;  303,829;   -3,086;    1,591
317,675;  599,921;    2,005;   -0,682
318,270;  793,207;    5,550;    3,318
318,865;  687,931;    3,278;    3,045
319,460;  529,368;   -0,904;    0,591
320,055;  370,361;   -0,541;   -1,227
320,650;  373,438;   -1,995;   -0,591
321,244;  384,102;   -0,177;   -1,409
321,839;  395,896;   -1,541;   -0,227
322,434;  451,191;   -1,086;   -1,591
323,029;  373,766;    1,732;    1,591
323,623;  337,653;    1,550;    0,773
324,218;  515,202;    2,368;    1,409
324,812;  446,068;    1,096;    1,591
325,407;  450,731;   -0,814;    2,045
326,002;  567,100;    0,277;   -0,409
326,596;  515,517;    0,914;    1,318
327,191;  356,359;    0,823;   -1,045
327,785;  350,971;   -0,813;   -0,227
328,379;  363,360;    1,368;    0,136
328,974;  418,724;    0,914;   -3,955
329,568;  432,981;    0,186;   -2,409
330,163;  501,045;    2,096;    1,045
330,757;  344,964;    2,459;    1,591
331,351;  297,299;    0,459;    0,682
331,945;  292,518;    0,914;    1,409
332,540;  428,575;   -1,723;   -0,591
333,134;  418,877;   -1,086;    0,773
333,728;  416,301;    0,005;    0,318
334,322;  311,446;   -1,177;   -0,864
334,916;  297,633;    0,277;    0,955
335,510;  468,567;   -0,450;   -0,136
336,105;  455,995;   -1,086;    1,591
336,699;  349,855;   -1,086;    0,591
337,293;  390,627;   -1,723;    0,318
337,887;  331,738;   -2,723;    1,955
338,481;  466,027;    0,459;    0,591
339,074;  559,631;   -0,359;    2,682
339,668;  532,344;   -1,632;    1,227
340,262; 1064,063;    1,732;    3,227
340,856;  685,659;    1,822;   -0,682
341,450;  377,773;    1,004;    1,864
342,044;  428,172;    1,459;    0,136
342,637;  553,726;    0,913;   -2,136
343,231;  536,772;   -2,360;    0,682
343,825;  431,489;   -1,086;   -0,591
344,419;  408,534;   -1,995;    0,500
345,012;  917,420;    2,459;    4,045
345,606;  723,676;    4,641;    1,591
346,199;  421,460;   -1,813;   -0,227
346,793;  551,355;    1,914;    2,045
347,386;  351,429;   -0,813;   -1,136
347,980;  258,778;   -0,268;   -0,045
348,573;  368,098;    2,278;    0,409
349,167;  646,686;    5,278;    4,773
349,760;  522,510;    2,914;    2,682
350,354;  482,386;   -0,813;    1,136
350,947;  525,534;    1,096;    1,682
351,540;  398,075;   -0,358;   -1,409
352,134;  279,148;    1,096;    1,136
352,727;  302,219;   -0,086;    1,136
353,320;  319,707;    0,005;    0,591
353,913;  264,815;   -1,995;    1,864
354,507;  454,010;    0,823;   -1,227
355,100;  329,449;    0,460;    0,864
355,693;  731,986;    2,005;    2,409
356,286;  498,054;    0,823;    2,773
356,879;  357,425;   -0,722;    1,227
357,472;  351,524;   -0,904;    1,500
358,065;  397,754;   -0,722;    2,500
358,658;  257,058;   -0,540;    2,318
359,251;  228,336;   -1,631;   -0,591
359,844;  413,837;   -1,904;   -1,136
360,437;  486,544;   -2,995;    0,045
361,030;  324,245;    1,369;   -0,682
361,623;  338,719;    2,824;    0,318
362,215;  562,837;   -0,086;    2,045
362,808;  417,853;   -2,358;   -1,682
363,401;  342,151;   -2,449;    0,136
363,994;  560,036;   -0,631;   -1,500
364,586;  349,414;    0,824;   -1,500
365,179;  302,912;   -0,449;   -1,136
365,772;  174,456;   -1,995;    2,045
366,364;  322,121;    1,915;   -3,227
366,957;  375,181;    2,279;   -0,045
367,549;  319,513;    2,188;   -0,864
368,142;  337,992;    1,825;   -1,500
368,734;  298,678;    0,734;   -2,136
369,327;  225,354;    1,643;   -0,500
369,919;  270,084;   -1,538;    0,409
370,512;  292,048;   -1,083;   -0,500
371,104;  562,999;   -0,901;    1,591
371,696;  582,001;    1,191;   -0,955
372,289;  431,650;    0,373;    1,136
372,881;  382,530;   -2,080;    1,318
373,473;  272,919;   -2,170;    1,136
374,066;  376,909;   -0,169;    0,500
374,658;  341,120;    0,378;    1,136
375,250;  274,814;    0,653;   -1,409
375,842;  337,613;    0,473;   -0,045
376,434;  294,641;   -0,435;   -0,409
377,026;  272,750;    0,204;   -2,500
377,618;  331,707;   -0,158;   -0,682
378,210;  270,379;   -0,338;   -1,955
378,802;  262,863;    0,754;   -0,591
379,394;  655,333;    1,846;    0,682
379,986;  415,071;    1,393;   -0,955
380,578;  318,995;   -0,153;    0,773
381,170;  567,982;   -0,972;    0,045
381,762;  457,871;    0,755;    1,409
382,354;  407,629;   -0,065;   -1,318
382,945;  317,487;   -2,976;    0,318
383,537;  262,306;   -2,705;   -1,955
384,129;  250,647;   -2,160;   -1,136
384,721;  362,616;   -0,252;    0,955
385,312;  305,994;   -0,161;   -0,955
385,904;  401,549;   -2,706;    1,591
386,496;  325,186;   -0,979;    1,045
387,087;  470,387;    1,022;    2,500
387,679;  406,855;   -1,160;    0,045
388,270;  384,248;    2,840;    2,045
388,862;  359,019;    1,295;   -0,318
389,453;  344,356;   -0,887;    1,045
390,045;  349,355;   -0,705;   -2,682
390,636;  241,282;    0,204;   -0,591
391,227;  309,100;   -0,523;   -0,045
391,819;  287,145;    0,204;    0,773
392,410;  543,845;    1,022;    0,045
393,001;  351,399;   -0,979;   -1,591
393,593;  417,076;    1,930;   -0,045
394,184;  466,404;    1,385;   -0,409
394,775;  340,226;    1,839;    2,136
395,366;  265,674;    1,385;    0,773
395,957;  466,306;    0,113;    0,136
396,548;  347,466;   -0,342;    2,682
397,139;  474,814;   -2,433;    0,591
397,730;  388,577;   -1,888;    0,955
398,321;  396,732;   -1,252;    0,955
398,912;  324,845;   -0,615;    0,136
399,503;  321,568;   -3,524;   -1,409
400,094;  383,793;    0,294;    1,682
400,685;  373,904;   -0,433;    0,045
401,276;  314,974;    0,930;   -0,955
401,867;  297,115;   -0,888;    0,773
402,458;  251,877;   -2,251;   -2,318
403,048;  413,316;    1,112;    0,591
403,639;  352,779;    0,840;    0,864
404,230;  467,504;    2,476;    0,318
404,821;  540,023;   -0,615;    0,045
405,411;  433,617;    1,203;   -2,591
406,002;  340,413;   -1,252;   -1,136
406,592;  576,116;    2,294;    0,045
407,183;  420,114;    0,566;   -1,500
407,774;  400,806;    3,475;   -0,136
408,364;  356,872;    0,930;    0,409
408,954;  487,264;    0,384;    1,227
409,545;  488,710;    1,021;    1,045
410,135;  427,512;    1,293;    0,500
410,726;  380,192;    1,838;    0,318
411,316;  584,822;    0,111;    0,773
411,906;  403,518;   -0,253;   -0,409
412,497;  414,057;   -1,070;   -0,045
413,087;  349,882;   -1,980;   -0,227
413,677;  277,374;   -0,707;    3,864
414,267;  270,090;    0,656;    1,409
414,857;  243,288;   -2,980;    4,227
415,448;  252,532;    0,839;    0,500
416,038;  294,819;    0,020;   -0,591
416,628;  346,457;   -0,889;    0,409
417,218;  413,039;    0,565;    3,318
417,808;  575,328;    0,202;   -0,409
418,398;  435,059;    0,020;    2,682
418,988;  308,253;    2,020;    0,591
419,578;  413,935;   -0,707;    1,409
420,168;  351,342;   -1,343;   -0,955
420,757;  520,624;   -1,343;   -1,500
421,347;  404,948;    0,111;   -0,227
421,937;  362,941;    2,292;    1,409
422,527;  511,612;    0,838;   -0,773
423,116;  668,784;   -0,253;   -0,045
423,706;  349,091;   -1,889;    0,318
424,296;  300,813;    1,384;    0,682
424,885;  460,358;   -0,071;   -3,045
425,475;  426,853;    1,474;   -2,864
426,065;  294,757;   -0,980;   -0,318
426,654;  271,050;   -0,435;   -0,318
427,244;  591,137;    0,020;    1,409
427,833;  568,209;    1,383;   -0,500
428,423;  409,656;   -0,526;    1,136
429,012;  407,001;   -0,344;   -1,136
429,601;  553,948;   -1,344;    0,136
430,191;  426,971;    1,292;    4,318
430,780;  313,388;   -0,344;   -0,409
431,369;  541,769;    0,746;   -0,045
431,959;  412,783;   -1,254;    0,500
432,548;  337,792;   -1,163;   -0,045
433,137;  259,915;   -1,254;   -1,318
433,726;  358,982;    0,292;    0,500
434,315;  386,914;   -0,526;    2,409
434,905;  514,931;   -1,254;    1,409
435,494;  523,606;    0,746;    0,955
436,083;  350,267;   -0,981;   -0,955
436,672;  459,299;    0,110;    0,500
437,261;  392,993;    0,292;   -1,955
437,850;  686,329;    1,383;    0,682
438,439;  740,427;    3,291;    1,955
439,027;  869,630;    3,655;    1,773
439,616;  792,866;    2,927;    1,227
440,205;  525,542;    0,200;   -2,136
440,794;  453,698;    2,109;   -0,045
441,383;  358,582;   -1,346;   -0,591
441,971;  315,844;   -2,436;    0,591
442,560;  337,181;    0,563;   -1,773
443,149;  201,116;    0,379;   -1,318
443,737;  290,476;   -0,074;   -2,318
444,326;  314,735;    0,018;    0,318
444,915;  391,722;   -1,982;    0,864
445,503;  404,329;   -2,891;   -0,318
446,092;  715,533;    0,382;    2,136
446,680;  632,118;    0,382;    0,318
447,269;  534,505;   -0,346;   -0,318
447,857;  498,376;    0,018;   -1,773
448,445;  436,032;    0,563;    1,318
449,034;  367,653;   -1,528;   -1,136
449,622;  365,474;   -1,073;    3,500
450,210;  743,589;    2,017;    2,227
450,799;  635,880;    0,290;   -0,591
451,387;  562,630;    1,381;   -0,591
451,975;  546,419;    2,654;    0,864
452,563;  653,370;    3,472;    2,318
453,151;  408,265;   -0,528;   -1,227
453,739;  478,010;   -1,347;    0,136
454,328;  628,429;    2,381;   -2,136
454,916;  534,018;    2,562;   -0,136
455,504;  545,070;    1,017;    1,227
456,092;  400,672;    0,017;   -1,591
456,679;  342,952;    1,472;    0,682
457,267;  893,824;    4,017;    1,045
457,855;  468,855;    1,017;    1,409
458,443;  269,282;   -0,165;    1,682
459,031;  519,242;    0,108;    2,409
459,619;  462,025;   -1,801;    2,864
460,206;  321,414;    0,835;    2,045
460,794;  327,270;   -2,983;   -0,227
461,382;  403,533;   -0,529;   -0,864
461,970;  388,895;    1,198;    1,864
462,557;  288,981;   -0,711;   -0,682
463,145;  475,042;   -3,165;   -1,682
463,732;  778,491;    2,016;   -1,045
464,320;  477,919;   -0,075;   -3,045
464,907;  674,531;    2,743;   -0,773
465,495;  554,021;    0,743;   -1,227
466,082;  439,185;   -1,984;   -0,045
466,670;  466,650;   -2,529;    1,227
467,257;  316,404;   -1,711;    2,045
467,844;  477,247;   -0,075;    0,045
468,432;  438,531;    0,834;    3,500
469,019;  365,787;    0,925;   -1,773
469,606;  477,561;    0,470;    3,682
470,193;  519,838;   -1,439;    0,227
470,780;  468,760;   -2,075;    0,864
471,368;  360,627;   -1,257;   -0,773
471,955;  507,603;    1,379;   -0,682
472,542;  453,310;    0,652;   -1,136
473,129;  287,527;   -0,166;    0,136
473,716;  305,053;    1,470;    0,591
474,303;  352,149;    0,652;   -0,864
474,890;  365,730;   -1,439;   -0,500
475,477;  498,309;   -1,621;    0,409
476,064;  366,023;    1,106;   -1,591
476,650;  529,954;    0,288;    0,318
477,237;  420,227;   -0,258;    0,955
477,824;  388,789;   -1,076;    0,864
478,411;  250,778;   -1,894;   -0,318
478,997;  244,021;    0,560;   -0,773
479,584;  172,373;    1,196;   -0,409
480,171;  454,068;   -0,440;   -0,773
480,757;  547,141;    2,651;    0,773
481,344;  372,709;    0,469;    0,409
481,931;  236,833;    1,105;    1,045
482,517;  454,106;   -1,258;    0,318
483,104;  597,372;    1,106;    2,864
483,690;  424,926;   -1,804;    0,045
484,276;  386,531;   -0,895;    0,227
484,863;  719,769;    2,469;    1,136
485,449;  482,579;   -0,077;    0,318
486,035;  414,863;   -1,986;   -0,136
486,622;  577,898;   -0,895;    0,045
487,208;  446,662;    1,378;    1,500
487,794;  309,804;    0,741;    0,318
488,380;  308,462;    0,105;   -1,409
488,967;  329,111;   -1,168;   -0,409
489,553;  348,978;   -1,895;   -1,409
490,139;  485,074;    1,559;    0,773
490,725;  337,814;    0,741;   -0,227
491,311;  406,982;    3,287;    3,045
491,897;  341,535;   -0,986;    1,500
492,483;  332,467;    0,105;    1,227
493,069;  950,636;    3,923;    0,864
493,655;  544,051;    1,650;    0,682
494,241;  362,219;    1,377;   -0,955
494,826;  401,521;    0,287;   -1,045
495,412;  505,340;    2,559;   -0,682
495,998;  348,840;   -0,805;   -0,318
496,584;  438,442;    0,377;    1,045
497,169;  450,016;    1,014;   -0,682
497,755;  349,384;    0,650;    1,227
498,341;  580,923;    0,559;    0,318
498,926;  752,692;    1,832;    1,955
499,512;  369,994;    1,286;    2,955
500,097;  373,813;    0,195;   -0,318
500,683;  401,690;   -0,350;    2,136
501,268;  312,878;   -0,169;   -0,955
501,854;  340,363;   -0,169;    1,227
502,439;  312,893;   -0,624;   -1,773
503,024;  393,566;    0,195;    0,500
503,610;  429,013;   -0,078;   -0,682
504,195;  325,134;    0,558;    1,955
504,780;  456,707;    2,922;    1,227
505,366;  582,418;    3,013;    2,864
505,951;  481,595;    0,740;    1,045
506,536;  366,307;   -3,260;   -3,682
507,121;  438,912;    0,285;   -0,318
507,706;  362,920;    2,376;    1,045
508,291;  291,234;    2,649;    1,136
508,876;  297,018;   -0,988;    2,591
509,461;  376,962;   -0,169;   -0,773
510,046;  429,861;    0,194;    0,318
510,631;  423,452;   -0,351;   -0,773
511,216;  314,670;    2,467;   -0,500
511,801;  398,950;   -0,442;    2,591
512,386;  430,381;    0,740;    0,500
512,971;  441,092;   -2,988;    0,955
513,555;  499,314;   -0,897;   -1,500
514,140;  433,697;   -0,442;   -3,136
514,725;  571,418;   -0,715;   -1,136
515,309;  451,311;   -0,533;    0,318
515,894;  324,762;   -0,624;   -2,227
516,479;  363,788;   -0,624;   -0,955
517,063;  370,310;    0,376;    1,227
517,648;  311,593;    1,012;   -1,136
518,232;  283,179;   -0,261;   -1,409
518,817;  382,002;   -0,079;    1,682
519,401;  522,894;    2,194;    0,591
519,985;  477,236;    1,103;    1,136
520,570;  314,922;    0,830;   -1,955
521,154;  434,867;    2,102;    0,591
521,738;  619,942;   -2,352;    2,409
522,323;  430,578;   -0,170;    1,682
522,907;  419,024;    0,466;   -0,136
523,491;  318,032;    0,557;    0,955
524,075;  284,491;    2,284;    0,591
524,659;  489,355;    1,466;    0,591
525,243;  430,549;    1,739;    0,409
525,827;  363,583;    0,648;   -0,045
526,411;  368,265;   -1,989;   -0,136
526,995;  466,836;   -0,352;    1,409
527,579;  526,025;   -0,443;   -1,045
528,163;  464,160;    0,375;   -1,500
528,747;  559,783;    2,466;   -0,773
529,331;  498,134;   -0,080;   -1,409
529,915;  336,893;    1,738;    0,955
530,499;  427,438;   -0,807;    1,227
531,082;  584,656;   -0,534;    1,591
531,666;  661,412;    1,374;    0,773
532,250;  540,151;    1,284;    2,682
532,833;  645,034;    0,920;    2,773
533,417;  479,313;   -1,807;    0,864
534,001;  606,637;    1,647;   -0,318
534,584;  520,512;    0,374;    0,500
535,168;  339,143;    0,465;    1,409
535,751;  688,143;    0,647;    0,045
536,334;  436,076;   -0,898;   -0,409
536,918;  282,705;    0,011;    1,591
537,501;  299,651;   -0,899;    1,318
538,085;  346,215;   -0,444;    1,045
538,668;  430,402;    0,829;    2,409
539,251;  705,679;    1,829;    3,773
539,834;  414,123;    0,101;    0,773
540,418;  545,562;   -1,990;    4,318
541,001;  720,631;   -0,990;    1,773
541,584;  494,028;    2,101;    2,227
542,167;  596,301;    1,374;    2,955
542,750;  420,871;    1,919;   -0,773
543,333;  298,413;    0,555;    2,136
543,916;  524,082;    0,192;    2,500
544,499;  452,653;   -1,354;    0,227
545,082;  528,297;    1,374;    3,591
545,665;  440,186;    1,919;    1,500
546,248;  566,049;    1,010;   -0,318
546,830;  543,308;   -0,445;    1,955
547,413;  496,641;    1,010;   -0,773
547,996;  468,129;    0,555;    0,500
548,579;  433,173;    0,919;    0,955
549,161;  662,817;    1,828;    2,682
549,744;  544,770;   -0,809;    0,409
550,326;  396,776;   -0,809;   -1,136
550,909;  860,721;    2,737;    0,591
551,492;  509,305;   -0,263;    0,227
552,074;  642,925;   -0,173;   -1,318
552,657;  665,654;    2,373;    0,045
553,239;  529,395;   -0,173;   -0,773
553,821;  398,887;   -1,082;    1,045
554,404;  651,923;    1,282;    1,136
554,986;  754,501;    0,464;    1,045
555,568;  593,696;    1,191;   -0,955
556,151;  799,337;    1,191;   -0,227
556,733;  478,579;   -0,264;   -0,864
557,315;  506,391;    0,100;    0,500
557,897;  374,470;    0,554;   -0,500
558,479;  381,568;   -1,991;    1,318
559,061;  475,102;   -0,719;   -0,864
559,643;  523,609;   -0,264;    0,045
560,225;  560,612;    1,645;    2,864
560,807;  411,246;    0,918;    0,318
561,389;  396,715;    0,554;    2,318
561,971;  486,726;    0,463;    2,136
562,553;  402,106;   -1,628;    1,591
563,135;  488,917;   -0,537;    1,136
563,717;  883,459;    3,372;    1,136
564,298;  766,486;    3,645;   -0,045
564,880;  523,600;    0,645;   -1,409
565,462;  356,418;    0,645;    1,318
566,043;  482,422;   -0,446;    2,318
566,625;  795,874;    1,918;    1,227
567,207;  609,013;    1,099;    1,682
567,788;  467,844;   -1,264;    1,500
568,370;  464,274;    1,917;   -0,500
568,951;  466,226;    0,190;    0,227
569,533;  564,765;   -0,628;   -0,500
570,114;  577,538;   -0,446;    0,682
570,695;  612,187;   -0,174;   -1,318
571,277;  594,128;   -0,265;   -1,682
571,858;  800,011;    2,008;   -1,136
572,439;  637,703;    1,554;   -1,045
573,021;  676,754;    2,099;   -2,773
573,602;  789,720;   -1,265;    0,318
574,183;  738,663;   -2,083;    2,227
574,764;  677,654;   -1,629;    0,409
575,345;  879,319;    0,917;   -0,136
575,926;  701,435;   -0,356;    0,136
576,507;  789,626;    1,099;   -0,227
577,088;  738,807;    3,099;    1,682
577,669;  926,402;    0,735;    1,955
578,250; 1111,390;    0,644;   -1,045
578,831;  888,025;   -1,356;   -2,227
579,412;  869,225;   -0,810;    0,955
579,993;  848,323;    1,008;    0,227
580,573;  755,054;   -0,629;   -0,955
581,154;  911,860;    0,735;   -0,591
581,735;  924,399;    0,644;    0,773
582,315; 1074,490;   -0,629;    2,136
582,896;  866,745;   -0,174;    1,227
583,477;  704,081;    0,189;    1,227
584,057;  841,686;    0,553;    0,955
584,638;  973,323;    2,553;    2,318
585,218; 1215,408;   -0,538;    2,682
585,799; 1010,842;    0,281;   -0,227
586,379;  874,262;    0,372;    1,591
586,959;  845,846;    0,735;    0,318
587,540;  751,833;   -0,629;    2,227
588,120;  769,908;    1,007;   -0,045
588,700;  783,757;    2,553;    2,136
589,281;  959,870;    0,462;   -0,955
589,861;  819,342;    0,099;   -1,682
590,441;  672,239;    2,371;   -2,682
591,021;  770,139;   -0,265;   -2,591
591,601;  719,789;   -0,537;    0,500
592,181;  700,598;   -0,719;   -0,773
592,761;  605,139;    0,007;    1,409
593,341;  723,570;   -0,901;    0,045
593,921;  736,443;   -0,265;    1,591
594,501;  627,938;   -0,538;    1,318
595,081;  635,165;    0,917;   -0,318
595,661;  711,103;   -1,447;    0,955
596,240;  642,608;   -0,537;    0,136
596,820; 1065,922;    0,372;    1,955
597,400;  779,732;    2,008;    0,773
597,980;  672,133;    2,008;    1,045
598,559;  605,633;    2,735;   -0,227
599,139;  592,740;   -0,174;   -1,227
599,718;  592,104;   -0,174;   -0,409
600,298;  577,725;    0,735;    0,682
600,877; 1086,141;    2,917;    1,409
601,457;  789,001;    2,281;    1,136
602,036;  653,241;    0,190;    2,045
602,616;  707,494;    0,644;    1,682
603,195;  835,907;   -0,355;    3,500
603,774;  897,468;   -0,901;    2,045
604,354;  824,109;    0,826;   -0,500
604,933;  756,054;    0,463;    1,864
605,512;  855,479;    3,554;    0,591
606,091;  850,797;   -0,537;    3,773
606,671;  796,639;    0,281;    0,773
607,250;  980,553;    1,644;    3,136
607,829;  918,765;    2,372;    3,227
608,408;  754,427;    1,190;    2,591
608,987;  872,526;    1,281;    3,409
609,566;  687,651;   -1,265;   -2,500
610,145;  794,627;   -1,082;    0,682
610,723;  834,366;    4,372;    6,864
611,302;  744,048;   -0,446;    1,682
611,881; 1046,069;    5,008;   11,227
612,460;  738,712;    1,645;    3,955
613,039;  619,751;   -0,082;    2,045
613,617;  609,776;    1,736;    4,773
614,196;  631,622;    1,099;    1,227
614,775;  704,563;    1,009;    2,409
615,353;  761,442;    0,736;    0,864
615,932;  726,722;    0,100;    2,409
616,510;  702,560;    0,554;    0,591
617,089; 1232,910;    7,100;   17,591
617,667;  825,633;    2,372;    6,136
618,246;  574,784;   -1,537;    1,318
618,824;  651,521;   -3,355;   -0,955
619,402;  672,796;   -2,900;   -1,773
619,981;  737,125;   -0,173;   -1,045
620,559;  642,010;    0,009;    1,682
621,137;  659,479;   -0,718;    1,864
621,715;  563,764;   -1,173;   -0,682
622,293;  595,930;   -0,537;   -0,773
622,871;  604,482;   -0,718;    0,500
623,450;  546,421;    0,373;   -0,864
624,028;  748,099;    0,191;   -0,955
624,606;  703,979;   -1,718;    1,682
625,183;  511,305;   -1,536;   -1,136
625,761;  660,302;    1,009;    1,136
626,339;  962,446;    1,373;    2,591
626,917;  607,337;   -0,172;   -0,045
627,495;  541,073;   -0,354;    1,318
628,073;  669,034;   -0,263;    2,864
628,650;  699,370;    0,100;    2,136
629,228;  691,229;    0,373;    4,409
629,806;  504,830;    2,282;    1,136
630,383;  563,875;    1,464;   -0,318
630,961;  567,740;    2,555;   -0,955
631,539;  610,777;    2,464;    0,227
632,116; 1329,922;   11,373;   15,409
632,694;  941,425;    2,555;    6,500
633,271;  775,614;    0,828;    2,682
633,848;  887,742;    1,828;    2,045
634,426;  598,404;   -1,081;    1,773
635,003;  466,308;    1,101;   -0,409
635,580;  893,024;    1,192;    3,682
636,158;  758,189;    3,737;    1,227
636,735;  566,796;    0,555;   -0,500
637,312;  557,936;   -0,809;   -0,682
637,889;  557,390;   -4,354;   -0,682
638,466;  534,008;   -3,990;   -0,409
639,043;  594,114;    2,101;   -1,136
639,620;  506,928;   -2,262;   -0,955
640,197;  647,365;    1,100;    1,682
640,774;  467,554;   -0,172;    1,136
641,351;  539,833;    0,737;    1,136
641,928;  744,567;   -0,627;    1,409
642,505;  858,937;    0,828;   -0,500
643,082;  680,580;   -1,718;    1,227
643,658;  536,405;   -0,718;    1,500
644,235;  511,866;    1,191;    2,500
644,812;  715,327;    1,918;    0,773
645,388;  698,789;   -0,991;    1,409
645,965;  479,159;   -0,809;    1,682
646,542;  486,075;   -1,445;   -0,227
647,118;  878,718;    1,009;   -0,955
647,695;  661,997;   -0,263;    1,136
648,271;  468,458;   -0,536;    0,500
648,848;  643,647;    0,736;    2,227
649,424;  767,017;    0,827;    1,318
650,000;  595,296;   -0,354;   -1,045
650,577;  623,849;   -0,627;   -0,955
651,153;  622,492;   -1,809;    0,955
651,729;  565,589;    1,191;    0,864
652,305;  939,869;    0,645;    2,773
652,881;  899,784;   -0,082;    1,136
653,458; 1031,155;    1,100;    0,227
654,034; 1146,616;    0,282;    1,591
654,610; 1283,441;    0,554;    0,773
655,186; 1803,811;    0,645;    3,045
655,762; 1322,545;   -0,991;    0,409
656,338; 1299,642;    0,100;    0,136
656,913; 1386,104;   -0,082;    0,409
657,489; 1163,474;    0,827;   -0,318
658,065; 1267,662;   -0,173;   -1,591
658,641; 1310,487;   -0,900;   -0,864
659,217; 1211,039;   -0,991;    0,409
659,792; 1359,955;    0,645;   -0,409
660,368; 1156,689;   -2,173;   -0,682
660,944; 1191,332;   -2,082;    1,227
661,519; 1081,248;   -0,628;    0,409
662,095;  791,164;   -1,719;    0,591
662,670;  623,625;    1,281;   -0,136
663,246;  530,177;    1,009;   -0,409
663,821;  696,911;    0,281;    1,682
664,396;  646,008;    0,009;    1,864
664,972;  556,742;    0,009;   -0,500
665,547;  611,385;    1,372;    0,136
666,122;  594,301;   -1,082;    0,318
666,698;  792,217;   -0,173;    0,318
667,273;  560,133;   -0,173;    0,136
667,848;  595,412;    2,372;    1,500
668,423;  775,328;    2,190;    2,318
668,998;  614,334;    2,827;   -0,682
669,573;  571,796;   -3,264;   -1,500
670,148;  771,984;   -1,446;   -0,682
670,723;  544,809;   -1,810;    0,318
671,298;  840,725;    2,372;    1,045
671,873;  736,459;   -0,082;   -0,136
672,448;  723,920;    0,645;    0,136
673,023;  710,835;   -1,992;   -0,227
673,597;  813,388;    0,827;    2,318
674,172;  864,667;   -0,355;    0,318
674,747;  778,583;    0,372;   -1,045
675,321;  527,317;   -0,628;    3,318
675,896;  462,505;    0,645;    1,045
676,471;  690,512;    2,645;    1,591
677,045;  622,246;   -1,264;    0,682
677,620;  712,707;    0,190;    1,136
678,194;  538,714;   -2,628;    1,136
678,769;  618,902;   -1,083;   -0,318
679,343;  670,272;   -0,628;    1,773
679,917;  793,552;   -1,446;    1,955
680,492;  645,104;    0,826;    3,227
681,066;  682,110;    3,372;    0,409
681,640;  603,390;    1,463;   -0,318
682,214;  622,124;    0,735;    0,500
682,788;  632,494;   -1,356;   -0,773
683,363;  780,410;   -1,810;    1,682
683,937;  647,326;   -1,719;   -0,318
684,511;  680,878;    0,463;   -0,591
685,085;  690,430;   -1,356;    0,318
685,659;  595,436;   -2,538;    0,864
686,232;  849,625;   -0,356;   -0,318
686,806;  711,541;   -0,901;    0,409
687,380;  590,638;   -0,174;    0,591
687,954;  529,463;   -1,174;    1,136
688,528;  875,924;   -0,719;    1,955
689,101;  688,567;   -3,992;    1,045
689,675;  592,847;   -0,356;   -0,136
690,249;  847,762;   -0,719;    0,409
690,822;  838,315;    0,280;    0,318
691,396;  720,230;   -0,265;    1,227
691,969;  631,328;    1,280;    0,136
692,543;  521,880;   -0,447;   -1,955
693,116;  509,978;   -0,265;   -1,409
693,690;  604,439;    0,099;    0,500
694,263;  547,355;   -1,083;    2,955
694,836;  914,634;    1,371;    3,591
695,410;  790,641;   -0,265;    1,773
695,983;  810,011;    0,189;    0,591
696,556;  604,563;   -0,447;   -1,045
697,129;  505,842;   -0,356;    1,409
697,703;  749,849;   -1,629;    1,955
698,276;  633,128;    1,462;   -0,773
698,849;  799,771;    1,280;    1,409
699,422;  557,051;   -1,083;    0,591
699,995;  457,967;    0,007;    0,136
700,568;  601,882;   -0,629;    3,045
701,140;  621,798;   -2,811;    1,682
701,713;  792,077;   -0,174;    2,409
702,286;  682,902;   -0,538;    0,864
702,859;  763,000;   -0,902;   -0,591
703,432;  853,370;    0,825;    0,682
704,004;  727,922;    0,462;    0,318
704,577;  599,565;   -0,629;    0,136
705,150;  649,481;    0,189;    2,500
705,722;  710,851;   -0,356;   -3,227
706,295;  775,767;   -0,175;   -0,591
706,867;  652,410;   -0,175;    1,955
707,440;  750,417;   -1,720;   -0,409
708,012;  824,423;    0,462;    0,591
708,584;  735,157;    2,462;    0,227
709,157;  507,618;    1,825;   -0,591
709,729;  744,262;    2,280;    2,045
710,301;  590,905;    0,734;    0,045
710,874;  602,820;   -1,447;   -0,227
711,446;  493,736;    0,371;    0,864
712,018;  570,288;    0,098;    0,500
712,590;  512,658;   -1,993;    1,682
713,162;  806,392;    0,825;    1,318
713,734;  582,763;    1,825;   -2,045
714,306;  498,042;   -1,902;   -0,409
714,878;  562,867;    0,825;    0,864
715,450;  513,783;    0,643;    0,864
716,022;  525,335;    1,552;    1,318
716,593;  518,796;    0,189;    0,591
717,165;  565,712;   -3,175;   -1,227
717,737;  829,264;    0,280;    0,409
718,309;  604,452;    0,280;   -0,045
718,880;  523,004;   -0,539;   -1,409
719,452;  590,284;   -0,175;   -1,591
720,024;  694,290;    0,734;   -0,591
720,595;  584,933;   -2,902;    0,955
721,167;  566,031;    0,370;   -2,045
721,738;  701,310;   -0,812;   -1,045
722,309;  859,590;   -0,993;   -1,227
722,881;  585,051;   -1,357;    0,773
723,452;  662,421;   -2,630;    2,864
724,023;  673,246;   -0,721;    2,682
724,595;  738,980;    0,007;    0,682
725,166;  603,987;    0,007;   -0,409
725,737;  812,721;    1,734;    0,227
726,308;  595,273;   -0,266;    0,318
726,879;  504,007;   -1,630;    1,227
727,450;  681,741;    0,552;   -0,045
728,021;  605,747;    3,097;    0,682
728,592;  777,299;    0,734;    0,500
729,163;  878,670;    0,643;   -0,136
729,734;  851,676;    0,188;   -0,227
730,305;  700,501;    1,734;    0,136
730,876;  662,144;    0,188;    2,955
731,447;  990,424;    2,188;    2,682
732,017;  888,521;    1,097;    1,864
732,588;  675,437;    0,734;    1,227
733,159;  943,171;    0,643;   -1,045
733,729;  670,177;    0,006;    0,409
734,300;  837,366;    0,915;    0,864
734,870;  643,100;    3,461;    0,591
735,441;  632,743;    0,370;   -0,591
736,011;  622,386;    0,643;   -1,591
736,582;  628,211;   -0,812;    0,045
737,152;  761,854;   -1,721;   -2,045
737,722;  726,042;   -0,267;   -0,682
738,293;  567,776;   -1,358;    1,318
738,863;  756,965;    2,461;    2,318
739,433; 1030,880;    5,279;    0,318
740,003;  730,069;   -0,994;   -0,682
740,573;  866,803;    2,097;   -1,591
741,143;  732,355;   -1,085;    0,318
741,713;  632,362;    1,188;   -0,500
742,283;  703,186;    0,915;    1,591
742,853;  631,739;    1,915;    1,591
743,423;  452,382;    1,733;    0,045
743,993;  569,206;   -0,358;    1,500
744,563;  633,122;    0,097;   -0,864
745,133;  660,947;   -0,812;   -0,864
745,702;  527,772;   -0,267;    1,773
746,272;  755,597;   -0,176;    0,591
746,842;  781,694;   -1,358;   -0,591
747,411;  559,792;   -0,267;   -0,318
747,981;  449,071;    0,097;    0,500
748,551;  447,623;    2,278;   -1,045
749,120;  658,266;    0,642;   -0,227
749,690;  598,455;   -0,631;    2,409
750,259;  714,916;    1,369;    2,955
750,828;  783,468;    1,551;   -1,955
751,398;  541,293;    1,278;   -0,045
751,967; 1030,118;    2,187;    0,409
752,536;  671,579;   -0,813;   -0,227
753,105;  783,313;    0,096;    0,227
753,675;  619,956;    0,096;    1,773
754,244;  629,781;   -0,904;    3,591
754,813;  657,606;    0,551;    1,227
755,382;  618,158;    0,460;    0,955
755,951;  752,255;    1,551;    3,682
756,520;  872,535;   -0,085;    1,864
757,089;  976,996;    0,278;    0,500
757,658;  704,275;    1,733;    1,227
758,227;  532,100;    1,096;    0,318
758,795;  584,379;    1,187;    1,136
759,364;  600,477;   -0,086;   -0,591
759,933;  541,756;   -1,176;   -0,045
760,501;  475,672;    0,733;   -1,318
761,070;  644,133;   -2,813;   -1,409
761,639;  586,504;   -1,904;    1,318
762,207;  722,056;    1,551;   -0,955
762,776;  774,881;    0,369;    0,864
763,344;  626,705;   -0,995;    0,591
763,913;  425,621;   -0,722;    1,409
764,481;  964,901;    1,005;   -0,136
765,049;  957,634;   -1,358;    1,409
765,618;  867,368;   -0,086;    0,318
766,186;  680,193;    0,278;    0,136
766,754;  727,291;    0,005;    1,864
767,322;  603,843;   -1,995;    0,409
767,890;  558,031;   -0,722;   -1,773
768,459;  551,856;   -2,177;   -0,318
769,027;  782,317;    1,641;    3,409
769,595;  597,233;    3,278;    2,591
770,163;  701,785;    3,823;    2,955
770,730;  679,883;    0,732;   -0,136
771,298;  655,162;    0,187;   -1,409
771,866;  575,351;   -1,541;    4,955
772,434;  611,539;   -0,631;   -1,864
773,002;  820,910;    0,005;    0,682
773,569;  691,371;    0,914;    1,682
774,137;  817,014;   -0,268;   -0,045
774,705;  592,202;    0,278;   -0,136
775,272;  564,209;    0,641;    0,682
775,840;  589,034;   -0,177;    2,682
776,407;  711,222;    0,277;    1,955
776,975;  585,592;   -0,632;    0,318
777,542;  515,872;   -1,086;   -0,045
778,110;  556,151;   -1,268;   -0,045
778,677;  440,612;   -2,359;   -0,864
779,244;  520,346;    2,186;    1,045
779,812;  670,626;    1,823;    0,864
780,379;  763,996;    0,005;    1,136
780,946;  624,094;    1,005;   -0,773
781,513;  530,100;   -1,450;    0,318
782,080;  506,652;   -0,086;    2,864
782,647;  527,477;   -0,268;    3,045
783,214;  514,848;   -0,177;    3,864
783,781;  725,763;   -0,723;   -0,682
784,348;  659,861;   -0,632;    1,500
784,915;  441,049;   -3,177;    0,318
785,482;  676,965;    1,368;    2,591
786,049;  599,154;    0,186;   -0,591
786,615;  477,524;    0,277;   -0,955
787,182;  435,803;    0,186;   -0,682
787,749;  416,355;   -2,814;    1,409
788,315;  653,998;   -1,632;   -0,409
788,882;  528,550;    1,550;   -1,227
789,448;  826,103;    1,732;   -0,955
790,015;  593,200;    1,095;    3,227
790,581;  774,389;    1,459;    0,227
791,148;  592,213;    0,641;    1,045
791,714;  477,675;   -0,541;    3,136
792,280;  488,318;    0,186;    1,591
792,847;  426,961;    0,550;    2,500
793,413;  516,695;   -0,269;   -0,318
793,979;  748,792;    3,459;   -1,318
794,545; 1022,435;    4,459;    2,682
795,111;  889,805;    2,186;    1,318
795,678;  745,994;    0,731;   -1,682
796,244;  908,455;    3,368;    0,136
796,810;  752,553;    1,731;    0,773
797,375;  737,014;    0,549;   -2,136
797,941;  426,021;   -0,541;    0,591
798,507;  439,209;   -0,451;   -0,955
799,073;  478,579;   -0,360;    0,591
799,639;  467,677;   -2,632;    3,136
800,205;  426,047;    0,095;    2,682
800,770;  463,236;    0,640;    1,773
801,336;  481,970;    1,368;   -0,955
801,901; 1076,340;    4,549;    3,136
802,467;  721,619;   -0,542;    2,045
803,033;  505,808;   -0,087;    0,864
803,598;  505,087;    1,913;   -1,045
804,163;  505,730;    1,095;   -0,318
804,729;  610,282;   -0,178;    1,136
805,294;  506,471;    0,822;    2,227
805,859;  452,023;    0,731;   -0,409
806,425;  840,030;    1,186;    2,682
806,990;  819,854;    2,186;    4,318
807,555;  570,406;   -1,451;    2,591
808,120;  715,231;    0,822;   -0,409
808,685;  509,602;    0,185;   -2,500
809,250;  421,517;    0,004;   -0,500
809,815;  409,433;    1,913;    0,682
810,380;  538,985;   -0,269;    1,591
810,945;  726,174;   -1,087;    2,045
811,510;  546,089;    2,094;    1,591
812,075;  612,187;   -0,633;   -1,409
812,640;  847,830;    2,003;    1,409
813,204;  593,382;    0,822;   -0,227
813,769;  737,571;    2,094;   -0,045
814,334;  723,305;    0,458;    0,864
814,898;  452,857;    0,367;    0,591
815,463;  566,045;    1,276;   -0,773
816,027;  503,143;   -0,724;   -2,318
816,592;  421,149;    0,640;   -2,045
817,156;  604,156;    2,094;    1,136
817,721;  730,708;    4,276;    2,318
818,285;  456,715;    2,912;    1,500
818,849;  517,812;   -1,451;    1,682
819,414;  444,910;   -0,269;    2,955
819,978;  401,553;   -1,269;    1,773
820,542;  684,650;    2,003;    0,500
821,106;  507,657;   -0,815;    0,682
821,670;  736,573;   -0,815;    2,591
822,234;  510,670;   -0,270;    1,409
822,798;  399,495;    0,003;    0,500
823,362;  636,320;   -0,633;    4,227
823,926;  491,236;    0,094;    1,136
824,490;  680,243;   -0,997;   -0,682
825,054;  549,704;   -0,088;   -1,136
825,618;  442,529;   -1,542;   -1,500
826,181;  504,353;    0,458;   -1,318
826,745;  619,724;    1,367;   -1,045
827,309;  826,458;    1,185;    1,318
827,872;  697,010;    1,367;    0,955
828,436;  567,925;    1,185;   -0,773
828,999;  460,841;   -0,997;    1,227
829,563;  443,302;   -0,179;    1,136
830,126;  425,491;   -0,179;   -0,591
830,690;  543,498;   -1,997;    2,864
831,253;  461,595;   -0,543;    2,227
831,816;  511,693;   -1,906;    0,500
832,380;  472,063;    0,185;    0,864
832,943;  438,433;   -1,361;   -0,500
833,506;  449,622;    2,639;   -1,227
834,069;  593,174;    3,912;   -0,955
834,632;  441,271;    1,730;    1,318
835,195;  487,187;    1,003;    0,955
835,758;  420,194;   -0,997;    1,955
836,321;  449,655;    0,730;   -1,045
836,884;  411,116;   -0,725;   -0,955
837,447;  364,759;   -2,816;    1,773
838,010;  550,493;    0,366;    3,227
838,573;  542,500;   -1,179;    0,773
839,135;  396,870;   -1,361;   -0,955
839,698;  476,604;    1,275;    0,409
840,261;  420,883;    1,003;   -0,227
840,823;  375,890;   -0,543;    0,864
841,386;  359,079;   -0,452;   -2,409
841,948;  659,903;   -1,361;    1,773
842,511;  454,728;    0,912;    1,682
843,073;  653,917;    1,912;    0,227
843,636;  403,742;   -0,361;   -0,227
844,198;  631,112;    0,911;    0,591
844,760;  576,664;    1,093;    1,955
845,322;  377,489;    0,548;    1,136
845,885;  525,405;    0,730;    0,591
846,447;  456,684;   -1,998;    0,227
847,009;  793,145;    1,911;   -0,682
847,571;  503,152;    0,820;   -2,045
848,133;  443,431;   -1,089;   -1,864
848,695;  312,620;   -0,543;    1,409
849,257;  396,808;   -1,089;   -1,682
849,819;  546,178;   -0,998;   -0,409
850,381;  417,640;   -0,725;   -0,864
850,942;  485,010;    1,093;   -0,591
851,504;  557,289;    1,184;    0,227
852,066;  413,205;    1,275;   -1,591
852,628;  445,757;   -0,180;    1,955
853,189;  352,855;    1,638;    2,682
853,751;  361,043;   -0,907;    1,409
854,312;  521,686;   -0,453;   -1,682
854,874;  656,511;   -2,089;   -0,773
855,435;  454,336;   -0,907;   -1,682
855,997;  491,888;   -1,816;   -0,136
856,558;  617,986;    0,366;    1,773
857,119;  525,356;    0,820;    2,864
857,681;  363,272;    0,002;    0,318
858,242;  635,915;    1,911;   -2,136
858,803;  581,740;    0,456;   -0,773
859,364;  455,746;    0,184;   -4,773
859,925;  539,116;   -2,453;   -0,955
860,486;  418,578;   -0,453;   -0,955
861,047;  365,948;   -0,544;   -1,227
861,608;  418,591;   -1,089;   -0,773
862,169;  276,234;    0,638;   -0,045
862,730;  408,695;    0,456;    1,409
863,291;  458,793;   -0,635;   -0,500
863,852;  427,072;   -0,635;    1,955
864,412;  434,352;   -0,271;   -0,864
864,973;  664,267;   -0,089;    0,500
865,534;  775,547;   -1,726;    0,227
866,094;  557,826;    1,820;    0,227
866,655;  698,015;    1,274;    3,318
867,215;  503,021;    0,274;    0,136
867,776;  350,664;    0,547;   -0,136
868,336;  452,580;   -1,453;    0,136
868,897;  823,314;    2,638;    1,682
869,457;  611,684;    1,365;    0,318
870,017;  398,873;    0,547;   -1,227
870,578;  389,425;   -0,817;    0,773
871,138;  483,886;   -2,089;   -0,955
871,698;  400,802;   -0,817;   -1,318
872,258;  521,717;   -0,453;   -2,864
872,818;  665,360;    2,729;    0,045
873,378;  478,185;    0,638;    1,045
873,938;  467,828;    0,547;    0,500
874,498;  364,653;    0,274;   -1,955
875,058;  474,933;    2,183;    1,773
875,618;  470,939;    1,910;   -2,682
876,177;  506,128;    1,274;    0,136
876,737;  341,225;   -0,090;    1,955
877,297;  703,414;    0,183;    1,955
877,856;  633,329;   -0,362;    0,318
878,416;  400,245;    1,183;   -0,136
878,976;  363,888;   -1,817;    0,409
879,535;  400,531;    0,092;    3,136
880,095;  385,538;   -0,544;    0,045
880,654;  339,999;   -1,090;    1,318
881,213;  638,006;    2,456;    1,500
881,773;  475,649;    2,637;    2,682
882,332;  946,928;    3,365;    5,136
882,891;  458,662;    3,092;    2,136
883,451;  449,305;   -1,272;    1,682
884,010;  417,857;   -2,908;   -0,409
884,569;  345,137;   -0,999;   -0,045
885,128;  522,689;    2,819;   -1,864
885,687;  755,877;    4,455;    0,682
886,246;  927,975;    1,455;    2,136
886,805;  738,527;    2,455;    2,045
887,364;  397,534;   -0,999;   -0,500
887,922;  326,631;   -1,181;    0,045
888,481;  530,910;   -1,545;    0,591
889,040;  591,917;    1,183;    2,136
889,599;  470,651;    2,455;    1,409
890,157;  475,112;    1,455;    2,409
890,716;  409,119;   -0,090;    0,227
891,274;  533,762;    0,092;   -1,136
891,833;  587,769;    1,546;    0,864
892,391;  480,684;   -0,454;    0,500
892,950;  559,418;    1,819;   -0,773
893,508;  379,425;    0,455;   -0,409
894,067;  309,159;    0,637;    0,136
894,625;  404,802;   -0,636;   -1,500
895,183;  369,809;   -0,363;   -0,682
895,741;  633,088;    1,728;   -1,773
896,299;  430,367;   -0,545;   -2,409
896,858;  379,374;    0,819;   -1,591
897,416;  515,290;    2,728;   -1,318
897,974;  436,296;    1,819;    0,318
898,532;  857,849;    6,091;    2,682
899,089;  581,582;    2,091;   -0,682
899,647;  484,225;   -1,454;    1,318
900,205;  477,959;    1,182;    1,045
900,763;  459,511;   -0,454;    0,227
901,321;  414,882;    2,364;   -1,409
901,878;  264,616;   -1,000;   -0,773
902,436;  350,895;   -1,363;    1,318
902,994; 1005,811;    4,728;    3,682
903,551;  589,636;    0,728;    0,409
904,109;  456,006;    0,182;   -1,409
904,666;  423,740;    2,455;    1,045
905,224;  311,019;    0,182;   -0,409
905,781;  483,662;    0,727;   -0,318
906,338;  417,487;   -1,363;    1,045
906,895;  318,130;    0,637;    2,045
907,453;  571,591;    1,727;    1,136
908,010;  429,416;   -0,909;    0,409
908,567;  422,150;    1,273;    0,591
909,124;  282,066;    0,364;   -1,500
909,681;  350,800;   -2,909;    0,682
910,238;  370,443;    0,636;   -1,318
910,795;  274,904;   -0,273;   -1,136
911,352;  297,359;   -2,909;   -2,682
911,909;  344,177;   -1,364;   -0,864
912,466;  340,904;   -3,182;    1,500
913,022;  449,631;   -1,636;    0,500
913,579;  517,722;   -0,909;    2,045
914,136;  398,359;    1,636;    0,955
914,692;  394,449;    0,091;   -1,227
915,249;  427,086;    1,455;    0,409
915,806;  489,359;    0,182;    1,955
916,362;  396,722;    1,909;    1,864
916,918;  380,268;    2,000;    1,045
917,475;  490,449;   -1,182;    0,955
918,031;  347,995;    3,364;   -0,045
918,587;  418,449;   -0,909;   -0,318
919,144;  331,540;   -2,273;    0,227
919,700;  263,722;    1,727;    0,773
920,256;  273,177;    0,727;    0,045
920,812;  330,631;   -0,727;   -1,045
921,368;  296,449;   -1,727;   -1,045
921,924;  325,995;    0,182;   -0,136
922,480;  406,177;   -0,545;    1,227
923,036;  410,359;    1,273;    1,955
923,592;  312,268;    0,455;    0,318
924,148;  328,813;    0,455;   -0,955
924,704;  467,995;   -1,364;   -0,409
925,259;  291,995;   -0,273;    0,591
925,815;  297,359;    1,455;    0,500
926,371;  274,540;    2,909;    1,409
926,926;  418,449;    2,091;    0,591
927,482;  398,449;   -1,364;    0,773
928,037;  330,813;    0,909;    2,045
928,593;  493,904;    1,636;    1,045
929,148;  295,086;   -1,818;   -1,500
929,704;  364,086;   -1,455;   -0,500
930,259;  300,995;    0,091;   -0,136
930,814;  463,177;   -0,818;    1,955
931,369;  398,268;    1,091;   -0,773
931,925;  256,722;   -0,091;    0,136
932,480;  344,449;   -2,818;   -2,591
933,035;  636,540;    0,545;   -0,318
933,590;  545,268;    0,364;   -1,773
934,145;  261,449;   -1,364;   -0,318
934,700;  172,813;    0,455;   -0,591
935,255;  229,268;   -0,091;    0,045
935,809;  510,540;    3,182;    0,864
936,364;  244,722;   -0,455;   -0,136
936,919;  237,086;    0,455;   -1,773
937,474;  176,268;    1,455;    0,136
938,028;  188,904;   -1,636;    1,136
938,583;  515,540;    1,818;    4,682
939,138;  255,813;    2,091;    2,136
939,692;  158,540;    1,636;   -1,136
940,247;  200,631;   -0,727;   -1,045
940,801;  233,177;   -0,636;    0,227
941,355;  168,177;   -0,364;    2,591
941,910;  124,722;   -0,273;   -2,136
942,464;  144,177;   -0,818;   -0,318
943,018;  313,449;    1,000;   -0,227
943,572;  198,086;    2,545;   -0,682
944,126;  261,904;    0,091;   -0,409
944,681;  172,359;    3,091;    0,227
945,235;  124,722;    1,000;   -0,591
945,789;  112,995;    0,364;   -1,864
946,342;  295,722;    0,455;   -0,591
946,896;  143,449;   -2,273;    0,955
947,450;  120,722;    1,545;   -0,227
948,004;  287,540;    1,727;   -0,045
948,558;  170,722;    0,273;   -0,864
949,111;  169,359;   -0,273;   -0,318
949,665;  285,359;    1,636;   -0,682
950,219;  267,449;   -0,091;   -1,045
950,772;  206,268;   -1,909;    1,864
951,326;  195,086;    0,545;   -0,955
951,879;  165,268;    0,727;   -2,318
952,433;  249,359;    0,000;    2,227
952,986;  145,995;    2,909;    0,682
953,539;  121,813;   -0,273;    0,591
954,093;   93,995;    0,545;   -1,318
954,646;  167,722;    0,909;    1,318
955,199;  118,904;    0,000;   -0,500
955,752;  280,904;   -0,455;    1,773
956,305;  175,904;   -0,091;    2,955
956,858;  202,540;    0,818;   -0,318
957,411;  233,359;   -0,545;    2,136
957,964;  190,177;    1,364;    2,136
958,517;  135,631;   -1,545;    3,136
959,070;   99,995;   -0,455;    1,955
959,623;  280,177;    1,091;    1,500
960,176;  249,086;    1,727;    2,045
960,728;  215,177;   -2,727;    0,773
961,281;  168,813;    0,545;    0,500
961,834;  131,268;   -0,909;    0,864
962,386;  141,540;    1,727;    1,045
962,939;  126,722;    0,364;   -0,318
963,491;  152,631;    0,455;    1,136
964,043;  110,995;    1,182;    2,409
964,596;  217,359;   -1,000;    2,227
965,148;  159,177;   -1,000;    1,773
965,700;  110,359;    1,091;   -0,227
966,253;  214,449;   -0,636;    0,318
966,805;  181,904;   -2,273;    0,773
967,357;  138,086;    1,091;   -1,500
967,909;  208,995;    0,455;   -1,227
968,461;  143,177;    0,545;    3,136
969,013;  110,904;   -0,182;   -0,864
969,565;  214,268;   -0,455;   -1,136
970,117;  359,631;   -0,364;    1,045
970,669;  218,359;    0,182;   -0,136
971,220;   92,722;   -0,455;   -1,500
971,772;  143,540;   -0,636;   -0,318
972,324;  196,268;    0,091;   -0,500
972,876;  133,268;    0,818;   -0,045
973,427;  207,995;    1,909;   -1,045
973,979;  257,540;   -0,727;   -2,500
974,530;  142,359;    1,818;    1,318
975,082;  180,904;   -0,545;    1,682
975,633;  143,631;    1,091;    1,682
976,184;  161,449;    0,909;    0,773
976,736;  159,268;    0,091;    0,227
977,287;  182,631;   -0,909;   -0,500
977,838;  151,904;    0,909;   -0,318
978,389;  152,268;   -1,000;   -0,500
978,940;   79,268;    0,545;   -0,409
979,491;   83,722;    0,091;   -0,500
980,042;  136,813;    0,182;    3,045
980,593;  150,359;   -2,545;    0,227
981,144;  196,995;    2,545;   -0,500
981,695;  209,904;    1,455;    1,500
982,246;  177,995;   -0,273;    1,045
982,797;  104,631;   -1,727;    0,682
983,347;  192,449;    0,364;    0,591
983,898;  322,177;    3,091;    0,409
984,449;  300,995;    2,182;    0,773
984,999;  199,813;    1,455;   -1,136
985,550;  171,904;    0,182;   -0,318
986,100;   95,904;   -0,455;   -0,318
986,651;   88,540;   -0,818;    0,045
987,201;  105,722;   -1,000;   -0,591
987,751;  113,813;    0,818;    2,864
988,302;  133,359;    2,636;    1,500
988,852;  171,449;    0,455;   -1,136
989,402;  200,359;    0,091;    0,682
989,952;  220,813;   -2,182;    0,864
990,502;  120,268;   -0,091;    0,682
991,052;   68,177;   -0,727;    0,045
991,602;  101,449;   -2,909;    1,318
992,152;  124,995;    0,455;    0,682
992,702;  152,359;    1,364;   -0,045
993,252;  118,540;   -3,000;   -0,500
993,802;  172,813;   -0,273;    1,318
994,352;  141,359;   -1,545;    1,136
994,901;   86,359;   -0,182;    3,227
995,451;   84,995;   -0,182;    0,318
996,000;  102,177;    1,636;    0,318
996,550;  115,904;    2,273;    0,227
997,100;  138,086;    1,273;   -0,045
997,649;  208,449;    2,182;    0,955
998,198;  113,268;    1,727;   -1,500
998,748;  168,359;    1,091;   -2,318
999,297;  139,177;   -0,818;   -0,409
999,846;  214,177;    1,000;   -0,773
1000,395;  152,631;   -0,818;    0,500
1000,945;  218,540;    1,818;   -0,773
1001,494;  220,268;    2,364;    0,682
1002,043;  219,722;    4,636;    0,864
1002,592;  116,449;   -1,091;    1,955
1003,141;  102,268;   -0,455;   -0,682
1003,690;  213,177;    1,727;    0,500
1004,238;  133,722;    1,455;   -0,045
1004,787;   90,813;    1,364;    1,227
1005,336;  183,904;    0,364;    0,682
1005,885;  151,813;    1,364;   -2,773
1006,433;  147,449;    0,545;    0,955
1006,982;  248,086;    0,455;    1,682
1007,531;  163,631;   -1,818;   -0,227
1008,079;  146,086;   -2,273;    0,500
1008,627;  112,177;   -1,455;    0,409
1009,176;  131,268;    0,000;   -1,955
1009,724;   95,722;    1,091;    0,864
1010,273;  183,449;    1,273;    0,500
1010,821;  114,995;    0,091;    1,409
1011,369;   97,449;   -1,364;    1,318
1011,917;  101,177;   -1,364;   -0,591
1012,465;  145,449;    1,273;   -1,591
1013,013;  131,995;    2,091;   -1,682
1013,561;  203,540;    0,455;   -0,773
1014,109;  259,631;   -1,909;    1,682
1014,657;  179,359;    0,364;    0,591
1015,205;  121,177;    1,636;   -0,955
1015,753;   95,904;   -0,545;   -1,409
1016,301;  134,813;   -2,636;    3,045
1016,848;  181,359;   -1,273;    0,409
1017,396;  170,631;    2,545;    0,045
1017,944;  166,540;    1,182;    1,864
1018,491;  127,995;    0,273;    1,409
1019,039;  297,449;    0,455;    0,591
1019,586;  156,268;   -1,364;    1,682
1020,134;  146,813;    0,455;    1,500
1020,681;  199,540;    0,182;   -1,136
1021,228;  150,722;    2,909;   -2,227
1021,776;  135,359;    1,182;   -1,136
1022,323;  266,086;    0,455;    0,773
1022,870;  197,904;   -1,000;   -0,045
1023,417;  227,540;    2,636;    1,864
1023,964;  140,177;    2,636;    1,227
1024,511;  117,268;    1,000;    0,773
1025,058;  149,540;    3,182;   -0,045
1025,605;  117,722;   -2,273;    3,136
1026,152;  242,086;    1,727;   -0,591
1026,699;  161,722;    1,818;    1,318
1027,245;  145,540;   -0,091;    0,318
1027,792;  106,722;   -1,000;    1,409
1028,339;  244,631;    2,364;   -0,045
1028,885;  156,449;    1,000;   -0,227
1029,432;  131,904;   -0,091;    0,227
1029,978;  185,177;   -1,000;   -1,591
1030,525;  196,449;    1,000;    0,409
1031,071;  121,631;   -1,364;    1,136
1031,618;  285,540;    0,364;    1,682
1032,164;  188,359;   -0,091;    3,045
1032,710;  209,177;    1,636;   -1,500
1033,256;  187,268;   -0,636;   -0,136
1033,803;  101,813;   -0,545;    1,500
1034,349;   38,631;   -1,364;    0,136
1034,895;   63,540;    0,000;   -0,318
1035,441;  103,813;   -0,818;    0,318
1035,987;  130,540;   -2,364;   -0,682
1036,533;  170,449;   -1,455;   -0,955
1037,078;  295,904;    1,455;    1,682
1037,624;  200,631;    2,455;   -0,955
1038,170;  121,722;    0,455;   -0,318
1038,716;  170,359;    1,636;   -0,409
1039,261;  106,268;   -2,273;   -0,773
1039,807;  116,177;   -0,091;    3,409
1040,352;  119,995;   -1,909;   -0,318
1040,898;  109,904;   -1,545;   -0,682
1041,443;   86,268;   -1,455;   -2,591
1041,989;  271,449;    1,091;    1,591
1042,534;  150,631;   -0,364;    2,591
1043,079;   84,995;    2,909;    0,955
1043,625;  137,813;    1,818;    0,500
1044,170;  142,177;   -1,364;    1,045
1044,715;  259,722;    2,455;    0,955
1045,260;  204,359;    2,182;   -0,955
1045,805;  111,177;    1,182;   -0,591
1046,350;   95,813;    1,364;   -0,409
1046,895;  210,268;    2,909;    1,591
1047,440;  190,904;    5,364;    0,409
1047,985;  122,449;    2,818;   -0,955
1048,530;  104,995;    1,545;    1,227
1049,074;  134,268;    0,000;    0,318
1049,619;  101,722;   -1,364;    1,955
1050,164;  100,268;    0,455;    0,227
1050,708;  163,813;   -0,455;    0,045
1051,253;  300,086;    1,273;   -2,227
1051,797;  171,449;    0,818;   -1,318
1052,342;   82,813;   -1,182;    1,045
1052,886;  133,449;    0,364;   -1,409
1053,430;   79,086;   -1,364;    0,136
1053,975;  137,631;   -0,818;   -0,318
1054,519;  127,722;   -0,727;    3,227
1055,063;  162,813;    0,909;    1,318
1055,607;  157,813;   -0,182;    0,227
1056,151;  156,449;    2,909;    1,682
1056,695;  109,813;    2,273;   -1,136
1057,239;  103,177;   -1,727;   -0,682
1057,783;  130,449;    0,818;   -1,500
1058,327;  173,631;    0,000;    1,409
1058,871;  265,086;   -0,545;    1,318
1059,415;  192,722;   -0,818;   -0,045
1059,958;  268,177;    1,455;    2,591
1060,502;  119,449;   -1,000;   -0,773
1061,046;   76,631;    0,364;   -0,955
1061,589;   76,722;   -3,000;   -1,136
1062,133;   63,268;   -1,273;    1,864
1062,676;   85,995;    1,182;    0,864
1063,220;  102,722;    1,091;    0,500
1063,763;  120,904;    0,909;    1,136
1064,306;  127,268;   -0,909;    1,864
1064,849;  135,631;   -0,909;    0,591
1065,393;  121,177;    2,000;   -1,500
1065,936;  120,359;    0,182;   -0,409
1066,479;   80,631;   -1,455;    1,318
1067,022;   92,995;   -0,273;   -0,227
1067,565;   82,359;   -0,091;   -1,318
1068,108;   68,449;    0,727;   -0,591
1068,651;   52,995;   -0,636;    1,409
1069,194;   58,268;   -0,455;   -1,682
1069,736;   70,086;   -1,273;    0,955
1070,279;   63,177;   -1,364;   -0,500
1070,822;  102,086;   -2,000;   -0,318
1071,364;  178,722;   -0,364;    1,318
1071,907;  102,086;   -0,727;    3,227
1072,450;   33,359;    0,000;   -0,045
1072,992;   64,268;   -0,273;    3,136
1073,535;   97,086;    2,091;    2,136
1074,077;   63,177;   -0,727;    2,045
1074,619;   55,177;   -1,364;    0,591
1075,161;   78,086;   -1,091;    1,500
1075,704;  146,904;    1,545;    1,227
1076,246;   77,995;   -0,182;    0,682
1076,788;   42,722;   -0,364;    1,773
1077,330;   45,995;    1,273;    2,136
1077,872;   65,631;    0,909;    0,955
1078,414;  159,631;    2,727;    0,773
1078,956;   82,722;    1,273;   -0,227
1079,498;  145,904;    1,636;    0,318
1080,040;   80,359;    1,909;   -1,318
1080,581;   61,540;    1,636;   -0,318
1081,123;   30,540;    0,091;   -0,773
1081,665;   41,813;   -1,182;   -0,955
1082,206;  135,904;    1,364;   -0,500
1082,748;   84,631;    0,727;    2,045
1083,289;   49,268;   -2,000;    1,318
1083,831;   41,540;   -0,545;    0,227
1084,372;   64,995;    0,000;    0,591
1084,913;   65,359;    1,091;    0,864
1085,455;   41,540;   -1,909;   -2,045
1085,996;   36,995;   -2,273;    0,136
1086,537;   44,540;   -0,091;    0,864
1087,078;   56,359;   -0,909;   -2,136
1087,619;   86,631;   -1,273;    0,227
1088,160;   67,904;    0,000;    1,318
1088,701;   58,359;   -1,091;    0,682
1089,242;   51,086;    1,364;   -2,227
1089,783;   68,631;   -0,273;    1,409
1090,324;   52,631;    0,455;    0,682
1090,865;   38,722;    2,727;   -0,409
1091,405;   30,631;    0,727;    2,227
1091,946;   51,086;    0,182;   -0,955
1092,487;   29,540;    0,818;   -1,409
1093,027;   78,631;   -1,364;   -1,500
1093,568;   46,268;   -0,364;    1,227
1094,108;   57,268;    0,273;    1,773
1094,649;   46,449;   -1,182;    0,136
1095,189;   34,904;   -0,636;   -0,682
1095,729;   31,813;   -0,091;    0,955
1096,269;   28,813;    0,727;   -0,955
1096,810;   96,268;   -1,364;    0,500
1097,350;   67,631;    1,364;   -0,773
1097,890;   47,631;    0,364;    1,227
1098,430;  138,813;    2,364;    2,864
1098,970;   98,540;    2,182;    1,682
1099,510;   40,904;    0,545;   -2,318
1100,050;   35,177;    1,000;   -1,591
1100,589;   41,813;   -0,727;   -0,318
1101,129;   65,722;    0,818;   -0,955
1101,669;  101,449;    1,727;    2,136
1102,209;   67,904;   -0,091;    2,227
1102,748;   47,813;    0,000;    0,955
1103,288;   52,268;    1,273;   -1,227
1103,827;   45,449;    3,091;   -2,227
1104,367;   32,449;   -0,091;   -2,409
1104,906;   36,177;    1,364;   -1,136
1105,445;   53,813;    0,636;   -1,136
1105,985;   42,449;   -0,727;    1,500
1106,524;   47,086;   -1,727;   -0,682
1107,063;   41,177;   -2,727;    1,409
1107,602;   29,086;   -1,909;   -1,500
1108,141;   27,540;   -1,909;    1,500
1108,680;   54,904;   -3,455;   -0,591
1109,219;   40,540;   -0,909;   -0,500
1109,758;   34,995;    0,455;    0,682
1110,297;   33,995;    1,000;   -0,682
1110,836;   22,995;   -0,727;    0,955
1111,375;   27,813;   -2,545;    0,409
1111,913;   55,722;   -1,000;    0,773
1112,452;   42,722;   -0,273;    0,136
1112,991;   24,086;    1,091;    1,955
1113,529;   22,268;   -0,818;   -0,045
1114,068;   34,177;   -0,273;    2,955
1114,606;   21,268;   -0,364;   -0,955
1115,144;   45,631;   -1,273;    1,045
1115,683;   35,904;   -0,727;    0,318
1116,221;   49,904;   -0,455;   -0,864
1116,759;   30,359;    0,636;   -0,864
1117,297;   55,268;    0,000;    1,864
1117,836;   30,995;   -2,182;   -1,227
1118,374;   32,813;    0,182;   -0,682
1118,912;   35,904;    0,909;    2,682
1119,450;   30,086;    1,000;    0,864
1119,988;   30,722;    1,545;    2,136
1120,525;  175,722;    5,091;    3,318
1121,063;   79,177;    1,182;    1,864
1121,601;   32,449;   -0,909;   -1,227
1122,139;   21,631;   -0,727;   -2,045
1122,676;   68,995;   -0,727;    2,773
1123,214;   56,995;   -1,182;    4,409
1123,751;   20,631;    1,727;    2,227
1124,289;   39,359;   -0,091;   -0,409
1124,826;   26,449;    1,727;    0,227
1125,364;   11,540;    1,727;   -0,955
1125,901;   64,268;    1,182;    1,227
1126,438;   57,177;    0,818;    0,955
1126,975;   14,722;   -0,727;   -0,773
1127,513;   23,177;    0,273;    2,136
1128,050;   13,449;    1,636;   -0,682
1128,587;   27,268;    2,000;   -0,227
1129,124;   38,359;    0,091;    1,318
1129,661;   18,086;    0,273;    0,227
1130,198;   54,540;    1,636;    0,773
1130,734;   31,722;    0,182;    1,409
1131,271;   10,540;   -0,909;    0,864
1131,808;   39,268;    2,909;    3,045
1132,345;   19,813;    1,545;    0,318
1132,881;    6,631;   -1,545;   -1,864
1133,418;   24,813;    0,727;   -1,136
1133,954;   14,268;    2,455;   -2,682
1134,491;   28,904;    1,364;   -0,773
1135,027;   18,177;    2,364;    0,864
1135,564;   24,904;    0,273;    2,955
1136,100;   23,631;    0,364;    2,136
1136,636;    9,268;   -1,273;   -1,045
1137,172;   18,540;    0,000;   -1,045
1137,708;   13,904;   -1,364;   -1,045
1138,245;    9,268;    1,273;   -1,227
1138,781;    5,813;    1,091;   -3,318
1139,317;   13,631;    1,273;   -1,409
1139,852;   23,086;    3,091;    0,136
1140,388;   26,722;   -1,182;   -0,409
1140,924;   13,449;   -1,091;   -2,227
1141,460;    4,268;   -1,636;    0,136
1141,996;    4,449;   -1,364;    2,682
1142,531;    9,449;    1,364;    3,318
1143,067;   38,813;    1,182;    1,045
1143,602;   52,177;   -0,091;   -0,318
1144,138;   23,268;   -2,636;    1,045
1144,673;    6,177;   -1,455;    1,409
1145,209;   11,359;   -1,909;   -0,318
1145,744;    3,086;   -0,727;    0,864
1146,279;   20,540;    1,818;   -0,136
1146,815;   10,359;    1,545;   -2,682
1147,350;   14,722;   -1,364;    0,045
1147,885;    7,086;   -0,818;   -1,318
1148,420;    7,268;   -2,273;    0,773
1148,955;    8,722;   -1,727;    1,864
1149,490;    8,631;   -0,909;   -1,591
1150,025;    4,904;    0,455;   -1,773
1150,560;   22,995;    1,091;   -0,955
1151,094;   18,359;    1,455;   -0,591
1151,629;   15,177;    1,636;    0,864
1152,164;    7,177;    1,364;    1,318
1152,698;    8,540;   -0,182;   -0,136
1153,233;    3,813;    0,091;   -0,682
1153,767;    4,540;   -3,000;   -2,318
1154,302;   10,995;   -1,455;    1,773
1154,836;   12,631;   -0,455;   -2,136
1155,371;   12,813;   -1,364;    3,682
1155,905;    7,449;   -0,636;    1,682
1156,439;    8,631;   -0,636;   -0,500
1156,973;   12,177;    0,364;    0,318
1157,507;    6,359;   -0,364;    0,682
1158,042;    7,177;   -0,727;    1,045
1158,576;   11,722;    0,182;    1,773
1159,110;   12,995;   -0,818;    2,409
1159,643;   10,722;    0,636;   -0,045
1160,177;    4,813;   -1,545;    1,500

