
Integration time [ms]:   0,040
Averaging Nr. [scans]: 11
Smoothing Nr. [pixels]: 0
Data measured with spectrometer [name]: 7318044SP
Wave   ;Sample   ;Dark     ;Reference
[nm]   ;[counts] ;[counts] ;[counts] 

186,757;   36,255;   31,551;    1,318
187,357;   29,277;   22,551;    0,955
187,958;   16,832;   15,460;   -1,591
188,558;   21,977;    8,915;   -1,227
189,159;   10,648;    6,733;   -4,500
189,759;    8,190;    7,278;   -3,591
190,360;    5,987;    2,824;   -2,136
190,960;    9,779;    2,915;   -4,136
191,560;    9,890;    3,189;   -6,591
192,161;   49,543;    4,372;   -3,500
192,761;   30,227;    4,010;   -3,227
193,361;   17,360;    1,556;   -3,773
193,962;   25,192;    2,010;   -2,682
194,562;   10,402;    1,189;   -3,955
195,162;    7,550;   -2,448;   -2,227
195,762;   33,158;   -3,176;   -0,045
196,362;   19,098;    1,370;   -2,500
196,963;    6,325;    2,006;   -0,864
197,563;   10,252;    1,551;   -0,955
198,163;    4,799;    0,096;   -0,682
198,763;    6,573;    1,733;   -0,500
199,363;   14,489;    3,096;   -0,500
199,963;   10,391;    0,369;    0,409
200,563;    8,334;    2,823;   -1,409
201,163;    3,195;    3,277;   -0,227
201,763;   10,000;    3,732;    0,318
202,363;    4,568;    1,459;    1,500
202,963;    8,339;    1,459;    1,045
203,563;   15,584;    0,277;    0,500
204,162;    6,685;    2,096;   -1,864
204,762;    5,433;    0,550;    0,591
205,362;    3,570;    3,004;    1,955
205,962;    8,556;    3,096;    1,955
206,562;    8,184;    1,823;    2,318
207,161;    3,824;   -0,087;    0,318
207,761;   19,639;    1,277;    2,409
208,361;    8,145;   -0,268;    1,409
208,960;    7,900;    0,459;    1,500
209,560;    5,441;    1,277;    1,591
210,160;    9,222;    0,550;    1,864
210,759;    4,561;    4,186;    1,227
211,359;    3,479;    1,459;    1,045
211,958;   27,867;    1,277;    2,045
212,558;   20,033;    1,732;    1,864
213,157;   11,248;    1,822;    1,500
213,757;   42,131;    3,822;   -0,227
214,356;   15,636;    1,277;   -0,409
214,956;   32,196;    3,095;    0,409
215,555;   11,872;    2,095;    2,136
216,154;    0,509;   -2,723;   -0,591
216,754;    3,413;    0,277;    0,773
217,353;    5,721;   -0,268;   -1,045
217,952;    1,016;   -0,178;    0,318
218,552;    7,655;    1,368;   -0,773
219,151;    5,233;    0,277;    0,955
219,750;   -2,080;    0,004;   -0,227
220,349;    2,394;   -0,451;    1,045
220,948;   12,703;   -1,360;    1,136
221,548;    2,458;    0,913;    1,227
222,147;    3,264;   -0,087;   -0,409
222,746;   11,968;   -0,451;   -0,955
223,345;    6,254;    0,731;    0,500
223,944;    5,931;   -0,451;    0,773
224,543;   10,261;    1,004;   -1,409
225,142;    3,760;    0,094;    0,136
225,741;    6,403;   -0,814;    1,045
226,340;    7,326;   -0,451;   -0,955
226,939;   14,713;   -0,996;   -0,136
227,538;    3,214;   -0,360;   -0,773
228,137;   12,601;   -0,814;    0,864
228,735;    8,234;   -0,541;    1,227
229,334;    1,047;   -0,905;   -0,227
229,933;   13,236;    0,459;    0,591
230,532;   11,114;    1,186;   -0,409
231,131;   17,276;    1,732;    0,318
231,729;    9,132;   -2,450;   -2,318
232,328;    4,669;   -0,723;   -1,500
232,927;    7,441;    1,004;   -0,500
233,525;    6,006;    3,640;    0,045
234,124;    4,659;    2,368;   -1,591
234,723;    5,134;    0,913;   -1,045
235,321;    2,084;    2,277;    0,136
235,920;    4,044;    1,186;   -1,227
236,518;   13,812;    3,459;    0,318
237,117;    6,187;    0,004;   -0,227
237,715;    6,958;    0,640;   -0,500
238,314;    5,213;   -0,087;   -2,318
238,912;   10,668;   -0,723;   -1,409
239,510;    8,385;    0,459;   -1,227
240,109;   18,876;    0,004;    3,773
240,707;   10,161;   -0,996;    1,227
241,305;    2,544;    0,550;    0,136
241,904;    5,725;   -0,178;   -2,045
242,502;   20,097;   -0,632;   -0,227
243,100;   10,680;   -0,087;   -0,955
243,698;    2,270;    0,732;    1,682
244,297;    7,505;   -0,632;    0,682
244,895;    6,806;   -0,269;   -2,318
245,493;   15,649;    2,186;   -0,591
246,091;   18,729;    1,368;   -1,318
246,689;   10,090;    1,004;    0,591
247,287;    9,723;    0,822;   -1,136
247,885;    6,502;   -1,451;    1,227
248,483;    6,356;    1,822;   -0,500
249,081;   12,823;    0,185;    1,591
249,679;   12,904;   -0,178;    1,682
250,277;    6,938;   -1,723;    0,864
250,875;   15,683;   -1,087;   -1,045
251,473;    7,281;   -1,178;    0,500
252,071;   19,537;    1,459;    1,045
252,669;   11,113;   -1,814;    0,318
253,267;    6,383;   -0,087;    0,773
253,864;   13,177;   -0,360;    0,682
254,462;   24,221;    1,640;    1,591
255,060;    7,390;   -0,269;    1,318
255,658;    7,931;    0,822;   -0,136
256,255;   12,902;    0,186;   -2,045
256,853;   22,775;   -0,269;    1,409
257,451;   11,917;    0,822;    1,864
258,048;   80,176;    1,822;    1,864
258,646;   41,128;    1,731;   -1,045
259,243;   51,865;   -0,087;    2,227
259,841;   35,024;   -0,814;    0,318
260,438;   11,958;   -0,087;    0,864
261,036;   30,963;   -1,905;    1,409
261,633;   16,664;   -0,087;    2,227
262,231;    8,561;    2,731;   -0,045
262,828;   10,944;   -0,905;    1,136
263,425;   17,444;    0,913;   -0,591
264,023;   16,481;    0,186;    0,045
264,620;   41,668;   -0,360;   -0,318
265,217;   61,207;   -2,087;    3,136
265,815;   24,727;   -1,905;    2,136
266,412;   46,121;    0,731;    0,136
267,009;   37,369;   -1,451;    0,773
267,606;   60,582;    0,822;   -0,955
268,203;   34,883;   -0,269;   -0,591
268,801;   28,566;    1,731;    0,591
269,398;   20,238;   -0,360;    2,500
269,995;   48,490;    0,277;    1,591
270,592;   36,594;   -0,632;   -0,500
271,189;   17,966;    0,186;    0,409
271,786;   13,993;   -0,632;    1,227
272,383;   56,877;   -1,087;    0,227
272,980;   34,646;    0,277;    0,318
273,577;   23,835;    0,004;    1,227
274,174;   20,392;    0,822;    2,591
274,771;   48,204;   -0,814;   -0,773
275,367;  165,651;    2,277;    1,409
275,964;   86,411;    0,731;   -0,500
276,561;   35,212;    1,549;   -1,045
277,158;   13,813;    0,095;   -1,773
277,755;   77,914;    2,185;    0,409
278,351;   51,398;   -0,451;   -1,500
278,948;   62,456;   -0,815;    0,045
279,545;   49,244;   -1,360;    2,318
280,141;   81,088;   -1,723;   -2,045
280,738;   90,926;   -0,451;   -0,136
281,334;   42,510;   -1,633;    0,591
281,931;   27,959;   -0,087;   -1,318
282,528;   63,765;    0,822;   -0,500
283,124;   86,403;   -1,087;   -0,500
283,721;   81,312;   -0,451;    1,409
284,317;   45,418;    0,185;    2,500
284,913;   86,771;   -1,360;    0,591
285,510;  132,407;    0,640;   -0,318
286,106;   98,373;   -2,269;   -0,955
286,703;   62,629;   -0,360;    1,955
287,299;   45,751;   -1,451;   -0,591
287,895;   45,578;    0,822;   -1,045
288,491;   35,965;    0,186;    2,136
289,088;   67,624;   -2,360;    2,409
289,684;   73,568;   -1,723;    1,500
290,280;  134,808;    0,368;    0,682
290,876;  113,301;    1,822;    5,500
291,472;   92,723;    1,276;    2,227
292,068;  101,196;    1,367;    0,227
292,665;   69,388;    2,095;    0,773
293,261;   44,426;    0,276;    2,136
293,857;  106,802;    2,913;    2,136
294,453;   80,870;    3,550;    0,955
295,049;  174,184;   -0,268;    1,955
295,644;  106,892;    0,095;    0,136
296,240;   56,028;   -0,905;   -0,136
296,836;   99,881;   -0,995;    0,318
297,432;  150,653;    1,096;   -0,500
298,028;  158,836;    0,732;    0,773
298,624;  115,525;    1,459;    1,864
299,220;  114,046;    2,368;    0,591
299,815;  111,533;    1,005;   -0,409
300,411;  158,729;    0,914;    1,773
301,007;  205,283;    1,368;    0,227
301,602;  127,158;   -0,541;   -2,318
302,198;  204,621;    0,732;   -0,773
302,794;  134,583;    1,187;   -0,500
303,389;   91,136;   -1,177;    1,045
303,985;  115,416;    0,550;    1,409
304,580;  200,398;    1,459;    1,591
305,176;  151,183;   -3,086;    0,136
305,771;   73,752;   -1,268;   -1,227
306,367;  306,951;    4,095;    0,136
306,962;  171,612;    0,641;    1,500
307,558;  204,247;   -0,450;    0,136
308,153;  207,094;    1,095;   -1,136
308,748;  110,169;   -0,814;    1,682
309,344;  318,225;   -0,632;   -1,318
309,939;  304,566;   -1,905;   -1,318
310,534;  146,032;   -0,086;   -1,682
311,130;  134,537;    0,459;   -2,500
311,725;  111,012;    1,004;   -0,500
312,320;  135,253;    2,459;    0,045
312,915;  179,580;    1,459;   -1,045
313,510;  297,470;    1,550;   -0,500
314,105;  134,930;    1,096;    1,409
314,700;   72,223;   -3,086;   -1,045
315,295;  109,580;   -0,904;    0,045
315,890;   93,880;    1,277;    0,864
316,485;  144,563;   -0,359;   -0,318
317,080;   87,981;   -3,086;    1,591
317,675;  256,255;    2,005;   -0,682
318,270;  380,543;    5,550;    3,318
318,865;  288,359;    3,278;    3,045
319,460;  199,339;   -0,904;    0,591
320,055;  105,971;   -0,541;   -1,227
320,650;  110,593;   -1,995;   -0,591
321,244;  110,893;   -0,177;   -1,409
321,839;  106,777;   -1,541;   -0,227
322,434;  129,162;   -1,086;   -1,591
323,029;   99,739;    1,732;    1,591
323,623;   89,169;    1,550;    0,773
324,218;  195,630;    2,368;    1,409
324,812;  150,767;    1,096;    1,591
325,407;  143,339;   -0,814;    2,045
326,002;  233,706;    0,277;   -0,409
326,596;  189,216;    0,914;    1,318
327,191;  109,148;    0,823;   -1,045
327,785;  118,761;   -0,813;   -0,227
328,379;  102,603;    1,368;    0,136
328,974;  131,241;    0,914;   -3,955
329,568;  147,316;    0,186;   -2,409
330,163;  205,108;    2,096;    1,045
330,757;  112,388;    2,459;    1,591
331,351;   86,906;    0,459;    0,682
331,945;   83,762;    0,914;    1,409
332,540;  162,726;   -1,723;   -0,591
333,134;  159,574;   -1,086;    0,773
333,728;  174,453;    0,005;    0,318
334,322;  109,872;   -1,177;   -0,864
334,916;  106,329;    0,277;    0,955
335,510;  211,265;   -0,450;   -0,136
336,105;  198,603;   -1,086;    1,591
336,699;  138,552;   -1,086;    0,591
337,293;  166,141;   -1,723;    0,318
337,887;  136,617;   -2,723;    1,955
338,481;  230,361;    0,459;    0,591
339,074;  297,963;   -0,359;    2,682
339,668;  286,040;   -1,632;    1,227
340,262;  693,396;    1,732;    3,227
340,856;  399,263;    1,822;   -0,682
341,450;  193,558;    1,004;    1,864
342,044;  234,686;    1,459;    0,136
342,637;  328,512;    0,913;   -2,136
343,231;  294,282;   -2,360;    0,682
343,825;  243,641;   -1,086;   -0,591
344,419;  229,414;   -1,995;    0,500
345,012;  640,573;    2,459;    4,045
345,606;  479,193;    4,641;    1,591
346,199;  244,888;   -1,813;   -0,227
346,793;  349,419;    1,914;    2,045
347,386;  204,036;   -0,813;   -1,136
347,980;  137,571;   -0,268;   -0,045
348,573;  214,074;    2,278;    0,409
349,167;  456,844;    5,278;    4,773
349,760;  339,305;    2,914;    2,682
350,354;  316,820;   -0,813;    1,136
350,947;  352,421;    1,096;    1,682
351,540;  260,599;   -0,358;   -1,409
352,134;  165,397;    1,096;    1,136
352,727;  180,467;   -0,086;    1,136
353,320;  195,593;    0,005;    0,591
353,913;  151,791;   -1,995;    1,864
354,507;  308,167;    0,823;   -1,227
355,100;  203,061;    0,460;    0,864
355,693;  556,692;    2,005;    2,409
356,286;  347,122;    0,823;    2,773
356,879;  232,947;   -0,722;    1,227
357,472;  238,592;   -0,904;    1,500
358,065;  266,367;   -0,722;    2,500
358,658;  158,489;   -0,540;    2,318
359,251;  138,586;   -1,631;   -0,591
359,844;  281,905;   -1,904;   -1,136
360,437;  335,247;   -2,995;    0,045
361,030;  202,585;    1,369;   -0,682
361,623;  214,606;    2,824;    0,318
362,215;  401,997;   -0,086;    2,045
362,808;  261,558;   -2,358;   -1,682
363,401;  201,676;   -2,449;    0,136
363,994;  386,561;   -0,631;   -1,500
364,586;  222,577;    0,824;   -1,500
365,179;  185,440;   -0,449;   -1,136
365,772;   81,889;   -1,995;    2,045
366,364;  197,195;    1,915;   -3,227
366,957;  235,530;    2,279;   -0,045
367,549;  197,863;    2,188;   -0,864
368,142;  211,071;    1,825;   -1,500
368,734;  180,215;    0,734;   -2,136
369,327;  129,620;    1,643;   -0,500
369,919;  161,352;   -1,538;    0,409
370,512;  170,956;   -1,083;   -0,500
371,104;  391,641;   -0,901;    1,591
371,696;  402,013;    1,191;   -0,955
372,289;  281,577;    0,373;    1,136
372,881;  238,373;   -2,080;    1,318
373,473;  155,041;   -2,170;    1,136
374,066;  219,863;   -0,169;    0,500
374,658;  202,271;    0,378;    1,136
375,250;  151,618;    0,653;   -1,409
375,842;  192,434;    0,473;   -0,045
376,434;  160,385;   -0,435;   -0,409
377,026;  142,240;    0,204;   -2,500
377,618;  189,580;   -0,158;   -0,682
378,210;  151,449;   -0,338;   -1,955
378,802;  151,400;    0,754;   -0,591
379,394;  446,697;    1,846;    0,682
379,986;  255,624;    1,393;   -0,955
380,578;  179,732;   -0,153;    0,773
381,170;  374,348;   -0,972;    0,045
381,762;  294,046;    0,755;    1,409
382,354;  244,882;   -0,065;   -1,318
382,945;  175,817;   -2,976;    0,318
383,537;  132,713;   -2,705;   -1,955
384,129;  124,860;   -2,160;   -1,136
384,721;  210,552;   -0,252;    0,955
385,312;  172,927;   -0,161;   -0,955
385,904;  237,576;   -2,706;    1,591
386,496;  191,124;   -0,979;    1,045
387,087;  300,239;    1,022;    2,500
387,679;  247,891;   -1,160;    0,045
388,270;  225,013;    2,840;    2,045
388,862;  204,419;    1,295;   -0,318
389,453;  205,847;   -0,887;    1,045
390,045;  208,210;   -0,705;   -2,682
390,636;  125,139;    0,204;   -0,591
391,227;  174,046;   -0,523;   -0,045
391,819;  151,635;    0,204;    0,773
392,410;  364,697;    1,022;    0,045
393,001;  204,882;   -0,979;   -1,591
393,593;  249,012;    1,930;   -0,045
394,184;  289,978;    1,385;   -0,409
394,775;  194,799;    1,839;    2,136
395,366;  131,251;    1,385;    0,773
395,957;  278,248;    0,113;    0,136
396,548;  194,861;   -0,342;    2,682
397,139;  293,394;   -2,433;    0,591
397,730;  219,699;   -1,888;    0,955
398,321;  228,489;   -1,252;    0,955
398,912;  181,601;   -0,615;    0,136
399,503;  172,779;   -3,524;   -1,409
400,094;  214,094;    0,294;    1,682
400,685;  209,479;   -0,433;    0,045
401,276;  173,913;    0,930;   -0,955
401,867;  153,053;   -0,888;    0,773
402,458;  123,179;   -2,251;   -2,318
403,048;  240,162;    1,112;    0,591
403,639;  197,809;    0,840;    0,864
404,230;  282,532;    2,476;    0,318
404,821;  330,688;   -0,615;    0,045
405,411;  249,553;    1,203;   -2,591
406,002;  179,804;   -1,252;   -1,136
406,592;  367,415;    2,294;    0,045
407,183;  248,410;    0,566;   -1,500
407,774;  234,648;    3,475;   -0,136
408,364;  187,715;    0,930;    0,409
408,954;  286,016;    0,384;    1,227
409,545;  280,462;    1,021;    1,045
410,135;  245,535;    1,293;    0,500
410,726;  193,302;    1,838;    0,318
411,316;  351,935;    0,111;    0,773
411,906;  219,720;   -0,253;   -0,409
412,497;  225,716;   -1,070;   -0,045
413,087;  180,996;   -1,980;   -0,227
413,677;  118,939;   -0,707;    3,864
414,267;  118,746;    0,656;    1,409
414,857;  101,580;   -2,980;    4,227
415,448;  105,464;    0,839;    0,500
416,038;  126,296;    0,020;   -0,591
416,628;  152,659;   -0,889;    0,409
417,218;  187,967;    0,565;    3,318
417,808;  297,800;    0,202;   -0,409
418,398;  206,622;    0,020;    2,682
418,988;  120,907;    2,020;    0,591
419,578;  197,954;   -0,707;    1,409
420,168;  137,362;   -1,343;   -0,955
420,757;  235,738;   -1,343;   -1,500
421,347;  147,237;    0,111;   -0,227
421,937;  123,412;    2,292;    1,409
422,527;  224,264;    0,838;   -0,773
423,116;  326,893;   -0,253;   -0,045
423,706;  128,017;   -1,889;    0,318
424,296;   94,830;    1,384;    0,682
424,885;  173,466;   -0,071;   -3,045
425,475;  149,505;    1,474;   -2,864
426,065;   83,501;   -0,980;   -0,318
426,654;   66,973;   -0,435;   -0,318
427,244;  237,971;    0,020;    1,409
427,833;  205,225;    1,383;   -0,500
428,423;  122,307;   -0,526;    1,136
429,012;  114,377;   -0,344;   -1,136
429,601;  194,596;   -1,344;    0,136
430,191;  121,075;    1,292;    4,318
430,780;   67,584;   -0,344;   -0,409
431,369;  163,053;    0,746;   -0,045
431,959;   95,430;   -1,254;    0,500
432,548;   61,166;   -1,163;   -0,045
433,137;   36,288;   -1,254;   -1,318
433,726;   65,720;    0,292;    0,500
434,315;   81,924;   -0,526;    2,409
434,905;  139,301;   -1,254;    1,409
435,494;  122,159;    0,746;    0,955
436,083;   56,732;   -0,981;   -0,955
436,672;  107,308;    0,110;    0,500
437,261;   75,455;    0,292;   -1,955
437,850;  171,247;    1,383;    0,682
438,439;  198,524;    3,291;    1,955
439,027;  267,453;    3,655;    1,773
439,616;  195,961;    2,927;    1,227
440,205;   81,729;    0,200;   -2,136
440,794;   62,428;    2,109;   -0,045
441,383;   40,674;   -1,346;   -0,591
441,971;   32,573;   -2,436;    0,591
442,560;   35,454;    0,563;   -1,773
443,149;    6,550;    0,379;   -1,318
443,737;   11,561;   -0,074;   -2,318
444,326;   20,371;    0,018;    0,318
444,915;   34,995;   -1,982;    0,864
445,503;   35,058;   -2,891;   -0,318
446,092;  152,533;    0,382;    2,136
446,680;  107,844;    0,382;    0,318
447,269;   55,322;   -0,346;   -0,318
447,857;   47,464;    0,018;   -1,773
448,445;   32,847;    0,563;    1,318
449,034;   16,741;   -1,528;   -1,136
449,622;   23,380;   -1,073;    3,500
450,210;   84,765;    2,017;    2,227
450,799;   52,146;    0,290;   -0,591
451,387;   49,441;    1,381;   -0,591
451,975;   42,958;    2,654;    0,864
452,563;   54,183;    3,472;    2,318
453,151;   23,622;   -0,528;   -1,227
453,739;   18,818;   -1,347;    0,136
454,328;   34,874;    2,381;   -2,136
454,916;   23,553;    2,562;   -0,136
455,504;   33,970;    1,017;    1,227
456,092;   16,846;    0,017;   -1,591
456,679;   10,307;    1,472;    0,682
457,267;   99,268;    4,017;    1,045
457,855;   31,662;    1,017;    1,409
458,443;    1,088;   -0,165;    1,682
459,031;   13,776;    0,108;    2,409
459,619;   10,105;   -1,801;    2,864
460,206;    3,039;    0,835;    2,045
460,794;    3,803;   -2,983;   -0,227
461,382;   10,155;   -0,529;   -0,864
461,970;    8,335;    1,198;    1,864
462,557;    2,149;   -0,711;   -0,682
463,145;   10,846;   -3,165;   -1,682
463,732;   57,020;    2,016;   -1,045
464,320;   17,174;   -0,075;   -3,045
464,907;   35,877;    2,743;   -0,773
465,495;   13,637;    0,743;   -1,227
466,082;    8,077;   -1,984;   -0,045
466,670;   15,178;   -2,529;    1,227
467,257;    2,658;   -1,711;    2,045
467,844;    9,592;   -0,075;    0,045
468,432;    5,057;    0,834;    3,500
469,019;    7,402;    0,925;   -1,773
469,606;   23,450;    0,470;    3,682
470,193;   20,361;   -1,439;    0,227
470,780;    9,830;   -2,075;    0,864
471,368;    3,242;   -1,257;   -0,773
471,955;   16,946;    1,379;   -0,682
472,542;   12,287;    0,652;   -1,136
473,129;    1,415;   -0,166;    0,136
473,716;   -1,513;    1,470;    0,591
474,303;    4,310;    0,652;   -0,864
474,890;    5,978;   -1,439;   -0,500
475,477;   20,466;   -1,621;    0,409
476,064;    6,086;    1,106;   -1,591
476,650;   28,383;    0,288;    0,318
477,237;   10,655;   -0,258;    0,955
477,824;    6,944;   -1,076;    0,864
478,411;   -1,066;   -1,894;   -0,318
478,997;   -1,188;    0,560;   -0,773
479,584;   -4,293;    1,196;   -0,409
480,171;    8,949;   -0,440;   -0,773
480,757;   15,110;    2,651;    0,773
481,344;    3,589;    0,469;    0,409
481,931;   -1,020;    1,105;    1,045
482,517;    7,074;   -1,258;    0,318
483,104;   17,979;    1,106;    2,864
483,690;    5,441;   -1,804;    0,045
484,276;    1,954;   -0,895;    0,227
484,863;   32,647;    2,469;    1,136
485,449;    8,182;   -0,077;    0,318
486,035;    6,739;   -1,986;   -0,136
486,622;   13,139;   -0,895;    0,045
487,208;    7,083;    1,378;    1,500
487,794;    0,134;    0,741;    0,318
488,380;   -1,573;    0,105;   -1,409
488,967;   -2,835;   -1,168;   -0,409
489,553;   -5,512;   -1,895;   -1,409
490,139;    7,492;    1,559;    0,773
490,725;    0,687;    0,741;   -0,227
491,311;    2,309;    3,287;    3,045
491,897;    0,226;   -0,986;    1,500
492,483;    2,884;    0,105;    1,227
493,069;   74,690;    3,923;    0,864
493,655;   29,649;    1,650;    0,682
494,241;    4,636;    1,377;   -0,955
494,826;    6,394;    0,287;   -1,045
495,412;   11,213;    2,559;   -0,682
495,998;    4,800;   -0,805;   -0,318
496,584;    8,949;    0,377;    1,045
497,169;   13,522;    1,014;   -0,682
497,755;    4,796;    0,650;    1,227
498,341;   19,792;    0,559;    0,318
498,926;   41,560;    1,832;    1,955
499,512;    7,493;    1,286;    2,955
500,097;    2,678;    0,195;   -0,318
500,683;    5,647;   -0,350;    2,136
501,268;    0,925;   -0,169;   -0,955
501,854;    7,410;   -0,169;    1,227
502,439;    5,028;   -0,624;   -1,773
503,024;    4,248;    0,195;    0,500
503,610;    8,150;   -0,078;   -0,682
504,195;    6,907;    0,558;    1,955
504,780;   26,663;    2,922;    1,227
505,366;   52,647;    3,013;    2,864
505,951;   30,365;    0,740;    1,045
506,536;   13,896;   -3,260;   -3,682
507,121;   32,320;    0,285;   -0,318
507,706;   25,419;    2,376;    1,045
508,291;   13,822;    2,649;    1,136
508,876;   15,420;   -0,988;    2,591
509,461;   31,002;   -0,169;   -0,773
510,046;   55,629;    0,194;    0,318
510,631;   67,494;   -0,351;   -0,773
511,216;   35,620;    2,467;   -0,500
511,801;   77,630;   -0,442;    2,591
512,386;   91,150;    0,740;    0,500
512,971;  108,950;   -2,988;    0,955
513,555;  139,900;   -0,897;   -1,500
514,140;  123,192;   -0,442;   -3,136
514,725;  232,365;   -0,715;   -1,136
515,309;  167,713;   -0,533;    0,318
515,894;  112,073;   -0,624;   -2,227
516,479;  145,735;   -0,624;   -0,955
517,063;  156,985;    0,376;    1,227
517,648;  123,177;    1,012;   -1,136
518,232;  109,305;   -0,261;   -1,409
518,817;  205,127;   -0,079;    1,682
519,401;  324,838;    2,194;    0,591
519,985;  306,272;    1,103;    1,136
520,570;  184,047;    0,830;   -1,955
521,154;  284,900;    2,102;    0,591
521,738;  449,427;   -2,352;    2,409
522,323;  295,248;   -0,170;    1,682
522,907;  296,055;    0,466;   -0,136
523,491;  222,063;    0,557;    0,955
524,075;  203,158;    2,284;    0,591
524,659;  390,479;    1,466;    0,591
525,243;  340,217;    1,739;    0,409
525,827;  289,433;    0,648;   -0,045
526,411;  290,933;   -1,989;   -0,136
526,995;  394,231;   -0,352;    1,409
527,579;  453,691;   -0,443;   -1,045
528,163;  396,460;    0,375;   -1,500
528,747;  491,902;    2,466;   -0,773
529,331;  428,799;   -0,080;   -1,409
529,915;  281,103;    1,738;    0,955
530,499;  379,374;   -0,807;    1,227
531,082;  536,594;   -0,534;    1,591
531,666;  616,619;    1,374;    0,773
532,250;  503,633;    1,284;    2,682
532,833;  601,969;    0,920;    2,773
533,417;  447,793;   -1,807;    0,864
534,001;  567,844;    1,647;   -0,318
534,584;  480,444;    0,374;    0,500
535,168;  313,621;    0,465;    1,409
535,751;  665,986;    0,647;    0,045
536,334;  414,646;   -0,898;   -0,409
536,918;  258,730;    0,011;    1,591
537,501;  276,312;   -0,899;    1,318
538,085;  326,785;   -0,444;    1,045
538,668;  403,971;    0,829;    2,409
539,251;  674,248;    1,829;    3,773
539,834;  396,692;    0,101;    0,773
540,418;  528,220;   -1,990;    4,318
541,001;  694,835;   -0,990;    1,773
541,584;  472,774;    2,101;    2,227
542,167;  577,231;    1,374;    2,955
542,750;  400,165;    1,919;   -0,773
543,333;  281,522;    0,555;    2,136
543,916;  496,284;    0,192;    2,500
544,499;  432,400;   -1,354;    0,227
545,082;  510,771;    1,374;    3,591
545,665;  425,387;    1,919;    1,500
546,248;  550,795;    1,010;   -0,318
546,830;  532,054;   -0,445;    1,955
547,413;  484,931;    1,010;   -0,773
547,996;  451,509;    0,555;    0,500
548,579;  413,279;    0,919;    0,955
549,161;  635,741;    1,828;    2,682
549,744;  523,239;   -0,809;    0,409
550,326;  377,607;   -0,809;   -1,136
550,909;  833,916;    2,737;    0,591
551,492;  488,774;   -0,263;    0,227
552,074;  619,119;   -0,173;   -1,318
552,657;  647,484;    2,373;    0,045
553,239;  520,770;   -0,173;   -0,773
553,821;  383,718;   -1,082;    1,045
554,404;  631,754;    1,282;    1,136
554,986;  732,876;    0,464;    1,045
555,568;  575,525;    1,191;   -0,955
556,151;  783,802;    1,191;   -0,227
556,733;  467,408;   -0,264;   -0,864
557,315;  486,491;    0,100;    0,500
557,897;  363,116;    0,554;   -0,500
558,479;  373,577;   -1,991;    1,318
559,061;  458,382;   -0,719;   -0,864
559,643;  506,163;   -0,264;    0,045
560,225;  550,987;    1,645;    2,864
560,807;  397,709;    0,918;    0,318
561,389;  381,269;    0,554;    2,318
561,971;  472,549;    0,463;    2,136
562,553;  385,295;   -1,628;    1,591
563,135;  477,015;   -0,537;    1,136
563,717;  866,739;    3,372;    1,136
564,298;  755,129;    3,645;   -0,045
564,880;  514,331;    0,645;   -1,409
565,462;  347,149;    0,645;    1,318
566,043;  474,882;   -0,446;    2,318
566,625;  783,789;    1,918;    1,227
567,207;  594,472;    1,099;    1,682
567,788;  441,758;   -1,264;    1,500
568,370;  445,913;    1,917;   -0,500
568,951;  450,502;    0,190;    0,227
569,533;  555,403;   -0,628;   -0,500
570,114;  570,088;   -0,446;    0,682
570,695;  599,826;   -0,174;   -1,318
571,277;  576,130;   -0,265;   -1,682
571,858;  782,105;    2,008;   -1,136
572,439;  620,525;    1,554;   -1,045
573,021;  660,845;    2,099;   -2,773
573,602;  773,993;   -1,265;    0,318
574,183;  713,480;   -2,083;    2,227
574,764;  655,381;   -1,629;    0,409
575,345;  857,955;    0,917;   -0,136
575,926;  672,890;   -0,356;    0,136
576,507;  760,172;    1,099;   -0,227
577,088;  713,535;    3,099;    1,682
577,669;  900,765;    0,735;    1,955
578,250; 1086,480;    0,644;   -1,045
578,831;  862,295;   -1,356;   -2,227
579,412;  846,951;   -0,810;    0,955
579,993;  820,595;    1,008;    0,227
580,573;  729,143;   -0,629;   -0,955
581,154;  879,678;    0,735;   -0,591
581,735;  902,944;    0,644;    0,773
582,315; 1040,034;   -0,629;    2,136
582,896;  828,017;   -0,174;    1,227
583,477;  669,716;    0,189;    1,227
584,057;  819,048;    0,553;    0,955
584,638;  935,685;    2,553;    2,318
585,218; 1179,316;   -0,538;    2,682
585,799;  984,296;    0,281;   -0,227
586,379;  848,899;    0,372;    1,591
586,959;  818,755;    0,735;    0,318
587,540;  729,194;   -0,629;    2,227
588,120;  745,176;    1,007;   -0,045
588,700;  756,390;    2,553;    2,136
589,281;  928,869;    0,462;   -0,955
589,861;  794,976;    0,099;   -1,682
590,441;  651,056;    2,371;   -2,682
591,021;  750,319;   -0,265;   -2,591
591,601;  704,699;   -0,537;    0,500
592,181;  686,508;   -0,719;   -0,773
592,761;  580,954;    0,007;    1,409
593,341;  702,115;   -0,901;    0,045
593,921;  707,261;   -0,265;    1,591
594,501;  600,210;   -0,538;    1,318
595,081;  608,984;    0,917;   -0,318
595,661;  682,012;   -1,447;    0,955
596,240;  612,246;   -0,537;    0,136
596,820; 1040,016;    0,372;    1,955
597,400;  751,369;    2,008;    0,773
597,980;  644,044;    2,008;    1,045
598,559;  596,543;    2,735;   -0,227
599,139;  574,558;   -0,174;   -1,227
599,718;  569,558;   -0,174;   -0,409
600,298;  565,453;    0,735;    0,682
600,877; 1064,415;    2,917;    1,409
601,457;  749,731;    2,281;    1,136
602,036;  635,606;    0,190;    2,045
602,616;  686,041;    0,644;    1,682
603,195;  807,819;   -0,355;    3,500
603,774;  872,016;   -0,901;    2,045
604,354;  807,929;    0,826;   -0,500
604,933;  739,964;    0,463;    1,864
605,512;  838,481;    3,554;    0,591
606,091;  835,800;   -0,537;    3,773
606,671;  775,642;    0,281;    0,773
607,250;  950,465;    1,644;    3,136
607,829;  887,769;    2,372;    3,227
608,408;  728,885;    1,190;    2,591
608,987;  851,350;    1,281;    3,409
609,566;  665,833;   -1,265;   -2,500
610,145;  772,450;   -1,082;    0,682
610,723;  810,371;    4,372;    6,864
611,302;  719,327;   -0,446;    1,682
611,881; 1021,984;    5,008;   11,227
612,460;  724,082;    1,645;    3,955
613,039;  601,849;   -0,082;    2,045
613,617;  587,962;    1,736;    4,773
614,196;  616,082;    1,099;    1,227
614,775;  680,661;    1,009;    2,409
615,353;  732,631;    0,736;    0,864
615,932;  696,911;    0,100;    2,409
616,510;  675,476;    0,554;    0,591
617,089; 1204,645;    7,100;   17,591
617,667;  802,823;    2,372;    6,136
618,246;  559,429;   -1,537;    1,318
618,824;  644,893;   -3,355;   -0,955
619,402;  661,168;   -2,900;   -1,773
619,981;  721,862;   -0,173;   -1,045
620,559;  618,110;    0,009;    1,682
621,137;  634,852;   -0,718;    1,864
621,715;  545,682;   -1,173;   -0,682
622,293;  578,394;   -0,537;   -0,773
622,871;  581,582;   -0,718;    0,500
623,450;  528,977;    0,373;   -0,864
624,028;  729,563;    0,191;   -0,955
624,606;  685,990;   -1,718;    1,682
625,183;  500,226;   -1,536;   -1,136
625,761;  645,496;    1,009;    1,136
626,339;  945,366;    1,373;    2,591
626,917;  584,441;   -0,172;   -0,045
627,495;  524,632;   -0,354;    1,318
628,073;  658,775;   -0,263;    2,864
628,650;  670,655;    0,100;    2,136
629,228;  664,695;    0,373;    4,409
629,806;  480,297;    2,282;    1,136
630,383;  542,161;    1,464;   -0,318
630,961;  540,843;    2,555;   -0,955
631,539;  594,700;    2,464;    0,227
632,116; 1324,116;   11,373;   15,409
632,694;  924,802;    2,555;    6,500
633,271;  756,084;    0,828;    2,682
633,848;  861,756;    1,828;    2,045
634,426;  585,602;   -1,081;    1,773
635,003;  446,872;    1,101;   -0,409
635,580;  863,407;    1,192;    3,682
636,158;  735,024;    3,737;    1,227
636,735;  550,266;    0,555;   -0,500
637,312;  540,405;   -0,809;   -0,682
637,889;  545,316;   -4,354;   -0,682
638,466;  525,482;   -3,990;   -0,409
639,043;  575,862;    2,101;   -1,136
639,620;  484,314;   -2,262;   -0,955
640,197;  620,198;    1,100;    1,682
640,774;  445,841;   -0,172;    1,136
641,351;  518,302;    0,737;    1,136
641,928;  727,581;   -0,627;    1,409
642,505;  836,315;    0,828;   -0,500
643,082;  649,776;   -1,718;    1,227
643,658;  520,964;   -0,718;    1,500
644,235;  506,334;    1,191;    2,500
644,812;  701,250;    1,918;    0,773
645,388;  677,256;   -0,991;    1,409
645,965;  461,536;   -0,809;    1,682
646,542;  477,542;   -1,445;   -0,227
647,118;  856,185;    1,009;   -0,955
647,695;  640,646;   -0,263;    1,136
648,271;  454,834;   -0,536;    0,500
648,848;  627,841;    0,736;    2,227
649,424;  757,393;    0,827;    1,318
650,000;  576,308;   -0,354;   -1,045
650,577;  596,497;   -0,627;   -0,955
651,153;  601,049;   -1,809;    0,955
651,729;  554,055;    1,191;    0,864
652,305;  930,880;    0,645;    2,773
652,881;  873,613;   -0,082;    1,136
653,458; 1002,984;    1,100;    0,227
654,034; 1093,899;    0,282;    1,591
654,610; 1237,451;    0,554;    0,773
655,186; 1763,821;    0,645;    3,045
655,762; 1271,828;   -0,991;    0,409
656,338; 1257,652;    0,100;    0,136
656,913; 1351,477;   -0,082;    0,409
657,489; 1111,574;    0,827;   -0,318
658,065; 1217,126;   -0,173;   -1,591
658,641; 1249,496;   -0,900;   -0,864
659,217; 1164,230;   -0,991;    0,409
659,792; 1309,873;    0,645;   -0,409
660,368; 1119,879;   -2,173;   -0,682
660,944; 1146,977;   -2,082;    1,227
661,519; 1050,074;   -0,628;    0,409
662,095;  755,990;   -1,719;    0,591
662,670;  595,905;    1,281;   -0,136
663,246;  507,275;    1,009;   -0,409
663,821;  675,646;    0,281;    1,682
664,396;  624,743;    0,009;    1,864
664,972;  538,204;    0,009;   -0,500
665,547;  593,029;    1,372;    0,136
666,122;  565,399;   -1,082;    0,318
666,698;  762,042;   -0,173;    0,318
667,273;  530,048;   -0,173;    0,136
667,848;  576,782;    2,372;    1,500
668,423;  754,061;    2,190;    2,318
668,998;  593,158;    2,827;   -0,682
669,573;  556,619;   -3,264;   -1,500
670,148;  750,990;   -1,446;   -0,682
670,723;  517,632;   -1,810;    0,318
671,298;  813,184;    2,372;    1,045
671,873;  709,918;   -0,082;   -0,136
672,448;  697,379;    0,645;    0,136
673,023;  694,295;   -1,992;   -0,227
673,597;  792,665;    0,827;    2,318
674,172;  842,399;   -0,355;    0,318
674,747;  751,769;    0,372;   -1,045
675,321;  510,139;   -0,628;    3,318
675,896;  451,054;    0,645;    1,045
676,471;  678,970;    2,645;    1,591
677,045;  596,704;   -1,264;    0,682
677,620;  697,801;    0,190;    1,136
678,194;  524,535;   -2,628;    1,136
678,769;  607,814;   -1,083;   -0,318
679,343;  663,366;   -0,628;    1,773
679,917;  782,736;   -1,446;    1,955
680,492;  631,015;    0,826;    3,227
681,066;  663,658;    3,372;    0,409
681,640;  585,028;    1,463;   -0,318
682,214;  610,035;    0,735;    0,500
682,788;  607,132;   -1,356;   -0,773
683,363;  754,775;   -1,810;    1,682
683,937;  629,327;   -1,719;   -0,318
684,511;  659,424;    0,463;   -0,591
685,085;  672,067;   -1,356;    0,318
685,659;  578,710;   -2,538;    0,864
686,232;  829,716;   -0,356;   -0,318
686,806;  695,996;   -0,901;    0,409
687,380;  573,820;   -0,174;    0,591
687,954;  512,099;   -1,174;    1,136
688,528;  849,470;   -0,719;    1,955
689,101;  666,749;   -3,992;    1,045
689,675;  562,028;   -0,356;   -0,136
690,249;  818,125;   -0,719;    0,409
690,822;  809,223;    0,280;    0,318
691,396;  699,956;   -0,265;    1,227
691,969;  613,599;    1,280;    0,136
692,543;  508,242;   -0,447;   -1,955
693,116;  495,158;   -0,265;   -1,409
693,690;  583,437;    0,099;    0,500
694,263;  519,534;   -1,083;    2,955
694,836;  888,723;    1,371;    3,591
695,410;  771,002;   -0,265;    1,773
695,983;  795,190;    0,189;    0,591
696,556;  586,288;   -0,447;   -1,045
697,129;  494,658;   -0,356;    1,409
697,703;  729,300;   -1,629;    1,955
698,276;  611,580;    1,462;   -0,773
698,849;  774,950;    1,280;    1,409
699,422;  539,047;   -1,083;    0,591
699,995;  440,599;    0,007;    0,136
700,568;  584,333;   -0,629;    3,045
701,140;  604,703;   -2,811;    1,682
701,713;  776,346;   -0,174;    2,409
702,286;  659,261;   -0,538;    0,864
702,859;  743,359;   -0,902;   -0,591
703,432;  825,547;    0,825;    0,682
704,004;  698,826;    0,462;    0,318
704,577;  568,469;   -0,629;    0,136
705,150;  630,294;    0,189;    2,500
705,722;  693,664;   -0,356;   -3,227
706,295;  754,398;   -0,175;   -0,591
706,867;  636,404;   -0,175;    1,955
707,440;  726,956;   -1,720;   -0,409
708,012;  804,508;    0,462;    0,591
708,584;  717,424;    2,462;    0,227
709,157;  487,612;    1,825;   -0,591
709,729;  725,255;    2,280;    2,045
710,301;  566,807;    0,734;    0,045
710,874;  580,995;   -1,447;   -0,227
711,446;  484,729;    0,371;    0,864
712,018;  554,644;    0,098;    0,500
712,590;  498,651;   -1,993;    1,682
713,162;  778,475;    0,825;    1,318
713,734;  566,482;    1,825;   -2,045
714,306;  470,761;   -1,902;   -0,409
714,878;  541,949;    0,825;    0,864
715,450;  497,683;    0,643;    0,864
716,022;  511,053;    1,552;    1,318
716,593;  488,969;    0,189;    0,591
717,165;  546,066;   -3,175;   -1,227
717,737;  808,709;    0,280;    0,409
718,309;  579,625;    0,280;   -0,045
718,880;  505,086;   -0,539;   -1,409
719,452;  580,547;   -0,175;   -1,591
720,024;  677,826;    0,734;   -0,591
720,595;  567,650;   -2,902;    0,955
721,167;  551,021;    0,370;   -2,045
721,738;  681,118;   -0,812;   -1,045
722,309;  843,761;   -0,993;   -1,227
722,881;  573,404;   -1,357;    0,773
723,452;  639,319;   -2,630;    2,864
724,023;  653,871;   -0,721;    2,682
724,595;  718,969;    0,007;    0,682
725,166;  595,339;    0,007;   -0,409
725,737;  795,527;    1,734;    0,227
726,308;  575,988;   -0,266;    0,318
726,879;  482,904;   -1,630;    1,227
727,450;  653,001;    0,552;   -0,045
728,021;  587,735;    3,097;    0,682
728,592;  760,650;    0,734;    0,500
729,163;  851,202;    0,643;   -0,136
729,734;  828,390;    0,188;   -0,227
730,305;  674,942;    1,734;    0,136
730,876;  639,767;    0,188;    2,955
731,447;  972,137;    2,188;    2,682
732,017;  861,507;    1,097;    1,864
732,588;  654,514;    0,734;    1,227
733,159;  930,975;    0,643;   -1,045
733,729;  650,890;    0,006;    0,409
734,300;  818,806;    0,915;    0,864
734,870;  623,994;    3,461;    0,591
735,441;  609,728;    0,370;   -0,591
736,011;  599,280;    0,643;   -1,591
736,582;  614,105;   -0,812;    0,045
737,152;  750,293;   -1,721;   -2,045
737,722;  713,390;   -0,267;   -0,682
738,293;  550,306;   -1,358;    1,318
738,863;  731,676;    2,461;    2,318
739,433;  999,773;    5,279;    0,318
740,003;  712,234;   -0,994;   -0,682
740,573;  842,604;    2,097;   -1,591
741,143;  709,793;   -1,085;    0,318
741,713;  607,799;    1,188;   -0,500
742,283;  686,169;    0,915;    1,591
742,853;  615,085;    1,915;    1,591
743,423;  441,182;    1,733;    0,045
743,993;  559,189;   -0,358;    1,500
744,563;  615,650;    0,097;   -0,864
745,133;  647,838;   -0,812;   -0,864
745,702;  509,299;   -0,267;    1,773
746,272;  733,669;   -0,176;    0,591
746,842;  753,494;   -1,358;   -0,591
747,411;  543,319;   -0,267;   -0,318
747,981;  443,143;    0,097;    0,500
748,551;  433,604;    2,278;   -1,045
749,120;  642,429;    0,642;   -0,227
749,690;  588,163;   -0,631;    2,409
750,259;  687,351;    1,369;    2,955
750,828;  756,357;    1,551;   -1,955
751,398;  519,273;    1,278;   -0,045
751,967; 1007,643;    2,187;    0,409
752,536;  645,377;   -0,813;   -0,227
753,105;  759,929;    0,096;    0,227
753,675;  595,572;    0,096;    1,773
754,244;  607,669;   -0,904;    3,591
754,813;  639,039;    0,551;    1,227
755,382;  602,955;    0,460;    0,955
755,951;  731,870;    1,551;    3,682
756,520;  842,149;   -0,085;    1,864
757,089;  951,883;    0,278;    0,500
757,658;  688,071;    1,733;    1,227
758,227;  517,078;    1,096;    0,318
758,795;  571,994;    1,187;    1,136
759,364;  581,000;   -0,086;   -0,591
759,933;  530,461;   -1,176;   -0,045
760,501;  456,195;    0,733;   -1,318
761,070;  620,565;   -2,813;   -1,409
761,639;  575,662;   -1,904;    1,318
762,207;  707,305;    1,551;   -0,955
762,776;  752,039;    0,369;    0,864
763,344;  606,045;   -0,995;    0,591
763,913;  413,325;   -0,722;    1,409
764,481;  937,422;    1,005;   -0,136
765,049;  939,247;   -1,358;    1,409
765,618;  854,799;   -0,086;    0,318
766,186;  655,169;    0,278;    0,136
766,754;  705,902;    0,005;    1,864
767,322;  592,545;   -1,995;    0,409
767,890;  539,006;   -0,722;   -1,773
768,459;  542,467;   -2,177;   -0,318
769,027;  762,656;    1,641;    3,409
769,595;  579,753;    3,278;    2,591
770,163;  684,759;    3,823;    2,955
770,730;  655,493;    0,732;   -0,136
771,298;  642,772;    0,187;   -1,409
771,866;  564,688;   -1,541;    4,955
772,434;  594,876;   -0,631;   -1,864
773,002;  800,792;    0,005;    0,682
773,569;  667,162;    0,914;    1,682
774,137;  795,168;   -0,268;   -0,045
774,705;  577,629;    0,278;   -0,136
775,272;  554,818;    0,641;    0,682
775,840;  567,915;   -0,177;    2,682
776,407;  688,103;    0,277;    1,955
776,975;  567,110;   -0,632;    0,318
777,542;  504,753;   -1,086;   -0,045
778,110;  543,214;   -1,268;   -0,045
778,677;  422,857;   -2,359;   -0,864
779,244;  500,681;    2,186;    1,045
779,812;  650,506;    1,823;    0,864
780,379;  739,149;    0,005;    1,136
780,946;  607,610;    1,005;   -0,773
781,513;  513,798;   -1,450;    0,318
782,080;  490,714;   -0,086;    2,864
782,647;  520,720;   -0,268;    3,045
783,214;  502,818;   -0,177;    3,864
783,781;  708,369;   -0,723;   -0,682
784,348;  643,103;   -0,632;    1,500
784,915;  428,382;   -3,177;    0,318
785,482;  668,207;    1,368;    2,591
786,049;  582,759;    0,186;   -0,591
786,615;  462,402;    0,277;   -0,955
787,182;  423,681;    0,186;   -0,682
787,749;  406,324;   -2,814;    1,409
788,315;  642,694;   -1,632;   -0,409
788,882;  513,882;    1,550;   -1,227
789,448;  811,980;    1,732;   -0,955
790,015;  574,895;    1,095;    3,227
790,581;  765,356;    1,459;    0,227
791,148;  579,908;    0,641;    1,045
791,714;  458,187;   -0,541;    3,136
792,280;  470,467;    0,186;    1,591
792,847;  417,019;    0,550;    2,500
793,413;  503,480;   -0,269;   -0,318
793,979;  725,304;    3,459;   -1,318
794,545;  998,583;    4,459;    2,682
795,111;  883,317;    2,186;    1,318
795,678;  738,687;    0,731;   -1,682
796,244;  894,057;    3,368;    0,136
796,810;  736,155;    1,731;    0,773
797,375;  726,707;    0,549;   -2,136
797,941;  405,531;   -0,541;    0,591
798,507;  422,538;   -0,451;   -0,955
799,073;  459,817;   -0,360;    0,591
799,639;  452,460;   -2,632;    3,136
800,205;  411,285;    0,095;    2,682
800,770;  448,746;    0,640;    1,773
801,336;  464,116;    1,368;   -0,955
801,901; 1058,577;    4,549;    3,136
802,467;  711,765;   -0,542;    2,045
803,033;  498,590;   -0,087;    0,864
803,598;  489,142;    1,913;   -1,045
804,163;  488,875;    1,095;   -0,318
804,729;  593,882;   -0,178;    1,136
805,294;  487,888;    0,822;    2,227
805,859;  433,440;    0,731;   -0,409
806,425;  820,538;    1,186;    2,682
806,990;  801,635;    2,186;    4,318
807,555;  557,914;   -1,451;    2,591
808,120;  698,557;    0,822;   -0,409
808,685;  499,473;    0,185;   -2,500
809,250;  415,570;    0,004;   -0,500
809,815;  397,304;    1,913;    0,682
810,380;  518,401;   -0,269;    1,591
810,945;  707,953;   -1,087;    2,045
811,510;  533,596;    2,094;    1,591
812,075;  596,784;   -0,633;   -1,409
812,640;  832,518;    2,003;    1,409
813,204;  585,161;    0,822;   -0,227
813,769;  719,985;    2,094;   -0,045
814,334;  712,719;    0,458;    0,864
814,898;  439,362;    0,367;    0,591
815,463;  549,459;    1,276;   -0,773
816,027;  492,102;   -0,724;   -2,318
816,592;  402,563;    0,640;   -2,045
817,156;  592,933;    2,094;    1,136
817,721;  719,213;    4,276;    2,318
818,285;  446,946;    2,912;    1,500
818,849;  510,044;   -1,451;    1,682
819,414;  434,778;   -0,269;    2,955
819,978;  379,511;   -1,269;    1,773
820,542;  674,427;    2,003;    0,500
821,106;  503,979;   -0,815;    0,682
821,670;  722,803;   -0,815;    2,591
822,234;  489,628;   -0,270;    1,409
822,798;  389,180;    0,003;    0,500
823,362;  623,550;   -0,633;    4,227
823,926;  479,466;    0,094;    1,136
824,490;  670,290;   -0,997;   -0,682
825,054;  536,115;   -0,088;   -1,136
825,618;  439,485;   -1,542;   -1,500
826,181;  493,855;    0,458;   -1,318
826,745;  603,771;    1,367;   -1,045
827,309;  810,595;    1,185;    1,318
827,872;  678,602;    1,367;    0,955
828,436;  552,336;    1,185;   -0,773
828,999;  455,069;   -0,997;    1,227
829,563;  440,349;   -0,179;    1,136
830,126;  419,173;   -0,179;   -0,591
830,690;  538,089;   -1,997;    2,864
831,253;  455,095;   -0,543;    2,227
831,816;  497,465;   -1,906;    0,500
832,380;  459,108;    0,185;    0,864
832,943;  424,024;   -1,361;   -0,500
833,506;  431,212;    2,639;   -1,227
834,069;  581,400;    3,912;   -0,955
834,632;  427,316;    1,730;    1,318
835,195;  472,413;    1,003;    0,955
835,758;  414,693;   -0,997;    1,955
836,321;  436,335;    0,730;   -1,045
836,884;  400,978;   -0,725;   -0,955
837,447;  346,712;   -2,816;    1,773
838,010;  530,628;    0,366;    3,227
838,573;  523,361;   -1,179;    0,773
839,135;  382,459;   -1,361;   -0,955
839,698;  463,920;    1,275;    0,409
840,261;  408,108;    1,003;   -0,227
840,823;  357,842;   -0,543;    0,864
841,386;  345,121;   -0,452;   -2,409
841,948;  648,946;   -1,361;    1,773
842,511;  439,861;    0,912;    1,682
843,073;  637,868;    1,912;    0,227
843,636;  393,056;   -0,361;   -0,227
844,198;  611,972;    0,911;    0,591
844,760;  566,251;    1,093;    1,955
845,322;  377,348;    0,548;    1,136
845,885;  514,900;    0,730;    0,591
846,447;  440,179;   -1,998;    0,227
847,009;  782,095;    1,911;   -0,682
847,571;  493,647;    0,820;   -2,045
848,133;  437,744;   -1,089;   -1,864
848,695;  302,205;   -0,543;    1,409
849,257;  381,848;   -1,089;   -1,682
849,819;  529,309;   -0,998;   -0,409
850,381;  396,407;   -0,725;   -0,864
850,942;  465,504;    1,093;   -0,591
851,504;  543,601;    1,184;    0,227
852,066;  401,426;    1,275;   -1,591
852,628;  438,614;   -0,180;    1,955
853,189;  342,166;    1,638;    2,682
853,751;  345,627;   -0,907;    1,409
854,312;  505,270;   -0,453;   -1,682
854,874;  636,277;   -2,089;   -0,773
855,435;  443,374;   -0,907;   -1,682
855,997;  483,653;   -1,816;   -0,136
856,558;  599,569;    0,366;    1,773
857,119;  514,393;    0,820;    2,864
857,681;  353,127;    0,002;    0,318
858,242;  621,497;    1,911;   -2,136
858,803;  581,231;    0,456;   -0,773
859,364;  450,965;    0,184;   -4,773
859,925;  530,426;   -2,453;   -0,955
860,486;  404,069;   -0,453;   -0,955
861,047;  355,711;   -0,544;   -1,227
861,608;  406,536;   -1,089;   -0,773
862,169;  262,724;    0,638;   -0,045
862,730;  400,094;    0,456;    1,409
863,291;  441,283;   -0,635;   -0,500
863,852;  415,926;   -0,635;    1,955
864,412;  422,114;   -0,271;   -0,864
864,973;  654,120;   -0,089;    0,500
865,534;  762,036;   -1,726;    0,227
866,094;  538,042;    1,820;    0,227
866,655;  684,503;    1,274;    3,318
867,215;  495,964;    0,274;    0,136
867,776;  346,244;    0,547;   -0,136
868,336;  434,887;   -1,453;    0,136
868,897;  806,893;    2,638;    1,682
869,457;  596,536;    1,365;    0,318
870,017;  381,724;    0,547;   -1,227
870,578;  377,185;   -0,817;    0,773
871,138;  475,010;   -2,089;   -0,955
871,698;  391,471;   -0,817;   -1,318
872,258;  505,205;   -0,453;   -2,864
872,818;  650,211;    2,729;    0,045
873,378;  470,854;    0,638;    1,045
873,938;  450,315;    0,547;    0,500
874,498;  351,321;    0,274;   -1,955
875,058;  465,055;    2,183;    1,773
875,618;  465,425;    1,910;   -2,682
876,177;  498,159;    1,274;    0,136
876,737;  335,438;   -0,090;    1,955
877,297;  690,627;    0,183;    1,955
877,856;  619,178;   -0,362;    0,318
878,416;  391,639;    1,183;   -0,136
878,976;  353,919;   -1,817;    0,409
879,535;  396,652;    0,092;    3,136
880,095;  378,659;   -0,544;    0,045
880,654;  324,756;   -1,090;    1,318
881,213;  617,490;    2,456;    1,500
881,773;  461,315;    2,637;    2,682
882,332;  931,139;    3,365;    5,136
882,891;  446,237;    3,092;    2,136
883,451;  435,970;   -1,272;    1,682
884,010;  403,795;   -2,908;   -0,409
884,569;  345,529;   -0,999;   -0,045
885,128;  510,808;    2,819;   -1,864
885,687;  742,360;    4,455;    0,682
886,246;  913,276;    1,455;    2,136
886,805;  725,918;    2,455;    2,045
887,364;  389,198;   -0,999;   -0,500
887,922;  317,931;   -1,181;    0,045
888,481;  520,120;   -1,545;    0,591
889,040;  576,581;    1,183;    2,136
889,599;  456,224;    2,455;    1,409
890,157;  459,594;    1,455;    2,409
890,716;  394,691;   -0,090;    0,227
891,274;  510,970;    0,092;   -1,136
891,833;  568,159;    1,546;    0,864
892,391;  472,710;   -0,454;    0,500
892,950;  549,535;    1,819;   -0,773
893,508;  366,269;    0,455;   -0,409
894,067;  294,912;    0,637;    0,136
894,625;  395,645;   -0,636;   -1,500
895,183;  357,652;   -0,363;   -0,682
895,741;  620,022;    1,728;   -1,773
896,299;  431,483;   -0,545;   -2,409
896,858;  371,126;    0,819;   -1,591
897,416;  500,223;    2,728;   -1,318
897,974;  425,139;    1,819;    0,318
898,532;  846,964;    6,091;    2,682
899,089;  566,243;    2,091;   -0,682
899,647;  463,158;   -1,454;    1,318
900,205;  463,619;    1,182;    1,045
900,763;  452,535;   -0,454;    0,227
901,321;  407,087;    2,364;   -1,409
901,878;  252,639;   -1,000;   -0,773
902,436;  340,282;   -1,363;    1,318
902,994;  994,288;    4,728;    3,682
903,551;  573,840;    0,728;    0,409
904,109;  446,574;    0,182;   -1,409
904,666;  410,944;    2,455;    1,045
905,224;  303,859;    0,182;   -0,409
905,781;  475,048;    0,727;   -0,318
906,338;  404,418;   -1,363;    1,045
906,895;  306,424;    0,637;    2,045
907,453;  562,249;    1,727;    1,136
908,010;  418,165;   -0,909;    0,409
908,567;  405,626;    1,273;    0,591
909,124;  270,723;    0,364;   -1,500
909,681;  330,548;   -2,909;    0,682
910,238;  359,918;    0,636;   -1,318
910,795;  276,015;   -0,273;   -1,136
911,352;  296,106;   -2,909;   -2,682
911,909;  338,924;   -1,364;   -0,864
912,466;  332,288;   -3,182;    1,500
913,022;  439,106;   -1,636;    0,500
913,579;  504,742;   -0,909;    2,045
914,136;  387,561;    1,636;    0,955
914,692;  387,652;    0,091;   -1,227
915,249;  422,652;    1,455;    0,409
915,806;  481,106;    0,182;    1,955
916,362;  384,652;    1,909;    1,864
916,918;  367,470;    2,000;    1,045
917,475;  480,652;   -1,182;    0,955
918,031;  333,561;    3,364;   -0,045
918,587;  404,470;   -0,909;   -0,318
919,144;  323,924;   -2,273;    0,227
919,700;  249,106;    1,727;    0,773
920,256;  261,379;    0,727;    0,045
920,812;  318,561;   -0,727;   -1,045
921,368;  283,742;   -1,727;   -1,045
921,924;  313,470;    0,182;   -0,136
922,480;  402,470;   -0,545;    1,227
923,036;  403,197;    1,273;    1,955
923,592;  308,288;    0,455;    0,318
924,148;  319,015;    0,455;   -0,955
924,704;  447,015;   -1,364;   -0,409
925,259;  283,470;   -0,273;    0,591
925,815;  292,379;    1,455;    0,500
926,371;  267,561;    2,909;    1,409
926,926;  411,742;    2,091;    0,591
927,482;  385,833;   -1,364;    0,773
928,037;  320,652;    0,909;    2,045
928,593;  483,288;    1,636;    1,045
929,148;  289,106;   -1,818;   -1,500
929,704;  355,470;   -1,455;   -0,500
930,259;  290,379;    0,091;   -0,136
930,814;  451,652;   -0,818;    1,955
931,369;  390,288;    1,091;   -0,773
931,925;  250,652;   -0,091;    0,136
932,480;  343,742;   -2,818;   -2,591
933,035;  625,015;    0,545;   -0,318
933,590;  536,833;    0,364;   -1,773
934,145;  252,197;   -1,364;   -0,318
934,700;  175,652;    0,455;   -0,591
935,255;  229,561;   -0,091;    0,045
935,809;  506,561;    3,182;    0,864
936,364;  237,561;   -0,455;   -0,136
936,919;  226,652;    0,455;   -1,773
937,474;  169,742;    1,455;    0,136
938,028;  181,924;   -1,636;    1,136
938,583;  507,742;    1,818;    4,682
939,138;  255,288;    2,091;    2,136
939,692;  154,742;    1,636;   -1,136
940,247;  201,924;   -0,727;   -1,045
940,801;  224,561;   -0,636;    0,227
941,355;  164,561;   -0,364;    2,591
941,910;  120,561;   -0,273;   -2,136
942,464;  138,833;   -0,818;   -0,318
943,018;  300,561;    1,000;   -0,227
943,572;  192,833;    2,545;   -0,682
944,126;  250,742;    0,091;   -0,409
944,681;  167,197;    3,091;    0,227
945,235;  126,652;    1,000;   -0,591
945,789;  112,015;    0,364;   -1,864
946,342;  285,470;    0,455;   -0,591
946,896;  144,197;   -2,273;    0,955
947,450;  121,106;    1,545;   -0,227
948,004;  283,924;    1,727;   -0,045
948,558;  170,742;    0,273;   -0,864
949,111;  162,015;   -0,273;   -0,318
949,665;  278,015;    1,636;   -0,682
950,219;  259,742;   -0,091;   -1,045
950,772;  203,106;   -1,909;    1,864
951,326;  192,470;    0,545;   -0,955
951,879;  157,833;    0,727;   -2,318
952,433;  242,561;    0,000;    2,227
952,986;  140,197;    2,909;    0,682
953,539;  118,106;   -0,273;    0,591
954,093;   92,561;    0,545;   -1,318
954,646;  167,470;    0,909;    1,318
955,199;  114,197;    0,000;   -0,500
955,752;  277,924;   -0,455;    1,773
956,305;  171,561;   -0,091;    2,955
956,858;  196,742;    0,818;   -0,318
957,411;  228,015;   -0,545;    2,136
957,964;  185,742;    1,364;    2,136
958,517;  130,288;   -1,545;    3,136
959,070;   99,015;   -0,455;    1,955
959,623;  271,197;    1,091;    1,500
960,176;  241,924;    1,727;    2,045
960,728;  206,379;   -2,727;    0,773
961,281;  166,742;    0,545;    0,500
961,834;  121,652;   -0,909;    0,864
962,386;  132,015;    1,727;    1,045
962,939;  115,197;    0,364;   -0,318
963,491;  143,379;    0,455;    1,136
964,043;  110,015;    1,182;    2,409
964,596;  217,106;   -1,000;    2,227
965,148;  155,288;   -1,000;    1,773
965,700;  105,561;    1,091;   -0,227
966,253;  210,924;   -0,636;    0,318
966,805;  178,197;   -2,273;    0,773
967,357;  138,288;    1,091;   -1,500
967,909;  201,288;    0,455;   -1,227
968,461;  138,015;    0,545;    3,136
969,013;  111,470;   -0,182;   -0,864
969,565;  206,106;   -0,455;   -1,136
970,117;  346,106;   -0,364;    1,045
970,669;  211,288;    0,182;   -0,136
971,220;   90,561;   -0,455;   -1,500
971,772;  145,015;   -0,636;   -0,318
972,324;  196,924;    0,091;   -0,500
972,876;  127,106;    0,818;   -0,045
973,427;  200,288;    1,909;   -1,045
973,979;  252,833;   -0,727;   -2,500
974,530;  138,924;    1,818;    1,318
975,082;  176,833;   -0,545;    1,682
975,633;  139,561;    1,091;    1,682
976,184;  160,561;    0,909;    0,773
976,736;  159,288;    0,091;    0,227
977,287;  175,470;   -0,909;   -0,500
977,838;  149,561;    0,909;   -0,318
978,389;  145,470;   -1,000;   -0,500
978,940;   81,015;    0,545;   -0,409
979,491;   81,106;    0,091;   -0,500
980,042;  136,652;    0,182;    3,045
980,593;  150,470;   -2,545;    0,227
981,144;  194,106;    2,545;   -0,500
981,695;  200,652;    1,455;    1,500
982,246;  172,379;   -0,273;    1,045
982,797;  102,106;   -1,727;    0,682
983,347;  184,197;    0,364;    0,591
983,898;  315,379;    3,091;    0,409
984,449;  297,561;    2,182;    0,773
984,999;  197,470;    1,455;   -1,136
985,550;  167,379;    0,182;   -0,318
986,100;   94,288;   -0,455;   -0,318
986,651;   91,106;   -0,818;    0,045
987,201;  105,652;   -1,000;   -0,591
987,751;  108,379;    0,818;    2,864
988,302;  130,561;    2,636;    1,500
988,852;  170,379;    0,455;   -1,136
989,402;  197,470;    0,091;    0,682
989,952;  219,015;   -2,182;    0,864
990,502;  122,652;   -0,091;    0,682
991,052;   67,106;   -0,727;    0,045
991,602;   95,924;   -2,909;    1,318
992,152;  124,924;    0,455;    0,682
992,702;  147,561;    1,364;   -0,045
993,252;  113,015;   -3,000;   -0,500
993,802;  168,924;   -0,273;    1,318
994,352;  137,561;   -1,545;    1,136
994,901;   86,561;   -0,182;    3,227
995,451;   82,652;   -0,182;    0,318
996,000;  100,015;    1,636;    0,318
996,550;  113,288;    2,273;    0,227
997,100;  128,742;    1,273;   -0,045
997,649;  203,924;    2,182;    0,955
998,198;  107,833;    1,727;   -1,500
998,748;  165,833;    1,091;   -2,318
999,297;  129,106;   -0,818;   -0,409
999,846;  200,561;    1,000;   -0,773
1000,395;  150,106;   -0,818;    0,500
1000,945;  217,015;    1,818;   -0,773
1001,494;  213,561;    2,364;    0,682
1002,043;  217,015;    4,636;    0,864
1002,592;  113,833;   -1,091;    1,955
1003,141;  100,652;   -0,455;   -0,682
1003,690;  202,197;    1,727;    0,500
1004,238;  133,197;    1,455;   -0,045
1004,787;   90,924;    1,364;    1,227
1005,336;  185,742;    0,364;    0,682
1005,885;  151,652;    1,364;   -2,773
1006,433;  144,015;    0,545;    0,955
1006,982;  239,652;    0,455;    1,682
1007,531;  159,106;   -1,818;   -0,227
1008,079;  141,379;   -2,273;    0,500
1008,627;  111,742;   -1,455;    0,409
1009,176;  128,197;    0,000;   -1,955
1009,724;   92,561;    1,091;    0,864
1010,273;  180,015;    1,273;    0,500
1010,821;  109,742;    0,091;    1,409
1011,369;   92,379;   -1,364;    1,318
1011,917;   97,470;   -1,364;   -0,591
1012,465;  139,379;    1,273;   -1,591
1013,013;  127,470;    2,091;   -1,682
1013,561;  200,106;    0,455;   -0,773
1014,109;  254,833;   -1,909;    1,682
1014,657;  175,288;    0,364;    0,591
1015,205;  119,470;    1,636;   -0,955
1015,753;   93,106;   -0,545;   -1,409
1016,301;  132,924;   -2,636;    3,045
1016,848;  176,470;   -1,273;    0,409
1017,396;  165,197;    2,545;    0,045
1017,944;  164,197;    1,182;    1,864
1018,491;  122,470;    0,273;    1,409
1019,039;  296,561;    0,455;    0,591
1019,586;  155,197;   -1,364;    1,682
1020,134;  142,379;    0,455;    1,500
1020,681;  192,470;    0,182;   -1,136
1021,228;  145,106;    2,909;   -2,227
1021,776;  125,833;    1,182;   -1,136
1022,323;  262,015;    0,455;    0,773
1022,870;  194,379;   -1,000;   -0,045
1023,417;  224,288;    2,636;    1,864
1023,964;  136,106;    2,636;    1,227
1024,511;  115,288;    1,000;    0,773
1025,058;  147,106;    3,182;   -0,045
1025,605;  119,288;   -2,273;    3,136
1026,152;  239,470;    1,727;   -0,591
1026,699;  154,106;    1,818;    1,318
1027,245;  141,106;   -0,091;    0,318
1027,792;  103,106;   -1,000;    1,409
1028,339;  239,197;    2,364;   -0,045
1028,885;  153,470;    1,000;   -0,227
1029,432;  129,924;   -0,091;    0,227
1029,978;  175,833;   -1,000;   -1,591
1030,525;  189,197;    1,000;    0,409
1031,071;  112,924;   -1,364;    1,136
1031,618;  277,561;    0,364;    1,682
1032,164;  179,015;   -0,091;    3,045
1032,710;  202,197;    1,636;   -1,500
1033,256;  181,833;   -0,636;   -0,136
1033,803;  100,742;   -0,545;    1,500
1034,349;   37,652;   -1,364;    0,136
1034,895;   61,742;    0,000;   -0,318
1035,441;   99,015;   -0,818;    0,318
1035,987;  125,652;   -2,364;   -0,682
1036,533;  164,652;   -1,455;   -0,955
1037,078;  294,379;    1,455;    1,682
1037,624;  202,379;    2,455;   -0,955
1038,170;  116,742;    0,455;   -0,318
1038,716;  166,379;    1,636;   -0,409
1039,261;  104,106;   -2,273;   -0,773
1039,807;  109,833;   -0,091;    3,409
1040,352;  118,015;   -1,909;   -0,318
1040,898;  110,833;   -1,545;   -0,682
1041,443;   81,197;   -1,455;   -2,591
1041,989;  269,197;    1,091;    1,591
1042,534;  149,924;   -0,364;    2,591
1043,079;   83,106;    2,909;    0,955
1043,625;  135,470;    1,818;    0,500
1044,170;  143,742;   -1,364;    1,045
1044,715;  260,197;    2,455;    0,955
1045,260;  202,833;    2,182;   -0,955
1045,805;  111,742;    1,182;   -0,591
1046,350;   92,652;    1,364;   -0,409
1046,895;  203,015;    2,909;    1,591
1047,440;  185,924;    5,364;    0,409
1047,985;  117,197;    2,818;   -0,955
1048,530;  102,470;    1,545;    1,227
1049,074;  128,379;    0,000;    0,318
1049,619;  100,652;   -1,364;    1,955
1050,164;   97,197;    0,455;    0,227
1050,708;  159,924;   -0,455;    0,045
1051,253;  292,833;    1,273;   -2,227
1051,797;  169,833;    0,818;   -1,318
1052,342;   79,197;   -1,182;    1,045
1052,886;  128,015;    0,364;   -1,409
1053,430;   75,197;   -1,364;    0,136
1053,975;  135,561;   -0,818;   -0,318
1054,519;  127,742;   -0,727;    3,227
1055,063;  155,379;    0,909;    1,318
1055,607;  158,833;   -0,182;    0,227
1056,151;  155,106;    2,909;    1,682
1056,695;  106,833;    2,273;   -1,136
1057,239;  100,561;   -1,727;   -0,682
1057,783;  129,288;    0,818;   -1,500
1058,327;  172,379;    0,000;    1,409
1058,871;  253,470;   -0,545;    1,318
1059,415;  179,652;   -0,818;   -0,045
1059,958;  257,470;    1,455;    2,591
1060,502;  116,652;   -1,000;   -0,773
1061,046;   74,106;    0,364;   -0,955
1061,589;   70,197;   -3,000;   -1,136
1062,133;   60,561;   -1,273;    1,864
1062,676;   82,015;    1,182;    0,864
1063,220;   99,561;    1,091;    0,500
1063,763;  116,470;    0,909;    1,136
1064,306;  122,924;   -0,909;    1,864
1064,849;  128,470;   -0,909;    0,591
1065,393;  111,561;    2,000;   -1,500
1065,936;  114,833;    0,182;   -0,409
1066,479;   80,106;   -1,455;    1,318
1067,022;   88,652;   -0,273;   -0,227
1067,565;   74,652;   -0,091;   -1,318
1068,108;   62,288;    0,727;   -0,591
1068,651;   53,015;   -0,636;    1,409
1069,194;   58,288;   -0,455;   -1,682
1069,736;   66,652;   -1,273;    0,955
1070,279;   57,106;   -1,364;   -0,500
1070,822;   97,106;   -2,000;   -0,318
1071,364;  170,379;   -0,364;    1,318
1071,907;   95,652;   -0,727;    3,227
1072,450;   31,833;    0,000;   -0,045
1072,992;   68,106;   -0,273;    3,136
1073,535;   96,197;    2,091;    2,136
1074,077;   61,379;   -0,727;    2,045
1074,619;   53,015;   -1,364;    0,591
1075,161;   75,379;   -1,091;    1,500
1075,704;  143,379;    1,545;    1,227
1076,246;   75,652;   -0,182;    0,682
1076,788;   41,652;   -0,364;    1,773
1077,330;   39,015;    1,273;    2,136
1077,872;   62,015;    0,909;    0,955
1078,414;  152,015;    2,727;    0,773
1078,956;   77,106;    1,273;   -0,227
1079,498;  142,197;    1,636;    0,318
1080,040;   79,561;    1,909;   -1,318
1080,581;   57,924;    1,636;   -0,318
1081,123;   32,288;    0,091;   -0,773
1081,665;   39,197;   -1,182;   -0,955
1082,206;  138,379;    1,364;   -0,500
1082,748;   83,924;    0,727;    2,045
1083,289;   44,561;   -2,000;    1,318
1083,831;   35,833;   -0,545;    0,227
1084,372;   64,288;    0,000;    0,591
1084,913;   59,561;    1,091;    0,864
1085,455;   42,652;   -1,909;   -2,045
1085,996;   33,833;   -2,273;    0,136
1086,537;   44,379;   -0,091;    0,864
1087,078;   55,106;   -0,909;   -2,136
1087,619;   83,015;   -1,273;    0,227
1088,160;   63,742;    0,000;    1,318
1088,701;   58,197;   -1,091;    0,682
1089,242;   47,197;    1,364;   -2,227
1089,783;   71,833;   -0,273;    1,409
1090,324;   55,742;    0,455;    0,682
1090,865;   39,106;    2,727;   -0,409
1091,405;   29,106;    0,727;    2,227
1091,946;   54,015;    0,182;   -0,955
1092,487;   30,924;    0,818;   -1,409
1093,027;   78,106;   -1,364;   -1,500
1093,568;   45,288;   -0,364;    1,227
1094,108;   59,470;    0,273;    1,773
1094,649;   46,652;   -1,182;    0,136
1095,189;   34,470;   -0,636;   -0,682
1095,729;   32,379;   -0,091;    0,955
1096,269;   27,288;    0,727;   -0,955
1096,810;  100,015;   -1,364;    0,500
1097,350;   69,197;    1,364;   -0,773
1097,890;   47,561;    0,364;    1,227
1098,430;  132,470;    2,364;    2,864
1098,970;   97,652;    2,182;    1,682
1099,510;   39,197;    0,545;   -2,318
1100,050;   34,833;    1,000;   -1,591
1100,589;   41,924;   -0,727;   -0,318
1101,129;   61,833;    0,818;   -0,955
1101,669;   98,197;    1,727;    2,136
1102,209;   64,288;   -0,091;    2,227
1102,748;   46,470;    0,000;    0,955
1103,288;   49,833;    1,273;   -1,227
1103,827;   44,652;    3,091;   -2,227
1104,367;   33,197;   -0,091;   -2,409
1104,906;   35,924;    1,364;   -1,136
1105,445;   54,652;    0,636;   -1,136
1105,985;   37,288;   -0,727;    1,500
1106,524;   43,742;   -1,727;   -0,682
1107,063;   41,833;   -2,727;    1,409
1107,602;   29,106;   -1,909;   -1,500
1108,141;   24,742;   -1,909;    1,500
1108,680;   53,742;   -3,455;   -0,591
1109,219;   39,015;   -0,909;   -0,500
1109,758;   34,742;    0,455;    0,682
1110,297;   33,470;    1,000;   -0,682
1110,836;   24,742;   -0,727;    0,955
1111,375;   27,470;   -2,545;    0,409
1111,913;   53,106;   -1,000;    0,773
1112,452;   40,288;   -0,273;    0,136
1112,991;   19,652;    1,091;    1,955
1113,529;   23,197;   -0,818;   -0,045
1114,068;   32,561;   -0,273;    2,955
1114,606;   19,652;   -0,364;   -0,955
1115,144;   45,470;   -1,273;    1,045
1115,683;   37,197;   -0,727;    0,318
1116,221;   52,197;   -0,455;   -0,864
1116,759;   30,015;    0,636;   -0,864
1117,297;   59,288;    0,000;    1,864
1117,836;   30,197;   -2,182;   -1,227
1118,374;   29,379;    0,182;   -0,682
1118,912;   30,652;    0,909;    2,682
1119,450;   29,742;    1,000;    0,864
1119,988;   29,015;    1,545;    2,136
1120,525;  172,379;    5,091;    3,318
1121,063;   79,015;    1,182;    1,864
1121,601;   31,197;   -0,909;   -1,227
1122,139;   22,652;   -0,727;   -2,045
1122,676;   65,197;   -0,727;    2,773
1123,214;   57,470;   -1,182;    4,409
1123,751;   23,742;    1,727;    2,227
1124,289;   39,197;   -0,091;   -0,409
1124,826;   27,288;    1,727;    0,227
1125,364;   10,833;    1,727;   -0,955
1125,901;   61,197;    1,182;    1,227
1126,438;   54,652;    0,818;    0,955
1126,975;   15,015;   -0,727;   -0,773
1127,513;   18,197;    0,273;    2,136
1128,050;   13,924;    1,636;   -0,682
1128,587;   27,924;    2,000;   -0,227
1129,124;   34,924;    0,091;    1,318
1129,661;   18,015;    0,273;    0,227
1130,198;   49,561;    1,636;    0,773
1130,734;   33,106;    0,182;    1,409
1131,271;   14,106;   -0,909;    0,864
1131,808;   39,924;    2,909;    3,045
1132,345;   21,288;    1,545;    0,318
1132,881;    2,106;   -1,545;   -1,864
1133,418;   24,288;    0,727;   -1,136
1133,954;   14,288;    2,455;   -2,682
1134,491;   26,015;    1,364;   -0,773
1135,027;   13,924;    2,364;    0,864
1135,564;   24,197;    0,273;    2,955
1136,100;   23,924;    0,364;    2,136
1136,636;   12,106;   -1,273;   -1,045
1137,172;   17,015;    0,000;   -1,045
1137,708;   13,652;   -1,364;   -1,045
1138,245;    9,652;    1,273;   -1,227
1138,781;   10,652;    1,091;   -3,318
1139,317;   15,015;    1,273;   -1,409
1139,852;   19,833;    3,091;    0,136
1140,388;   25,742;   -1,182;   -0,409
1140,924;   15,470;   -1,091;   -2,227
1141,460;    6,561;   -1,636;    0,136
1141,996;    3,106;   -1,364;    2,682
1142,531;    7,288;    1,364;    3,318
1143,067;   38,833;    1,182;    1,045
1143,602;   52,106;   -0,091;   -0,318
1144,138;   22,924;   -2,636;    1,045
1144,673;    3,924;   -1,455;    1,409
1145,209;   15,924;   -1,909;   -0,318
1145,744;    9,561;   -0,727;    0,864
1146,279;   19,742;    1,818;   -0,136
1146,815;   12,561;    1,545;   -2,682
1147,350;   16,379;   -1,364;    0,045
1147,885;    5,924;   -0,818;   -1,318
1148,420;    4,470;   -2,273;    0,773
1148,955;    1,561;   -1,727;    1,864
1149,490;    8,015;   -0,909;   -1,591
1150,025;    7,288;    0,455;   -1,773
1150,560;   19,924;    1,091;   -0,955
1151,094;   14,742;    1,455;   -0,591
1151,629;   14,015;    1,636;    0,864
1152,164;    8,470;    1,364;    1,318
1152,698;    4,197;   -0,182;   -0,136
1153,233;    4,106;    0,091;   -0,682
1153,767;    4,106;   -3,000;   -2,318
1154,302;    8,288;   -1,455;    1,773
1154,836;    8,015;   -0,455;   -2,136
1155,371;   12,924;   -1,364;    3,682
1155,905;    6,742;   -0,636;    1,682
1156,439;    9,288;   -0,636;   -0,500
1156,973;    9,106;    0,364;    0,318
1157,507;    5,833;   -0,364;    0,682
1158,042;    7,561;   -0,727;    1,045
1158,576;    9,924;    0,182;    1,773
1159,110;   11,561;   -0,818;    2,409
1159,643;    9,015;    0,636;   -0,045
1160,177;    4,561;   -1,545;    1,500

