
Integration time [ms]:   0,040
Averaging Nr. [scans]: 11
Smoothing Nr. [pixels]: 0
Data measured with spectrometer [name]: 7318044SP
Wave   ;Sample   ;Dark     ;Reference
[nm]   ;[counts] ;[counts] ;[counts] 

186,757;   32,308;   31,551;    1,318
187,357;   28,689;   22,551;    0,955
187,958;   18,517;   15,460;   -1,591
188,558;   22,666;    8,915;   -1,227
189,159;   11,061;    6,733;   -4,500
189,759;    7,512;    7,278;   -3,591
190,360;    8,392;    2,824;   -2,136
190,960;    9,813;    2,915;   -4,136
191,560;    8,271;    3,189;   -6,591
192,161;   55,254;    4,372;   -3,500
192,761;   27,996;    4,010;   -3,227
193,361;   17,672;    1,556;   -3,773
193,962;   24,704;    2,010;   -2,682
194,562;    3,685;    1,189;   -3,955
195,162;    4,399;   -2,448;   -2,227
195,762;   27,926;   -3,176;   -0,045
196,362;   18,687;    1,370;   -2,500
196,963;    1,098;    2,006;   -0,864
197,563;   10,578;    1,551;   -0,955
198,163;    4,312;    0,096;   -0,682
198,763;    3,629;    1,733;   -0,500
199,363;   12,273;    3,096;   -0,500
199,963;    5,180;    0,369;    0,409
200,563;    6,580;    2,823;   -1,409
201,163;    4,625;    3,277;   -0,227
201,763;    7,884;    3,732;    0,318
202,363;    2,999;    1,459;    1,500
202,963;    8,227;    1,459;    1,045
203,563;   20,106;    0,277;    0,500
204,162;    7,754;    2,096;   -1,864
204,762;    5,509;    0,550;    0,591
205,362;    2,461;    3,004;    1,955
205,962;    7,713;    3,096;    1,955
206,562;    4,892;    1,823;    2,318
207,161;    2,175;   -0,087;    0,318
207,761;   18,074;    1,277;    2,409
208,361;    7,305;   -0,268;    1,409
208,960;    7,789;    0,459;    1,500
209,560;    4,699;    1,277;    1,591
210,160;    7,751;    0,550;    1,864
210,759;    3,906;    4,186;    1,227
211,359;    1,013;    1,459;    1,045
211,958;   23,850;    1,277;    2,045
212,558;   23,288;    1,732;    1,864
213,157;    9,870;    1,822;    1,500
213,757;   40,484;    3,822;   -0,227
214,356;   15,532;    1,277;   -0,409
214,956;   33,451;    3,095;    0,409
215,555;   10,225;    2,095;    2,136
216,154;    0,226;   -2,723;   -0,591
216,754;    0,857;    0,277;    0,773
217,353;    2,525;   -0,268;   -1,045
217,952;   -1,354;   -0,178;    0,318
218,552;    9,012;    1,368;   -0,773
219,151;    2,774;    0,277;    0,955
219,750;    3,555;    0,004;   -0,227
220,349;    1,116;   -0,451;    1,045
220,948;   10,337;   -1,360;    1,136
221,548;    1,723;    0,913;    1,227
222,147;    1,619;   -0,087;   -0,409
222,746;   11,783;   -0,451;   -0,955
223,345;    6,433;    0,731;    0,500
223,944;    2,925;   -0,451;    0,773
224,543;    8,889;    1,004;   -1,409
225,142;    2,487;    0,094;    0,136
225,741;    4,671;   -0,814;    1,045
226,340;    2,595;   -0,451;   -0,955
226,939;    6,341;   -0,996;   -0,136
227,538;    1,754;   -0,360;   -0,773
228,137;   12,591;   -0,814;    0,864
228,735;    8,315;   -0,541;    1,227
229,334;    2,401;   -0,905;   -0,227
229,933;   13,954;    0,459;    0,591
230,532;   11,102;    1,186;   -0,409
231,131;   20,899;    1,732;    0,318
231,729;    7,212;   -2,450;   -2,318
232,328;    4,749;   -0,723;   -1,500
232,927;    3,336;    1,004;   -0,500
233,525;    1,635;    3,640;    0,045
234,124;    6,192;    2,368;   -1,591
234,723;    4,123;    0,913;   -1,045
235,321;    0,439;    2,277;    0,136
235,920;    2,397;    1,186;   -1,227
236,518;    9,895;    3,459;    0,318
237,117;    1,543;    0,004;   -0,227
237,715;    5,130;    0,640;   -0,500
238,314;    7,020;   -0,087;   -2,318
238,912;   10,657;   -0,723;   -1,409
239,510;    8,646;    0,459;   -1,227
240,109;   20,406;    0,004;    3,773
240,707;   15,055;   -0,996;    1,227
241,305;    2,076;    0,550;    0,136
241,904;    8,166;   -0,178;   -2,045
242,502;   23,084;   -0,632;   -0,227
243,100;    9,943;   -0,087;   -0,955
243,698;    2,984;    0,732;    1,682
244,297;    3,585;   -0,632;    0,682
244,895;    4,616;   -0,269;   -2,318
245,493;   10,279;    2,186;   -0,591
246,091;   20,176;    1,368;   -1,318
246,689;    7,991;    1,004;    0,591
247,287;    9,351;    0,822;   -1,136
247,885;    5,406;   -1,451;    1,227
248,483;    2,620;    1,822;   -0,500
249,081;    9,094;    0,185;    1,591
249,679;    9,902;   -0,178;    1,682
250,277;    6,387;   -1,723;    0,864
250,875;    8,036;   -1,087;   -1,045
251,473;    4,911;   -1,178;    0,500
252,071;   17,166;    1,459;    1,045
252,669;    5,289;   -1,814;    0,318
253,267;    5,383;   -0,087;    0,773
253,864;    9,169;   -0,360;    0,682
254,462;   18,944;    1,640;    1,591
255,060;    6,566;   -0,269;    1,318
255,658;    4,653;    0,822;   -0,136
256,255;    7,985;    0,186;   -2,045
256,853;   15,679;   -0,269;    1,409
257,451;    8,455;    0,822;    1,864
258,048;   69,259;    1,822;    1,864
258,646;   34,941;    1,731;   -1,045
259,243;   45,043;   -0,087;    2,227
259,841;   26,563;   -0,814;    0,318
260,438;   12,863;   -0,087;    0,864
261,036;   26,498;   -1,905;    1,409
261,633;   14,113;   -0,087;    2,227
262,231;    9,009;    2,731;   -0,045
262,828;    5,024;   -0,905;    1,136
263,425;    8,981;    0,913;   -0,591
264,023;   10,293;    0,186;    0,045
264,620;   32,117;   -0,360;   -0,318
265,217;   54,019;   -2,087;    3,136
265,815;   19,452;   -1,905;    2,136
266,412;   31,297;    0,731;    0,136
267,009;   28,089;   -1,451;    0,773
267,606;   48,759;    0,822;   -0,955
268,203;   26,056;   -0,269;   -0,591
268,801;   24,742;    1,731;    0,591
269,398;   17,325;   -0,360;    2,500
269,995;   37,751;    0,277;    1,591
270,592;   29,038;   -0,632;   -0,500
271,189;   12,689;    0,186;    0,409
271,786;   10,985;   -0,632;    1,227
272,383;   44,595;   -1,087;    0,227
272,980;   25,730;    0,277;    0,318
273,577;   16,187;    0,004;    1,227
274,174;   15,744;    0,822;    2,591
274,771;   38,289;   -0,814;   -0,773
275,367;  140,184;    2,277;    1,409
275,964;   72,764;    0,731;   -0,500
276,561;   27,115;    1,549;   -1,045
277,158;   11,357;    0,095;   -1,773
277,755;   60,367;    2,185;    0,409
278,351;   39,029;   -0,451;   -1,500
278,948;   48,818;   -0,815;    0,045
279,545;   41,422;   -1,360;    2,318
280,141;   63,353;   -1,723;   -2,045
280,738;   73,920;   -0,451;   -0,136
281,334;   31,234;   -1,633;    0,591
281,931;   18,506;   -0,087;   -1,318
282,528;   53,675;    0,822;   -0,500
283,124;   72,671;   -1,087;   -0,500
283,721;   64,949;   -0,451;    1,409
284,317;   37,056;    0,185;    2,500
284,913;   72,590;   -1,360;    0,591
285,510;  104,499;    0,640;   -0,318
286,106;   80,917;   -2,269;   -0,955
286,703;   50,900;   -0,360;    1,955
287,299;   36,018;   -1,451;   -0,591
287,895;   31,664;    0,822;   -1,045
288,491;   26,325;    0,186;    2,136
289,088;   51,712;   -2,360;    2,409
289,684;   61,380;   -1,723;    1,500
290,280;  113,799;    0,368;    0,682
290,876;   93,113;    1,822;    5,500
291,472;   76,358;    1,276;    2,227
292,068;   88,286;    1,367;    0,227
292,665;   58,473;    2,095;    0,773
293,261;   35,331;    0,276;    2,136
293,857;   89,612;    2,913;    2,136
294,453;   63,133;    3,550;    0,955
295,049;  151,710;   -0,268;    1,955
295,644;   97,059;    0,095;    0,136
296,240;   49,920;   -0,905;   -0,136
296,836;   87,223;   -0,995;    0,318
297,432;  134,811;    1,096;   -0,500
298,028;  140,540;    0,732;    0,773
298,624;  102,413;    1,459;    1,864
299,220;  103,478;    2,368;    0,591
299,815;   97,604;    1,005;   -0,409
300,411;  144,528;    0,914;    1,773
301,007;  184,168;    1,368;    0,227
301,602;  112,410;   -0,541;   -2,318
302,198;  187,322;    0,732;   -0,773
302,794;  120,924;    1,187;   -0,500
303,389;   86,205;   -1,177;    1,045
303,985;  106,758;    0,550;    1,409
304,580;  187,285;    1,459;    1,591
305,176;  133,800;   -3,086;    0,136
305,771;   65,644;   -1,268;   -1,227
306,367;  290,389;    4,095;    0,136
306,962;  168,137;    0,641;    1,500
307,558;  200,408;   -0,450;    0,136
308,153;  190,530;    1,095;   -1,136
308,748;  102,149;   -0,814;    1,682
309,344;  296,663;   -0,632;   -1,318
309,939;  279,912;   -1,905;   -1,318
310,534;  132,015;   -0,086;   -1,682
311,130;  120,790;    0,459;   -2,500
311,725;  103,994;    1,004;   -0,500
312,320;  118,687;    2,459;    0,045
312,915;  168,472;    1,459;   -1,045
313,510;  276,361;    1,550;   -0,500
314,105;  127,906;    1,096;    1,409
314,700;   69,110;   -3,086;   -1,045
315,295;  105,012;   -0,904;    0,045
315,890;   82,677;    1,277;    0,864
316,485;  129,999;   -0,359;   -0,318
317,080;   81,688;   -3,086;    1,591
317,675;  235,053;    2,005;   -0,682
318,270;  356,609;    5,550;    3,318
318,865;  266,970;    3,278;    3,045
319,460;  181,136;   -0,904;    0,591
320,055;   95,853;   -0,541;   -1,227
320,650;   94,929;   -1,995;   -0,591
321,244;   97,139;   -0,177;   -1,409
321,839;   89,300;   -1,541;   -0,227
322,434;  112,596;   -1,086;   -1,591
323,029;   86,078;    1,732;    1,591
323,623;   73,512;    1,550;    0,773
324,218;  180,331;    2,368;    1,409
324,812;  139,836;    1,096;    1,591
325,407;  126,863;   -0,814;    2,045
326,002;  209,595;    0,277;   -0,409
326,596;  172,829;    0,914;    1,318
327,191;   94,763;    0,823;   -1,045
327,785;  101,647;   -0,813;   -0,227
328,379;   88,673;    1,368;    0,136
328,974;  116,492;    0,914;   -3,955
329,568;  136,930;    0,186;   -2,409
330,163;  185,539;    2,096;    1,045
330,757;   99,825;    2,459;    1,591
331,351;   69,068;    0,459;    0,682
331,945;   71,375;    0,914;    1,409
332,540;  142,980;   -1,723;   -0,591
333,134;  144,375;   -1,086;    0,773
333,728;  159,252;    0,005;    0,318
334,322;   96,214;   -1,177;   -0,864
334,916;   99,404;    0,277;    0,955
335,510;  199,245;   -0,450;   -0,136
336,105;  188,490;   -1,086;    1,591
336,699;  126,715;   -1,086;    0,591
337,293;  158,761;   -1,723;    0,318
337,887;  130,233;   -2,723;    1,955
338,481;  218,433;    0,459;    0,591
339,074;  287,401;   -0,359;    2,682
339,668;  279,478;   -1,632;    1,227
340,262;  688,651;    1,732;    3,227
340,856;  395,885;    1,822;   -0,682
341,450;  185,728;    1,004;    1,864
342,044;  227,761;    1,459;    0,136
342,637;  314,770;    0,913;   -2,136
343,231;  282,821;   -2,360;    0,682
343,825;  235,894;   -1,086;   -0,591
344,419;  230,028;   -1,995;    0,500
345,012;  640,823;    2,459;    4,045
345,606;  479,987;    4,641;    1,591
346,199;  242,588;   -1,813;   -0,227
346,793;  346,210;    1,914;    2,045
347,386;  202,832;   -0,813;   -1,136
347,980;  133,814;   -0,268;   -0,045
348,573;  213,224;    2,278;    0,409
349,167;  458,900;    5,278;    4,773
349,760;  340,179;    2,914;    2,682
350,354;  319,505;   -0,813;    1,136
350,947;  350,655;    1,096;    1,682
351,540;  259,923;   -0,358;   -1,409
352,134;  168,089;    1,096;    1,136
352,727;  182,800;   -0,086;    1,136
353,320;  193,741;    0,005;    0,591
353,913;  152,849;   -1,995;    1,864
354,507;  317,135;    0,823;   -1,227
355,100;  213,392;    0,460;    0,864
355,693;  558,653;    2,005;    2,409
356,286;  357,359;    0,823;    2,773
356,879;  235,094;   -0,722;    1,227
357,472;  236,740;   -0,904;    1,500
358,065;  271,695;   -0,722;    2,500
358,658;  152,728;   -0,540;    2,318
359,251;  140,370;   -1,631;   -0,591
359,844;  286,141;   -1,904;   -1,136
360,437;  336,396;   -2,995;    0,045
361,030;  206,914;    1,369;   -0,682
361,623;  215,659;    2,824;    0,318
362,215;  407,869;   -0,086;    2,045
362,808;  269,067;   -2,358;   -1,682
363,401;  211,545;   -2,449;    0,136
363,994;  390,064;   -0,631;   -1,500
364,586;  224,258;    0,824;   -1,500
365,179;  187,846;   -0,449;   -1,136
365,772;   84,032;   -1,995;    2,045
366,364;  197,692;    1,915;   -3,227
366,957;  240,565;    2,279;   -0,045
367,549;  198,806;    2,188;   -0,864
368,142;  217,555;    1,825;   -1,500
368,734;  180,145;    0,734;   -2,136
369,327;  125,365;    1,643;   -0,500
369,919;  160,455;   -1,538;    0,409
370,512;  172,505;   -1,083;   -0,500
371,104;  397,994;   -0,901;    1,591
371,696;  406,986;    1,191;   -0,955
372,289;  276,720;    0,373;    1,136
372,881;  231,953;   -2,080;    1,318
373,473;  154,333;   -2,170;    1,136
374,066;  228,125;   -0,169;    0,500
374,658;  204,586;    0,378;    1,136
375,250;  155,532;    0,653;   -1,409
375,842;  193,762;    0,473;   -0,045
376,434;  150,771;   -0,435;   -0,409
377,026;  145,764;    0,204;   -2,500
377,618;  194,606;   -0,158;   -0,682
378,210;  149,983;   -0,338;   -1,955
378,802;  154,452;    0,754;   -0,591
379,394;  447,092;    1,846;    0,682
379,986;  254,547;    1,393;   -0,955
380,578;  178,469;   -0,153;    0,773
381,170;  373,101;   -0,972;    0,045
381,762;  290,639;    0,755;    1,409
382,354;  243,869;   -0,065;   -1,318
382,945;  177,199;   -2,976;    0,318
383,537;  136,856;   -2,705;   -1,955
384,129;  127,213;   -2,160;   -1,136
384,721;  217,278;   -0,252;    0,955
385,312;  176,296;   -0,161;   -0,955
385,904;  231,030;   -2,706;    1,591
386,496;  185,118;   -0,979;    1,045
387,087;  303,586;    1,022;    2,500
387,679;  246,597;   -1,160;    0,045
388,270;  223,170;    2,840;    2,045
388,862;  207,942;    1,295;   -0,318
389,453;  206,915;   -0,887;    1,045
390,045;  207,823;   -0,705;   -2,682
390,636;  122,747;    0,204;   -0,591
391,227;  173,387;   -0,523;   -0,045
391,819;  155,888;    0,204;    0,773
392,410;  365,317;    1,022;    0,045
393,001;  202,969;   -0,979;   -1,591
393,593;  248,465;    1,930;   -0,045
394,184;  285,065;    1,385;   -0,409
394,775;  194,523;    1,839;    2,136
395,366;  131,787;    1,385;    0,773
395,957;  280,142;    0,113;    0,136
396,548;  188,759;   -0,342;    2,682
397,139;  284,921;   -2,433;    0,591
397,730;  217,235;   -1,888;    0,955
398,321;  230,210;   -1,252;    0,955
398,912;  181,415;   -0,615;    0,136
399,503;  172,683;   -3,524;   -1,409
400,094;  214,364;    0,294;    1,682
400,685;  204,291;   -0,433;    0,045
401,276;  174,905;    0,930;   -0,955
401,867;  151,412;   -0,888;    0,773
402,458;  123,171;   -2,251;   -2,318
403,048;  242,704;    1,112;    0,591
403,639;  199,891;    0,840;    0,864
404,230;  279,801;    2,476;    0,318
404,821;  334,592;   -0,615;    0,045
405,411;  251,824;    1,203;   -2,591
406,002;  180,892;   -1,252;   -1,136
406,592;  367,507;    2,294;    0,045
407,183;  247,599;    0,566;   -1,500
407,774;  232,744;    3,475;   -0,136
408,364;  192,809;    0,930;    0,409
408,954;  284,748;    0,384;    1,227
409,545;  277,830;    1,021;    1,045
410,135;  245,362;    1,293;    0,500
410,726;  198,410;    1,838;    0,318
411,316;  351,310;    0,111;    0,773
411,906;  217,917;   -0,253;   -0,409
412,497;  228,543;   -1,070;   -0,045
413,087;  179,187;   -1,980;   -0,227
413,677;  116,138;   -0,707;    3,864
414,267;  115,581;    0,656;    1,409
414,857;   93,870;   -2,980;    4,227
415,448;   99,474;    0,839;    0,500
416,038;  119,762;    0,020;   -0,591
416,628;  142,312;   -0,889;    0,409
417,218;  182,986;    0,565;    3,318
417,808;  301,275;    0,202;   -0,409
418,398;  200,006;    0,020;    2,682
418,988;  115,746;    2,020;    0,591
419,578;  190,518;   -0,707;    1,409
420,168;  131,741;   -1,343;   -0,955
420,757;  228,475;   -1,343;   -1,500
421,347;  137,898;    0,111;   -0,227
421,937;  123,891;    2,292;    1,409
422,527;  215,745;    0,838;   -0,773
423,116;  315,004;   -0,253;   -0,045
423,706;  121,221;   -1,889;    0,318
424,296;   92,034;    1,384;    0,682
424,885;  164,670;   -0,071;   -3,045
425,475;  137,075;    1,474;   -2,864
426,065;   74,707;   -0,980;   -0,318
426,654;   60,913;   -0,435;   -0,318
427,244;  223,451;    0,020;    1,409
427,833;  189,522;    1,383;   -0,500
428,423;  107,154;   -0,526;    1,136
429,012;  101,047;   -0,344;   -1,136
429,601;  175,905;   -1,344;    0,136
430,191;  110,379;    1,292;    4,318
430,780;   63,523;   -0,344;   -0,409
431,369;  154,635;    0,746;   -0,045
431,959;   88,195;   -1,254;    0,500
432,548;   53,568;   -1,163;   -0,045
433,137;   30,601;   -1,254;   -1,318
433,726;   59,031;    0,292;    0,500
434,315;   70,782;   -0,526;    2,409
434,905;  118,348;   -1,254;    1,409
435,494;  101,384;    0,746;    0,955
436,083;   50,044;   -0,981;   -0,955
436,672;   97,168;    0,110;    0,500
437,261;   67,409;    0,292;   -1,955
437,850;  152,744;    1,383;    0,682
438,439;  178,937;    3,291;    1,955
439,027;  238,322;    3,655;    1,773
439,616;  173,651;    2,927;    1,227
440,205;   69,780;    0,200;   -2,136
440,794;   55,029;    2,109;   -0,045
441,383;   34,460;   -1,346;   -0,591
441,971;   29,813;   -2,436;    0,591
442,560;   27,426;    0,563;   -1,773
443,149;    1,569;    0,379;   -1,318
443,737;    7,818;   -0,074;   -2,318
444,326;   15,343;    0,018;    0,318
444,915;   25,239;   -1,982;    0,864
445,503;   28,845;   -2,891;   -0,318
446,092;  134,776;    0,382;    2,136
446,680;   95,000;    0,382;    0,318
447,269;   45,660;   -0,346;   -0,318
447,857;   36,351;    0,018;   -1,773
448,445;   26,554;    0,563;    1,318
449,034;   11,720;   -1,528;   -1,136
449,622;   17,359;   -1,073;    3,500
450,210;   73,478;    2,017;    2,227
450,799;   45,497;    0,290;   -0,591
451,387;   43,156;    1,381;   -0,591
451,975;   37,490;    2,654;    0,864
452,563;   47,803;    3,472;    2,318
453,151;   17,246;   -0,528;   -1,227
453,739;   15,268;   -1,347;    0,136
454,328;   27,049;    2,381;   -2,136
454,916;   19,094;    2,562;   -0,136
455,504;   27,963;    1,017;    1,227
456,092;   11,837;    0,017;   -1,591
456,679;    5,844;    1,472;    0,682
457,267;   92,718;    4,017;    1,045
457,855;   25,295;    1,017;    1,409
458,443;    1,543;   -0,165;    1,682
459,031;   16,956;    0,108;    2,409
459,619;   12,465;   -1,801;    2,864
460,206;    5,491;    0,835;    2,045
460,794;    2,530;   -2,983;   -0,227
461,382;    6,796;   -0,529;   -0,864
461,970;    6,703;    1,198;    1,864
462,557;   -2,392;   -0,711;   -0,682
463,145;    6,395;   -3,165;   -1,682
463,732;   51,756;    2,016;   -1,045
464,320;   19,005;   -0,075;   -3,045
464,907;   30,615;    2,743;   -0,773
465,495;   11,383;    0,743;   -1,227
466,082;   10,088;   -1,984;   -0,045
466,670;   12,190;   -2,529;    1,227
467,257;    2,945;   -1,711;    2,045
467,844;   12,971;   -0,075;    0,045
468,432;    5,165;    0,834;    3,500
469,019;    4,877;    0,925;   -1,773
469,606;   21,287;    0,470;    3,682
470,193;   21,658;   -1,439;    0,227
470,780;   11,123;   -2,075;    0,864
471,368;    3,264;   -1,257;   -0,773
471,955;   15,512;    1,379;   -0,682
472,542;   11,585;    0,652;   -1,136
473,129;    3,528;   -0,166;    0,136
473,716;    1,780;    1,470;    0,591
474,303;    2,967;    0,652;   -0,864
474,890;    1,553;   -1,439;   -0,500
475,477;   15,860;   -1,621;    0,409
476,064;    6,849;    1,106;   -1,591
476,650;   26,596;    0,288;    0,318
477,237;   11,323;   -0,258;    0,955
477,824;    6,886;   -1,076;    0,864
478,411;   -0,125;   -1,894;   -0,318
478,997;   -0,971;    0,560;   -0,773
479,584;   -3,707;    1,196;   -0,409
480,171;    7,624;   -0,440;   -0,773
480,757;   15,154;    2,651;    0,773
481,344;    7,446;    0,469;    0,409
481,931;   -1,785;    1,105;    1,045
482,517;    9,666;   -1,258;    0,318
483,104;   21,838;    1,106;    2,864
483,690;    3,937;   -1,804;    0,045
484,276;    3,726;   -0,895;    0,227
484,863;   33,235;    2,469;    1,136
485,449;    8,776;   -0,077;    0,318
486,035;    2,424;   -1,986;   -0,136
486,622;    9,820;   -0,895;    0,045
487,208;    4,131;    1,378;    1,500
487,794;   -3,452;    0,741;    0,318
488,380;   -2,703;    0,105;   -1,409
488,967;   -4,504;   -1,168;   -0,409
489,553;   -2,184;   -1,895;   -1,409
490,139;    6,094;    1,559;    0,773
490,725;    1,380;    0,741;   -0,227
491,311;    6,002;    3,287;    3,045
491,897;    4,737;   -0,986;    1,500
492,483;    1,306;    0,105;    1,227
493,069;   84,475;    3,923;    0,864
493,655;   30,983;    1,650;    0,682
494,241;    6,241;    1,377;   -0,955
494,826;    6,359;    0,287;   -1,045
495,412;   14,724;    2,559;   -0,682
495,998;    7,410;   -0,805;   -0,318
496,584;    9,829;    0,377;    1,045
497,169;   10,313;    1,014;   -0,682
497,755;    5,139;    0,650;    1,227
498,341;   18,765;    0,559;    0,318
498,926;   45,718;    1,832;    1,955
499,512;    9,937;    1,286;    2,955
500,097;    5,934;    0,195;   -0,318
500,683;    6,446;   -0,350;    2,136
501,268;    3,089;   -0,169;   -0,955
501,854;    9,030;   -0,169;    1,227
502,439;    6,744;   -0,624;   -1,773
503,024;    3,960;    0,195;    0,500
503,610;   10,407;   -0,078;   -0,682
504,195;    3,802;    0,558;    1,955
504,780;   21,009;    2,922;    1,227
505,366;   46,447;    3,013;    2,864
505,951;   26,085;    0,740;    1,045
506,536;   12,887;   -3,260;   -3,682
507,121;   26,855;    0,285;   -0,318
507,706;   18,954;    2,376;    1,045
508,291;    9,996;    2,649;    1,136
508,876;   10,967;   -0,988;    2,591
509,461;   22,818;   -0,169;   -0,773
510,046;   41,627;    0,194;    0,318
510,631;   57,398;   -0,351;   -0,773
511,216;   27,072;    2,467;   -0,500
511,801;   62,440;   -0,442;    2,591
512,386;   78,510;    0,740;    0,500
512,971;   90,224;   -2,988;    0,955
513,555;  126,534;   -0,897;   -1,500
514,140;  111,009;   -0,442;   -3,136
514,725;  215,369;   -0,715;   -1,136
515,309;  152,807;   -0,533;    0,318
515,894;   97,985;   -0,624;   -2,227
516,479;  139,922;   -0,624;   -0,955
517,063;  150,079;    0,376;    1,227
517,648;  119,090;    1,012;   -1,136
518,232;  105,953;   -0,261;   -1,409
518,817;  197,958;   -0,079;    1,682
519,401;  314,395;    2,194;    0,591
519,985;  298,827;    1,103;    1,136
520,570;  182,787;    0,830;   -1,955
521,154;  282,006;    2,102;    0,591
521,738;  447,811;   -2,352;    2,409
522,323;  298,353;   -0,170;    1,682
522,907;  304,438;    0,466;   -0,136
523,491;  231,356;    0,557;    0,955
524,075;  208,178;    2,284;    0,591
524,659;  399,860;    1,466;    0,591
525,243;  350,962;    1,739;    0,409
525,827;  303,907;    0,648;   -0,045
526,411;  314,132;   -1,989;   -0,136
526,995;  413,704;   -0,352;    1,409
527,579;  471,443;   -0,443;   -1,045
528,163;  412,124;    0,375;   -1,500
528,747;  515,383;    2,466;   -0,773
529,331;  457,461;   -0,080;   -1,409
529,915;  304,858;    1,738;    0,955
530,499;  396,675;   -0,807;    1,227
531,082;  570,619;   -0,534;    1,591
531,666;  641,015;    1,374;    0,773
532,250;  527,388;    1,284;    2,682
532,833;  631,728;    0,920;    2,773
533,417;  468,552;   -1,807;    0,864
534,001;  591,515;    1,647;   -0,318
534,584;  504,665;    0,374;    0,500
535,168;  334,205;    0,465;    1,409
535,751;  692,837;    0,647;    0,045
536,334;  438,135;   -0,898;   -0,409
536,918;  287,127;    0,011;    1,591
537,501;  301,257;   -0,899;    1,318
538,085;  348,367;   -0,444;    1,045
538,668;  427,008;    0,829;    2,409
539,251;  712,013;    1,829;    3,773
539,834;  421,547;    0,101;    0,773
540,418;  549,807;   -1,990;    4,318
541,001;  735,875;   -0,990;    1,773
541,584;  505,186;    2,101;    2,227
542,167;  608,365;    1,374;    2,955
542,750;  429,481;    1,919;   -0,773
543,333;  304,662;    0,555;    2,136
543,916;  533,875;    0,192;    2,500
544,499;  463,266;   -1,354;    0,227
545,082;  551,546;    1,374;    3,591
545,665;  455,797;    1,919;    1,500
546,248;  578,117;    1,010;   -0,318
546,830;  554,193;   -0,445;    1,955
547,413;  515,165;    1,010;   -0,773
547,996;  480,654;    0,555;    0,500
548,579;  441,791;    0,919;    0,955
549,161;  677,799;    1,828;    2,682
549,744;  559,663;   -0,809;    0,409
550,326;  410,123;   -0,809;   -1,136
550,909;  877,888;    2,737;    0,591
551,492;  522,470;   -0,263;    0,227
552,074;  650,275;   -0,173;   -1,318
552,657;  679,004;    2,373;    0,045
553,239;  543,836;   -0,173;   -0,773
553,821;  410,962;   -1,082;    1,045
554,404;  676,636;    1,282;    1,136
554,986;  778,306;    0,464;    1,045
555,568;  608,592;    1,191;   -0,955
556,151;  830,052;    1,191;   -0,227
556,733;  495,747;   -0,264;   -0,864
557,315;  517,926;    0,100;    0,500
557,897;  387,459;    0,554;   -0,500
558,479;  399,011;   -1,991;    1,318
559,061;  492,730;   -0,719;   -0,864
559,643;  542,236;   -0,264;    0,045
560,225;  590,600;    1,645;    2,864
560,807;  429,055;    0,918;    0,318
561,389;  413,797;    0,554;    2,318
561,971;  502,902;    0,463;    2,136
562,553;  421,280;   -1,628;    1,591
563,135;  515,636;   -0,537;    1,136
563,717;  902,541;    3,372;    1,136
564,298;  793,479;    3,645;   -0,045
564,880;  544,506;    0,645;   -1,409
565,462;  372,869;    0,645;    1,318
566,043;  508,416;   -0,446;    2,318
566,625;  824,867;    1,918;    1,227
567,207;  635,008;    1,099;    1,682
567,788;  487,113;   -1,264;    1,500
568,370;  489,544;    1,917;   -0,500
568,951;  490,586;    0,190;    0,227
569,533;  593,765;   -0,628;   -0,500
570,114;  609,805;   -0,446;    0,682
570,695;  644,822;   -0,174;   -1,318
571,277;  621,037;   -0,265;   -1,682
571,858;  826,283;    2,008;   -1,136
572,439;  668,701;    1,554;   -1,045
573,021;  706,302;    2,099;   -2,773
573,602;  821,448;   -1,265;    0,318
574,183;  764,847;   -2,083;    2,227
574,764;  702,929;   -1,629;    0,409
575,345;  905,050;    0,917;   -0,136
575,926;  725,981;   -0,356;    0,136
576,507;  814,445;    1,099;   -0,227
577,088;  771,808;    3,099;    1,682
577,669;  954,951;    0,735;    1,955
578,250; 1146,301;    0,644;   -1,045
578,831;  921,394;   -1,356;   -2,227
579,412;  909,501;   -0,810;    0,955
579,993;  890,417;    1,008;    0,227
580,573;  804,512;   -0,629;   -0,955
581,154;  937,136;    0,735;   -0,591
581,735;  955,038;    0,644;    0,773
582,315; 1095,947;   -0,629;    2,136
582,896;  899,929;   -0,174;    1,227
583,477;  740,813;    0,189;    1,227
584,057;  876,416;    0,553;    0,955
584,638; 1010,872;    2,553;    2,318
585,218; 1256,138;   -0,538;    2,682
585,799; 1061,026;    0,281;   -0,227
586,379;  909,263;    0,372;    1,591
586,959;  876,485;    0,735;    0,318
587,540;  787,020;   -0,629;    2,227
588,120;  801,098;    1,007;   -0,045
588,700;  806,308;    2,553;    2,136
589,281;  995,237;    0,462;   -0,955
589,861;  842,800;    0,099;   -1,682
590,441;  702,879;    2,371;   -2,682
591,021;  793,323;   -0,265;   -2,591
591,601;  747,699;   -0,537;    0,500
592,181;  738,507;   -0,719;   -0,773
592,761;  625,418;    0,007;    1,409
593,341;  747,663;   -0,901;    0,045
593,921;  759,625;   -0,265;    1,591
594,501;  653,395;   -0,538;    1,318
595,081;  659,348;    0,917;   -0,318
595,661;  743,832;   -1,447;    0,955
596,240;  667,791;   -0,537;    0,136
596,820; 1097,012;    0,372;    1,955
597,400;  800,279;    2,008;    0,773
597,980;  697,042;    2,008;    1,045
598,559;  639,635;    2,735;   -0,227
599,139;  620,288;   -0,174;   -1,227
599,718;  615,833;   -0,174;   -0,409
600,298;  606,090;    0,735;    0,682
600,877; 1123,960;    2,917;    1,409
601,457;  812,908;    2,281;    1,136
602,036;  680,514;    0,190;    2,045
602,616;  739,403;    0,644;    1,682
603,195;  865,360;   -0,355;    3,500
603,774;  931,557;   -0,901;    2,045
604,354;  856,562;    0,826;   -0,500
604,933;  784,054;    0,463;    1,864
605,512;  886,751;    3,554;    0,591
606,091;  882,431;   -0,537;    3,773
606,671;  826,001;    0,281;    0,773
607,250; 1013,552;    1,644;    3,136
607,829;  938,034;    2,372;    3,227
608,408;  777,242;    1,190;    2,591
608,987;  896,066;    1,281;    3,409
609,566;  719,744;   -1,265;   -2,500
610,145;  821,985;   -1,082;    0,682
610,723;  858,270;    4,372;    6,864
611,302;  773,132;   -0,446;    1,682
611,881; 1068,518;    5,008;   11,227
612,460;  767,616;    1,645;    3,955
613,039;  647,925;   -0,082;    2,045
613,617;  632,591;    1,736;    4,773
614,196;  651,617;    1,099;    1,227
614,775;  731,282;    1,009;    2,409
615,353;  785,342;    0,736;    0,864
615,932;  747,531;    0,100;    2,409
616,510;  729,007;    0,554;    0,591
617,089; 1263,175;    7,100;   17,591
617,667;  845,079;    2,372;    6,136
618,246;  599,865;   -1,537;    1,318
618,824;  675,148;   -3,355;   -0,955
619,402;  708,696;   -2,900;   -1,773
619,981;  770,933;   -0,173;   -1,045
620,559;  675,089;    0,009;    1,682
621,137;  692,832;   -0,718;    1,864
621,715;  595,481;   -1,173;   -0,682
622,293;  614,283;   -0,537;   -0,773
622,871;  634,199;   -0,718;    0,500
623,450;  573,771;    0,373;   -0,864
624,028;  775,087;    0,191;   -0,955
624,606;  736,694;   -1,718;    1,682
625,183;  536,655;   -1,536;   -1,136
625,761;  683,925;    1,009;    1,136
626,339;  998,071;    1,373;    2,591
626,917;  629,958;   -0,172;   -0,045
627,495;  571,058;   -0,354;    1,318
628,073;  698,835;   -0,263;    2,864
628,650;  723,264;    0,100;    2,136
629,228;  719,580;    0,373;    4,409
629,806;  524,815;    2,282;    1,136
630,383;  582,858;    1,464;   -0,318
630,961;  583,453;    2,555;   -0,955
631,539;  634,034;    2,464;    0,227
632,116; 1359,816;   11,373;   15,409
632,694;  969,228;    2,555;    6,500
633,271;  806,504;    0,828;    2,682
633,848;  903,270;    1,828;    2,045
634,426;  622,203;   -1,081;    1,773
635,003;  485,193;    1,101;   -0,409
635,580;  916,637;    1,192;    3,682
636,158;  779,713;    3,737;    1,227
636,735;  577,868;    0,555;   -0,500
637,312;  576,464;   -0,809;   -0,682
637,889;  582,370;   -4,354;   -0,682
638,466;  561,347;   -3,990;   -0,409
639,043;  615,632;    2,101;   -1,136
639,620;  525,992;   -2,262;   -0,955
640,197;  673,620;    1,100;    1,682
640,774;  482,627;   -0,172;    1,136
641,351;  562,724;    0,737;    1,136
641,928;  770,731;   -0,627;    1,409
642,505;  892,556;    0,828;   -0,500
643,082;  693,563;   -1,718;    1,227
643,658;  559,297;   -0,718;    1,500
644,235;  539,668;    1,191;    2,500
644,812;  740,220;    1,918;    0,773
645,388;  719,136;   -0,991;    1,409
645,965;  497,689;   -0,809;    1,682
646,542;  512,423;   -1,445;   -0,227
647,118;  902,339;    1,009;   -0,955
647,695;  688,255;   -0,263;    1,136
648,271;  489,807;   -0,536;    0,500
648,848;  673,178;    0,736;    2,227
649,424;  798,912;    0,827;    1,318
650,000;  610,282;   -0,354;   -1,045
650,577;  638,744;   -0,627;   -0,955
651,153;  645,205;   -1,809;    0,955
651,729;  597,576;    1,191;    0,864
652,305;  964,674;    0,645;    2,773
652,881;  920,862;   -0,082;    1,136
653,458; 1074,597;    1,100;    0,227
654,034; 1192,240;    0,282;    1,591
654,610; 1344,974;    0,554;    0,773
655,186; 1850,072;    0,645;    3,045
655,762; 1385,715;   -0,991;    0,409
656,338; 1350,540;    0,100;    0,136
656,913; 1444,820;   -0,082;    0,409
657,489; 1206,827;    0,827;   -0,318
658,065; 1325,743;   -0,173;   -1,591
658,641; 1362,750;   -0,900;   -0,864
659,217; 1263,302;   -0,991;    0,409
659,792; 1409,218;    0,645;   -0,409
660,368; 1211,316;   -2,173;   -0,682
660,944; 1250,141;   -2,082;    1,227
661,519; 1133,420;   -0,628;    0,409
662,095;  822,427;   -1,719;    0,591
662,670;  645,071;    1,281;   -0,136
663,246;  557,805;    1,009;   -0,409
663,821;  725,902;    0,281;    1,682
664,396;  670,273;    0,009;    1,864
664,972;  578,098;    0,009;   -0,500
665,547;  638,923;    1,372;    0,136
666,122;  613,930;   -1,082;    0,318
666,698;  816,573;   -0,173;    0,318
667,273;  584,853;   -0,173;    0,136
667,848;  623,042;    2,372;    1,500
668,423;  802,594;    2,190;    2,318
668,998;  639,328;    2,827;   -0,682
669,573;  598,517;   -3,264;   -1,500
670,148;  798,160;   -1,446;   -0,682
670,723;  560,440;   -1,810;    0,318
671,298;  860,810;    2,372;    1,045
671,873;  766,454;   -0,082;   -0,136
672,448;  753,642;    0,645;    0,136
673,023;  746,922;   -1,992;   -0,227
673,597;  850,383;    0,827;    2,318
674,172;  893,754;   -0,355;    0,318
674,747;  793,579;    0,372;   -1,045
675,321;  550,404;   -0,628;    3,318
675,896;  495,684;    0,645;    1,045
676,471;  722,600;    2,645;    1,591
677,045;  640,788;   -1,264;    0,682
677,620;  727,795;    0,190;    1,136
678,194;  566,893;   -2,628;    1,136
678,769;  644,264;   -1,083;   -0,318
679,343;  704,816;   -0,628;    1,773
679,917;  831,096;   -1,446;    1,955
680,492;  671,193;    0,826;    3,227
681,066;  706,928;    3,372;    0,409
681,640;  625,753;    1,463;   -0,318
682,214;  653,850;    0,735;    0,500
682,788;  662,948;   -1,356;   -0,773
683,363;  809,501;   -1,810;    1,682
683,937;  674,689;   -1,719;   -0,318
684,511;  700,696;    0,463;   -0,591
685,085;  714,158;   -1,356;    0,318
685,659;  625,165;   -2,538;    0,864
686,232;  883,626;   -0,356;   -0,318
686,806;  747,087;   -0,901;    0,409
687,380;  619,549;   -0,174;    0,591
687,954;  555,283;   -1,174;    1,136
688,528;  894,654;   -0,719;    1,955
689,101;  720,206;   -3,992;    1,045
689,675;  614,395;   -0,356;   -0,136
690,249;  872,220;   -0,719;    0,409
690,822;  865,954;    0,280;    0,318
691,396;  738,415;   -0,265;    1,227
691,969;  657,786;    1,280;    0,136
692,543;  555,793;   -0,447;   -1,955
693,116;  528,618;   -0,265;   -1,409
693,690;  623,625;    0,099;    0,500
694,263;  562,086;   -1,083;    2,955
694,836;  938,548;    1,371;    3,591
695,410;  815,827;   -0,265;    1,773
695,983;  842,834;    0,189;    0,591
696,556;  634,841;   -0,447;   -1,045
697,129;  537,848;   -0,356;    1,409
697,703;  775,218;   -1,629;    1,955
698,276;  658,044;    1,462;   -0,773
698,849;  823,596;    1,280;    1,409
699,422;  587,785;   -1,083;    0,591
699,995;  481,882;    0,007;    0,136
700,568;  623,707;   -0,629;    3,045
701,140;  644,987;   -2,811;    1,682
701,713;  816,085;   -0,174;    2,409
702,286;  704,092;   -0,538;    0,864
702,859;  791,099;   -0,902;   -0,591
703,432;  878,196;    0,825;    0,682
704,004;  752,658;    0,462;    0,318
704,577;  622,574;   -0,629;    0,136
705,150;  666,672;    0,189;    2,500
705,722;  731,042;   -0,356;   -3,227
706,295;  798,504;   -0,175;   -0,591
706,867;  670,056;   -0,175;    1,955
707,440;  766,154;   -1,720;   -0,409
708,012;  847,888;    0,462;    0,591
708,584;  759,622;    2,462;    0,227
709,157;  528,993;    1,825;   -0,591
709,729;  765,818;    2,280;    2,045
710,301;  614,916;    0,734;    0,045
710,874;  629,922;   -1,447;   -0,227
711,446;  520,475;    0,371;    0,864
712,018;  602,664;    0,098;    0,500
712,590;  541,761;   -1,993;    1,682
713,162;  825,950;    0,825;    1,318
713,734;  609,321;    1,825;   -2,045
714,306;  524,873;   -1,902;   -0,409
714,878;  586,789;    0,825;    0,864
715,450;  535,341;    0,643;    0,864
716,022;  552,439;    1,552;    1,318
716,593;  541,173;    0,189;    0,591
717,165;  588,544;   -3,175;   -1,227
717,737;  859,096;    0,280;    0,409
718,309;  626,830;    0,280;   -0,045
718,880;  546,837;   -0,539;   -1,409
719,452;  623,480;   -0,175;   -1,591
720,024;  727,487;    0,734;   -0,591
720,595;  613,949;   -2,902;    0,955
721,167;  600,047;    0,370;   -2,045
721,738;  720,781;   -0,812;   -1,045
722,309;  877,788;   -0,993;   -1,227
722,881;  602,158;   -1,357;    0,773
723,452;  690,892;   -2,630;    2,864
724,023;  695,081;   -0,721;    2,682
724,595;  765,906;    0,007;    0,682
725,166;  629,186;    0,007;   -0,409
725,737;  835,920;    1,734;    0,227
726,308;  627,200;   -0,266;    0,318
726,879;  530,570;   -1,630;    1,227
727,450;  702,941;    0,552;   -0,045
728,021;  632,311;    3,097;    0,682
728,592;  808,045;    0,734;    0,500
729,163;  899,325;    0,643;   -0,136
729,734;  881,332;    0,188;   -0,227
730,305;  728,248;    1,734;    0,136
730,876;  684,618;    0,188;    2,955
731,447; 1020,443;    2,188;    2,682
732,017;  906,723;    1,097;    1,864
732,588;  693,912;    0,734;    1,227
733,159;  971,919;    0,643;   -1,045
733,729;  696,107;    0,006;    0,409
734,300;  862,478;    0,915;    0,864
734,870;  666,030;    3,461;    0,591
735,441;  650,128;    0,370;   -0,591
736,011;  642,953;    0,643;   -1,591
736,582;  650,142;   -0,812;    0,045
737,152;  781,240;   -1,721;   -2,045
737,722;  744,701;   -0,267;   -0,682
738,293;  594,344;   -1,358;    1,318
738,863;  787,260;    2,461;    2,318
739,433; 1049,085;    5,279;    0,318
740,003;  751,001;   -0,994;   -0,682
740,573;  890,008;    2,097;   -1,591
741,143;  761,197;   -1,085;    0,318
741,713;  660,022;    1,188;   -0,500
742,283;  726,029;    0,915;    1,591
742,853;  654,218;    1,915;    1,591
743,423;  476,134;    1,733;    0,045
743,993;  602,595;   -0,358;    1,500
744,563;  661,329;    0,097;   -0,864
745,133;  689,609;   -0,812;   -0,864
745,702;  551,707;   -0,267;    1,773
746,272;  776,714;   -0,176;    0,591
746,842;  796,357;   -1,358;   -0,591
747,411;  578,637;   -0,267;   -0,318
747,981;  480,553;    0,097;    0,500
748,551;  470,105;    2,278;   -1,045
749,120;  685,475;    0,642;   -0,227
749,690;  631,210;   -0,631;    2,409
750,259;  739,307;    1,369;    2,955
750,828;  795,678;    1,551;   -1,955
751,398;  562,139;    1,278;   -0,045
751,967; 1054,964;    2,187;    0,409
752,536;  691,790;   -0,813;   -0,227
753,105;  813,069;    0,096;    0,227
753,675;  642,349;    0,096;    1,773
754,244;  649,628;   -0,904;    3,591
754,813;  683,999;    0,551;    1,227
755,382;  643,551;    0,460;    0,955
755,951;  786,467;    1,551;    3,682
756,520;  896,020;   -0,085;    1,864
757,089; 1001,208;    0,278;    0,500
757,658;  735,852;    1,733;    1,227
758,227;  557,586;    1,096;    0,318
758,795;  610,411;    1,187;    1,136
759,364;  620,054;   -0,086;   -0,591
759,933;  561,606;   -1,176;   -0,045
760,501;  498,341;    0,733;   -1,318
761,070;  667,348;   -2,813;   -1,409
761,639;  623,991;   -1,904;    1,318
762,207;  750,907;    1,551;   -0,955
762,776;  794,732;    0,369;    0,864
763,344;  645,102;   -0,995;    0,591
763,913;  437,927;   -0,722;    1,409
764,481;  988,662;    1,005;   -0,136
765,049;  987,850;   -1,358;    1,409
765,618;  892,948;   -0,086;    0,318
766,186;  703,591;    0,278;    0,136
766,754;  755,235;    0,005;    1,864
767,322;  632,787;   -1,995;    0,409
767,890;  581,339;   -0,722;   -1,773
768,459;  579,346;   -2,177;   -0,318
769,027;  814,444;    1,641;    3,409
769,595;  628,815;    3,278;    2,591
770,163;  725,549;    3,823;    2,955
770,730;  697,101;    0,732;   -0,136
771,298;  676,926;    0,187;   -1,409
771,866;  604,660;   -1,541;    4,955
772,434;  638,122;   -0,631;   -1,864
773,002;  853,765;    0,005;    0,682
773,569;  716,317;    0,914;    1,682
774,137;  841,052;   -0,268;   -0,045
774,705;  616,877;    0,278;   -0,136
775,272;  588,156;    0,641;    0,682
775,840;  611,163;   -0,177;    2,682
776,407;  738,625;    0,277;    1,955
776,975;  604,359;   -0,632;    0,318
777,542;  539,547;   -1,086;   -0,045
778,110;  575,918;   -1,268;   -0,045
778,677;  455,470;   -2,359;   -0,864
779,244;  533,114;    2,186;    1,045
779,812;  698,848;    1,823;    0,864
780,379;  789,764;    0,005;    1,136
780,946;  642,316;    1,005;   -0,773
781,513;  546,596;   -1,450;    0,318
782,080;  526,694;   -0,086;    2,864
782,647;  551,882;   -0,268;    3,045
783,214;  531,616;   -0,177;    3,864
783,781;  752,351;   -0,723;   -0,682
784,348;  689,448;   -0,632;    1,500
784,915;  467,910;   -3,177;    0,318
785,482;  707,917;    1,368;    2,591
786,049;  622,651;    0,186;   -0,591
786,615;  501,840;    0,277;   -0,955
787,182;  464,756;    0,186;   -0,682
787,749;  439,490;   -2,814;    1,409
788,315;  680,588;   -1,632;   -0,409
788,882;  554,140;    1,550;   -1,227
789,448;  852,510;    1,732;   -0,955
790,015;  614,426;    1,095;    3,227
790,581;  796,888;    1,459;    0,227
791,148;  614,440;    0,641;    1,045
791,714;  494,993;   -0,541;    3,136
792,280;  505,090;    0,186;    1,591
792,847;  444,097;    0,550;    2,500
793,413;  531,013;   -0,269;   -0,318
793,979;  761,475;    3,459;   -1,318
794,545; 1047,300;    4,459;    2,682
795,111;  926,670;    2,186;    1,318
795,678;  772,314;    0,731;   -1,682
796,244;  936,411;    3,368;    0,136
796,810;  774,146;    1,731;    0,773
797,375;  768,607;    0,549;   -2,136
797,941;  448,432;   -0,541;    0,591
798,507;  456,257;   -0,451;   -0,955
799,073;  494,719;   -0,360;    0,591
799,639;  489,362;   -2,632;    3,136
800,205;  451,369;    0,095;    2,682
800,770;  490,739;    0,640;    1,773
801,336;  502,019;    1,368;   -0,955
801,901; 1107,389;    4,549;    3,136
802,467;  747,305;   -0,542;    2,045
803,033;  530,949;   -0,087;    0,864
803,598;  524,319;    1,913;   -1,045
804,163;  524,872;    1,095;   -0,318
804,729;  632,515;   -0,178;    1,136
805,294;  524,885;    0,822;    2,227
805,859;  460,529;    0,731;   -0,409
806,425;  864,354;    1,186;    2,682
806,990;  837,088;    2,186;    4,318
807,555;  588,913;   -1,451;    2,591
808,120;  738,738;    0,822;   -0,409
808,685;  528,381;    0,185;   -2,500
809,250;  437,934;    0,004;   -0,500
809,815;  423,486;    1,913;    0,682
810,380;  558,947;   -0,269;    1,591
810,945;  743,863;   -1,087;    2,045
811,510;  569,598;    2,094;    1,591
812,075;  629,332;   -0,633;   -1,409
812,640;  871,157;    2,003;    1,409
813,204;  624,255;    0,822;   -0,227
813,769;  766,080;    2,094;   -0,045
814,334;  753,996;    0,458;    0,864
814,898;  471,457;    0,367;    0,591
815,463;  591,737;    1,276;   -0,773
816,027;  527,380;   -0,724;   -2,318
816,592;  445,023;    0,640;   -2,045
817,156;  625,303;    2,094;    1,136
817,721;  750,037;    4,276;    2,318
818,285;  479,953;    2,912;    1,500
818,849;  541,960;   -1,451;    1,682
819,414;  469,876;   -0,269;    2,955
819,978;  417,247;   -1,269;    1,773
820,542;  707,890;    2,003;    0,500
821,106;  534,897;   -0,815;    0,682
821,670;  750,722;   -0,815;    2,591
822,234;  526,274;   -0,270;    1,409
822,798;  426,372;    0,003;    0,500
823,362;  657,197;   -0,633;    4,227
823,926;  513,567;    0,094;    1,136
824,490;  698,483;   -0,997;   -0,682
825,054;  564,399;   -0,088;   -1,136
825,618;  460,225;   -1,542;   -1,500
826,181;  526,050;    0,458;   -1,318
826,745;  642,511;    1,367;   -1,045
827,309;  848,609;    1,185;    1,318
827,872;  712,252;    1,367;    0,955
828,436;  587,895;    1,185;   -0,773
828,999;  494,084;   -0,997;    1,227
829,563;  470,455;   -0,179;    1,136
830,126;  447,371;   -0,179;   -0,591
830,690;  564,832;   -1,997;    2,864
831,253;  474,566;   -0,543;    2,227
831,816;  527,846;   -1,906;    0,500
832,380;  487,035;    0,185;    0,864
832,943;  456,951;   -1,361;   -0,500
833,506;  469,139;    2,639;   -1,227
834,069;  618,055;    3,912;   -0,955
834,632;  456,335;    1,730;    1,318
835,195;  506,705;    1,003;    0,955
835,758;  447,076;   -0,997;    1,955
836,321;  466,265;    0,730;   -1,045
836,884;  428,453;   -0,725;   -0,955
837,447;  375,733;   -2,816;    1,773
838,010;  568,467;    0,366;    3,227
838,573;  562,201;   -1,179;    0,773
839,135;  417,572;   -1,361;   -0,955
839,698;  495,761;    1,275;    0,409
840,261;  439,222;    1,003;   -0,227
840,823;  391,593;   -0,543;    0,864
841,386;  374,599;   -0,452;   -2,409
841,948;  686,697;   -1,361;    1,773
842,511;  470,886;    0,912;    1,682
843,073;  675,620;    1,912;    0,227
843,636;  421,991;   -0,361;   -0,227
844,198;  645,452;    0,911;    0,591
844,760;  601,459;    1,093;    1,955
845,322;  405,739;    0,548;    1,136
845,885;  541,291;    0,730;    0,591
846,447;  473,934;   -1,998;    0,227
847,009;  815,487;    1,911;   -0,682
847,571;  524,130;    0,820;   -2,045
848,133;  466,773;   -1,089;   -1,864
848,695;  330,962;   -0,543;    1,409
849,257;  414,423;   -1,089;   -1,682
849,819;  563,794;   -0,998;   -0,409
850,381;  431,710;   -0,725;   -0,864
850,942;  501,444;    1,093;   -0,591
851,504;  575,451;    1,184;    0,227
852,066;  434,367;    1,275;   -1,591
852,628;  472,465;   -0,180;    1,955
853,189;  372,199;    1,638;    2,682
853,751;  377,115;   -0,907;    1,409
854,312;  539,213;   -0,453;   -1,682
854,874;  674,038;   -2,089;   -0,773
855,435;  477,045;   -0,907;   -1,682
855,997;  520,961;   -1,816;   -0,136
856,558;  641,331;    0,366;    1,773
857,119;  545,702;    0,820;    2,864
857,681;  384,436;    0,002;    0,318
858,242;  663,897;    1,911;   -2,136
858,803;  610,450;    0,456;   -0,773
859,364;  483,184;    0,184;   -4,773
859,925;  558,282;   -2,453;   -0,955
860,486;  437,379;   -0,453;   -0,955
861,047;  380,932;   -0,544;   -1,227
861,608;  426,939;   -1,089;   -0,773
862,169;  286,218;    0,638;   -0,045
862,730;  430,771;    0,456;    1,409
863,291;  466,777;   -0,635;   -0,500
863,852;  446,421;   -0,635;    1,955
864,412;  445,337;   -0,271;   -0,864
864,973;  690,798;   -0,089;    0,500
865,534;  797,351;   -1,726;    0,227
866,094;  574,812;    1,820;    0,227
866,655;  715,637;    1,274;    3,318
867,215;  521,371;    0,274;    0,136
867,776;  370,651;    0,547;   -0,136
868,336;  464,567;   -1,453;    0,136
868,897;  843,119;    2,638;    1,682
869,457;  628,126;    1,365;    0,318
870,017;  417,588;    0,547;   -1,227
870,578;  404,776;   -0,817;    0,773
871,138;  504,238;   -2,089;   -0,955
871,698;  417,881;   -0,817;   -1,318
872,258;  530,251;   -0,453;   -2,864
872,818;  684,622;    2,729;    0,045
873,378;  498,811;    0,638;    1,045
873,938;  479,999;    0,547;    0,500
874,498;  378,006;    0,274;   -1,955
875,058;  496,831;    2,183;    1,773
875,618;  489,838;    1,910;   -2,682
876,177;  527,027;    1,274;    0,136
876,737;  354,852;   -0,090;    1,955
877,297;  725,404;    0,183;    1,955
877,856;  655,411;   -0,362;    0,318
878,416;  419,418;    1,183;   -0,136
878,976;  375,334;   -1,817;    0,409
879,535;  417,068;    0,092;    3,136
880,095;  401,348;   -0,544;    0,045
880,654;  351,537;   -1,090;    1,318
881,213;  659,907;    2,456;    1,500
881,773;  500,005;    2,637;    2,682
882,332;  982,376;    3,365;    5,136
882,891;  477,019;    3,092;    2,136
883,451;  463,389;   -1,272;    1,682
884,010;  428,669;   -2,908;   -0,409
884,569;  372,040;   -0,999;   -0,045
885,128;  544,865;    2,819;   -1,864
885,687;  780,235;    4,455;    0,682
886,246;  949,242;    1,455;    2,136
886,805;  759,794;    2,455;    2,045
887,364;  415,347;   -0,999;   -0,500
887,922;  341,626;   -1,181;    0,045
888,481;  541,997;   -1,545;    0,591
889,040;  612,549;    1,183;    2,136
889,599;  485,283;    2,455;    1,409
890,157;  481,654;    1,455;    2,409
890,716;  423,934;   -0,090;    0,227
891,274;  548,577;    0,092;   -1,136
891,833;  608,856;    1,546;    0,864
892,391;  504,136;   -0,454;    0,500
892,950;  580,143;    1,819;   -0,773
893,508;  393,423;    0,455;   -0,409
894,067;  327,884;    0,637;    0,136
894,625;  426,891;   -0,636;   -1,500
895,183;  382,261;   -0,363;   -0,682
895,741;  651,268;    1,728;   -1,773
896,299;  453,003;   -0,545;   -2,409
896,858;  399,373;    0,819;   -1,591
897,416;  530,925;    2,728;   -1,318
897,974;  449,023;    1,819;    0,318
898,532;  877,212;    6,091;    2,682
899,089;  592,946;    2,091;   -0,682
899,647;  490,408;   -1,454;    1,318
900,205;  492,142;    1,182;    1,045
900,763;  477,421;   -0,454;    0,227
901,321;  433,792;    2,364;   -1,409
901,878;  272,344;   -1,000;   -0,773
902,436;  360,533;   -1,363;    1,318
902,994; 1032,540;    4,728;    3,682
903,551;  610,001;    0,728;    0,409
904,109;  475,735;    0,182;   -1,409
904,666;  437,379;    2,455;    1,045
905,224;  325,204;    0,182;   -0,409
905,781;  498,938;    0,727;   -0,318
906,338;  431,308;   -1,363;    1,045
906,895;  327,861;    0,637;    2,045
907,453;  593,322;    1,727;    1,136
908,010;  451,875;   -0,909;    0,409
908,567;  444,609;    1,273;    0,591
909,124;  296,616;    0,364;   -1,500
909,681;  363,168;   -2,909;    0,682
910,238;  387,811;    0,636;   -1,318
910,795;  287,000;   -0,273;   -1,136
911,352;  310,273;   -2,909;   -2,682
911,909;  359,000;   -1,364;   -0,864
912,466;  357,000;   -3,182;    1,500
913,022;  468,091;   -1,636;    0,500
913,579;  535,455;   -0,909;    2,045
914,136;  419,364;    1,636;    0,955
914,692;  418,000;    0,091;   -1,227
915,249;  451,545;    1,455;    0,409
915,806;  514,273;    0,182;    1,955
916,362;  406,727;    1,909;    1,864
916,918;  388,545;    2,000;    1,045
917,475;  514,091;   -1,182;    0,955
918,031;  360,727;    3,364;   -0,045
918,587;  427,455;   -0,909;   -0,318
919,144;  341,091;   -2,273;    0,227
919,700;  271,000;    1,727;    0,773
920,256;  282,545;    0,727;    0,045
920,812;  345,455;   -0,727;   -1,045
921,368;  309,727;   -1,727;   -1,045
921,924;  340,273;    0,182;   -0,136
922,480;  420,545;   -0,545;    1,227
923,036;  429,091;    1,273;    1,955
923,592;  332,273;    0,455;    0,318
924,148;  345,455;    0,455;   -0,955
924,704;  474,455;   -1,364;   -0,409
925,259;  307,455;   -0,273;    0,591
925,815;  309,091;    1,455;    0,500
926,371;  286,455;    2,909;    1,409
926,926;  432,091;    2,091;    0,591
927,482;  410,545;   -1,364;    0,773
928,037;  342,818;    0,909;    2,045
928,593;  505,545;    1,636;    1,045
929,148;  302,000;   -1,818;   -1,500
929,704;  373,091;   -1,455;   -0,500
930,259;  309,818;    0,091;   -0,136
930,814;  471,545;   -0,818;    1,955
931,369;  415,273;    1,091;   -0,773
931,925;  266,636;   -0,091;    0,136
932,480;  359,000;   -2,818;   -2,591
933,035;  642,818;    0,545;   -0,318
933,590;  559,364;    0,364;   -1,773
934,145;  270,455;   -1,364;   -0,318
934,700;  190,455;    0,455;   -0,591
935,255;  240,909;   -0,091;    0,045
935,809;  525,364;    3,182;    0,864
936,364;  248,818;   -0,455;   -0,136
936,919;  240,364;    0,455;   -1,773
937,474;  184,364;    1,455;    0,136
938,028;  194,727;   -1,636;    1,136
938,583;  525,273;    1,818;    4,682
939,138;  263,000;    2,091;    2,136
939,692;  164,455;    1,636;   -1,136
940,247;  208,545;   -0,727;   -1,045
940,801;  239,364;   -0,636;    0,227
941,355;  173,091;   -0,364;    2,591
941,910;  120,909;   -0,273;   -2,136
942,464;  151,364;   -0,818;   -0,318
943,018;  324,727;    1,000;   -0,227
943,572;  211,091;    2,545;   -0,682
944,126;  267,545;    0,091;   -0,409
944,681;  177,091;    3,091;    0,227
945,235;  131,000;    1,000;   -0,591
945,789;  117,636;    0,364;   -1,864
946,342;  303,818;    0,455;   -0,591
946,896;  157,182;   -2,273;    0,955
947,450;  125,182;    1,545;   -0,227
948,004;  294,727;    1,727;   -0,045
948,558;  176,000;    0,273;   -0,864
949,111;  170,727;   -0,273;   -0,318
949,665;  291,182;    1,636;   -0,682
950,219;  270,636;   -0,091;   -1,045
950,772;  216,091;   -1,909;    1,864
951,326;  204,636;    0,545;   -0,955
951,879;  165,182;    0,727;   -2,318
952,433;  258,455;    0,000;    2,227
952,986;  148,545;    2,909;    0,682
953,539;  130,000;   -0,273;    0,591
954,093;  100,818;    0,545;   -1,318
954,646;  174,636;    0,909;    1,318
955,199;  122,000;    0,000;   -0,500
955,752;  285,909;   -0,455;    1,773
956,305;  179,818;   -0,091;    2,955
956,858;  202,000;    0,818;   -0,318
957,411;  241,455;   -0,545;    2,136
957,964;  192,818;    1,364;    2,136
958,517;  140,727;   -1,545;    3,136
959,070;  106,727;   -0,455;    1,955
959,623;  287,727;    1,091;    1,500
960,176;  251,909;    1,727;    2,045
960,728;  220,091;   -2,727;    0,773
961,281;  177,273;    0,545;    0,500
961,834;  131,909;   -0,909;    0,864
962,386;  143,818;    1,727;    1,045
962,939;  126,636;    0,364;   -0,318
963,491;  157,545;    0,455;    1,136
964,043;  114,818;    1,182;    2,409
964,596;  223,455;   -1,000;    2,227
965,148;  160,636;   -1,000;    1,773
965,700;  114,273;    1,091;   -0,227
966,253;  218,545;   -0,636;    0,318
966,805;  189,364;   -2,273;    0,773
967,357;  144,727;    1,091;   -1,500
967,909;  214,091;    0,455;   -1,227
968,461;  145,364;    0,545;    3,136
969,013;  116,636;   -0,182;   -0,864
969,565;  222,545;   -0,455;   -1,136
970,117;  367,182;   -0,364;    1,045
970,669;  229,000;    0,182;   -0,136
971,220;   97,364;   -0,455;   -1,500
971,772;  150,455;   -0,636;   -0,318
972,324;  208,818;    0,091;   -0,500
972,876;  141,727;    0,818;   -0,045
973,427;  213,545;    1,909;   -1,045
973,979;  264,000;   -0,727;   -2,500
974,530;  144,818;    1,818;    1,318
975,082;  182,818;   -0,545;    1,682
975,633;  150,091;    1,091;    1,682
976,184;  167,273;    0,909;    0,773
976,736;  165,909;    0,091;    0,227
977,287;  190,000;   -0,909;   -0,500
977,838;  156,000;    0,909;   -0,318
978,389;  152,182;   -1,000;   -0,500
978,940;   85,818;    0,545;   -0,409
979,491;   84,909;    0,091;   -0,500
980,042;  144,273;    0,182;    3,045
980,593;  158,455;   -2,545;    0,227
981,144;  205,364;    2,545;   -0,500
981,695;  213,182;    1,455;    1,500
982,246;  187,364;   -0,273;    1,045
982,797;  111,636;   -1,727;    0,682
983,347;  192,909;    0,364;    0,591
983,898;  328,909;    3,091;    0,409
984,449;  305,818;    2,182;    0,773
984,999;  205,182;    1,455;   -1,136
985,550;  176,000;    0,182;   -0,318
986,100;   97,818;   -0,455;   -0,318
986,651;   96,909;   -0,818;    0,045
987,201;  113,455;   -1,000;   -0,591
987,751;  115,818;    0,818;    2,864
988,302;  136,727;    2,636;    1,500
988,852;  176,545;    0,455;   -1,136
989,402;  202,545;    0,091;    0,682
989,952;  232,091;   -2,182;    0,864
990,502;  133,455;   -0,091;    0,682
991,052;   76,273;   -0,727;    0,045
991,602;  109,818;   -2,909;    1,318
992,152;  131,727;    0,455;    0,682
992,702;  158,455;    1,364;   -0,045
993,252;  121,545;   -3,000;   -0,500
993,802;  180,636;   -0,273;    1,318
994,352;  145,636;   -1,545;    1,136
994,901;   93,000;   -0,182;    3,227
995,451;   87,636;   -0,182;    0,318
996,000;  103,545;    1,636;    0,318
996,550;  117,273;    2,273;    0,227
997,100;  136,273;    1,273;   -0,045
997,649;  212,455;    2,182;    0,955
998,198;  114,455;    1,727;   -1,500
998,748;  172,364;    1,091;   -2,318
999,297;  139,909;   -0,818;   -0,409
999,846;  218,545;    1,000;   -0,773
1000,395;  162,636;   -0,818;    0,500
1000,945;  232,545;    1,818;   -0,773
1001,494;  233,727;    2,364;    0,682
1002,043;  232,818;    4,636;    0,864
1002,592;  122,727;   -1,091;    1,955
1003,141;  109,455;   -0,455;   -0,682
1003,690;  214,636;    1,727;    0,500
1004,238;  138,818;    1,455;   -0,045
1004,787;   96,909;    1,364;    1,227
1005,336;  189,182;    0,364;    0,682
1005,885;  156,455;    1,364;   -2,773
1006,433;  151,455;    0,545;    0,955
1006,982;  251,091;    0,455;    1,682
1007,531;  166,091;   -1,818;   -0,227
1008,079;  149,636;   -2,273;    0,500
1008,627;  118,273;   -1,455;    0,409
1009,176;  134,636;    0,000;   -1,955
1009,724;  101,727;    1,091;    0,864
1010,273;  189,545;    1,273;    0,500
1010,821;  115,455;    0,091;    1,409
1011,369;   95,909;   -1,364;    1,318
1011,917;  105,364;   -1,364;   -0,591
1012,465;  147,545;    1,273;   -1,591
1013,013;  138,455;    2,091;   -1,682
1013,561;  211,364;    0,455;   -0,773
1014,109;  268,727;   -1,909;    1,682
1014,657;  187,727;    0,364;    0,591
1015,205;  126,091;    1,636;   -0,955
1015,753;   98,364;   -0,545;   -1,409
1016,301;  140,818;   -2,636;    3,045
1016,848;  183,455;   -1,273;    0,409
1017,396;  177,364;    2,545;    0,045
1017,944;  171,364;    1,182;    1,864
1018,491;  129,727;    0,273;    1,409
1019,039;  309,182;    0,455;    0,591
1019,586;  163,818;   -1,364;    1,682
1020,134;  152,909;    0,455;    1,500
1020,681;  204,636;    0,182;   -1,136
1021,228;  153,909;    2,909;   -2,227
1021,776;  138,091;    1,182;   -1,136
1022,323;  274,273;    0,455;    0,773
1022,870;  208,182;   -1,000;   -0,045
1023,417;  237,455;    2,636;    1,864
1023,964;  139,909;    2,636;    1,227
1024,511;  126,455;    1,000;    0,773
1025,058;  161,909;    3,182;   -0,045
1025,605;  124,727;   -2,273;    3,136
1026,152;  249,636;    1,727;   -0,591
1026,699;  159,091;    1,818;    1,318
1027,245;  149,636;   -0,091;    0,318
1027,792;  107,727;   -1,000;    1,409
1028,339;  254,364;    2,364;   -0,045
1028,885;  164,455;    1,000;   -0,227
1029,432;  133,364;   -0,091;    0,227
1029,978;  190,273;   -1,000;   -1,591
1030,525;  203,818;    1,000;    0,409
1031,071;  122,636;   -1,364;    1,136
1031,618;  286,909;    0,364;    1,682
1032,164;  187,909;   -0,091;    3,045
1032,710;  212,909;    1,636;   -1,500
1033,256;  192,818;   -0,636;   -0,136
1033,803;  107,818;   -0,545;    1,500
1034,349;   38,909;   -1,364;    0,136
1034,895;   63,364;    0,000;   -0,318
1035,441;  108,182;   -0,818;    0,318
1035,987;  133,909;   -2,364;   -0,682
1036,533;  172,091;   -1,455;   -0,955
1037,078;  307,727;    1,455;    1,682
1037,624;  214,636;    2,455;   -0,955
1038,170;  125,818;    0,455;   -0,318
1038,716;  177,455;    1,636;   -0,409
1039,261;  106,818;   -2,273;   -0,773
1039,807;  116,091;   -0,091;    3,409
1040,352;  122,000;   -1,909;   -0,318
1040,898;  116,182;   -1,545;   -0,682
1041,443;   88,273;   -1,455;   -2,591
1041,989;  285,727;    1,091;    1,591
1042,534;  154,545;   -0,364;    2,591
1043,079;   85,273;    2,909;    0,955
1043,625;  145,000;    1,818;    0,500
1044,170;  152,545;   -1,364;    1,045
1044,715;  273,364;    2,455;    0,955
1045,260;  207,727;    2,182;   -0,955
1045,805;  117,636;    1,182;   -0,591
1046,350;  100,273;    1,364;   -0,409
1046,895;  215,091;    2,909;    1,591
1047,440;  197,182;    5,364;    0,409
1047,985;  126,545;    2,818;   -0,955
1048,530;  114,273;    1,545;    1,227
1049,074;  136,000;    0,000;    0,318
1049,619;  105,182;   -1,364;    1,955
1050,164;  103,818;    0,455;    0,227
1050,708;  164,727;   -0,455;    0,045
1051,253;  302,273;    1,273;   -2,227
1051,797;  175,364;    0,818;   -1,318
1052,342;   85,000;   -1,182;    1,045
1052,886;  131,091;    0,364;   -1,409
1053,430;   81,364;   -1,364;    0,136
1053,975;  138,727;   -0,818;   -0,318
1054,519;  134,727;   -0,727;    3,227
1055,063;  169,273;    0,909;    1,318
1055,607;  164,182;   -0,182;    0,227
1056,151;  164,455;    2,909;    1,682
1056,695;  118,818;    2,273;   -1,136
1057,239;  106,455;   -1,727;   -0,682
1057,783;  133,818;    0,818;   -1,500
1058,327;  180,182;    0,000;    1,409
1058,871;  265,818;   -0,545;    1,318
1059,415;  193,455;   -0,818;   -0,045
1059,958;  273,818;    1,455;    2,591
1060,502;  120,818;   -1,000;   -0,773
1061,046;   75,000;    0,364;   -0,955
1061,589;   74,636;   -3,000;   -1,136
1062,133;   61,000;   -1,273;    1,864
1062,676;   85,273;    1,182;    0,864
1063,220;  108,091;    1,091;    0,500
1063,763;  125,545;    0,909;    1,136
1064,306;  132,273;   -0,909;    1,864
1064,849;  137,545;   -0,909;    0,591
1065,393;  120,091;    2,000;   -1,500
1065,936;  117,909;    0,182;   -0,409
1066,479;   84,273;   -1,455;    1,318
1067,022;   97,182;   -0,273;   -0,227
1067,565;   82,091;   -0,091;   -1,318
1068,108;   70,364;    0,727;   -0,591
1068,651;   56,636;   -0,636;    1,409
1069,194;   61,909;   -0,455;   -1,682
1069,736;   70,909;   -1,273;    0,955
1070,279;   59,636;   -1,364;   -0,500
1070,822;  107,545;   -2,000;   -0,318
1071,364;  182,364;   -0,364;    1,318
1071,907;  102,273;   -0,727;    3,227
1072,450;   32,545;    0,000;   -0,045
1072,992;   65,636;   -0,273;    3,136
1073,535;   98,000;    2,091;    2,136
1074,077;   64,545;   -0,727;    2,045
1074,619;   54,364;   -1,364;    0,591
1075,161;   75,182;   -1,091;    1,500
1075,704;  145,909;    1,545;    1,227
1076,246;   76,182;   -0,182;    0,682
1076,788;   47,545;   -0,364;    1,773
1077,330;   42,909;    1,273;    2,136
1077,872;   63,818;    0,909;    0,955
1078,414;  162,273;    2,727;    0,773
1078,956;   85,636;    1,273;   -0,227
1079,498;  153,455;    1,636;    0,318
1080,040;   85,545;    1,909;   -1,318
1080,581;   61,273;    1,636;   -0,318
1081,123;   32,364;    0,091;   -0,773
1081,665;   40,818;   -1,182;   -0,955
1082,206;  142,455;    1,364;   -0,500
1082,748;   88,818;    0,727;    2,045
1083,289;   46,364;   -2,000;    1,318
1083,831;   43,727;   -0,545;    0,227
1084,372;   68,182;    0,000;    0,591
1084,913;   66,000;    1,091;    0,864
1085,455;   40,818;   -1,909;   -2,045
1085,996;   33,182;   -2,273;    0,136
1086,537;   42,909;   -0,091;    0,864
1087,078;   58,091;   -0,909;   -2,136
1087,619;   88,091;   -1,273;    0,227
1088,160;   69,182;    0,000;    1,318
1088,701;   56,545;   -1,091;    0,682
1089,242;   50,727;    1,364;   -2,227
1089,783;   74,182;   -0,273;    1,409
1090,324;   61,727;    0,455;    0,682
1090,865;   38,909;    2,727;   -0,409
1091,405;   28,545;    0,727;    2,227
1091,946;   54,000;    0,182;   -0,955
1092,487;   30,727;    0,818;   -1,409
1093,027;   85,727;   -1,364;   -1,500
1093,568;   48,818;   -0,364;    1,227
1094,108;   60,455;    0,273;    1,773
1094,649;   49,636;   -1,182;    0,136
1095,189;   36,182;   -0,636;   -0,682
1095,729;   35,636;   -0,091;    0,955
1096,269;   34,364;    0,727;   -0,955
1096,810;  105,636;   -1,364;    0,500
1097,350;   71,091;    1,364;   -0,773
1097,890;   50,545;    0,364;    1,227
1098,430;  141,909;    2,364;    2,864
1098,970;  101,273;    2,182;    1,682
1099,510;   42,273;    0,545;   -2,318
1100,050;   37,727;    1,000;   -1,591
1100,589;   45,909;   -0,727;   -0,318
1101,129;   64,727;    0,818;   -0,955
1101,669;  101,364;    1,727;    2,136
1102,209;   64,727;   -0,091;    2,227
1102,748;   50,455;    0,000;    0,955
1103,288;   53,909;    1,273;   -1,227
1103,827;   45,636;    3,091;   -2,227
1104,367;   29,545;   -0,091;   -2,409
1104,906;   34,727;    1,364;   -1,136
1105,445;   57,455;    0,636;   -1,136
1105,985;   43,727;   -0,727;    1,500
1106,524;   50,545;   -1,727;   -0,682
1107,063;   46,727;   -2,727;    1,409
1107,602;   30,545;   -1,909;   -1,500
1108,141;   27,000;   -1,909;    1,500
1108,680;   54,545;   -3,455;   -0,591
1109,219;   41,545;   -0,909;   -0,500
1109,758;   37,909;    0,455;    0,682
1110,297;   36,000;    1,000;   -0,682
1110,836;   25,000;   -0,727;    0,955
1111,375;   30,182;   -2,545;    0,409
1111,913;   57,182;   -1,000;    0,773
1112,452;   42,727;   -0,273;    0,136
1112,991;   22,727;    1,091;    1,955
1113,529;   23,000;   -0,818;   -0,045
1114,068;   35,000;   -0,273;    2,955
1114,606;   21,273;   -0,364;   -0,955
1115,144;   48,273;   -1,273;    1,045
1115,683;   36,091;   -0,727;    0,318
1116,221;   49,091;   -0,455;   -0,864
1116,759;   28,818;    0,636;   -0,864
1117,297;   56,818;    0,000;    1,864
1117,836;   30,000;   -2,182;   -1,227
1118,374;   31,818;    0,182;   -0,682
1118,912;   37,091;    0,909;    2,682
1119,450;   33,364;    1,000;    0,864
1119,988;   33,636;    1,545;    2,136
1120,525;  183,182;    5,091;    3,318
1121,063;   85,364;    1,182;    1,864
1121,601;   34,273;   -0,909;   -1,227
1122,139;   23,818;   -0,727;   -2,045
1122,676;   71,818;   -0,727;    2,773
1123,214;   57,000;   -1,182;    4,409
1123,751;   23,455;    1,727;    2,227
1124,289;   42,818;   -0,091;   -0,409
1124,826;   28,273;    1,727;    0,227
1125,364;   11,455;    1,727;   -0,955
1125,901;   64,273;    1,182;    1,227
1126,438;   58,091;    0,818;    0,955
1126,975;   13,818;   -0,727;   -0,773
1127,513;   24,273;    0,273;    2,136
1128,050;   15,000;    1,636;   -0,682
1128,587;   27,273;    2,000;   -0,227
1129,124;   38,000;    0,091;    1,318
1129,661;   17,182;    0,273;    0,227
1130,198;   52,455;    1,636;    0,773
1130,734;   33,364;    0,182;    1,409
1131,271;    9,909;   -0,909;    0,864
1131,808;   40,091;    2,909;    3,045
1132,345;   22,636;    1,545;    0,318
1132,881;    9,091;   -1,545;   -1,864
1133,418;   26,909;    0,727;   -1,136
1133,954;   16,000;    2,455;   -2,682
1134,491;   28,909;    1,364;   -0,773
1135,027;   15,909;    2,364;    0,864
1135,564;   27,455;    0,273;    2,955
1136,100;   21,091;    0,364;    2,136
1136,636;    9,000;   -1,273;   -1,045
1137,172;   20,727;    0,000;   -1,045
1137,708;   10,909;   -1,364;   -1,045
1138,245;    9,455;    1,273;   -1,227
1138,781;    4,909;    1,091;   -3,318
1139,317;   12,545;    1,273;   -1,409
1139,852;   19,364;    3,091;    0,136
1140,388;   28,818;   -1,182;   -0,409
1140,924;   15,182;   -1,091;   -2,227
1141,460;    5,727;   -1,636;    0,136
1141,996;    4,364;   -1,364;    2,682
1142,531;    4,909;    1,364;    3,318
1143,067;   40,000;    1,182;    1,045
1143,602;   51,636;   -0,091;   -0,318
1144,138;   25,636;   -2,636;    1,045
1144,673;    9,727;   -1,455;    1,409
1145,209;   10,727;   -1,909;   -0,318
1145,744;    6,091;   -0,727;    0,864
1146,279;   19,909;    1,818;   -0,136
1146,815;   13,091;    1,545;   -2,682
1147,350;   19,091;   -1,364;    0,045
1147,885;    7,909;   -0,818;   -1,318
1148,420;    7,455;   -2,273;    0,773
1148,955;    8,636;   -1,727;    1,864
1149,490;    8,091;   -0,909;   -1,591
1150,025;    5,273;    0,455;   -1,773
1150,560;   17,909;    1,091;   -0,955
1151,094;   15,182;    1,455;   -0,591
1151,629;   14,455;    1,636;    0,864
1152,164;   10,545;    1,364;    1,318
1152,698;    7,182;   -0,182;   -0,136
1153,233;    0,000;    0,091;   -0,682
1153,767;    4,273;   -3,000;   -2,318
1154,302;   12,273;   -1,455;    1,773
1154,836;    8,182;   -0,455;   -2,136
1155,371;   12,909;   -1,364;    3,682
1155,905;    9,000;   -0,636;    1,682
1156,439;    7,636;   -0,636;   -0,500
1156,973;   12,091;    0,364;    0,318
1157,507;    6,273;   -0,364;    0,682
1158,042;    8,364;   -0,727;    1,045
1158,576;   11,818;    0,182;    1,773
1159,110;   13,000;   -0,818;    2,409
1159,643;   11,182;    0,636;   -0,045
1160,177;    3,818;   -1,545;    1,500

