
Integration time [ms]:   0,050
Averaging Nr. [scans]: 11
Smoothing Nr. [pixels]: 0
Data measured with spectrometer [name]: 7318044SP
Wave   ;Sample   ;Dark     ;Reference
[nm]   ;[counts] ;[counts] ;[counts] 

186,757;    2,065;   38,161;    1,318
187,357;    7,041;   26,706;    0,955
187,958;    0,639;   17,252;   -1,591
188,558;   19,491;   12,979;   -1,227
189,159;    5,084;   10,070;   -4,500
189,759;   -0,844;    5,797;   -3,591
190,360;   -1,839;    6,797;   -2,136
190,960;    5,415;    5,706;   -4,136
191,560;    9,810;    2,614;   -6,591
192,161;  100,299;    5,885;   -3,500
192,761;   49,321;    5,520;   -3,227
193,361;   26,594;    3,065;   -3,773
193,962;   44,383;    1,612;   -2,682
194,562;   13,207;   -0,114;   -3,955
195,162;   11,966;   -0,567;   -2,227
195,762;   61,466;    2,433;   -0,045
196,362;   34,187;    1,706;   -2,500
196,963;    3,894;    1,706;   -0,864
197,563;   21,596;    1,252;   -0,955
198,163;    5,020;   -0,111;   -0,682
198,763;    8,868;   -0,020;   -0,500
199,363;   23,725;    3,616;   -0,500
199,963;   17,918;    2,162;    0,409
200,563;   10,113;    6,344;   -1,409
201,163;    5,896;    5,435;   -0,227
201,763;   13,914;    1,435;    0,318
202,363;    5,131;    0,980;    1,500
202,963;   14,010;    1,526;    1,045
203,563;   35,309;    0,344;    0,500
204,162;   11,731;    1,889;   -1,864
204,762;    7,267;    2,071;    0,591
205,362;    2,378;    0,708;    1,955
205,962;    8,790;    3,435;    1,955
206,562;    7,342;    1,889;    2,318
207,161;    5,876;    1,708;    0,318
207,761;   37,802;    4,435;    2,409
208,361;   14,306;    1,889;    1,409
208,960;   14,007;    2,889;    1,500
209,560;    8,038;    0,435;    1,591
210,160;   16,561;    5,071;    1,864
210,759;    9,056;    0,708;    1,227
211,359;    5,256;   -0,474;    1,045
211,958;   44,423;    3,526;    2,045
212,558;   40,790;    0,799;    1,864
213,157;   17,797;   -0,929;    1,500
213,757;   72,252;    5,617;   -0,227
214,356;   23,661;    1,708;   -0,409
214,956;   60,415;    3,526;    0,409
215,555;   21,234;    0,617;    2,136
216,154;    6,785;   -0,292;   -0,591
216,754;   10,119;    1,253;    0,773
217,353;   11,809;   -0,383;   -1,045
217,952;    1,444;    2,072;    0,318
218,552;   16,004;    0,254;   -0,773
219,151;    5,730;   -1,110;    0,955
219,750;    4,471;    0,890;   -0,227
220,349;    0,800;   -2,292;    1,045
220,948;   20,913;    1,163;    1,136
221,548;    6,190;    0,617;    1,227
222,147;    6,122;   -1,292;   -0,409
222,746;   28,051;    1,254;   -0,955
223,345;    9,942;   -1,019;    0,500
223,944;   10,933;    1,163;    0,773
224,543;   14,198;    4,072;   -1,409
225,142;    4,865;    1,345;    0,136
225,741;   11,848;    1,163;    1,045
226,340;    5,835;    1,254;   -0,955
226,939;   24,275;    2,708;   -0,136
227,538;    6,900;    1,163;   -0,773
228,137;   28,971;    0,435;    0,864
228,735;   16,320;    0,435;    1,227
229,334;   -3,072;   -0,474;   -0,227
229,933;   27,512;    0,799;    0,591
230,532;   21,155;   -1,201;   -0,409
231,131;   37,407;    1,253;    0,318
231,729;   11,257;    1,163;   -2,318
232,328;    8,936;    0,435;   -1,500
232,927;   10,406;    4,526;   -0,500
233,525;    9,113;    0,981;    0,045
234,124;   11,605;    1,890;   -1,591
234,723;    7,085;    1,617;   -1,045
235,321;    3,313;    1,163;    0,136
235,920;    9,726;    2,526;   -1,227
236,518;   33,682;    1,072;    0,318
237,117;    5,654;    2,890;   -0,227
237,715;   11,028;    1,163;   -0,500
238,314;   11,926;    1,708;   -2,318
238,912;   24,658;    0,526;   -1,409
239,510;   13,146;    1,162;   -1,227
240,109;   33,931;   -0,474;    3,773
240,707;   24,453;   -0,474;    1,227
241,305;    4,742;   -0,383;    0,136
241,904;   15,106;   -0,292;   -2,045
242,502;   40,331;    3,253;   -0,227
243,100;   22,090;    3,344;   -0,955
243,698;    8,646;    2,799;    1,682
244,297;   12,579;   -0,656;    0,682
244,895;   12,102;   -0,474;   -2,318
245,493;   26,789;    2,981;   -0,591
246,091;   36,635;    5,163;   -1,318
246,689;   21,256;    2,163;    0,591
247,287;   18,873;   -0,019;   -1,136
247,885;    6,619;   -1,019;    1,227
248,483;    3,399;   -0,201;   -0,500
249,081;   16,618;    0,981;    1,591
249,679;   15,565;   -1,019;    1,682
250,277;    8,063;   -2,292;    0,864
250,875;   20,832;    0,617;   -1,045
251,473;   14,310;   -0,019;    0,500
252,071;   23,309;   -0,383;    1,045
252,669;   10,933;   -1,565;    0,318
253,267;    3,792;    1,618;    0,773
253,864;    7,692;    0,617;    0,682
254,462;   20,394;    1,526;    1,591
255,060;    6,957;    0,072;    1,318
255,658;    8,206;   -3,292;   -0,136
256,255;    6,041;   -0,201;   -2,045
256,853;   10,892;    2,345;    1,409
257,451;    6,760;    1,981;    1,864
258,048;   67,959;    2,072;    1,864
258,646;   27,197;    0,436;   -1,045
259,243;   31,074;    2,981;    2,227
259,841;   19,488;    1,799;    0,318
260,438;    2,356;    0,254;    0,864
261,036;   17,962;    0,617;    1,409
261,633;    7,962;    1,526;    2,227
262,231;    4,349;   -0,110;   -0,045
262,828;    2,860;   -0,383;    1,136
263,425;    5,567;   -1,928;   -0,591
264,023;    9,230;    1,436;    0,045
264,620;   16,986;    1,526;   -0,318
265,217;   31,129;    2,890;    3,136
265,815;   10,589;    2,527;    2,136
266,412;   18,704;    0,072;    0,136
267,009;   18,927;    0,526;    0,773
267,606;   23,561;    0,345;   -0,955
268,203;    9,843;   -0,383;   -0,591
268,801;    5,014;   -0,474;    0,591
269,398;    3,213;   -0,564;    2,500
269,995;   11,042;    0,890;    1,591
270,592;    8,478;    0,799;   -0,500
271,189;    2,582;    1,981;    0,409
271,786;   -1,050;    2,072;    1,227
272,383;   13,900;   -0,383;    0,227
272,980;    6,406;    1,617;    0,318
273,577;    3,303;    2,162;    1,227
274,174;    3,366;    1,435;    2,591
274,771;   14,388;    1,890;   -0,773
275,367;   74,289;    3,253;    1,409
275,964;   33,019;   -0,565;   -0,500
276,561;    7,522;   -2,474;   -1,045
277,158;    1,474;    1,799;   -1,773
277,755;   22,346;   -0,110;    0,409
278,351;   14,092;    0,436;   -1,500
278,948;   16,144;   -0,201;    0,045
279,545;   10,974;    0,527;    2,318
280,141;   23,247;    1,254;   -2,045
280,738;   26,631;    2,435;   -0,136
281,334;    9,850;   -0,383;    0,591
281,931;    2,053;    2,890;   -1,318
282,528;   19,985;    4,072;   -0,500
283,124;   25,030;    3,345;   -0,500
283,721;   20,540;    0,709;    1,409
284,317;    9,350;    0,163;    2,500
284,913;   23,110;   -0,110;    0,591
285,510;   31,382;    2,890;   -0,318
286,106;   22,188;    2,345;   -0,955
286,703;   11,823;    0,072;    1,955
287,299;    9,125;    1,254;   -0,591
287,895;   10,173;    0,890;   -1,045
288,491;    5,486;    0,163;    2,136
289,088;   13,158;    0,163;    2,409
289,684;   10,115;    2,890;    1,500
290,280;   31,294;    1,890;    0,682
290,876;   22,058;    0,163;    5,500
291,472;   21,570;    2,163;    2,227
292,068;   17,308;    1,254;    0,227
292,665;    7,943;   -0,564;    0,773
293,261;    0,065;   -1,292;    2,136
293,857;   16,719;    4,072;    2,136
294,453;   10,134;   -0,928;    0,955
295,049;   35,615;    0,253;    1,955
295,644;   18,745;   -1,292;    0,136
296,240;    2,584;    0,162;   -0,136
296,836;    8,536;   -0,747;    0,318
297,432;   22,188;    2,980;   -0,500
298,028;   21,834;    0,435;    0,773
298,624;   12,216;    0,889;    1,864
299,220;   12,626;    0,435;    0,591
299,815;    9,628;    0,526;   -0,409
300,411;   17,070;    0,435;    1,773
301,007;   21,245;    1,889;    0,227
301,602;    8,288;    2,071;   -2,318
302,198;   26,736;    1,435;   -0,773
302,794;   10,850;    1,526;   -0,500
303,389;    4,439;    1,071;    1,045
303,985;    6,569;    1,253;    1,409
304,580;   33,108;    0,889;    1,591
305,176;   14,974;    0,344;    0,136
305,771;   -3,981;   -0,929;   -1,227
306,367;   58,025;    3,071;    0,136
306,962;   20,015;    2,889;    1,500
307,558;   27,823;    2,435;    0,136
308,153;   10,534;   -0,383;   -1,136
308,748;    0,169;    0,162;    1,682
309,344;   39,757;    0,253;   -1,318
309,939;   29,995;    2,071;   -1,318
310,534;    7,694;   -2,020;   -1,682
311,130;    4,011;   -0,656;   -2,500
311,725;    5,219;    0,526;   -0,500
312,320;    8,403;    1,253;    0,045
312,915;   16,345;    2,890;   -1,045
313,510;   45,329;    0,526;   -0,500
314,105;   12,030;   -3,565;    1,409
314,700;   -1,944;   -1,656;   -1,045
315,295;    7,381;   -0,020;    0,045
315,890;    3,713;   -0,292;    0,864
316,485;   16,248;    0,253;   -0,318
317,080;    5,499;   -0,929;    1,591
317,675;   43,508;    3,071;   -0,682
318,270;   92,990;    6,889;    3,318
318,865;   54,976;    2,435;    3,045
319,460;   24,919;   -1,565;    0,591
320,055;    6,294;   -2,565;   -1,227
320,650;    8,671;   -1,838;   -0,591
321,244;   11,822;    0,889;   -1,409
321,839;    9,736;    0,980;   -0,227
322,434;   12,312;   -0,111;   -1,591
323,029;    8,159;   -0,474;    1,591
323,623;    2,351;    0,798;    0,773
324,218;   36,784;    2,707;    1,409
324,812;   21,683;    0,889;    1,591
325,407;   13,283;   -0,929;    2,045
326,002;   40,671;    0,526;   -0,409
326,596;   30,103;   -0,656;    1,318
327,191;   10,234;   -0,383;   -1,045
327,785;   12,285;   -0,747;   -0,227
328,379;    8,966;   -0,383;    0,136
328,974;    2,971;    1,798;   -3,955
329,568;   12,793;    2,889;   -2,409
330,163;   26,102;    2,435;    1,045
330,757;   12,650;    0,253;    1,591
331,351;    1,859;   -0,292;    0,682
331,945;    2,744;   -0,383;    1,409
332,540;   10,328;    1,617;   -0,591
333,134;    7,402;    3,344;    0,773
333,728;   13,687;    2,799;    0,318
334,322;    4,760;    0,889;   -0,864
334,916;    2,103;    0,344;    0,955
335,510;   22,380;   -0,111;   -0,136
336,105;   15,143;   -0,929;    1,591
336,699;    2,553;   -1,292;    0,591
337,293;    5,614;    1,071;    0,318
337,887;    2,135;    0,071;    1,955
338,481;   14,136;    2,980;    0,591
339,074;   31,361;    2,071;    2,682
339,668;   26,374;   -0,110;    1,227
340,262;  135,876;    7,708;    3,227
340,856;   50,698;    1,708;   -0,682
341,450;    7,824;    0,708;    1,864
342,044;   18,069;    1,799;    0,136
342,637;   28,385;    1,162;   -2,136
343,231;    9,133;   -1,474;    0,682
343,825;    6,630;   -0,747;   -0,591
344,419;   11,105;   -0,474;    0,500
345,012;  108,160;    2,889;    4,045
345,606;   60,886;   -0,656;    1,591
346,199;   18,883;   -0,111;   -0,227
346,793;   29,624;    2,525;    2,045
347,386;    7,118;    0,889;   -1,136
347,980;    0,090;   -0,838;   -0,045
348,573;    5,762;   -1,748;    0,409
349,167;   91,676;    6,161;    4,773
349,760;   37,074;    2,252;    2,682
350,354;   31,849;    1,616;    1,136
350,947;   39,796;    2,798;    1,682
351,540;   21,954;    0,616;   -1,409
352,134;    6,624;   -1,111;    1,136
352,727;    6,199;   -0,657;    1,136
353,320;   10,429;    2,343;    0,591
353,913;    1,340;   -1,929;    1,864
354,507;   27,867;    0,434;   -1,227
355,100;   11,962;    0,071;    0,864
355,693;  122,877;    4,798;    2,409
356,286;   54,155;    0,980;    2,773
356,879;   22,467;   -0,475;    1,227
357,472;   25,424;    0,980;    1,500
358,065;   24,096;    3,161;    2,500
358,658;   10,452;    0,798;    2,318
359,251;    4,390;    0,252;   -0,591
359,844;   29,143;    0,343;   -1,136
360,437;   42,531;    0,252;    0,045
361,030;   15,204;    0,525;   -0,682
361,623;   15,179;    0,434;    0,318
362,215;   59,875;    0,979;    2,045
362,808;   19,053;   -2,293;   -1,682
363,401;   10,603;    0,798;    0,136
363,994;   62,013;    3,252;   -1,500
364,586;   25,232;    0,888;   -1,500
365,179;   13,974;   -0,203;   -1,136
365,772;   -3,131;   -0,930;    2,045
366,364;    9,852;    1,524;   -3,227
366,957;   20,455;    1,342;   -0,045
367,549;   12,649;   -0,203;   -0,864
368,142;   11,375;    0,978;   -1,500
368,734;   12,743;    2,523;   -2,136
369,327;    4,103;    2,341;   -0,500
369,919;    9,617;   -1,659;    0,409
370,512;   11,468;   -1,023;   -0,500
371,104;   76,484;    2,704;    1,591
371,696;   78,730;    1,703;   -0,955
372,289;   41,717;    0,157;    1,136
372,881;   29,430;    1,156;    1,318
373,473;    2,894;    4,064;    1,136
374,066;   18,269;    1,336;    0,500
374,658;   17,312;    0,879;    1,136
375,250;   11,515;   -1,668;   -1,409
375,842;   18,023;   -0,124;   -0,045
376,434;   -0,079;   -2,762;   -0,409
377,026;    0,956;   -1,855;   -2,500
377,618;   19,338;    0,779;   -0,682
378,210;   -0,949;    3,141;   -1,955
378,802;    8,003;    3,412;   -0,591
379,394;  155,282;    3,411;    0,682
379,986;   57,214;    1,138;   -0,955
380,578;   14,801;    1,410;    0,773
381,170;  114,582;    0,320;    0,045
381,762;   77,461;   -0,224;    1,409
382,354;   41,930;   -0,223;   -1,318
382,945;   21,902;    0,870;    0,318
383,537;    7,433;    1,144;   -1,955
384,129;    6,974;    0,963;   -1,136
384,721;   42,617;    0,418;    0,955
385,312;   22,372;   -1,399;   -0,955
385,904;   45,566;   -0,945;    1,591
386,496;   25,253;    0,691;    1,045
387,087;   85,547;    0,418;    2,500
387,679;   54,942;   -0,401;    0,045
388,270;   31,971;   -2,401;    2,045
388,862;   27,573;   -0,401;   -0,318
389,453;   28,972;    1,054;    1,045
390,045;   28,968;    3,236;   -2,682
390,636;   -1,612;    0,144;   -0,591
391,227;   20,610;    2,054;   -0,045
391,819;    9,403;    0,781;    0,773
392,410;  102,111;    0,600;    0,045
393,001;   25,878;    1,600;   -1,591
393,593;   40,828;    0,600;   -0,045
394,184;   49,270;    0,873;   -0,409
394,775;   21,562;    1,146;    2,136
395,366;   -3,421;    1,782;    0,773
395,957;   38,600;   -2,400;    0,136
396,548;    4,979;    1,054;    2,682
397,139;   44,305;    2,236;    0,591
397,730;   22,727;    0,873;    0,955
398,321;   24,985;    0,509;    0,955
398,912;   17,016;   -0,764;    0,136
399,503;   15,991;   -1,945;   -1,409
400,094;   14,684;   -1,582;    1,682
400,685;   12,386;    3,600;    0,045
401,276;   13,724;   -0,400;   -0,955
401,867;    8,638;   -1,127;    0,773
402,458;  -11,946;    1,509;   -2,318
403,048;   24,376;    0,146;    0,591
403,639;   10,288;    1,509;    0,864
404,230;   49,046;    0,691;    0,318
404,821;   67,810;   -0,127;    0,045
405,411;   34,622;   -0,763;   -2,591
406,002;   11,410;    3,237;   -1,136
406,592;   94,319;    2,691;    0,045
407,183;   38,532;    0,328;   -1,500
407,774;   34,338;    1,419;   -0,136
408,364;   17,747;    2,600;    0,409
408,954;   49,085;   -0,036;    1,227
409,545;   50,041;    1,873;    1,045
410,135;   39,994;   -1,581;    0,500
410,726;   16,091;    0,783;    0,318
411,316;   84,016;    2,237;    0,773
411,906;   33,614;    0,146;   -0,409
412,497;   32,807;   -0,490;   -0,045
413,087;   19,119;    0,783;   -0,227
413,677;   -1,177;   -2,490;    3,864
414,267;   -3,786;   -1,035;    1,409
414,857;   -7,335;    0,419;    4,227
415,448;   -5,621;   -0,763;    0,500
416,038;    4,093;   -2,945;   -0,591
416,628;   11,961;    0,965;    0,409
417,218;   24,433;   -1,762;    3,318
417,808;   84,520;    0,965;   -0,409
418,398;   45,540;   -1,035;    2,682
418,988;    7,608;   -2,217;    0,591
419,578;   43,269;    3,601;    1,409
420,168;   18,007;    0,692;   -0,955
420,757;   59,838;    0,964;   -1,500
421,347;    9,928;    1,601;   -0,227
421,937;    5,889;    3,329;    1,409
422,527;   58,169;    2,602;   -0,773
423,116;  117,803;    2,692;   -0,045
423,706;   21,896;    2,965;    0,318
424,296;    0,140;    1,601;    0,682
424,885;   36,685;    1,510;   -3,045
425,475;   26,631;    1,147;   -2,864
426,065;    1,789;   -1,489;   -0,318
426,654;   -3,241;    0,329;   -0,318
427,244;   80,694;    1,147;    1,409
427,833;   60,319;    1,056;   -0,500
428,423;   20,230;    0,147;    1,136
429,012;   19,714;    2,420;   -1,136
429,601;   60,014;    2,057;    0,136
430,191;   27,095;    2,511;    4,318
430,780;   -0,927;   -1,671;   -0,409
431,369;   56,120;    1,329;   -0,045
431,959;   20,197;    1,693;    0,500
432,548;    2,973;   -1,398;   -0,045
433,137;  -13,579;    0,329;   -1,318
433,726;    5,199;    0,148;    0,500
434,315;   14,143;    0,148;    2,409
434,905;   56,549;    0,693;    1,409
435,494;   41,989;    3,148;    0,955
436,083;    7,539;    1,420;   -0,955
436,672;   46,714;    1,148;    0,500
437,261;   27,848;    0,512;   -1,955
437,850;   92,788;   -1,125;    0,682
438,439;  122,959;    2,239;    1,955
439,027;  182,711;    3,421;    1,773
439,616;  126,553;    2,239;    1,227
440,205;   38,271;    0,057;   -2,136
440,794;   28,535;   -0,306;   -0,045
441,383;   12,894;    1,603;   -0,591
441,971;    5,381;   -0,306;    0,591
442,560;    8,372;    0,603;   -1,773
443,149;  -17,425;    3,060;   -1,318
443,737;  -12,153;    0,968;   -2,318
444,326;   -1,221;    0,331;    0,318
444,915;   11,802;   -1,851;    0,864
445,503;   19,097;    0,058;   -0,318
446,092;  147,759;    7,876;    2,136
446,680;  103,795;    1,876;    0,318
447,269;   43,194;   -1,487;   -0,318
447,857;   43,486;    2,240;   -1,773
448,445;   24,956;    2,149;    1,318
449,034;    7,964;    0,876;   -1,136
449,622;   16,434;    1,240;    3,500
450,210;  105,969;    3,149;    2,227
450,799;   68,707;    2,604;   -0,591
451,387;   61,192;    1,786;   -0,591
451,975;   53,941;   -1,305;    0,864
452,563;   81,583;    0,422;    2,318
453,151;   26,551;   -1,032;   -1,227
453,739;   26,870;   -1,577;    0,136
454,328;   57,767;    0,604;   -2,136
454,916;   40,187;    1,150;   -0,136
455,504;   59,337;    3,513;    1,227
456,092;   18,971;    2,150;   -1,591
456,679;    8,646;    0,604;    0,682
457,267;  180,028;    3,604;    1,045
457,855;   48,016;    3,241;    1,409
458,443;   -1,180;   -0,304;    1,682
459,031;   32,965;    1,332;    2,409
459,619;   24,317;   -3,577;    2,864
460,206;    0,362;   -0,759;    2,045
460,794;    1,570;   -0,668;   -0,227
461,382;   15,012;    0,878;   -0,864
461,970;   18,730;    0,605;    1,864
462,557;    0,251;    0,878;   -0,682
463,145;   24,449;   -0,304;   -1,682
463,732;  123,370;    2,514;   -1,045
464,320;   37,724;    1,514;   -3,045
464,907;   76,316;    0,423;   -0,773
465,495;   43,919;    2,696;   -1,227
466,082;   22,140;    2,060;   -0,045
466,670;   34,017;    2,605;    1,227
467,257;    2,890;    0,060;    2,045
467,844;   28,480;    1,514;    0,045
468,432;   17,089;   -0,031;    3,500
469,019;   11,310;    1,606;   -1,773
469,606;   46,526;    0,969;    3,682
470,193;   55,046;    2,151;    0,227
470,780;   26,073;    0,333;    0,864
471,368;   11,067;   -1,212;   -0,773
471,955;   46,664;    1,060;   -0,682
472,542;   26,229;   -0,303;   -1,136
473,129;    1,655;   -0,485;    0,136
473,716;    5,276;    0,060;    0,591
474,303;   10,214;    1,333;   -0,864
474,890;    6,903;    2,333;   -0,500
475,477;   46,542;   -0,576;    0,409
476,064;   15,419;    0,697;   -1,591
476,650;   64,768;    2,152;    0,318
477,237;   24,313;    1,879;    0,955
477,824;   17,496;    3,879;    0,864
478,411;   -6,198;    0,606;   -0,318
478,997;  -10,681;    0,606;   -0,773
479,584;  -18,613;   -0,666;   -0,409
480,171;   25,667;    1,243;   -0,773
480,757;   39,519;   -0,848;    0,773
481,344;   11,873;    0,334;    0,409
481,931;   -9,952;   -0,393;    1,045
482,517;   22,643;    0,425;    0,318
483,104;   54,746;    1,334;    2,864
483,690;   12,517;    0,243;    0,045
484,276;    1,478;    0,698;    0,227
484,863;   78,380;    2,152;    1,136
485,449;   22,013;    0,152;    0,318
486,035;    2,076;   -0,666;   -0,136
486,622;   30,498;   -2,393;    0,045
487,208;   12,060;    1,334;    1,500
487,794;  -10,476;    0,971;    0,318
488,380;   -7,360;    0,698;   -1,409
488,967;  -10,246;   -1,120;   -0,409
489,553;  -10,111;   -1,029;   -1,409
490,139;   16,004;    0,971;    0,773
490,725;   -0,377;    0,789;   -0,227
491,311;   10,545;    1,516;    3,045
491,897;    5,771;   -0,665;    1,500
492,483;    8,801;    0,426;    1,227
493,069;  185,915;    5,426;    0,864
493,655;   62,196;    1,789;    0,682
494,241;   13,301;    1,517;   -0,955
494,826;   13,420;    0,335;   -1,045
495,412;   30,698;    0,335;   -0,682
495,998;    6,895;    0,971;   -0,318
496,584;   22,438;    2,244;    1,045
497,169;   29,411;    2,335;   -0,682
497,755;    8,567;    1,244;    1,227
498,341;   47,033;    2,153;    0,318
498,926;   98,898;    2,881;    1,955
499,512;    8,780;   -0,028;    2,955
500,097;    2,649;   -0,574;   -0,318
500,683;   14,383;   -0,028;    2,136
501,268;    2,599;    1,881;   -0,955
501,854;   11,769;   -0,119;    1,227
502,439;    7,268;   -0,573;   -1,773
503,024;    0,608;    1,608;    0,500
503,610;   11,478;    1,335;   -0,682
504,195;    2,916;    1,245;    1,955
504,780;   29,839;    2,335;    1,227
505,366;   66,570;    4,063;    2,864
505,951;   32,990;   -1,119;    1,045
506,536;    9,726;    1,427;   -3,682
507,121;   26,738;    1,699;   -0,318
507,706;   21,691;   -0,392;    1,045
508,291;   -0,540;   -2,937;    1,136
508,876;   -6,098;   -0,482;    2,591
509,461;    9,869;    1,427;   -0,773
510,046;   20,724;   -0,391;    0,318
510,631;   29,931;   -0,119;   -0,773
511,216;    1,494;   -0,664;   -0,500
511,801;   23,129;   -0,755;    2,591
512,386;   21,498;    0,972;    0,500
512,971;   23,360;    0,427;    0,955
513,555;   31,351;    1,154;   -1,500
514,140;   24,640;    1,336;   -3,136
514,725;   68,283;    1,791;   -1,136
515,309;   34,286;    1,064;    0,318
515,894;    9,358;   -0,300;   -2,227
516,479;   17,231;    1,973;   -0,955
517,063;   13,281;    0,882;    1,227
517,648;    6,976;    0,155;   -1,136
518,232;   -6,487;   -1,300;   -1,409
518,817;   24,446;    1,337;    1,682
519,401;   58,081;    0,700;    0,591
519,985;   53,783;    2,700;    1,136
520,570;   15,050;   -0,118;   -1,955
521,154;   42,249;    0,064;    0,591
521,738;   99,656;    1,064;    2,409
522,323;   52,434;   -0,390;    1,682
522,907;   60,062;    2,428;   -0,136
523,491;   49,470;    1,155;    0,955
524,075;   56,040;    0,428;    0,591
524,659;  168,615;    0,973;    0,591
525,243;  159,224;    0,883;    0,409
525,827;  145,958;    0,883;   -0,045
526,411;  175,979;    1,155;   -0,136
526,995;  276,574;    0,337;    1,409
527,579;  360,204;    1,974;   -1,045
528,163;  342,260;    0,428;   -1,500
528,747;  470,642;    1,065;   -0,773
529,331;  459,028;    0,883;   -1,409
529,915;  359,839;    2,338;    0,955
530,499;  505,471;    0,247;    1,227
531,082;  727,175;    1,065;    1,591
531,666;  848,916;    0,520;    0,773
532,250;  800,393;    0,428;    2,682
532,833;  972,838;    0,610;    2,773
533,417;  828,600;    1,247;    0,864
534,001; 1008,154;    0,429;   -0,318
534,584; 1004,465;    1,974;    0,500
535,168;  866,890;    3,247;    1,409
535,751; 1340,117;    4,520;    0,045
536,334; 1030,430;    4,520;   -0,409
536,918; 1028,664;    1,974;    1,591
537,501; 1063,959;    1,520;    1,318
538,085; 1169,606;    1,702;    1,045
538,668; 1240,085;    0,883;    2,409
539,251; 1681,655;    3,156;    3,773
539,834; 1475,506;    0,156;    0,773
540,418; 1628,100;    3,247;    4,318
541,001; 1827,342;    2,702;    1,773
541,584; 1629,386;    1,429;    2,227
542,167; 1717,618;    0,702;    2,955
542,750; 1634,208;    0,793;   -0,773
543,333; 1432,229;    1,429;    2,136
543,916; 1807,187;   -0,298;    2,500
544,499; 1748,964;    2,520;    0,227
545,082; 1869,457;    0,248;    3,591
545,665; 1841,255;   -0,207;    1,500
546,248; 2011,502;    0,520;   -0,318
546,830; 1963,515;   -1,752;    1,955
547,413; 2053,391;    0,157;   -0,773
547,996; 2205,485;    0,157;    0,500
548,579; 2002,818;   -0,843;    0,955
549,161; 2235,493;    0,884;    2,682
549,744; 2133,463;    0,612;    0,409
550,326; 2201,038;    0,885;   -1,136
550,909; 2568,601;    2,339;    0,591
551,492; 2353,041;    0,521;    0,227
552,074; 2368,267;   -0,024;   -1,318
552,657; 2510,459;    2,430;    0,045
553,239; 2368,986;   -3,024;   -0,773
553,821; 2324,786;   -1,570;    1,045
554,404; 2406,440;   -0,024;    1,136
554,986; 2545,887;    2,248;    1,045
555,568; 2554,051;    0,430;   -0,955
556,151; 2622,075;    4,067;   -0,227
556,733; 2423,723;   -1,388;   -0,864
557,315; 2478,553;    4,703;    0,500
557,897; 2270,581;    0,521;   -0,500
558,479; 2325,342;    1,703;    1,318
559,061; 2469,415;    1,067;   -0,864
559,643; 2625,934;   -0,297;    0,045
560,225; 2650,181;   -0,388;    2,864
560,807; 2600,116;    0,340;    0,318
561,389; 2490,289;   -1,206;    2,318
561,971; 2560,479;   -0,660;    2,136
562,553; 2610,435;    0,613;    1,591
563,135; 2688,760;    1,249;    1,136
563,717; 2875,286;    3,158;    1,136
564,298; 2867,800;    3,976;   -0,045
564,880; 2586,239;    0,340;   -1,409
565,462; 2550,512;    1,977;    1,318
566,043; 2985,400;   -0,933;    2,318
566,625; 2955,749;    4,067;    1,227
567,207; 2754,647;    0,704;    1,682
567,788; 2902,084;   -0,114;    1,500
568,370; 3114,989;   -1,841;   -0,500
568,951; 2881,545;   -0,569;    0,227
569,533; 3135,465;    0,977;   -0,500
570,114; 3317,990;   -0,296;    0,682
570,695; 3340,649;   -0,478;   -1,318
571,277; 3313,551;   -0,205;   -1,682
571,858; 3555,683;    2,704;   -1,136
572,439; 3700,035;    0,795;   -1,045
573,021; 3625,357;    0,432;   -2,773
573,602; 3766,531;    1,795;    0,318
574,183; 3900,534;   -0,114;    2,227
574,764; 3902,849;    2,068;    0,409
575,345; 3949,282;    0,250;   -0,136
575,926; 4056,645;    2,704;    0,136
576,507; 4137,880;    2,704;   -0,227
577,088; 4334,330;    1,704;    1,682
577,669; 4421,602;    1,704;    1,955
578,250; 4685,625;   -0,750;   -1,045
578,831; 4583,479;   -0,841;   -2,227
579,412; 4450,353;   -1,205;    0,955
579,993; 4899,756;    1,432;    0,227
580,573; 4948,139;   -0,023;   -0,955
581,154; 4444,621;    1,613;   -0,591
581,735; 4786,764;    0,341;    0,773
582,315; 4524,128;    0,523;    2,136
582,896; 4785,849;   -1,750;    1,227
583,477; 4608,744;    0,614;    1,227
584,057; 4714,933;    1,159;    0,955
584,638; 4793,028;   -2,750;    2,318
585,218; 4947,176;    2,886;    2,682
585,799; 4873,428;    1,977;   -0,227
586,379; 4858,421;    1,250;    1,591
586,959; 4626,907;    2,613;    0,318
587,540; 4464,420;    0,432;    2,227
588,120; 4330,469;   -1,113;   -0,045
588,700; 4127,048;    2,977;    2,136
589,281; 4425,129;    1,250;   -0,955
589,861; 4307,585;   -0,296;   -1,682
590,441; 4256,795;   -1,477;   -2,682
591,021; 3887,014;    1,432;   -2,591
591,601; 4116,415;    0,431;    0,500
592,181; 4248,179;   -1,296;   -0,773
592,761; 3877,696;    2,250;    1,409
593,341; 4011,979;    1,522;    0,045
593,921; 3965,961;   -0,569;    1,591
594,501; 3895,185;    1,250;    1,318
595,081; 3859,664;    0,522;   -0,318
595,661; 4125,183;    1,068;    0,955
596,240; 4271,238;   -1,023;    0,136
596,820; 4160,875;    2,613;    1,955
597,400; 3976,054;    1,977;    0,773
597,980; 4079,126;   -0,750;    1,045
598,559; 4116,283;    0,341;   -0,227
599,139; 4074,461;   -0,750;   -1,227
599,718; 4033,825;    0,795;   -0,409
600,298; 4168,469;   -2,387;    0,682
600,877; 4421,079;    4,795;    1,409
601,457; 4456,716;    0,340;    1,136
602,036; 4341,582;    1,795;    2,045
602,616; 4258,111;    2,250;    1,682
603,195; 4420,792;    0,431;    3,500
603,774; 4239,784;   -0,296;    2,045
604,354; 4189,899;    2,522;   -0,500
604,933; 4059,189;    0,250;    1,864
605,512; 4255,483;    2,340;    0,591
606,091; 4288,867;    1,886;    3,773
606,671; 4456,453;    0,249;    0,773
607,250; 4274,937;    1,431;    3,136
607,829; 4353,965;    1,158;    3,227
608,408; 4289,015;    4,613;    2,591
608,987; 4087,745;    2,704;    3,409
609,566; 4031,471;    0,341;   -2,500
610,145; 4140,708;    2,885;    0,682
610,723; 4384,680;    1,613;    6,864
611,302; 4003,069;    1,067;    1,682
611,881; 3948,913;    5,158;   11,227
612,460; 4088,224;    0,795;    3,955
613,039; 4256,574;    1,703;    2,045
613,617; 3808,756;    0,886;    4,773
614,196; 3841,229;    1,613;    1,227
614,775; 4054,631;    1,249;    2,409
615,353; 4037,102;   -1,660;    0,864
615,932; 3949,232;    0,249;    2,409
616,510; 4215,253;    0,158;    0,591
617,089; 4361,544;    8,794;   17,591
617,667; 4178,156;    4,885;    6,136
618,246; 3820,350;   -1,115;    1,318
618,824; 3985,312;    1,612;   -0,955
619,402; 3847,236;    0,431;   -1,773
619,981; 4069,319;    1,067;   -1,045
620,559; 4116,092;    0,794;    1,682
621,137; 4048,993;    3,067;    1,864
621,715; 3722,329;    3,703;   -0,682
622,293; 3765,610;    1,885;   -0,773
622,871; 4143,280;    0,340;    0,500
623,450; 3943,309;    0,430;   -0,864
624,028; 4004,719;   -0,388;   -0,955
624,606; 3828,109;    2,339;    1,682
625,183; 3858,264;   -0,661;   -1,136
625,761; 3792,795;    1,885;    1,136
626,339; 4151,541;    2,339;    2,591
626,917; 4066,034;    0,339;   -0,045
627,495; 4127,265;    2,794;    1,318
628,073; 3945,233;    5,248;    2,864
628,650; 3840,123;    3,067;    2,136
629,228; 3994,528;    1,248;    4,409
629,806; 3671,516;   -0,024;    1,136
630,383; 3813,991;    0,066;   -0,318
630,961; 3764,793;   -2,206;   -0,955
631,539; 3657,139;   -2,479;    0,227
632,116; 4036,793;   12,703;   15,409
632,694; 3921,474;    4,885;    6,500
633,271; 3741,286;    1,975;    2,682
633,848; 3863,944;    1,430;    2,045
634,426; 3784,590;    1,521;    1,773
635,003; 3549,152;   -0,207;   -0,409
635,580; 3759,094;    1,884;    3,682
636,158; 3749,042;    3,793;    1,227
636,735; 3695,382;    3,339;   -0,500
637,312; 3708,194;    0,521;   -0,682
637,889; 3738,331;    2,248;   -0,682
638,466; 3666,824;    0,066;   -0,409
639,043; 3630,498;    1,702;   -1,136
639,620; 3679,842;    0,611;   -0,955
640,197; 3844,963;    1,612;    1,682
640,774; 3942,818;    1,430;    1,136
641,351; 4042,491;    0,612;    1,136
641,928; 3911,618;    2,794;    1,409
642,505; 3923,109;    0,794;   -0,500
643,082; 3935,236;    1,885;    1,227
643,658; 3524,000;    1,157;    1,500
644,235; 3726,582;   -2,479;    2,500
644,812; 3790,163;    1,794;    0,773
645,388; 3751,472;    1,612;    1,409
645,965; 3606,418;    1,521;    1,682
646,542; 3663,000;    3,430;   -0,227
647,118; 4017,218;    3,703;   -0,955
647,695; 3949,982;    0,339;    1,136
648,271; 3785,927;   -2,115;    0,500
648,848; 3896,509;    0,248;    2,227
649,424; 3937,182;    0,976;    1,318
650,000; 3636,854;   -0,388;   -1,045
650,577; 3714,163;    0,158;   -0,955
651,153; 3881,563;   -1,115;    0,955
651,729; 4003,600;    0,521;    0,864
652,305; 4099,273;    1,339;    2,773
652,881; 4678,491;   -1,297;    1,136
653,458; 5847,618;    0,249;    0,227
654,034; 6565,745;    0,703;    1,591
654,610; 6666,963;    0,339;    0,773
655,186; 7146,545;    1,612;    3,045
655,762; 6870,400;   -1,842;    0,409
656,338; 6840,891;    0,703;    0,136
656,913; 7316,564;   -0,297;    0,409
657,489; 6997,782;    0,249;   -0,318
658,065; 7083,182;    0,794;   -1,591
658,641; 7460,673;    2,158;   -0,864
659,217; 7135,982;    2,067;    0,409
659,792; 6765,836;   -1,751;   -0,409
660,368; 7006,236;   -0,388;   -0,682
660,944; 7305,000;    1,794;    1,227
661,519; 6455,673;    0,522;    0,409
662,095; 5313,164;   -0,206;    0,591
662,670; 4383,382;   -0,206;   -0,136
663,246; 4338,873;   -0,660;   -0,409
663,821; 4220,455;    0,431;    1,682
664,396; 3900,036;    0,613;    1,864
664,972; 4035,164;   -0,660;   -0,500
665,547; 4204,291;    3,794;    0,136
666,122; 4112,873;    1,340;    0,318
666,698; 4285,364;    2,431;    0,318
667,273; 3866,127;    0,885;    0,136
667,848; 4178,709;    0,340;    1,500
668,423; 4121,109;    1,795;    2,318
668,998; 4173,055;    0,976;   -0,682
669,573; 4349,546;    2,067;   -1,500
670,148; 4371,218;    1,885;   -0,682
670,723; 4109,709;   -0,024;    0,318
671,298; 4463,200;   -1,296;    1,045
671,873; 4373,600;   -0,296;   -0,136
672,448; 4361,091;    1,704;    0,136
673,023; 4441,309;    0,249;   -0,227
673,597; 4638,891;    2,704;    2,318
674,172; 4550,382;    2,431;    0,318
674,747; 4361,873;   -0,205;   -1,045
675,321; 4184,909;   -0,933;    3,318
675,896; 4009,037;    2,158;    1,045
676,471; 4336,800;    2,522;    1,591
677,045; 4204,473;   -0,296;    0,682
677,620; 4152,873;    2,158;    1,136
678,194; 4357,364;    0,249;    1,136
678,769; 4277,037;    0,886;   -0,318
679,343; 4368,437;   -0,023;    1,773
679,917; 4322,382;    0,340;    1,955
680,492; 4232,600;    0,249;    3,227
681,066; 4278,546;    0,613;    0,409
681,640; 4334,491;    1,795;   -0,318
682,214; 4561,528;    2,340;    0,500
682,788; 4360,746;    0,613;   -0,773
683,363; 4290,146;    1,977;    1,682
683,937; 4158,546;    0,886;   -0,318
684,511; 4527,400;   -1,023;   -0,591
685,085; 4420,255;   -1,478;    0,318
685,659; 4261,564;    1,431;    0,864
686,232; 4430,419;    1,159;   -0,318
686,806; 4359,182;    2,159;    0,409
687,380; 4581,219;   -1,932;    0,591
687,954; 4670,073;    2,432;    1,136
688,528; 4573,291;    2,613;    1,955
689,101; 4854,964;    0,432;    1,045
689,675; 4535,455;    0,886;   -0,136
690,249; 4391,764;    3,432;    0,409
690,822; 4531,346;    1,159;    0,318
691,396; 4480,110;    2,068;    1,227
691,969; 4309,237;    2,523;    0,136
692,543; 4583,546;   -0,568;   -1,955
693,116; 4328,400;   -0,659;   -1,409
693,690; 4339,619;   -0,296;    0,500
694,263; 4586,019;    2,341;    2,955
694,836; 4710,601;    2,795;    3,591
695,410; 4219,637;    1,159;    1,773
695,983; 4332,764;    1,614;    0,591
696,556; 4299,073;   -0,750;   -1,045
697,129; 4455,928;   -1,114;    1,409
697,703; 4276,237;    1,341;    1,955
698,276; 4366,910;    1,705;   -0,773
698,849; 4284,946;   -1,023;    1,409
699,422; 4343,073;    1,250;    0,591
699,995; 4228,019;   -0,659;    0,136
700,568; 4451,510;   -0,204;    3,045
701,140; 4448,364;   -1,841;    1,682
701,713; 4454,219;    0,341;    2,409
702,286; 4358,073;    0,796;    0,864
702,859; 4271,837;    0,614;   -0,591
703,432; 4085,782;   -0,841;    0,682
704,004; 4179,637;    1,978;    0,318
704,577; 4011,310;    1,068;    0,136
705,150; 4213,892;    0,887;    2,500
705,722; 4253,655;    1,523;   -3,227
706,295; 4209,692;    1,432;   -0,591
706,867; 4051,183;    0,250;    1,955
707,440; 4308,583;   -0,113;   -0,409
708,012; 4358,528;   -0,022;    0,591
708,584; 4237,292;    2,705;    0,227
709,157; 4352,146;    1,160;   -0,591
709,729; 4324,092;    1,069;    2,045
710,301; 4678,037;   -1,204;    0,045
710,874; 4632,619;    0,341;   -0,227
711,446; 4071,019;   -0,295;    0,864
712,018; 4123,419;   -3,022;    0,500
712,590; 3980,364;   -0,204;    1,682
713,162; 4291,583;   -0,477;    1,318
713,734; 4302,983;    1,796;   -2,045
714,306; 4302,564;    0,342;   -0,409
714,878; 3892,419;   -0,295;    0,864
715,450; 4199,637;   -0,113;    0,864
716,022; 4296,128;    2,433;    1,318
716,593; 4366,801;    0,978;    0,591
717,165; 4394,655;    1,796;   -1,227
717,737; 4374,783;    0,796;    0,409
718,309; 4242,728;    1,160;   -0,045
718,880; 4185,583;   -1,295;   -1,409
719,452; 4342,165;    0,887;   -1,591
720,024; 4213,110;    1,705;   -0,591
720,595; 4365,510;    2,978;    0,955
721,167; 4190,092;    1,160;   -2,045
721,738; 4025,128;    2,069;   -1,045
722,309; 4001,346;    1,251;   -1,227
722,881; 3921,928;    2,705;    0,773
723,452; 4195,328;    1,251;    2,864
724,023; 4310,910;    1,524;    2,682
724,595; 4263,492;    2,342;    0,682
725,166; 4091,165;    1,524;   -0,409
725,737; 4058,474;    1,887;    0,227
726,308; 4090,510;    0,797;    0,318
726,879; 4072,910;    1,069;    1,227
727,450; 4129,674;   -2,022;   -0,045
728,021; 4032,074;    1,069;    0,682
728,592; 4089,292;    1,160;    0,500
729,163; 4282,692;    1,433;   -0,136
729,734; 4232,728;    2,160;   -0,227
730,305; 4234,401;    0,615;    0,136
730,876; 4282,801;    0,888;    2,955
731,447; 4405,383;    0,797;    2,682
732,017; 4363,237;   -0,840;    1,864
732,588; 4258,365;   -0,021;    1,227
733,159; 4339,310;    3,615;   -1,045
733,729; 4118,619;    1,251;    0,409
734,300; 4006,565;    0,160;    0,864
734,870; 4090,147;   -1,385;    0,591
735,441; 4235,183;    0,888;   -0,591
736,011; 4057,038;    1,070;   -1,591
736,582; 4048,892;    1,251;    0,045
737,152; 3837,928;    0,979;   -2,045
737,722; 4073,510;    1,070;   -0,682
738,293; 3909,547;   -2,021;    1,318
738,863; 4019,219;    1,797;    2,318
739,433; 4142,256;    4,524;    0,318
740,003; 4256,201;    1,524;   -0,682
740,573; 4120,329;    2,252;   -1,591
741,143; 4159,001;    3,615;    0,318
741,713; 4266,401;    0,252;   -0,500
742,283; 4171,347;    1,706;    1,591
742,853; 4073,383;    0,524;    1,591
743,423; 3879,419;    0,161;    0,045
743,993; 3934,638;    1,070;    1,500
744,563; 3685,856;    2,524;   -0,864
745,133; 3733,983;   -0,112;   -0,864
745,702; 4038,929;    2,797;    1,773
746,272; 3803,965;    0,434;    0,591
746,842; 3814,274;   -0,748;   -0,591
747,411; 3886,492;   -0,839;   -0,318
747,981; 3839,983;   -0,930;    0,500
748,551; 3888,474;   -0,021;   -1,045
749,120; 3888,420;   -0,112;   -0,227
749,690; 4035,456;    2,161;    2,409
750,259; 4160,765;    0,979;    2,955
750,828; 4087,256;    4,070;   -1,955
751,398; 4107,929;   -0,112;   -0,045
751,967; 4133,601;    2,888;    0,409
752,536; 4059,729;    1,161;   -0,227
753,105; 4258,129;   -1,384;    0,227
753,675; 4045,620;   -0,112;    1,773
754,244; 4024,838;    0,888;    3,591
754,813; 4041,056;    0,979;    1,227
755,382; 3891,001;    0,798;    0,955
755,951; 4016,583;   -0,112;    3,682
756,520; 4007,892;    2,525;    1,864
757,089; 4310,383;    1,888;    0,500
757,658; 4089,511;    2,434;    1,227
758,227; 4036,002;   -1,111;    0,318
758,795; 4138,583;   -1,021;    1,136
759,364; 4380,529;    0,525;   -0,591
759,933; 3899,111;    1,343;   -0,045
760,501; 3807,692;    0,252;   -1,318
761,070; 3958,456;   -0,293;   -1,409
761,639; 4344,856;    1,434;    1,318
762,207; 3975,983;    0,889;   -0,955
762,776; 4050,838;    2,889;    0,864
763,344; 3964,056;    0,071;    0,591
763,913; 3511,911;    1,616;    1,409
764,481; 4109,583;    1,980;   -0,136
765,049; 4068,893;    0,616;    1,409
765,618; 3947,747;    1,434;    0,318
766,186; 3974,329;    2,434;    0,136
766,754; 4045,820;    1,798;    1,864
767,322; 3610,402;    1,162;    0,409
767,890; 3578,711;    0,525;   -1,773
768,459; 3875,929;    2,616;   -0,318
769,027; 4026,056;    2,525;    3,409
769,595; 3654,184;    2,616;    2,591
770,163; 3756,038;    3,344;    2,955
770,730; 3693,165;    2,525;   -0,136
771,298; 3665,020;    1,162;   -1,409
771,866; 3735,693;    0,253;    4,955
772,434; 3797,002;    1,162;   -1,864
773,002; 4042,402;    2,616;    0,682
773,569; 3884,620;    1,071;    1,682
774,137; 3851,384;    0,889;   -0,045
774,705; 4052,784;   -0,747;   -0,136
775,272; 3801,002;    0,253;    0,682
775,840; 3931,765;   -0,111;    2,682
776,407; 3750,802;   -0,293;    1,955
776,975; 3437,384;    1,162;    0,318
777,542; 3834,056;    2,162;   -0,045
778,110; 3829,184;    0,707;   -0,045
778,677; 3657,129;    1,071;   -0,864
779,244; 3616,984;   -1,020;    1,045
779,812; 3744,747;    0,980;    0,864
780,379; 3711,511;    2,435;    1,136
780,946; 3701,275;    2,617;   -0,773
781,513; 3787,766;   -0,565;    0,318
782,080; 3531,711;    1,253;    2,864
782,647; 3779,656;    1,708;    3,045
783,214; 3661,056;   -0,201;    3,864
783,781; 3602,729;    1,708;   -0,682
784,348; 3631,766;    0,253;    1,500
784,915; 3632,347;   -1,474;    0,318
785,482; 3678,020;    2,708;    2,591
786,049; 3868,693;    1,071;   -0,591
786,615; 3864,911;    1,708;   -0,955
787,182; 3760,947;   -3,201;   -0,682
787,749; 3686,075;   -2,201;    1,409
788,315; 3470,111;    0,253;   -0,409
788,882; 3629,693;    0,981;   -1,227
789,448; 3891,184;    1,435;   -0,955
790,015; 3795,311;    1,799;    3,227
790,581; 3785,802;    0,708;    0,227
791,148; 3608,838;    1,344;    1,045
791,714; 3694,148;   -1,019;    3,136
792,280; 3625,184;    3,708;    1,591
792,847; 3508,493;   -0,928;    2,500
793,413; 3647,529;   -0,110;   -0,318
793,979; 3601,929;    1,526;   -1,318
794,545; 3854,420;    2,981;    2,682
795,111; 3565,275;    2,435;    1,318
795,678; 3513,129;    3,526;   -1,682
796,244; 3608,984;    2,799;    0,136
796,810; 3720,020;    0,799;    0,773
797,375; 3636,966;   -0,292;   -2,136
797,941; 3357,275;   -1,110;    0,591
798,507; 3365,675;    0,254;   -0,955
799,073; 3308,802;    2,708;    0,591
799,639; 3431,566;    1,435;    3,136
800,205; 3355,511;   -1,565;    2,682
800,770; 3236,911;    1,345;    1,773
801,336; 3174,584;    2,981;   -0,955
801,901; 3588,893;    6,072;    3,136
802,467; 3567,839;    0,526;    2,045
803,033; 3152,420;   -0,019;    0,864
803,598; 3169,639;    1,072;   -1,045
804,163; 3294,584;    0,708;   -0,318
804,729; 3340,711;   -0,110;    1,136
805,294; 3328,293;    1,072;    2,227
805,859; 3236,330;    0,890;   -0,409
806,425; 3440,548;    3,890;    2,682
806,990; 3326,766;    1,890;    4,318
807,555; 3307,621;   -0,110;    2,591
808,120; 3381,021;   -1,292;   -0,409
808,685; 3201,057;    1,072;   -2,500
809,250; 3011,002;    2,072;   -0,500
809,815; 3149,584;   -0,201;    0,682
810,380; 3402,075;    0,981;    1,591
810,945; 3530,657;    2,890;    2,045
811,510; 3336,875;   -0,200;    1,591
812,075; 3148,457;    2,800;   -1,409
812,640; 3366,402;    3,709;    1,409
813,204; 3298,439;    2,163;   -0,227
813,769; 3560,657;    0,254;   -0,045
814,334; 3400,602;    0,527;    0,864
814,898; 3295,639;    1,981;    0,591
815,463; 3203,221;    0,981;   -0,773
816,027; 3146,439;    1,345;   -2,318
816,592; 3272,657;    2,163;   -2,045
817,156; 3129,330;   -2,200;    1,136
817,721; 3130,003;    0,982;    2,318
818,285; 3043,312;    0,618;    1,500
818,849; 3284,893;   -0,018;    1,682
819,414; 3139,748;    0,073;    2,955
819,978; 3034,421;   -0,291;    1,773
820,542; 3442,912;    2,891;    0,500
821,106; 3338,584;    2,800;    0,682
821,670; 3390,712;    2,709;    2,591
822,234; 3156,203;    1,073;    1,409
822,798; 3004,330;   -0,836;    0,500
823,362; 3280,275;    1,527;    4,227
823,926; 2952,766;   -0,018;    1,136
824,490; 3073,530;    3,527;   -0,682
825,054; 3124,657;    2,527;   -1,136
825,618; 2977,603;   -1,200;   -1,500
826,181; 2957,548;    0,982;   -1,318
826,745; 2954,312;   -0,745;   -1,045
827,309; 3261,348;    2,255;    1,318
827,872; 3071,748;    0,527;    0,955
828,436; 3239,784;    1,982;   -0,773
828,999; 3300,730;    2,436;    1,227
829,563; 3060,039;   -0,654;    1,136
830,126; 2969,712;   -0,018;   -0,591
830,690; 2940,294;    0,709;    2,864
831,253; 2760,330;   -0,473;    2,227
831,816; 2838,730;   -0,018;    0,500
832,380; 2745,766;    1,164;    0,864
832,943; 2815,075;    3,073;   -0,500
833,506; 2760,475;    0,255;   -1,227
834,069; 3094,875;    2,164;   -0,955
834,632; 3078,094;   -2,200;    1,318
835,195; 3017,039;    1,346;    0,955
835,758; 2846,803;    0,709;    1,955
836,321; 2726,112;    1,073;   -1,045
836,884; 2794,512;   -1,291;   -0,955
837,447; 2838,366;    0,528;    1,773
838,010; 2909,221;    1,800;    3,227
838,573; 3058,348;    0,528;    0,773
839,135; 3021,566;   -0,109;   -0,955
839,698; 2803,148;    2,528;    0,409
840,261; 2690,276;    0,255;   -0,227
840,823; 2697,948;   -0,927;    0,864
841,386; 2727,985;   -0,018;   -2,409
841,948; 2960,930;    0,255;    1,773
842,511; 2674,967;    0,255;    1,682
843,073; 2897,185;    2,982;    0,227
843,636; 2695,403;    0,619;   -0,227
844,198; 2813,167;    1,255;    0,591
844,760; 2834,294;    0,619;    1,955
845,322; 2614,967;    0,164;    1,136
845,885; 2791,276;   -0,290;    0,591
846,447; 2872,585;    0,710;    0,227
847,009; 2998,894;    3,983;   -0,682
847,571; 2841,385;    1,346;   -2,045
848,133; 2833,148;   -0,199;   -1,864
848,695; 2722,276;    2,346;    1,409
849,257; 2707,039;    1,346;   -1,682
849,819; 2858,348;    2,983;   -0,409
850,381; 2751,203;    1,801;   -0,864
850,942; 2837,694;    1,892;   -0,591
851,504; 2763,458;    0,983;    0,227
852,066; 2782,858;    1,619;   -1,591
852,628; 2741,803;    0,165;    1,955
853,189; 2513,112;    0,256;    2,682
853,751; 2639,149;   -0,654;    1,409
854,312; 2695,003;    1,256;   -1,682
854,874; 2872,676;   -0,108;   -0,773
855,435; 2818,985;    0,528;   -1,682
855,997; 2952,839;    3,983;   -0,136
856,558; 2788,967;    0,801;    1,773
857,119; 2663,185;   -0,744;    2,864
857,681; 2556,858;   -0,108;    0,318
858,242; 2673,712;    1,347;   -2,136
858,803; 2883,203;    1,074;   -0,773
859,364; 2959,512;    0,892;   -4,773
859,925; 2891,640;   -0,290;   -0,955
860,486; 2818,040;    0,529;   -0,955
861,047; 2660,349;    0,165;   -1,227
861,608; 2617,840;    0,165;   -0,773
862,169; 2683,876;   -0,562;   -0,045
862,730; 2606,185;   -0,290;    1,409
863,291; 2719,676;    0,438;   -0,500
863,852; 2739,621;   -0,926;    1,955
864,412; 2611,112;   -1,835;   -0,864
864,973; 2498,785;    1,892;    0,500
865,534; 2608,367;    2,074;    0,227
866,094; 2715,858;    2,620;    0,227
866,655; 2695,803;    4,711;    3,318
867,215; 2686,840;    0,074;    0,136
867,776; 2632,149;   -1,199;   -0,136
868,336; 2646,458;    1,529;    0,136
868,897; 2845,767;    3,438;    1,682
869,457; 2674,531;    3,256;    0,318
870,017; 2639,931;    2,438;   -1,227
870,578; 2738,331;    1,893;    0,773
871,138; 2525,367;    2,620;   -0,955
871,698; 2376,767;   -0,562;   -1,318
872,258; 2429,258;    0,711;   -2,864
872,818; 2711,749;    2,347;    0,045
873,378; 2595,058;   -2,198;    1,045
873,938; 2457,913;    4,984;    0,500
874,498; 2461,585;    1,256;   -1,955
875,058; 2452,622;    4,347;    1,773
875,618; 2437,749;    1,438;   -2,682
876,177; 2457,694;   -0,471;    0,136
876,737; 2217,731;   -0,289;    1,955
877,297; 2575,858;    2,711;    1,955
877,856; 2511,622;    2,529;    0,318
878,416; 2310,294;    2,438;   -0,136
878,976; 2363,058;    3,438;    0,409
879,535; 2461,458;    4,529;    3,136
880,095; 2437,313;    1,347;    0,045
880,654; 2322,894;    0,347;    1,318
881,213; 2589,294;    2,347;    1,500
881,773; 2392,876;    1,984;    2,682
882,332; 2986,094;    6,075;    5,136
882,891; 2528,222;    0,711;    2,136
883,451; 2550,894;   -2,016;    1,682
884,010; 2353,931;   -1,107;   -0,409
884,569; 2384,695;   -2,289;   -0,045
885,128; 2564,004;   -0,743;   -1,864
885,687; 2817,404;   -0,743;    0,682
886,246; 2900,076;    2,620;    2,136
886,805; 2554,385;    1,620;    2,045
887,364; 2388,240;    1,166;   -0,500
887,922; 2396,731;   -0,016;    0,045
888,481; 2371,858;    1,530;    0,591
889,040; 2576,985;    3,711;    2,136
889,599; 2567,022;    2,166;    1,409
890,157; 2596,240;    2,166;    2,409
890,716; 2419,549;    2,166;    0,227
891,274; 2431,858;    0,075;   -1,136
891,833; 2570,076;    1,166;    0,864
892,391; 2341,204;    1,802;    0,500
892,950; 2557,513;    0,166;   -0,773
893,508; 2497,367;    0,984;   -0,409
894,067; 2292,404;   -0,379;    0,136
894,625; 2350,440;   -1,016;   -1,500
895,183; 2372,477;   -0,198;   -0,682
895,741; 2616,877;    2,257;   -1,773
896,299; 2433,549;    1,621;   -2,409
896,858; 2374,404;    1,530;   -1,591
897,416; 2477,622;    0,166;   -1,318
897,974; 2438,477;   -2,197;    0,318
898,532; 2850,967;    6,530;    2,682
899,089; 2498,731;    0,621;   -0,682
899,647; 2427,767;    0,530;    1,318
900,205; 2469,077;    0,257;    1,045
900,763; 2518,568;    2,166;    0,227
901,321; 2529,422;    3,530;   -1,409
901,878; 2292,549;    3,257;   -0,773
902,436; 2292,495;    0,257;    1,318
902,994; 3052,077;    6,712;    3,682
903,551; 2515,113;    1,439;    0,409
904,109; 2514,877;    1,530;   -1,409
904,666; 2428,368;    1,439;    1,045
905,224; 2297,040;    3,894;   -0,409
905,781; 2338,713;   -0,470;   -0,318
906,338; 2305,022;    0,167;    1,045
906,895; 2216,513;    1,894;    2,045
907,453; 2441,731;    2,348;    1,136
908,010; 2326,495;    3,348;    0,409
908,567; 2190,895;   -0,561;    0,591
909,124; 1990,840;    2,439;   -1,500
909,681; 2011,604;   -1,288;    0,682
910,238; 2173,913;   -0,106;   -1,318
910,795; 2266,222;   -1,561;   -1,136
911,352; 2204,768;   -0,379;   -2,682
911,909; 2077,677;    2,803;   -0,864
912,466; 2216,222;    1,985;    1,500
913,022; 2077,313;   -0,924;    0,500
913,579; 2274,768;   -0,470;    2,045
914,136; 2121,495;   -2,561;    0,955
914,692; 2254,404;    1,530;   -1,227
915,249; 2093,040;    0,530;    0,409
915,806; 2183,131;    1,803;    1,955
916,362; 2104,495;    0,894;    1,864
916,918; 1928,404;    2,439;    1,045
917,475; 2141,859;    1,621;    0,955
918,031; 1997,495;    0,076;   -0,045
918,587; 2010,677;    0,621;   -0,318
919,144; 2022,131;   -0,379;    0,227
919,700; 2028,222;    0,167;    0,773
920,256; 1922,859;    0,439;    0,045
920,812; 1862,677;    1,439;   -1,045
921,368; 1864,313;    1,348;   -1,045
921,924; 1784,040;    0,439;   -0,136
922,480; 1806,859;    0,076;    1,227
923,036; 1946,495;   -0,652;    1,955
923,592; 1898,677;    0,621;    0,318
924,148; 1899,313;    1,894;   -0,955
924,704; 1950,131;    0,258;   -0,409
925,259; 1919,131;   -0,561;    0,591
925,815; 1804,313;    3,803;    0,500
926,371; 1711,495;    3,530;    1,409
926,926; 1823,404;    1,621;    0,591
927,482; 1741,495;    1,621;    0,773
928,037; 1687,131;   -0,833;    2,045
928,593; 1932,040;    0,258;    1,045
929,148; 1718,131;    1,167;   -1,500
929,704; 1692,495;    2,439;   -0,500
930,259; 1601,859;    0,894;   -0,136
930,814; 1685,677;    1,803;    1,955
931,369; 1606,859;    0,258;   -0,773
931,925; 1422,949;   -1,924;    0,136
932,480; 1474,404;    3,076;   -2,591
933,035; 1868,586;    3,985;   -0,318
933,590; 1731,222;   -1,742;   -1,773
934,145; 1329,313;   -1,288;   -0,318
934,700; 1307,495;    0,348;   -0,591
935,255; 1351,859;    4,803;    0,045
935,809; 1582,222;    6,258;    0,864
936,364; 1128,131;    2,167;   -0,136
936,919; 1168,040;    2,348;   -1,773
937,474; 1097,404;    1,348;    0,136
938,028; 1126,949;    3,076;    1,136
938,583; 1444,495;    6,348;    4,682
939,138; 1145,131;    0,167;    2,136
939,692;  955,404;   -1,015;   -1,136
940,247;  938,131;    1,167;   -1,045
940,801; 1003,677;    0,621;    0,227
941,355;  925,586;    0,439;    2,591
941,910;  777,677;    0,712;   -2,136
942,464;  829,677;    2,712;   -0,318
943,018; 1085,222;    3,258;   -0,227
943,572;  902,586;    2,803;   -0,682
944,126;  898,222;   -0,924;   -0,409
944,681;  752,949;    0,712;    0,227
945,235;  703,222;    2,167;   -0,591
945,789;  667,586;    1,258;   -1,864
946,342; 1000,404;   -0,561;   -0,591
946,896;  719,677;    0,348;    0,955
947,450;  668,495;   -0,561;   -0,227
948,004;  945,495;    1,076;   -0,045
948,558;  740,495;    1,258;   -0,864
949,111;  729,404;   -1,197;   -0,318
949,665;  954,677;   -0,106;   -0,682
950,219;  894,222;    0,621;   -1,045
950,772;  817,495;    0,258;    1,864
951,326;  814,222;   -1,106;   -0,955
951,879;  722,040;    1,076;   -2,318
952,433;  871,949;    1,348;    2,227
952,986;  682,586;    0,348;    0,682
953,539;  626,040;    1,530;    0,591
954,093;  582,768;    0,985;   -1,318
954,646;  746,404;   -0,288;    1,318
955,199;  647,495;    1,258;   -0,500
955,752;  858,131;    1,985;    1,773
956,305;  685,677;    0,894;    2,955
956,858;  751,313;    0,621;   -0,318
957,411;  840,222;    3,621;    2,136
957,964;  703,768;    2,076;    2,136
958,517;  620,768;    0,985;    3,136
959,070;  580,859;   -1,197;    1,955
959,623;  872,859;    1,076;    1,500
960,176;  807,404;    0,712;    2,045
960,728;  763,313;    1,712;    0,773
961,281;  718,768;    2,258;    0,500
961,834;  632,495;   -0,833;    0,864
962,386;  631,131;    1,258;    1,045
962,939;  578,313;    3,439;   -0,318
963,491;  649,859;    2,621;    1,136
964,043;  574,222;    0,076;    2,409
964,596;  773,131;    1,712;    2,227
965,148;  655,222;   -0,379;    1,773
965,700;  562,222;   -0,015;   -0,227
966,253;  744,404;   -0,833;    0,318
966,805;  683,677;    1,894;    0,773
967,357;  611,131;    0,439;   -1,500
967,909;  726,768;    1,167;   -1,227
968,461;  613,313;    0,894;    3,136
969,013;  554,586;   -1,561;   -0,864
969,565;  717,859;    1,803;   -1,136
970,117;  991,768;    3,803;    1,045
970,669;  716,222;    3,258;   -0,136
971,220;  504,222;    2,167;   -1,500
971,772;  594,586;    1,348;   -0,318
972,324;  704,040;   -1,197;   -0,500
972,876;  593,040;    0,167;   -0,045
973,427;  735,404;   -1,197;   -1,045
973,979;  811,222;    0,076;   -2,500
974,530;  582,949;    0,803;    1,318
975,082;  658,677;    2,167;    1,682
975,633;  599,222;    2,894;    1,682
976,184;  686,768;    2,076;    0,773
976,736;  660,677;    0,348;    0,227
977,287;  651,586;    0,258;   -0,500
977,838;  628,949;   -0,924;   -0,318
978,389;  644,586;    0,803;   -0,500
978,940;  485,040;    1,258;   -0,409
979,491;  486,131;    2,258;   -0,500
980,042;  588,768;   -0,652;    3,045
980,593;  597,131;    1,894;    0,227
981,144;  700,677;    3,530;   -0,500
981,695;  760,131;   -0,470;    1,500
982,246;  695,768;   -1,833;    1,045
982,797;  553,768;   -0,561;    0,682
983,347;  728,677;    2,167;    0,591
983,898;  941,859;    4,167;    0,409
984,449;  883,404;    2,530;    0,773
984,999;  695,859;    1,894;   -1,136
985,550;  642,677;    3,167;   -0,318
986,100;  493,586;    0,712;   -0,318
986,651;  488,040;    0,258;    0,045
987,201;  535,040;    0,894;   -0,591
987,751;  557,677;   -0,288;    2,864
988,302;  602,949;   -0,379;    1,500
988,852;  642,768;    1,985;   -1,136
989,402;  716,495;    0,985;    0,682
989,952;  732,404;    1,621;    0,864
990,502;  586,313;    1,076;    0,682
991,052;  484,040;   -0,106;    0,045
991,602;  518,222;    1,167;    1,318
992,152;  575,222;    2,803;    0,682
992,702;  599,949;    1,167;   -0,045
993,252;  535,313;    0,076;   -0,500
993,802;  650,404;    1,167;    1,318
994,352;  631,495;   -0,742;    1,136
994,901;  540,949;    1,076;    3,227
995,451;  532,040;   -1,197;    0,318
996,000;  565,313;    1,076;    0,318
996,550;  538,768;    2,894;    0,227
997,100;  585,677;   -0,561;   -0,045
997,649;  762,586;   -0,197;    0,955
998,198;  549,313;   -0,288;   -1,500
998,748;  675,131;    0,348;   -2,318
999,297;  601,495;    0,985;   -0,409
999,846;  748,768;    1,894;   -0,773
1000,395;  661,131;    1,530;    0,500
1000,945;  768,313;    1,076;   -0,773
1001,494;  762,222;    0,167;    0,682
1002,043;  734,404;    0,712;    0,864
1002,592;  545,313;    3,439;    1,955
1003,141;  561,131;    2,439;   -0,682
1003,690;  693,586;    1,258;    0,500
1004,238;  577,495;   -0,106;   -0,045
1004,787;  463,495;   -1,288;    1,227
1005,336;  683,949;    1,621;    0,682
1005,885;  630,677;   -0,197;   -2,773
1006,433;  626,586;   -0,470;    0,955
1006,982;  847,859;    2,167;    1,682
1007,531;  678,222;    2,712;   -0,227
1008,079;  615,768;    0,258;    0,500
1008,627;  572,040;    1,621;    0,409
1009,176;  575,495;    0,076;   -1,955
1009,724;  515,495;   -2,742;    0,864
1010,273;  691,222;    1,076;    0,500
1010,821;  586,495;    1,076;    1,409
1011,369;  509,313;    0,076;    1,318
1011,917;  538,040;   -0,833;   -0,591
1012,465;  647,495;    2,530;   -1,591
1013,013;  637,586;    0,439;   -1,682
1013,561;  739,859;   -1,288;   -0,773
1014,109;  837,040;   -0,833;    1,682
1014,657;  700,677;    1,348;    0,591
1015,205;  586,949;    0,894;   -0,955
1015,753;  528,313;    0,258;   -1,409
1016,301;  619,404;    2,621;    3,045
1016,848;  705,222;    2,167;    0,409
1017,396;  713,949;    1,621;    0,045
1017,944;  712,859;    2,621;    1,864
1018,491;  586,404;   -0,197;    1,409
1019,039;  951,859;   -0,652;    0,591
1019,586;  670,495;    0,076;    1,682
1020,134;  657,768;    0,712;    1,500
1020,681;  728,040;    2,894;   -1,136
1021,228;  636,313;   -0,561;   -2,227
1021,776;  612,313;   -0,833;   -1,136
1022,323;  865,859;    0,803;    0,773
1022,870;  769,404;   -0,470;   -0,045
1023,417;  824,586;    2,076;    1,864
1023,964;  642,768;    0,621;    1,227
1024,511;  609,495;   -0,652;    0,773
1025,058;  616,677;    0,439;   -0,045
1025,605;  580,131;   -1,742;    3,136
1026,152;  824,768;   -0,106;   -0,591
1026,699;  646,040;    0,167;    1,318
1027,245;  639,586;    2,439;    0,318
1027,792;  600,040;    0,712;    1,409
1028,339;  816,949;    4,076;   -0,045
1028,885;  656,949;    3,621;   -0,227
1029,432;  598,586;   -0,106;    0,227
1029,978;  724,131;    1,348;   -1,591
1030,525;  695,313;    1,621;    0,409
1031,071;  588,222;    0,348;    1,136
1031,618;  895,404;    1,258;    1,682
1032,164;  701,949;    2,076;    3,045
1032,710;  749,586;    0,076;   -1,500
1033,256;  696,131;    0,712;   -0,136
1033,803;  552,040;   -0,288;    1,500
1034,349;  409,949;    1,803;    0,136
1034,895;  470,859;    2,621;   -0,318
1035,441;  540,859;    0,439;    0,318
1035,987;  590,586;   -2,288;   -0,682
1036,533;  683,404;   -0,197;   -0,955
1037,078;  891,859;    4,712;    1,682
1037,624;  723,404;    2,439;   -0,955
1038,170;  587,404;    1,712;   -0,318
1038,716;  666,949;    2,167;   -0,409
1039,261;  525,677;    2,167;   -0,773
1039,807;  530,768;   -0,015;    3,409
1040,352;  584,040;   -1,288;   -0,318
1040,898;  583,313;    0,167;   -0,682
1041,443;  485,040;    0,803;   -2,591
1041,989;  806,586;    3,621;    1,591
1042,534;  581,677;    0,985;    2,591
1043,079;  486,313;    1,985;    0,955
1043,625;  575,222;    0,258;    0,500
1044,170;  614,131;    2,439;    1,045
1044,715;  838,222;    0,167;    0,955
1045,260;  699,222;   -0,833;   -0,955
1045,805;  553,949;    0,258;   -0,591
1046,350;  512,040;    0,530;   -0,409
1046,895;  704,768;    0,803;    1,591
1047,440;  688,404;    1,530;    0,409
1047,985;  539,859;   -1,197;   -0,955
1048,530;  510,768;    1,348;    1,227
1049,074;  581,495;    2,803;    0,318
1049,619;  505,768;   -0,924;    1,955
1050,164;  483,131;    1,076;    0,227
1050,708;  574,313;    2,621;    0,045
1051,253;  848,768;    3,258;   -2,227
1051,797;  631,949;   -0,197;   -1,318
1052,342;  458,949;    1,348;    1,045
1052,886;  556,404;    1,803;   -1,409
1053,430;  420,859;    2,167;    0,136
1053,975;  519,495;    0,894;   -0,318
1054,519;  536,768;    1,803;    3,227
1055,063;  605,495;    3,621;    1,318
1055,607;  578,131;    1,348;    0,227
1056,151;  573,040;    0,530;    1,682
1056,695;  480,949;   -1,833;   -1,136
1057,239;  487,040;   -1,197;   -0,682
1057,783;  528,586;    2,258;   -1,500
1058,327;  595,949;    3,076;    1,409
1058,871;  759,222;    3,985;    1,318
1059,415;  602,586;   -0,561;   -0,045
1059,958;  773,859;    2,985;    2,591
1060,502;  523,586;    1,348;   -0,773
1061,046;  418,131;    1,712;   -0,955
1061,589;  396,495;    2,803;   -1,136
1062,133;  353,495;    0,985;    1,864
1062,676;  395,586;    1,439;    0,864
1063,220;  442,404;    0,985;    0,500
1063,763;  466,859;    2,985;    1,136
1064,306;  498,859;    0,985;    1,864
1064,849;  484,313;    2,076;    0,591
1065,393;  461,949;    2,894;   -1,500
1065,936;  477,586;    2,530;   -0,409
1066,479;  381,313;    2,621;    1,318
1067,022;  416,586;    1,894;   -0,227
1067,565;  375,495;   -1,197;   -1,318
1068,108;  356,131;    1,258;   -0,591
1068,651;  324,949;   -2,470;    1,409
1069,194;  330,131;   -1,106;   -1,682
1069,736;  355,131;    3,803;    0,955
1070,279;  320,404;   -1,652;   -0,500
1070,822;  420,677;    1,530;   -0,318
1071,364;  556,131;    0,530;    1,318
1071,907;  395,040;    0,348;    3,227
1072,450;  244,404;    0,258;   -0,045
1072,992;  329,040;   -0,561;    3,136
1073,535;  415,040;    0,167;    2,136
1074,077;  308,677;    2,985;    2,045
1074,619;  306,677;    0,985;    0,591
1075,161;  334,949;   -0,561;    1,500
1075,704;  475,131;    0,258;    1,227
1076,246;  324,404;    1,530;    0,682
1076,788;  256,040;   -1,015;    1,773
1077,330;  272,313;   -2,106;    2,136
1077,872;  304,404;   -1,924;    0,955
1078,414;  498,313;    3,712;    0,773
1078,956;  331,040;    0,167;   -0,227
1079,498;  493,131;    0,439;    0,318
1080,040;  323,131;    0,985;   -1,318
1080,581;  277,131;    0,621;   -0,318
1081,123;  219,040;   -0,106;   -0,773
1081,665;  233,677;    3,803;   -0,955
1082,206;  444,313;    3,258;   -0,500
1082,748;  357,404;    3,258;    2,045
1083,289;  255,586;    0,167;    1,318
1083,831;  238,495;    0,258;    0,227
1084,372;  290,768;    0,894;    0,591
1084,913;  279,131;    3,348;    0,864
1085,455;  228,313;    1,530;   -2,045
1085,996;  235,677;    0,530;    0,136
1086,537;  274,586;    0,985;    0,864
1087,078;  282,949;    0,439;   -2,136
1087,619;  333,859;   -1,652;    0,227
1088,160;  279,313;    1,439;    1,318
1088,701;  258,313;   -0,742;    0,682
1089,242;  239,222;   -0,561;   -2,227
1089,783;  300,495;   -0,561;    1,409
1090,324;  279,404;   -0,833;    0,682
1090,865;  210,586;   -1,924;   -0,409
1091,405;  187,677;   -0,561;    2,227
1091,946;  240,404;   -0,197;   -0,955
1092,487;  175,131;   -1,288;   -1,409
1093,027;  301,768;    1,803;   -1,500
1093,568;  221,949;    2,258;    1,227
1094,108;  268,859;    0,621;    1,773
1094,649;  231,040;   -0,470;    0,136
1095,189;  197,949;    1,167;   -0,682
1095,729;  191,495;    0,712;    0,955
1096,269;  183,859;    1,258;   -0,955
1096,810;  351,495;   -0,197;    0,500
1097,350;  277,313;   -0,561;   -0,773
1097,890;  217,222;    2,985;    1,227
1098,430;  401,222;    4,985;    2,864
1098,970;  326,768;    1,894;    1,682
1099,510;  208,313;   -0,833;   -2,318
1100,050;  184,859;    0,258;   -1,591
1100,589;  188,313;    0,076;   -0,318
1101,129;  254,495;    0,894;   -0,955
1101,669;  340,768;    2,803;    2,136
1102,209;  252,495;    1,530;    2,227
1102,748;  214,768;    3,439;    0,955
1103,288;  223,040;    0,712;   -1,227
1103,827;  217,586;    3,530;   -2,227
1104,367;  168,222;    1,712;   -2,409
1104,906;  167,040;   -1,015;   -1,136
1105,445;  215,949;    0,985;   -1,136
1105,985;  185,495;   -0,652;    1,500
1106,524;  200,495;    1,530;   -0,682
1107,063;  185,677;    1,167;    1,409
1107,602;  160,313;    1,894;   -1,500
1108,141;  140,859;    1,621;    1,500
1108,680;  206,404;    3,985;   -0,591
1109,219;  173,677;    0,167;   -0,500
1109,758;  167,768;    4,167;    0,682
1110,297;  162,586;   -1,106;   -0,682
1110,836;  131,859;    1,439;    0,955
1111,375;  180,040;    0,348;    0,409
1111,913;  218,404;    0,985;    0,773
1112,452;  181,677;    0,894;    0,136
1112,991;  122,859;    1,076;    1,955
1113,529;  117,586;    0,167;   -0,045
1114,068;  158,040;    0,439;    2,955
1114,606;  115,404;   -0,561;   -0,955
1115,144;  193,222;    1,530;    1,045
1115,683;  155,313;    1,985;    0,318
1116,221;  193,949;    2,076;   -0,864
1116,759;  141,313;    1,621;   -0,864
1117,297;  230,768;    1,621;    1,864
1117,836;  145,222;    1,985;   -1,227
1118,374;  143,859;    0,258;   -0,682
1118,912;  147,040;    0,439;    2,682
1119,450;  140,313;    0,985;    0,864
1119,988;  138,768;    3,348;    2,136
1120,525;  438,131;    7,258;    3,318
1121,063;  244,768;    0,530;    1,864
1121,601;  140,768;    1,076;   -1,227
1122,139;  117,495;    1,076;   -2,045
1122,676;  230,495;   -1,652;    2,773
1123,214;  200,768;    0,712;    4,409
1123,751;  107,586;    0,621;    2,227
1124,289;  150,586;    0,894;   -0,409
1124,826;  107,859;   -0,379;    0,227
1125,364;   71,222;    0,712;   -0,955
1125,901;  181,768;    6,258;    1,227
1126,438;  204,404;    3,530;    0,955
1126,975;   74,040;    2,985;   -0,773
1127,513;  103,131;    2,621;    2,136
1128,050;   78,222;   -0,561;   -0,682
1128,587;  116,313;    1,348;   -0,227
1129,124;  135,586;   -0,015;    1,318
1129,661;   87,586;   -1,924;    0,227
1130,198;  171,131;    2,439;    0,773
1130,734;  132,586;   -0,379;    1,409
1131,271;   72,131;   -1,197;    0,864
1131,808;  153,586;    1,621;    3,045
1132,345;   97,313;    4,530;    0,318
1132,881;   44,495;   -0,561;   -1,864
1133,418;  106,040;    0,348;   -1,136
1133,954;   76,586;    0,712;   -2,682
1134,491;  109,677;    1,712;   -0,773
1135,027;   68,313;    2,167;    0,864
1135,564;  107,404;    1,439;    2,955
1136,100;   97,949;   -0,742;    2,136
1136,636;   60,495;   -1,015;   -1,045
1137,172;   88,677;    0,894;   -1,045
1137,708;   64,131;   -1,561;   -1,045
1138,245;   57,222;    0,803;   -1,227
1138,781;   48,586;    1,803;   -3,318
1139,317;   68,404;    1,894;   -1,409
1139,852;   80,131;    3,076;    0,136
1140,388;  112,313;    2,076;   -0,409
1140,924;   74,313;    1,076;   -2,227
1141,460;   52,131;   -0,288;    0,136
1141,996;   28,586;   -0,652;    2,682
1142,531;   45,495;    1,076;    3,318
1143,067;  135,404;    1,167;    1,045
1143,602;  164,586;    3,439;   -0,318
1144,138;   90,131;    0,803;    1,045
1144,673;   42,949;    1,621;    1,409
1145,209;   62,222;    2,894;   -0,318
1145,744;   34,677;    0,803;    0,864
1146,279;   82,768;    1,530;   -0,136
1146,815;   55,586;    1,530;   -2,682
1147,350;   74,313;   -0,924;    0,045
1147,885;   38,677;   -1,924;   -1,318
1148,420;   44,677;    2,439;    0,773
1148,955;   37,677;   -1,470;    1,864
1149,490;   42,131;   -1,106;   -1,591
1150,025;   30,949;   -1,106;   -1,773
1150,560;   76,131;   -0,288;   -0,955
1151,094;   68,495;    0,258;   -0,591
1151,629;   64,222;   -3,742;    0,864
1152,164;   49,131;   -1,288;    1,318
1152,698;   32,131;    1,258;   -0,136
1153,233;   16,859;   -1,379;   -0,682
1153,767;   27,404;   -0,288;   -2,318
1154,302;   39,768;   -0,379;    1,773
1154,836;   43,586;    0,803;   -2,136
1155,371;   62,040;    2,258;    3,682
1155,905;   43,949;    1,985;    1,682
1156,439;   37,404;    0,530;   -0,500
1156,973;   49,949;    0,439;    0,318
1157,507;   32,313;   -1,742;    0,682
1158,042;   37,859;   -0,652;    1,045
1158,576;   50,677;   -0,561;    1,773
1159,110;   51,768;    0,076;    2,409
1159,643;   43,222;   -2,470;   -0,045
1160,177;   27,040;   -2,015;    1,500

