
Integration time [ms]:   0,050
Averaging Nr. [scans]: 11
Smoothing Nr. [pixels]: 0
Data measured with spectrometer [name]: 7318044SP
Wave   ;Sample   ;Dark     ;Reference
[nm]   ;[counts] ;[counts] ;[counts] 

186,757;   -0,501;   38,161;    1,318
187,357;    3,261;   26,706;    0,955
187,958;   -0,640;   17,252;   -1,591
188,558;    7,313;   12,979;   -1,227
189,159;    0,176;   10,070;   -4,500
189,759;   -4,372;    5,797;   -3,591
190,360;   -0,009;    6,797;   -2,136
190,960;    1,896;    5,706;   -4,136
191,560;    5,417;    2,614;   -6,591
192,161;   50,986;    5,885;   -3,500
192,761;   26,034;    5,520;   -3,227
193,361;   15,722;    3,065;   -3,773
193,962;   22,592;    1,612;   -2,682
194,562;    8,770;   -0,114;   -3,955
195,162;    7,221;   -0,567;   -2,227
195,762;   30,801;    2,433;   -0,045
196,362;   16,644;    1,706;   -2,500
196,963;    5,045;    1,706;   -0,864
197,563;   14,315;    1,252;   -0,955
198,163;    3,481;   -0,111;   -0,682
198,763;    5,536;   -0,020;   -0,500
199,363;   14,178;    3,616;   -0,500
199,963;    9,428;    2,162;    0,409
200,563;    8,547;    6,344;   -1,409
201,163;    3,582;    5,435;   -0,227
201,763;   12,753;    1,435;    0,318
202,363;    6,408;    0,980;    1,500
202,963;   10,625;    1,526;    1,045
203,563;   24,057;    0,344;    0,500
204,162;   12,156;    1,889;   -1,864
204,762;    9,520;    2,071;    0,591
205,362;    6,847;    0,708;    1,955
205,962;    9,852;    3,435;    1,955
206,562;    9,283;    1,889;    2,318
207,161;    8,724;    1,708;    0,318
207,761;   31,556;    4,435;    2,409
208,361;   11,706;    1,889;    1,409
208,960;   15,001;    2,889;    1,500
209,560;   12,071;    0,435;    1,591
210,160;   16,496;    5,071;    1,864
210,759;   13,476;    0,708;    1,227
211,359;   11,376;   -0,474;    1,045
211,958;   48,230;    3,526;    2,045
212,558;   45,945;    0,799;    1,864
213,157;   20,881;   -0,929;    1,500
213,757;   77,934;    5,617;   -0,227
214,356;   35,901;    1,708;   -0,409
214,956;   72,839;    3,526;    0,409
215,555;   28,581;    0,617;    2,136
216,154;   14,309;   -0,292;   -0,591
216,754;   17,123;    1,253;    0,773
217,353;   22,169;   -0,383;   -1,045
217,952;    6,443;    2,072;    0,318
218,552;   31,536;    0,254;   -0,773
219,151;   16,016;   -1,110;    0,955
219,750;   13,240;    0,890;   -0,227
220,349;   13,182;   -2,292;    1,045
220,948;   41,575;    1,163;    1,136
221,548;   22,069;    0,617;    1,227
222,147;   24,331;   -1,292;   -0,409
222,746;   61,205;    1,254;   -0,955
223,345;   39,307;   -1,019;    0,500
223,944;   40,448;    1,163;    0,773
224,543;   42,784;    4,072;   -1,409
225,142;   24,530;    1,345;    0,136
225,741;   38,916;    1,163;    1,045
226,340;   38,291;    1,254;   -0,955
226,939;   76,600;    2,708;   -0,136
227,538;   39,183;    1,163;   -0,773
228,137;   88,946;    0,435;    0,864
228,735;   67,944;    0,435;    1,227
229,334;   25,485;   -0,474;   -0,227
229,933;  103,582;    0,799;    0,591
230,532;   99,011;   -1,201;   -0,409
231,131;  136,995;    1,253;    0,318
231,729;   82,389;    1,163;   -2,318
232,328;   55,382;    0,435;   -1,500
232,927;   66,345;    4,526;   -0,500
233,525;   62,798;    0,981;    0,045
234,124;   81,646;    1,890;   -1,591
234,723;   55,118;    1,617;   -1,045
235,321;   44,242;    1,163;    0,136
235,920;   59,755;    2,526;   -1,227
236,518;  132,879;    1,072;    0,318
237,117;   62,615;    2,890;   -0,227
237,715;   82,668;    1,163;   -0,500
238,314;   94,654;    1,708;   -2,318
238,912;  151,563;    0,526;   -1,409
239,510;  111,100;    1,162;   -1,227
240,109;  174,147;   -0,474;    3,773
240,707;  148,520;   -0,474;    1,227
241,305;   75,990;   -0,383;    0,136
241,904;  121,172;   -0,292;   -2,045
242,502;  196,815;    3,253;   -0,227
243,100;  136,573;    3,344;   -0,955
243,698;   89,990;    2,799;    1,682
244,297;  111,760;   -0,656;    0,682
244,895;  110,874;   -0,474;   -2,318
245,493;  207,713;    2,981;   -0,591
246,091;  214,613;    5,163;   -1,318
246,689;  157,338;    2,163;    0,591
247,287;  144,971;   -0,019;   -1,136
247,885;  124,832;   -1,019;    1,227
248,483;  106,514;   -0,201;   -0,500
249,081;  158,053;    0,981;    1,591
249,679;  177,136;   -1,019;    1,682
250,277;  109,544;   -2,292;    0,864
250,875;  177,030;    0,617;   -1,045
251,473;  121,436;   -0,019;    0,500
252,071;  180,696;   -0,383;    1,045
252,669;  132,175;   -1,565;    0,318
253,267;  105,065;    1,618;    0,773
253,864;  139,517;    0,617;    0,682
254,462;  216,825;    1,526;    1,591
255,060;  106,269;    0,072;    1,318
255,658;  103,811;   -3,292;   -0,136
256,255;  136,333;   -0,201;   -2,045
256,853;  164,559;    2,345;    1,409
257,451;  144,981;    1,981;    1,864
258,048;  398,334;    2,072;    1,864
258,646;  230,732;    0,436;   -1,045
259,243;  282,923;    2,981;    2,227
259,841;  205,086;    1,799;    0,318
260,438;  124,924;    0,254;    0,864
261,036;  196,126;    0,617;    1,409
261,633;  136,452;    1,526;    2,227
262,231;  112,988;   -0,110;   -0,045
262,828;  109,748;   -0,383;    1,136
263,425;  138,966;   -1,928;   -0,591
264,023;  137,633;    1,436;    0,045
264,620;  219,183;    1,526;   -0,318
265,217;  295,268;    2,890;    3,136
265,815;  154,594;    2,527;    2,136
266,412;  213,000;    0,072;    0,136
267,009;  213,252;    0,526;    0,773
267,606;  265,187;    0,345;   -0,955
268,203;  162,045;   -0,383;   -0,591
268,801;  178,174;   -0,474;    0,591
269,398;  134,748;   -0,564;    2,500
269,995;  218,930;    0,890;    1,591
270,592;  184,486;    0,799;   -0,500
271,189;  129,203;    1,981;    0,409
271,786;  120,333;    2,072;    1,227
272,383;  252,767;   -0,383;    0,227
272,980;  174,346;    1,617;    0,318
273,577;  147,279;    2,162;    1,227
274,174;  131,742;    1,435;    2,591
274,771;  215,993;    1,890;   -0,773
275,367;  475,186;    3,253;    1,409
275,964;  327,212;   -0,565;   -0,500
276,561;  192,909;   -2,474;   -1,045
277,158;  130,591;    1,799;   -1,773
277,755;  297,235;   -0,110;    0,409
278,351;  230,730;    0,436;   -1,500
278,948;  266,141;   -0,201;    0,045
279,545;  228,571;    0,527;    2,318
280,141;  333,518;    1,254;   -2,045
280,738;  330,171;    2,435;   -0,136
281,334;  189,293;   -0,383;    0,591
281,931;  185,817;    2,890;   -1,318
282,528;  263,171;    4,072;   -0,500
283,124;  313,916;    3,345;   -0,500
283,721;  304,445;    0,709;    1,409
284,317;  215,002;    0,163;    2,500
284,913;  329,630;   -0,110;    0,591
285,510;  483,539;    2,890;   -0,318
286,106;  355,693;    2,345;   -0,955
286,703;  238,589;    0,072;    1,955
287,299;  200,449;    1,254;   -0,591
287,895;  195,456;    0,890;   -1,045
288,491;  184,930;    0,163;    2,136
289,088;  254,857;    0,163;    2,409
289,684;  280,357;    2,890;    1,500
290,280;  377,057;    1,890;    0,682
290,876;  335,453;    0,163;    5,500
291,472;  281,410;    2,163;    2,227
292,068;  293,334;    1,254;    0,227
292,665;  218,267;   -0,564;    0,773
293,261;  157,935;   -1,292;    2,136
293,857;  274,871;    4,072;    2,136
294,453;  214,943;   -0,928;    0,955
295,049;  365,101;    0,253;    1,955
295,644;  252,705;   -1,292;    0,136
296,240;  164,305;    0,162;   -0,136
296,836;  237,804;   -0,747;    0,318
297,432;  318,948;    2,980;   -0,500
298,028;  338,222;    0,435;    0,773
298,624;  254,810;    0,889;    1,864
299,220;  248,427;    0,435;    0,591
299,815;  230,726;    0,526;   -0,409
300,411;  294,556;    0,435;    1,773
301,007;  360,034;    1,889;    0,227
301,602;  246,807;    2,071;   -2,318
302,198;  347,013;    1,435;   -0,773
302,794;  247,601;    1,526;   -0,500
303,389;  203,244;    1,071;    1,045
303,985;  234,068;    1,253;    1,409
304,580;  332,236;    0,889;    1,591
305,176;  262,191;    0,344;    0,136
305,771;  165,847;   -0,929;   -1,227
306,367;  448,680;    3,071;    0,136
306,962;  287,262;    2,889;    1,500
307,558;  325,897;    2,435;    0,136
308,153;  346,193;   -0,383;   -1,136
308,748;  216,998;    0,162;    1,682
309,344;  471,226;    0,253;   -1,318
309,939;  465,026;    2,071;   -1,318
310,534;  259,126;   -2,020;   -1,682
311,130;  242,456;   -0,656;   -2,500
311,725;  212,928;    0,526;   -0,500
312,320;  248,174;    1,253;    0,045
312,915;  323,401;    2,890;   -1,045
313,510;  474,749;    0,526;   -0,500
314,105;  272,133;   -3,565;    1,409
314,700;  177,605;   -1,656;   -1,045
315,295;  240,236;   -0,020;    0,045
315,890;  205,803;   -0,292;    0,864
316,485;  276,477;    0,253;   -0,318
317,080;  211,175;   -0,929;    1,591
317,675;  438,085;    3,071;   -0,682
318,270;  607,751;    6,889;    3,318
318,865;  503,203;    2,435;    3,045
319,460;  371,170;   -1,565;    0,591
320,055;  252,911;   -2,565;   -1,227
320,650;  252,536;   -1,838;   -0,591
321,244;  258,194;    0,889;   -1,409
321,839;  264,884;    0,980;   -0,227
322,434;  301,447;   -0,111;   -1,591
323,029;  247,671;   -0,474;    1,591
323,623;  227,089;    0,798;    0,773
324,218;  366,747;    2,707;    1,409
324,812;  313,240;    0,889;    1,591
325,407;  306,625;   -0,929;    2,045
326,002;  404,719;    0,526;   -0,409
326,596;  355,144;   -0,656;    1,318
327,191;  238,072;   -0,383;   -1,045
327,785;  241,326;   -0,747;   -0,227
328,379;  238,436;   -0,383;    0,136
328,974;  277,619;    1,798;   -3,955
329,568;  302,334;    2,889;   -2,409
330,163;  359,312;    2,435;    1,045
330,757;  241,938;    0,253;    1,591
331,351;  199,733;   -0,292;    0,682
331,945;  190,145;   -0,383;    1,409
332,540;  285,281;    1,617;   -0,591
333,134;  279,123;    3,344;    0,773
333,728;  285,644;    2,799;    0,318
334,322;  208,706;    0,889;   -0,864
334,916;  194,873;    0,344;    0,955
335,510;  323,548;   -0,111;   -0,136
336,105;  307,345;   -0,929;    1,591
336,699;  226,469;   -1,292;    0,591
337,293;  254,777;    1,071;    0,318
337,887;  210,993;    0,071;    1,955
338,481;  311,734;    2,980;    0,591
339,074;  390,143;    2,071;    2,682
339,668;  370,950;   -0,110;    1,227
340,262;  810,853;    7,708;    3,227
340,856;  487,620;    1,708;   -0,682
341,450;  252,639;    0,708;    1,864
342,044;  302,231;    1,799;    0,136
342,637;  390,601;    1,162;   -2,136
343,231;  348,983;   -1,474;    0,682
343,825;  289,012;   -0,747;   -0,591
344,419;  278,157;   -0,474;    0,500
345,012;  702,957;    2,889;    4,045
345,606;  525,762;   -0,656;    1,591
346,199;  288,372;   -0,111;   -0,227
346,793;  377,633;    2,525;    2,045
347,386;  243,055;    0,889;   -1,136
347,980;  176,427;   -0,838;   -0,045
348,573;  242,210;   -1,748;    0,409
349,167;  471,171;    6,161;    4,773
349,760;  360,267;    2,252;    2,682
350,354;  336,169;    1,616;    1,136
350,947;  359,305;    2,798;    1,682
351,540;  273,937;    0,616;   -1,409
352,134;  188,450;   -1,111;    1,136
352,727;  194,689;   -0,657;    1,136
353,320;  220,370;    2,343;    0,591
353,913;  171,111;   -1,929;    1,864
354,507;  315,940;    0,434;   -1,227
355,100;  226,291;    0,071;    0,864
355,693;  546,394;    4,798;    2,409
356,286;  353,175;    0,980;    2,773
356,879;  251,544;   -0,475;    1,227
357,472;  247,097;    0,980;    1,500
358,065;  272,517;    3,161;    2,500
358,658;  175,542;    0,798;    2,318
359,251;  158,365;    0,252;   -0,591
359,844;  285,965;    0,343;   -1,136
360,437;  335,203;    0,252;    0,045
361,030;  214,818;    0,525;   -0,682
361,623;  227,853;    0,434;    0,318
362,215;  404,966;    0,979;    2,045
362,808;  275,887;   -2,293;   -1,682
363,401;  222,563;    0,798;    0,136
363,994;  395,270;    3,252;   -1,500
364,586;  243,391;    0,888;   -1,500
365,179;  201,990;   -0,203;   -1,136
365,772;   98,861;   -0,930;    2,045
366,364;  207,376;    1,524;   -3,227
366,957;  252,733;    1,342;   -0,045
367,549;  213,345;   -0,203;   -0,864
368,142;  225,746;    0,978;   -1,500
368,734;  199,005;    2,523;   -2,136
369,327;  149,056;    2,341;   -0,500
369,919;  183,076;   -1,659;    0,409
370,512;  196,612;   -1,023;   -0,500
371,104;  407,520;    2,704;    1,591
371,696;  421,578;    1,703;   -0,955
372,289;  299,717;    0,157;    1,136
372,881;  258,295;    1,156;    1,318
373,473;  175,644;    4,064;    1,136
374,066;  239,549;    1,336;    0,500
374,658;  227,794;    0,879;    1,136
375,250;  181,244;   -1,668;   -1,409
375,842;  216,542;   -0,124;   -0,045
376,434;  183,585;   -2,762;   -0,409
377,026;  185,205;   -1,855;   -2,500
377,618;  218,121;    0,779;   -0,682
378,210;  180,916;    3,141;   -1,955
378,802;  183,670;    3,412;   -0,591
379,394;  475,303;    3,411;    0,682
379,986;  288,004;    1,138;   -0,955
380,578;  214,581;    1,410;    0,773
381,170;  398,514;    0,320;    0,045
381,762;  319,786;   -0,224;    1,409
382,354;  271,262;   -0,223;   -1,318
382,945;  212,927;    0,870;    0,318
383,537;  176,269;    1,144;   -1,955
384,129;  169,339;    0,963;   -1,136
384,721;  253,005;    0,418;    0,955
385,312;  213,633;   -1,399;   -0,955
385,904;  273,569;   -0,945;    1,591
386,496;  220,679;    0,691;    1,045
387,087;  340,641;    0,418;    2,500
387,679;  280,216;   -0,401;    0,045
388,270;  260,349;   -2,401;    2,045
388,862;  239,111;   -0,401;   -0,318
389,453;  233,090;    1,054;    1,045
390,045;  243,453;    3,236;   -2,682
390,636;  160,395;    0,144;   -0,591
391,227;  210,558;    2,054;   -0,045
391,819;  193,230;    0,781;    0,773
392,410;  397,371;    0,600;    0,045
393,001;  241,249;    1,600;   -1,591
393,593;  281,463;    0,600;   -0,045
394,184;  319,344;    0,873;   -0,409
394,775;  227,165;    1,146;    2,136
395,366;  170,634;    1,782;    0,773
395,957;  318,831;   -2,400;    0,136
396,548;  233,249;    1,054;    2,682
397,139;  327,528;    2,236;    0,591
397,730;  259,720;    0,873;    0,955
398,321;  263,498;    0,509;    0,955
398,912;  217,243;   -0,764;    0,136
399,503;  216,148;   -1,945;   -1,409
400,094;  257,365;   -1,582;    1,682
400,685;  240,854;    3,600;    0,045
401,276;  206,382;   -0,400;   -0,955
401,867;  188,423;   -1,127;    0,773
402,458;  164,287;    1,509;   -2,318
403,048;  280,983;    0,146;    0,591
403,639;  239,372;    1,509;    0,864
404,230;  329,260;    0,691;    0,318
404,821;  376,603;   -0,127;    0,045
405,411;  295,551;   -0,763;   -2,591
406,002;  220,624;    3,237;   -1,136
406,592;  417,404;    2,691;    0,045
407,183;  298,838;    0,328;   -1,500
407,774;  277,992;    1,419;   -0,136
408,364;  242,609;    2,600;    0,409
408,954;  335,995;   -0,036;    1,227
409,545;  336,352;    1,873;    1,045
410,135;  300,775;   -1,581;    0,500
410,726;  247,154;    0,783;    0,318
411,316;  415,350;    2,237;    0,773
411,906;  279,034;    0,146;   -0,409
412,497;  287,592;   -0,490;   -0,045
413,087;  244,598;    0,783;   -0,227
413,677;  182,337;   -2,490;    3,864
414,267;  180,691;   -1,035;    1,409
414,857;  164,067;    0,419;    4,227
415,448;  173,882;   -0,763;    0,500
416,038;  196,984;   -2,945;   -0,591
416,628;  236,148;    0,965;    0,409
417,218;  283,177;   -1,762;    3,318
417,808;  418,645;    0,965;   -0,409
418,398;  310,647;   -1,035;    2,682
418,988;  212,566;   -2,217;    0,591
419,578;  296,076;    3,601;    1,409
420,168;  246,492;    0,692;   -0,955
420,757;  368,428;    0,964;   -1,500
421,347;  267,613;    1,601;   -0,227
421,937;  238,971;    3,329;    1,409
422,527;  363,453;    2,602;   -0,773
423,116;  494,010;    2,692;   -0,045
423,706;  252,309;    2,965;    0,318
424,296;  210,123;    1,601;    0,682
424,885;  329,214;    1,510;   -3,045
425,475;  302,700;    1,147;   -2,864
426,065;  204,697;   -1,489;   -0,318
426,654;  186,330;    0,329;   -0,318
427,244;  443,255;    1,147;    1,409
427,833;  396,876;    1,056;   -0,500
428,423;  277,125;    0,147;    1,136
429,012;  286,454;    2,420;   -1,136
429,601;  399,212;    2,057;    0,136
430,191;  301,885;    2,511;    4,318
430,780;  213,492;   -1,671;   -0,409
431,369;  385,396;    1,329;   -0,045
431,959;  289,589;    1,693;    0,500
432,548;  223,960;   -1,398;   -0,045
433,137;  169,803;    0,329;   -1,318
433,726;  244,966;    0,148;    0,500
434,315;  268,075;    0,148;    2,409
434,905;  371,161;    0,693;    1,409
435,494;  372,483;    3,148;    0,955
436,083;  249,249;    1,420;   -0,955
436,672;  331,547;    1,148;    0,500
437,261;  282,047;    0,512;   -1,955
437,850;  503,480;   -1,125;    0,682
438,439;  552,285;    2,239;    1,955
439,027;  669,029;    3,421;    1,773
439,616;  593,981;    2,239;    1,227
440,205;  371,122;    0,057;   -2,136
440,794;  316,628;   -0,306;   -0,045
441,383;  246,225;    1,603;   -0,591
441,971;  215,672;   -0,306;    0,591
442,560;  235,178;    0,603;   -1,773
443,149;  112,411;    3,060;   -1,318
443,737;  187,703;    0,968;   -2,318
444,326;  214,184;    0,331;    0,318
444,915;  265,447;   -1,851;    0,864
445,503;  275,878;    0,058;   -0,318
446,092;  551,168;    7,876;    2,136
446,680;  479,199;    1,876;    0,318
447,269;  380,400;   -1,487;   -0,318
447,857;  354,896;    2,240;   -1,773
448,445;  310,730;    2,149;    1,318
449,034;  261,900;    0,876;   -1,136
449,622;  261,175;    1,240;    3,500
450,210;  553,266;    3,149;    2,227
450,799;  473,008;    2,604;   -0,591
451,387;  410,025;    1,786;   -0,591
451,975;  393,275;   -1,305;    0,864
452,563;  480,691;    0,422;    2,318
453,151;  287,479;   -1,032;   -1,227
453,739;  337,202;   -1,577;    0,136
454,328;  454,901;    0,604;   -2,136
454,916;  376,117;    1,150;   -0,136
455,504;  391,086;    3,513;    1,227
456,092;  279,968;    2,150;   -1,591
456,679;  234,883;    0,604;    0,682
457,267;  696,198;    3,604;    1,045
457,855;  343,677;    3,241;    1,409
458,443;  187,273;   -0,304;    1,682
459,031;  360,060;    1,332;    2,409
459,619;  331,577;   -3,577;    2,864
460,206;  226,233;   -0,759;    2,045
460,794;  230,445;   -0,668;   -0,227
461,382;  280,055;    0,878;   -0,864
461,970;  270,054;    0,605;    1,864
462,557;  199,959;    0,878;   -0,682
463,145;  340,844;   -0,304;   -1,682
463,732;  599,367;    2,514;   -1,045
464,320;  347,873;    1,514;   -3,045
464,907;  499,126;    0,423;   -0,773
465,495;  399,772;    2,696;   -1,227
466,082;  311,321;    2,060;   -0,045
466,670;  333,603;    2,605;    1,227
467,257;  223,715;    0,060;    2,045
467,844;  349,644;    1,514;    0,045
468,432;  314,562;   -0,031;    3,500
469,019;  265,348;    1,606;   -1,773
469,606;  355,768;    0,969;    3,682
470,193;  383,843;    2,151;    0,227
470,780;  334,781;    0,333;    0,864
471,368;  260,729;   -1,212;   -0,773
471,955;  371,346;    1,060;   -0,682
472,542;  325,038;   -0,303;   -1,136
473,129;  207,904;   -0,485;    0,136
473,716;  219,979;    0,060;    0,591
474,303;  246,620;    1,333;   -0,864
474,890;  259,265;    2,333;   -0,500
475,477;  372,019;   -0,576;    0,409
476,064;  257,262;    0,697;   -1,591
476,650;  393,207;    2,152;    0,318
477,237;  299,844;    1,879;    0,955
477,824;  278,221;    3,879;    0,864
478,411;  184,485;    0,606;   -0,318
478,997;  185,170;    0,606;   -0,773
479,584;  119,051;   -0,666;   -0,409
480,171;  334,480;    1,243;   -0,773
480,757;  397,811;   -0,848;    0,773
481,344;  277,938;    0,334;    0,409
481,931;  163,200;   -0,393;    1,045
482,517;  332,491;    0,425;    0,318
483,104;  451,959;    1,334;    2,864
483,690;  302,147;    0,243;    0,045
484,276;  273,195;    0,698;    0,227
484,863;  546,894;    2,152;    1,136
485,449;  348,778;    0,152;    0,318
486,035;  293,424;   -0,666;   -0,136
486,622;  425,288;   -2,393;    0,045
487,208;  313,317;    1,334;    1,500
487,794;  217,540;    0,971;    0,318
488,380;  215,830;    0,698;   -1,409
488,967;  227,003;   -1,120;   -0,409
489,553;  250,061;   -1,029;   -1,409
490,139;  344,519;    0,971;    0,773
490,725;  240,257;    0,789;   -0,227
491,311;  294,791;    1,516;    3,045
491,897;  244,706;   -0,665;    1,500
492,483;  250,269;    0,426;    1,227
493,069;  783,169;    5,426;    0,864
493,655;  425,028;    1,789;    0,682
494,241;  270,107;    1,517;   -0,955
494,826;  293,695;    0,335;   -1,045
495,412;  369,605;    0,335;   -0,682
495,998;  258,985;    0,971;   -0,318
496,584;  329,868;    2,244;    1,045
497,169;  341,072;    2,335;   -0,682
497,755;  263,966;    1,244;    1,227
498,341;  434,070;    2,153;    0,318
498,926;  577,376;    2,881;    1,955
499,512;  261,725;   -0,028;    2,955
500,097;  264,654;   -0,574;   -0,318
500,683;  286,355;   -0,028;    2,136
501,268;  227,633;    1,881;   -0,955
501,854;  254,294;   -0,119;    1,227
502,439;  230,990;   -0,573;   -1,773
503,024;  279,583;    1,608;    0,500
503,610;  306,759;    1,335;   -0,682
504,195;  236,420;    1,245;    1,955
504,780;  342,823;    2,335;    1,227
505,366;  438,720;    4,063;    2,864
505,951;  358,678;   -1,119;    1,045
506,536;  261,303;    1,427;   -3,682
507,121;  327,096;    1,699;   -0,318
507,706;  278,193;   -0,392;    1,045
508,291;  210,589;   -2,937;    1,136
508,876;  201,888;   -0,482;    2,591
509,461;  257,844;    1,427;   -0,773
510,046;  302,382;   -0,391;    0,318
510,631;  308,982;   -0,119;   -0,773
511,216;  220,011;   -0,664;   -0,500
511,801;  294,217;   -0,755;    2,591
512,386;  311,635;    0,972;    0,500
512,971;  318,057;    0,427;    0,955
513,555;  362,653;    1,154;   -1,500
514,140;  316,941;    1,336;   -3,136
514,725;  435,463;    1,791;   -1,136
515,309;  335,177;    1,064;    0,318
515,894;  237,720;   -0,300;   -2,227
516,479;  264,559;    1,973;   -0,955
517,063;  270,540;    0,882;    1,227
517,648;  228,185;    0,155;   -1,136
518,232;  187,835;   -1,300;   -1,409
518,817;  280,384;    1,337;    1,682
519,401;  394,461;    0,700;    0,591
519,985;  356,808;    2,700;    1,136
520,570;  228,120;   -0,118;   -1,955
521,154;  322,330;    0,064;    0,591
521,738;  467,844;    1,064;    2,409
522,323;  320,863;   -0,390;    1,682
522,907;  309,564;    2,428;   -0,136
523,491;  240,480;    1,155;    0,955
524,075;  217,301;    0,428;    0,591
524,659;  371,357;    0,973;    0,591
525,243;  325,184;    0,883;    0,409
525,827;  269,757;    0,883;   -0,045
526,411;  272,266;    1,155;   -0,136
526,995;  352,468;    0,337;    1,409
527,579;  396,456;    1,974;   -1,045
528,163;  335,581;    0,428;   -1,500
528,747;  410,571;    1,065;   -0,773
529,331;  368,379;    0,883;   -1,409
529,915;  248,132;    2,338;    0,955
530,499;  312,949;    0,247;    1,227
531,082;  445,270;    1,065;    1,591
531,666;  523,455;    0,520;    0,773
532,250;  417,847;    0,428;    2,682
532,833;  494,626;    0,610;    2,773
533,417;  374,449;    1,247;    0,864
534,001;  468,126;    0,429;   -0,318
534,584;  395,535;    1,974;    0,500
535,168;  253,803;    3,247;    1,409
535,751;  554,549;    4,520;    0,045
536,334;  331,204;    4,520;   -0,409
536,918;  208,199;    1,974;    1,591
537,501;  220,683;    1,520;    1,318
538,085;  251,152;    1,702;    1,045
538,668;  319,337;    0,883;    2,409
539,251;  542,432;    3,156;    3,773
539,834;  315,514;    0,156;    0,773
540,418;  410,301;    3,247;    4,318
541,001;  552,920;    2,702;    1,773
541,584;  371,928;    1,429;    2,227
542,167;  451,129;    0,702;    2,955
542,750;  313,058;    0,793;   -0,773
543,333;  206,581;    1,429;    2,136
543,916;  388,717;   -0,298;    2,500
544,499;  341,738;    2,520;    0,227
545,082;  406,016;    0,248;    3,591
545,665;  324,818;   -0,207;    1,500
546,248;  435,854;    0,520;   -0,318
546,830;  410,570;   -1,752;    1,955
547,413;  376,436;    0,157;   -0,773
547,996;  347,099;    0,157;    0,500
548,579;  322,134;   -0,843;    0,955
549,161;  521,686;    0,884;    2,682
549,744;  413,630;    0,612;    0,409
550,326;  291,089;    0,885;   -1,136
550,909;  676,027;    2,339;    0,591
551,492;  394,167;    0,521;    0,227
552,074;  487,499;   -0,024;   -1,318
552,657;  516,228;    2,430;    0,045
553,239;  411,420;   -3,024;   -0,773
553,821;  298,741;   -1,570;    1,045
554,404;  506,225;   -0,024;    1,136
554,986;  585,432;    2,248;    1,045
555,568;  454,897;    0,430;   -0,955
556,151;  628,901;    4,067;   -0,227
556,733;  366,603;   -1,388;   -0,864
557,315;  394,216;    4,703;    0,500
557,897;  283,662;    0,521;   -0,500
558,479;  291,121;    1,703;    1,318
559,061;  359,003;    1,067;   -0,864
559,643;  396,063;   -0,297;    0,045
560,225;  433,448;   -0,388;    2,864
560,807;  303,154;    0,340;    0,318
561,389;  296,712;   -1,206;    2,318
561,971;  361,065;   -0,660;    2,136
562,553;  295,915;    0,613;    1,591
563,135;  365,818;    1,249;    1,136
563,717;  706,361;    3,158;    1,136
564,298;  618,383;    3,976;   -0,045
564,880;  397,746;    0,340;   -1,409
565,462;  262,927;    1,977;    1,318
566,043;  361,040;   -0,933;    2,318
566,625;  624,402;    4,067;    1,227
567,207;  469,440;    0,704;    1,682
567,788;  342,723;   -0,114;    1,500
568,370;  351,230;   -1,841;   -0,500
568,951;  340,010;   -0,569;    0,227
569,533;  423,259;    0,977;   -0,500
570,114;  426,333;   -0,296;    0,682
570,695;  452,688;   -0,478;   -1,318
571,277;  437,168;   -0,205;   -1,682
571,858;  606,602;    2,704;   -1,136
572,439;  463,119;    0,795;   -1,045
573,021;  479,141;    0,432;   -2,773
573,602;  577,659;    1,795;    0,318
574,183;  534,504;   -0,114;    2,227
574,764;  488,860;    2,068;    0,409
575,345;  641,338;    0,250;   -0,136
575,926;  496,104;    2,704;    0,136
576,507;  561,929;    2,704;   -0,227
577,088;  520,020;    1,704;    1,682
577,669;  688,877;    1,704;    1,955
578,250;  832,140;   -0,750;   -1,045
578,831;  648,757;   -0,841;   -2,227
579,412;  638,426;   -1,205;    0,955
579,993;  611,341;    1,432;    0,227
580,573;  524,617;   -0,023;   -0,955
581,154;  652,244;    1,613;   -0,591
581,735;  685,965;    0,341;    0,773
582,315;  810,965;    0,523;    2,136
582,896;  613,679;   -1,750;    1,227
583,477;  492,638;    0,614;    1,227
584,057;  604,249;    1,159;    0,955
584,638;  704,977;   -2,750;    2,318
585,218;  928,245;    2,886;    2,682
585,799;  742,047;    1,977;   -0,227
586,379;  643,656;    1,250;    1,591
586,959;  618,233;    2,613;    0,318
587,540;  540,930;    0,432;    2,227
588,120;  544,354;   -1,113;   -0,045
588,700;  578,669;    2,977;    2,136
589,281;  734,979;    1,250;   -0,955
589,861;  604,992;   -0,296;   -1,682
590,441;  480,165;   -1,477;   -2,682
591,021;  558,430;    1,432;   -2,591
591,601;  521,642;    0,431;    0,500
592,181;  511,907;   -1,296;   -0,773
592,761;  419,684;    2,250;    1,409
593,341;  529,412;    1,522;    0,045
593,921;  553,383;   -0,569;    1,591
594,501;  464,961;    1,250;    1,318
595,081;  469,106;    0,522;   -0,318
595,661;  527,402;    1,068;    0,955
596,240;  470,188;   -1,023;    0,136
596,820;  830,876;    2,613;    1,955
597,400;  581,305;    1,977;    0,773
597,980;  490,899;   -0,750;    1,045
598,559;  435,299;    0,341;   -0,227
599,139;  429,857;   -0,750;   -1,227
599,718;  429,221;    0,795;   -0,409
600,298;  419,663;   -2,387;    0,682
600,877;  862,815;    4,795;    1,409
601,457;  588,957;    0,340;    1,136
602,036;  479,003;    1,795;    2,045
602,616;  527,533;    2,250;    1,682
603,195;  635,864;    0,431;    3,500
603,774;  682,149;   -0,296;    2,045
604,354;  639,334;    2,522;   -0,500
604,933;  573,999;    0,250;    1,864
605,512;  650,976;    2,340;    0,591
606,091;  638,667;    1,886;    3,773
606,671;  607,777;    0,249;    0,773
607,250;  768,326;    1,431;    3,136
607,829;  702,096;    1,158;    3,227
608,408;  570,934;    4,613;    2,591
608,987;  672,414;    2,704;    3,409
609,566;  501,858;    0,341;   -2,500
610,145;  609,422;    2,885;    0,682
610,723;  653,249;    1,613;    6,864
611,302;  557,395;    1,067;    1,682
611,881;  829,321;    5,158;   11,227
612,460;  567,418;    0,795;    3,955
613,039;  455,376;    1,703;    2,045
613,617;  453,014;    0,886;    4,773
614,196;  470,600;    1,613;    1,227
614,775;  527,099;    1,249;    2,409
615,353;  581,438;   -1,660;    0,864
615,932;  550,535;    0,249;    2,409
616,510;  533,915;    0,158;    0,591
617,089; 1010,450;    8,794;   17,591
617,667;  638,810;    4,885;    6,136
618,246;  432,512;   -1,115;    1,318
618,824;  493,065;    1,612;   -0,955
619,402;  508,249;    0,431;   -1,773
619,981;  568,222;    1,067;   -1,045
620,559;  485,657;    0,794;    1,682
621,137;  513,578;    3,067;    1,864
621,715;  432,041;    3,703;   -0,682
622,293;  452,393;    1,885;   -0,773
622,871;  461,125;    0,340;    0,500
623,450;  418,986;    0,430;   -0,864
624,028;  596,019;   -0,388;   -0,955
624,606;  539,633;    2,339;    1,682
625,183;  390,057;   -0,661;   -1,136
625,761;  527,873;    1,885;    1,136
626,339;  783,552;    2,339;    2,591
626,917;  470,829;    0,339;   -0,045
627,495;  423,654;    2,794;    1,318
628,073;  529,532;    5,248;    2,864
628,650;  544,946;    3,067;    2,136
629,228;  542,796;    1,248;    4,409
629,806;  382,041;   -0,024;    1,136
630,383;  434,913;    0,066;   -0,318
630,961;  434,314;   -2,206;   -0,955
631,539;  473,181;   -2,479;    0,227
632,116; 1168,314;   12,703;   15,409
632,694;  778,736;    4,885;    6,500
633,271;  618,941;    1,975;    2,682
633,848;  710,516;    1,430;    2,045
634,426;  474,647;    1,521;    1,773
635,003;  356,934;   -0,207;   -0,409
635,580;  712,289;    1,884;    3,682
636,158;  601,347;    3,793;    1,227
636,735;  443,760;    3,339;   -0,500
637,312;  438,708;    0,521;   -0,682
637,889;  434,272;    2,248;   -0,682
638,466;  415,094;    0,066;   -0,409
639,043;  465,306;    1,702;   -1,136
639,620;  385,485;    0,611;   -0,955
640,197;  504,051;    1,612;    1,682
640,774;  366,966;    1,430;    1,136
641,351;  425,062;    0,612;    1,136
641,928;  587,431;    2,794;    1,409
642,505;  689,527;    0,794;   -0,500
643,082;  528,623;    1,885;    1,227
643,658;  415,719;    1,157;    1,500
644,235;  400,179;   -2,479;    2,500
644,812;  562,457;    1,794;    0,773
645,388;  552,917;    1,612;    1,409
645,965;  371,104;    1,521;    1,682
646,542;  382,564;    3,430;   -0,227
647,118;  716,024;    3,703;   -0,955
647,695;  523,211;    0,339;    1,136
648,271;  367,762;   -2,115;    0,500
648,848;  515,312;    0,248;    2,227
649,424;  621,045;    0,976;    1,318
650,000;  454,868;   -0,388;   -1,045
650,577;  485,328;    0,158;   -0,955
651,153;  485,788;   -1,115;    0,955
651,729;  446,612;    0,521;    0,864
652,305;  779,435;    1,339;    2,773
652,881;  699,259;   -1,297;    1,136
653,458;  734,173;    0,249;    0,227
654,034;  763,633;    0,703;    1,591
654,610;  903,274;    0,339;    0,773
655,186; 1381,098;    1,612;    3,045
655,762;  936,739;   -1,842;    0,409
656,338;  912,654;    0,703;    0,136
656,913;  977,205;   -0,297;    0,409
657,489;  782,028;    0,249;   -0,318
658,065;  876,942;    0,794;   -1,591
658,641;  892,130;    2,158;   -0,864
659,217;  829,771;    2,067;    0,409
659,792; 1005,867;   -1,751;   -0,409
660,368;  830,600;   -0,388;   -0,682
660,944;  826,787;    1,794;    1,227
661,519;  794,247;    0,522;    0,409
662,095;  604,798;   -0,206;    0,591
662,670;  500,530;   -0,206;   -0,136
663,246;  428,535;   -0,660;   -0,409
663,821;  554,813;    0,431;    1,682
664,396;  510,819;    0,613;    1,864
664,972;  446,460;   -0,660;   -0,500
665,547;  488,284;    3,794;    0,136
666,122;  459,562;    1,340;    0,318
666,698;  633,931;    2,431;    0,318
667,273;  434,027;    0,885;    0,136
667,848;  465,487;    0,340;    1,500
668,423;  611,856;    1,795;    2,318
668,998;  474,497;    0,976;   -0,682
669,573;  441,321;    2,067;   -1,500
670,148;  594,599;    1,885;   -0,682
670,723;  418,513;   -0,024;    0,318
671,298;  669,428;   -1,296;    1,045
671,873;  588,887;   -0,296;   -0,136
672,448;  574,438;    1,704;    0,136
673,023;  570,443;    0,249;   -0,227
673,597;  647,812;    2,704;    2,318
674,172;  679,908;    2,431;    0,318
674,747;  607,732;   -0,205;   -1,045
675,321;  415,192;   -0,933;    3,318
675,896;  371,833;    2,158;    1,045
676,471;  569,930;    2,522;    1,591
677,045;  491,571;   -0,296;    0,682
677,620;  561,758;    2,158;    1,136
678,194;  421,400;    0,249;    1,136
678,769;  490,405;    0,886;   -0,318
679,343;  532,047;   -0,023;    1,773
679,917;  635,689;    0,340;    1,955
680,492;  505,694;    0,249;    3,227
681,066;  540,154;    0,613;    0,409
681,640;  480,523;    1,795;   -0,318
682,214;  497,073;    2,340;    0,500
682,788;  495,170;    0,613;   -0,773
683,363;  619,811;    1,977;    1,682
683,937;  510,544;    0,886;   -0,318
684,511;  539,367;   -1,023;   -0,591
685,085;  546,282;   -1,478;    0,318
685,659;  466,014;    1,431;    0,864
686,232;  679,019;    1,159;   -0,318
686,806;  568,752;    2,159;    0,409
687,380;  464,848;   -1,932;    0,591
687,954;  421,126;    2,432;    1,136
688,528;  695,768;    2,613;    1,955
689,101;  540,500;    0,432;    1,045
689,675;  447,778;    0,886;   -0,136
690,249;  653,784;    3,432;    0,409
690,822;  658,789;    1,159;    0,318
691,396;  562,612;    2,068;    1,227
691,969;  493,709;    2,523;    0,136
692,543;  415,259;   -0,568;   -1,955
693,116;  404,265;   -0,659;   -1,409
693,690;  476,088;   -0,296;    0,500
694,263;  421,002;    2,341;    2,955
694,836;  738,462;    2,795;    3,591
695,410;  625,468;    1,159;    1,773
695,983;  655,927;    1,614;    0,591
696,556;  471,387;   -0,750;   -1,045
697,129;  396,302;   -1,114;    1,409
697,703;  603,216;    1,341;    1,955
698,276;  508,221;    1,705;   -0,773
698,849;  637,136;   -1,023;    1,409
699,422;  443,232;    1,250;    0,591
699,995;  364,692;   -0,659;    0,136
700,568;  474,242;   -0,204;    3,045
701,140;  489,339;   -1,841;    1,682
701,713;  630,980;    0,341;    2,409
702,286;  531,349;    0,796;    0,864
702,859;  603,809;    0,614;   -0,591
703,432;  692,996;   -0,841;    0,682
704,004;  584,001;    1,978;    0,318
704,577;  457,188;    1,068;    0,136
705,150;  519,557;    0,887;    2,500
705,722;  567,108;    1,523;   -3,227
706,295;  618,204;    1,432;   -0,591
706,867;  510,846;    0,250;    1,955
707,440;  589,397;   -0,113;   -0,409
708,012;  665,675;   -0,022;    0,591
708,584;  602,407;    2,705;    0,227
709,157;  406,049;    1,160;   -0,591
709,729;  601,781;    1,069;    2,045
710,301;  474,605;   -1,204;    0,045
710,874;  478,792;    0,341;   -0,227
711,446;  383,070;   -0,295;    0,864
712,018;  453,893;   -3,022;    0,500
712,590;  411,808;   -0,204;    1,682
713,162;  642,631;   -0,477;    1,318
713,734;  470,546;    1,796;   -2,045
714,306;  391,187;    0,342;   -0,409
714,878;  435,647;   -0,295;    0,864
715,450;  403,289;   -0,113;    0,864
716,022;  411,930;    2,433;    1,318
716,593;  411,572;    0,978;    0,591
717,165;  452,668;    1,796;   -1,227
717,737;  675,764;    0,796;    0,409
718,309;  484,497;    1,160;   -0,045
718,880;  415,775;   -1,295;   -1,409
719,452;  480,598;    0,887;   -1,591
720,024;  559,513;    1,705;   -0,591
720,595;  468,427;    2,978;    0,955
721,167;  451,887;    1,160;   -2,045
721,738;  557,983;    2,069;   -1,045
722,309;  701,625;    1,251;   -1,227
722,881;  462,539;    2,705;    0,773
723,452;  527,272;    1,251;    2,864
724,023;  541,004;    1,524;    2,682
724,595;  591,919;    2,342;    0,682
725,166;  483,288;    1,524;   -0,409
725,737;  649,384;    1,887;    0,227
726,308;  469,207;    0,797;    0,318
726,879;  393,213;    1,069;    1,227
727,450;  537,309;   -2,022;   -0,045
728,021;  490,405;    1,069;    0,682
728,592;  635,865;    1,160;    0,500
729,163;  698,779;    1,433;   -0,136
729,734;  667,330;    2,160;   -0,227
730,305;  565,153;    0,615;    0,136
730,876;  536,886;    0,888;    2,955
731,447;  805,891;    0,797;    2,682
732,017;  719,896;   -0,840;    1,864
732,588;  535,084;   -0,021;    1,227
733,159;  780,362;    3,615;   -1,045
733,729;  540,549;    1,251;    0,409
734,300;  684,554;    0,160;    0,864
734,870;  511,741;   -1,385;    0,591
735,441;  504,383;    0,888;   -0,591
736,011;  492,297;    1,070;   -1,591
736,582;  490,393;    1,251;    0,045
737,152;  594,853;    0,979;   -2,045
737,722;  573,495;    1,070;   -0,682
738,293;  445,864;   -2,021;    1,318
738,863;  604,323;    1,797;    2,318
739,433;  828,783;    4,524;    0,318
740,003;  584,334;    1,524;   -0,682
740,573;  697,612;    2,252;   -1,591
741,143;  580,981;    3,615;    0,318
741,713;  504,804;    0,252;   -0,500
742,283;  561,901;    1,706;    1,591
742,853;  506,360;    0,524;    1,591
743,423;  367,457;    0,161;    0,045
743,993;  459,007;    1,070;    1,500
744,563;  505,831;    2,524;   -0,864
745,133;  529,927;   -0,112;   -0,864
745,702;  427,023;    2,797;    1,773
746,272;  608,847;    0,434;    0,591
746,842;  623,761;   -0,748;   -0,591
747,411;  436,039;   -0,839;   -0,318
747,981;  351,317;   -0,930;    0,500
748,551;  350,504;   -0,021;   -1,045
749,120;  515,055;   -0,112;   -0,227
749,690;  471,697;    2,161;    2,409
750,259;  566,611;    0,979;    2,955
750,828;  615,162;    4,070;   -1,955
751,398;  426,440;   -0,112;   -0,045
751,967;  858,718;    2,888;    0,409
752,536;  537,996;    1,161;   -0,227
753,105;  628,728;   -1,384;    0,227
753,675;  486,734;   -0,112;    1,773
754,244;  488,921;    0,888;    3,591
754,813;  516,290;    0,979;    1,227
755,382;  490,749;    0,798;    0,955
755,951;  596,664;   -0,112;    3,682
756,520;  706,669;    2,525;    1,864
757,089;  787,038;    1,888;    0,500
757,658;  556,680;    2,434;    1,227
758,227;  414,048;   -1,111;    0,318
758,795;  451,963;   -1,021;    1,136
759,364;  467,968;    0,525;   -0,591
759,933;  413,701;    1,343;   -0,045
760,501;  356,797;    0,252;   -1,318
761,070;  502,802;   -0,293;   -1,409
761,639;  467,898;    1,434;    1,318
762,207;  569,904;    0,889;   -0,955
762,776;  605,454;    2,889;    0,864
763,344;  483,096;    0,071;    0,591
763,913;  324,101;    1,616;    1,409
764,481;  773,470;    1,980;   -0,136
765,049;  774,021;    0,616;    1,409
765,618;  705,481;    1,434;    0,318
766,186;  537,122;    2,434;    0,136
766,754;  589,673;    1,798;    1,864
767,322;  478,497;    1,162;    0,409
767,890;  431,956;    0,525;   -1,773
768,459;  439,507;    2,616;   -0,318
769,027;  632,422;    2,525;    3,409
769,595;  478,063;    2,616;    2,591
770,163;  577,705;    3,344;    2,955
770,730;  531,892;    2,525;   -0,136
771,298;  528,170;    1,162;   -1,409
771,866;  459,630;    0,253;    4,955
772,434;  485,181;    1,162;   -1,864
773,002;  673,095;    2,616;    0,682
773,569;  551,464;    1,071;    1,682
774,137;  653,833;    0,889;   -0,045
774,705;  475,383;   -0,747;   -0,136
775,272;  460,934;    0,253;    0,682
775,840;  473,303;   -0,111;    2,682
776,407;  566,218;   -0,293;    1,955
776,975;  458,223;    1,162;    0,318
777,542;  413,592;    2,162;   -0,045
778,110;  444,597;    0,707;   -0,045
778,677;  350,511;    1,071;   -0,864
779,244;  418,426;   -1,020;    1,045
779,812;  520,522;    0,980;    0,864
780,379;  598,982;    2,435;    1,136
780,946;  499,442;    2,617;   -0,773
781,513;  420,083;   -0,565;    0,318
782,080;  391,543;    1,253;    2,864
782,647;  423,912;    1,708;    3,045
783,214;  399,735;   -0,201;    3,864
783,781;  571,104;    1,708;   -0,682
784,348;  532,655;    0,253;    1,500
784,915;  347,842;   -1,474;    0,318
785,482;  556,302;    2,708;    2,591
786,049;  477,580;    1,071;   -0,591
786,615;  378,676;    1,708;   -0,955
787,182;  361,318;   -3,201;   -0,682
787,749;  329,505;   -2,201;    1,409
788,315;  524,783;    0,253;   -0,409
788,882;  425,425;    0,981;   -1,227
789,448;  689,612;    1,435;   -0,955
790,015;  480,344;    1,799;    3,227
790,581;  623,986;    0,708;    0,227
791,148;  477,446;    1,344;    1,045
791,714;  385,269;   -1,019;    3,136
792,280;  387,093;    3,708;    1,591
792,847;  343,734;   -0,928;    2,500
793,413;  413,831;   -0,110;   -0,318
793,979;  617,018;    1,526;   -1,318
794,545;  854,023;    2,981;    2,682
795,111;  732,574;    2,435;    1,318
795,678;  615,215;    3,526;   -1,682
796,244;  751,402;    2,799;    0,136
796,810;  601,226;    0,799;    0,773
797,375;  590,322;   -0,292;   -2,136
797,941;  334,327;   -1,110;    0,591
798,507;  342,787;    0,254;   -0,955
799,073;  375,338;    2,708;    0,591
799,639;  362,707;    1,435;    3,136
800,205;  337,258;   -1,565;    2,682
800,770;  362,081;    1,345;    1,773
801,336;  383,814;    2,981;   -0,955
801,901;  919,092;    6,072;    3,136
802,467;  605,279;    0,526;    2,045
803,033;  409,466;   -0,019;    0,864
803,598;  391,653;    1,072;   -1,045
804,163;  401,658;    0,708;   -0,318
804,729;  485,209;   -0,110;    1,136
805,294;  395,487;    1,072;    2,227
805,859;  349,219;    0,890;   -0,409
806,425;  700,225;    3,890;    2,682
806,990;  664,685;    1,890;    4,318
807,555;  455,781;   -0,110;    2,591
808,120;  577,241;   -1,292;   -0,409
808,685;  413,882;    1,072;   -2,500
809,250;  334,160;    2,072;   -0,500
809,815;  318,620;   -0,201;    0,682
810,380;  428,716;    0,981;    1,591
810,945;  586,994;    2,890;    2,045
811,510;  439,454;   -0,200;    1,591
812,075;  485,823;    2,800;   -1,409
812,640;  685,556;    3,709;    1,409
813,204;  478,015;    2,163;   -0,227
813,769;  599,202;    0,254;   -0,045
814,334;  589,844;    0,527;    0,864
814,898;  360,758;    1,981;    0,591
815,463;  451,127;    0,981;   -0,773
816,027;  397,951;    1,345;   -2,318
816,592;  342,411;    2,163;   -2,045
817,156;  489,780;   -2,200;    1,136
817,721;  589,058;    0,982;    2,318
818,285;  368,336;    0,618;    1,500
818,849;  416,159;   -0,018;    1,682
819,414;  354,073;    0,073;    2,955
819,978;  313,897;   -0,291;    1,773
820,542;  551,539;    2,891;    0,500
821,106;  412,998;    2,800;    0,682
821,670;  611,458;    2,709;    2,591
822,234;  407,100;    1,073;    1,409
822,798;  325,378;   -0,836;    0,500
823,362;  519,565;    1,527;    4,227
823,926;  393,934;   -0,018;    1,136
824,490;  541,030;    3,527;   -0,682
825,054;  433,944;    2,527;   -1,136
825,618;  350,495;   -1,200;   -1,500
826,181;  404,228;    0,982;   -1,318
826,745;  499,960;   -0,745;   -1,045
827,309;  678,147;    2,255;    1,318
827,872;  555,425;    0,527;    0,955
828,436;  460,522;    1,982;   -0,773
828,999;  388,527;    2,436;    1,227
829,563;  367,987;   -0,654;    1,136
830,126;  338,356;   -0,018;   -0,591
830,690;  444,452;    0,709;    2,864
831,253;  364,821;   -0,473;    2,227
831,816;  398,281;   -0,018;    0,500
832,380;  370,104;    1,164;    0,864
832,943;  351,291;    3,073;   -0,500
833,506;  354,660;    0,255;   -1,227
834,069;  494,574;    2,164;   -0,955
834,632;  363,852;   -2,200;    1,318
835,195;  391,494;    1,346;    0,955
835,758;  341,590;    0,709;    1,955
836,321;  358,414;    1,073;   -1,045
836,884;  336,601;   -1,291;   -0,955
837,447;  288,061;    0,528;    1,773
838,010;  442,339;    1,800;    3,227
838,573;  437,162;    0,528;    0,773
839,135;  316,804;   -0,109;   -0,955
839,698;  384,173;    2,528;    0,409
840,261;  335,633;    0,255;   -0,227
840,823;  300,729;   -0,927;    0,864
841,386;  285,098;   -0,018;   -2,409
841,948;  540,739;    0,255;    1,773
842,511;  361,108;    0,255;    1,682
843,073;  519,568;    2,982;    0,227
843,636;  325,028;    0,619;   -0,227
844,198;  500,306;    1,255;    0,591
844,760;  461,402;    0,619;    1,955
845,322;  293,407;    0,164;    1,136
845,885;  422,322;   -0,290;    0,591
846,447;  374,691;    0,710;    0,227
847,009;  660,969;    3,983;   -0,682
847,571;  412,701;    1,346;   -2,045
848,133;  362,616;   -0,199;   -1,864
848,695;  248,712;    2,346;    1,409
849,257;  310,535;    1,346;   -1,682
849,819;  436,268;    2,983;   -0,409
850,381;  330,182;    1,801;   -0,864
850,942;  378,006;    1,892;   -0,591
851,504;  443,465;    0,983;    0,227
852,066;  329,562;    1,619;   -1,591
852,628;  361,749;    0,165;    1,955
853,189;  285,027;    0,256;    2,682
853,751;  283,577;   -0,654;    1,409
854,312;  402,674;    1,256;   -1,682
854,874;  515,133;   -0,108;   -0,773
855,435;  366,411;    0,528;   -1,682
855,997;  393,780;    3,983;   -0,136
856,558;  490,604;    0,801;    1,773
857,119;  418,064;   -0,744;    2,864
857,681;  290,069;   -0,108;    0,318
858,242;  525,256;    1,347;   -2,136
858,803;  472,625;    1,074;   -0,773
859,364;  368,994;    0,892;   -4,773
859,925;  439,908;   -0,290;   -0,955
860,486;  336,914;    0,529;   -0,955
861,047;  295,555;    0,165;   -1,227
861,608;  330,470;    0,165;   -0,773
862,169;  217,293;   -0,562;   -0,045
862,730;  330,207;   -0,290;    1,409
863,291;  372,122;    0,438;   -0,500
863,852;  344,854;   -0,926;    1,955
864,412;  344,587;   -1,835;   -0,864
864,973;  546,592;    1,892;    0,500
865,534;  627,325;    2,074;    0,227
866,094;  445,057;    2,620;    0,227
866,655;  572,335;    4,711;    3,318
867,215;  405,068;    0,074;    0,136
867,776;  283,709;   -1,199;   -0,136
868,336;  360,715;    1,529;    0,136
868,897;  682,084;    3,438;    1,682
869,457;  491,362;    3,256;    0,318
870,017;  322,640;    2,438;   -1,227
870,578;  316,190;    1,893;    0,773
871,138;  383,559;    2,620;   -0,955
871,698;  318,019;   -0,562;   -1,318
872,258;  405,297;    0,711;   -2,864
872,818;  522,030;    2,347;    0,045
873,378;  382,580;   -2,198;    1,045
873,938;  372,586;    4,984;    0,500
874,498;  285,500;    1,256;   -1,955
875,058;  385,142;    4,347;    1,773
875,618;  378,965;    1,438;   -2,682
876,177;  408,334;   -0,471;    0,136
876,737;  270,703;   -0,289;    1,955
877,297;  581,890;    2,711;    1,955
877,856;  510,714;    2,529;    0,318
878,416;  318,628;    2,438;   -0,136
878,976;  289,451;    3,438;    0,409
879,535;  325,275;    4,529;    3,136
880,095;  313,553;    1,347;    0,045
880,654;  264,740;    0,347;    1,318
881,213;  521,836;    2,347;    1,500
881,773;  383,842;    1,984;    2,682
882,332;  799,120;    6,075;    5,136
882,891;  385,488;    0,711;    2,136
883,451;  364,039;   -2,016;    1,682
884,010;  336,044;   -1,107;   -0,409
884,569;  280,595;   -2,289;   -0,045
885,128;  416,600;   -0,743;   -1,864
885,687;  614,151;   -0,743;    0,682
886,246;  765,702;    2,620;    2,136
886,805;  600,071;    1,620;    2,045
887,364;  317,894;    1,166;   -0,500
887,922;  264,809;   -0,016;    0,045
888,481;  433,905;    1,530;    0,591
889,040;  476,001;    3,711;    2,136
889,599;  381,461;    2,166;    1,409
890,157;  380,830;    2,166;    2,409
890,716;  313,108;    2,166;    0,227
891,274;  415,204;    0,075;   -1,136
891,833;  464,664;    1,166;    0,864
892,391;  377,396;    1,802;    0,500
892,950;  447,856;    0,166;   -0,773
893,508;  297,771;    0,984;   -0,409
894,067;  241,867;   -0,379;    0,136
894,625;  317,690;   -1,016;   -1,500
895,183;  289,332;   -0,198;   -0,682
895,741;  510,337;    2,257;   -1,773
896,299;  348,524;    1,621;   -2,409
896,858;  299,530;    1,530;   -1,591
897,416;  419,626;    0,166;   -1,318
897,974;  350,813;   -2,197;    0,318
898,532;  739,182;    6,530;    2,682
899,089;  480,460;    0,621;   -0,682
899,647;  383,374;    0,530;    1,318
900,205;  375,379;    0,257;    1,045
900,763;  371,203;    2,166;    0,227
901,321;  335,663;    3,530;   -1,409
901,878;  208,668;    3,257;   -0,773
902,436;  275,491;    0,257;    1,318
902,994;  856,224;    6,712;    3,682
903,551;  472,229;    1,439;    0,409
904,109;  363,689;    1,530;   -1,409
904,666;  339,876;    1,439;    1,045
905,224;  254,518;    3,894;   -0,409
905,781;  386,160;   -0,470;   -0,318
906,338;  333,710;    0,167;    1,045
906,895;  251,261;    1,894;    2,045
907,453;  467,448;    2,348;    1,136
908,010;  349,090;    3,348;    0,409
908,567;  347,731;   -0,561;    0,591
909,124;  225,828;    2,439;   -1,500
909,681;  272,833;   -1,288;    0,682
910,238;  294,384;   -0,106;   -1,318
910,795;  223,934;   -1,561;   -1,136
911,352;  240,298;   -0,379;   -2,682
911,909;  267,662;    2,803;   -0,864
912,466;  274,116;    1,985;    1,500
913,022;  365,480;   -0,924;    0,500
913,579;  428,116;   -0,470;    2,045
914,136;  322,662;   -2,561;    0,955
914,692;  320,298;    1,530;   -1,227
915,249;  342,843;    0,530;    0,409
915,806;  397,298;    1,803;    1,955
916,362;  308,753;    0,894;    1,864
916,918;  301,298;    2,439;    1,045
917,475;  390,934;    1,621;    0,955
918,031;  269,753;    0,076;   -0,045
918,587;  321,843;    0,621;   -0,318
919,144;  264,025;   -0,379;    0,227
919,700;  208,480;    0,167;    0,773
920,256;  218,934;    0,439;    0,045
920,812;  257,025;    1,439;   -1,045
921,368;  229,116;    1,348;   -1,045
921,924;  260,116;    0,439;   -0,136
922,480;  321,662;    0,076;    1,227
923,036;  332,116;   -0,652;    1,955
923,592;  254,571;    0,621;    0,318
924,148;  256,389;    1,894;   -0,955
924,704;  364,116;    0,258;   -0,409
925,259;  235,025;   -0,561;    0,591
925,815;  233,753;    3,803;    0,500
926,371;  217,753;    3,530;    1,409
926,926;  340,753;    1,621;    0,591
927,482;  311,480;    1,621;    0,773
928,037;  253,116;   -0,833;    2,045
928,593;  400,116;    0,258;    1,045
929,148;  232,116;    1,167;   -1,500
929,704;  288,389;    2,439;   -0,500
930,259;  238,389;    0,894;   -0,136
930,814;  363,934;    1,803;    1,955
931,369;  311,753;    0,258;   -0,773
931,925;  199,843;   -1,924;    0,136
932,480;  265,298;    3,076;   -2,591
933,035;  502,934;    3,985;   -0,318
933,590;  431,662;   -1,742;   -1,773
934,145;  204,934;   -1,288;   -0,318
934,700;  144,480;    0,348;   -0,591
935,255;  183,025;    4,803;    0,045
935,809;  417,116;    6,258;    0,864
936,364;  183,389;    2,167;   -0,136
936,919;  173,843;    2,348;   -1,773
937,474;  137,480;    1,348;    0,136
938,028;  144,298;    3,076;    1,136
938,583;  426,753;    6,348;    4,682
939,138;  210,389;    0,167;    2,136
939,692;  125,298;   -1,015;   -1,136
940,247;  149,662;    1,167;   -1,045
940,801;  170,753;    0,621;    0,227
941,355;  125,480;    0,439;    2,591
941,910;   90,662;    0,712;   -2,136
942,464;  112,753;    2,712;   -0,318
943,018;  237,207;    3,258;   -0,227
943,572;  151,207;    2,803;   -0,682
944,126;  198,389;   -0,924;   -0,409
944,681;  130,753;    0,712;    0,227
945,235;   91,389;    2,167;   -0,591
945,789;   78,662;    1,258;   -1,864
946,342;  223,571;   -0,561;   -0,591
946,896;  112,480;    0,348;    0,955
947,450;   84,934;   -0,561;   -0,227
948,004;  219,116;    1,076;   -0,045
948,558;  135,025;    1,258;   -0,864
949,111;  126,025;   -1,197;   -0,318
949,665;  209,934;   -0,106;   -0,682
950,219;  200,934;    0,621;   -1,045
950,772;  149,753;    0,258;    1,864
951,326;  140,298;   -1,106;   -0,955
951,879;  122,843;    1,076;   -2,318
952,433;  194,025;    1,348;    2,227
952,986;  111,571;    0,348;    0,682
953,539;   95,389;    1,530;    0,591
954,093;   77,571;    0,985;   -1,318
954,646;  126,025;   -0,288;    1,318
955,199;   84,116;    1,258;   -0,500
955,752;  219,025;    1,985;    1,773
956,305;  131,298;    0,894;    2,955
956,858;  151,480;    0,621;   -0,318
957,411;  173,025;    3,621;    2,136
957,964;  146,662;    2,076;    2,136
958,517;  103,480;    0,985;    3,136
959,070;   79,116;   -1,197;    1,955
959,623;  218,662;    1,076;    1,500
960,176;  191,298;    0,712;    2,045
960,728;  156,025;    1,712;    0,773
961,281;  127,480;    2,258;    0,500
961,834;   95,116;   -0,833;    0,864
962,386;  102,389;    1,258;    1,045
962,939;   90,116;    3,439;   -0,318
963,491;  116,753;    2,621;    1,136
964,043;   87,571;    0,076;    2,409
964,596;  167,389;    1,712;    2,227
965,148;  121,298;   -0,379;    1,773
965,700;   83,480;   -0,015;   -0,227
966,253;  162,025;   -0,833;    0,318
966,805;  137,480;    1,894;    0,773
967,357;  102,298;    0,439;   -1,500
967,909;  154,389;    1,167;   -1,227
968,461;  107,480;    0,894;    3,136
969,013;   90,025;   -1,561;   -0,864
969,565;  172,662;    1,803;   -1,136
970,117;  279,207;    3,803;    1,045
970,669;  169,207;    3,258;   -0,136
971,220;   72,662;    2,167;   -1,500
971,772;  111,298;    1,348;   -0,318
972,324;  152,298;   -1,197;   -0,500
972,876;   96,662;    0,167;   -0,045
973,427;  153,843;   -1,197;   -1,045
973,979;  198,116;    0,076;   -2,500
974,530;  107,662;    0,803;    1,318
975,082;  142,753;    2,167;    1,682
975,633;  110,207;    2,894;    1,682
976,184;  121,116;    2,076;    0,773
976,736;  120,934;    0,348;    0,227
977,287;  142,298;    0,258;   -0,500
977,838;  116,116;   -0,924;   -0,318
978,389;  108,025;    0,803;   -0,500
978,940;   61,753;    1,258;   -0,409
979,491;   63,571;    2,258;   -0,500
980,042;  102,207;   -0,652;    3,045
980,593;  118,389;    1,894;    0,227
981,144;  154,116;    3,530;   -0,500
981,695;  153,207;   -0,470;    1,500
982,246;  132,389;   -1,833;    1,045
982,797;   77,480;   -0,561;    0,682
983,347;  142,389;    2,167;    0,591
983,898;  249,934;    4,167;    0,409
984,449;  237,480;    2,530;    0,773
984,999;  151,753;    1,894;   -1,136
985,550;  127,843;    3,167;   -0,318
986,100;   74,298;    0,712;   -0,318
986,651;   73,389;    0,258;    0,045
987,201;   84,934;    0,894;   -0,591
987,751;   90,298;   -0,288;    2,864
988,302;  100,934;   -0,379;    1,500
988,852;  131,843;    1,985;   -1,136
989,402;  153,389;    0,985;    0,682
989,952;  173,843;    1,621;    0,864
990,502;  103,753;    1,076;    0,682
991,052;   58,662;   -0,106;    0,045
991,602;   81,662;    1,167;    1,318
992,152;  101,662;    2,803;    0,682
992,702;  117,389;    1,167;   -0,045
993,252;   88,298;    0,076;   -0,500
993,802;  135,571;    1,167;    1,318
994,352;  109,843;   -0,742;    1,136
994,901;   73,662;    1,076;    3,227
995,451;   67,571;   -1,197;    0,318
996,000;   77,843;    1,076;    0,318
996,550;   89,753;    2,894;    0,227
997,100;  103,662;   -0,561;   -0,045
997,649;  164,843;   -0,197;    0,955
998,198;   92,662;   -0,288;   -1,500
998,748;  131,025;    0,348;   -2,318
999,297;  103,753;    0,985;   -0,409
999,846;  158,025;    1,894;   -0,773
1000,395;  112,116;    1,530;    0,500
1000,945;  164,116;    1,076;   -0,773
1001,494;  167,480;    0,167;    0,682
1002,043;  171,843;    0,712;    0,864
1002,592;   93,298;    3,439;    1,955
1003,141;   79,480;    2,439;   -0,682
1003,690;  157,934;    1,258;    0,500
1004,238;  101,480;   -0,106;   -0,045
1004,787;   67,389;   -1,288;    1,227
1005,336;  141,571;    1,621;    0,682
1005,885;  116,298;   -0,197;   -2,773
1006,433;  112,934;   -0,470;    0,955
1006,982;  186,843;    2,167;    1,682
1007,531;  126,843;    2,712;   -0,227
1008,079;  110,207;    0,258;    0,500
1008,627;   89,207;    1,621;    0,409
1009,176;  108,116;    0,076;   -1,955
1009,724;   80,116;   -2,742;    0,864
1010,273;  140,934;    1,076;    0,500
1010,821;   90,207;    1,076;    1,409
1011,369;   73,571;    0,076;    1,318
1011,917;   72,571;   -0,833;   -0,591
1012,465;  110,662;    2,530;   -1,591
1013,013;  109,480;    0,439;   -1,682
1013,561;  160,843;   -1,288;   -0,773
1014,109;  194,389;   -0,833;    1,682
1014,657;  133,207;    1,348;    0,591
1015,205;   94,571;    0,894;   -0,955
1015,753;   75,753;    0,258;   -1,409
1016,301;  106,389;    2,621;    3,045
1016,848;  141,480;    2,167;    0,409
1017,396;  129,753;    1,621;    0,045
1017,944;  126,934;    2,621;    1,864
1018,491;   94,298;   -0,197;    1,409
1019,039;  228,843;   -0,652;    0,591
1019,586;  124,934;    0,076;    1,682
1020,134;  115,298;    0,712;    1,500
1020,681;  153,389;    2,894;   -1,136
1021,228;  117,389;   -0,561;   -2,227
1021,776;   96,480;   -0,833;   -1,136
1022,323;  207,480;    0,803;    0,773
1022,870;  152,571;   -0,470;   -0,045
1023,417;  172,389;    2,076;    1,864
1023,964;  112,207;    0,621;    1,227
1024,511;   95,116;   -0,652;    0,773
1025,058;  121,298;    0,439;   -0,045
1025,605;   92,298;   -1,742;    3,136
1026,152;  191,662;   -0,106;   -0,591
1026,699;  119,753;    0,167;    1,318
1027,245;  113,480;    2,439;    0,318
1027,792;   86,207;    0,712;    1,409
1028,339;  196,480;    4,076;   -0,045
1028,885;  125,480;    3,621;   -0,227
1029,432;  100,571;   -0,106;    0,227
1029,978;  136,389;    1,348;   -1,591
1030,525;  152,843;    1,621;    0,409
1031,071;   93,753;    0,348;    1,136
1031,618;  222,480;    1,258;    1,682
1032,164;  148,116;    2,076;    3,045
1032,710;  159,753;    0,076;   -1,500
1033,256;  141,843;    0,712;   -0,136
1033,803;   79,662;   -0,288;    1,500
1034,349;   31,480;    1,803;    0,136
1034,895;   53,389;    2,621;   -0,318
1035,441;   85,298;    0,439;    0,318
1035,987;  100,480;   -2,288;   -0,682
1036,533;  131,843;   -0,197;   -0,955
1037,078;  238,843;    4,712;    1,682
1037,624;  166,753;    2,439;   -0,955
1038,170;   96,480;    1,712;   -0,318
1038,716;  133,116;    2,167;   -0,409
1039,261;   83,843;    2,167;   -0,773
1039,807;   90,116;   -0,015;    3,409
1040,352;   91,571;   -1,288;   -0,318
1040,898;   88,480;    0,167;   -0,682
1041,443;   66,298;    0,803;   -2,591
1041,989;  217,662;    3,621;    1,591
1042,534;  121,480;    0,985;    2,591
1043,079;   67,025;    1,985;    0,955
1043,625;  103,571;    0,258;    0,500
1044,170;  109,753;    2,439;    1,045
1044,715;  207,843;    0,167;    0,955
1045,260;  157,207;   -0,833;   -0,955
1045,805;   88,116;    0,258;   -0,591
1046,350;   77,116;    0,530;   -0,409
1046,895;  165,207;    0,803;    1,591
1047,440;  142,116;    1,530;    0,409
1047,985;   92,571;   -1,197;   -0,955
1048,530;   84,389;    1,348;    1,227
1049,074;  101,934;    2,803;    0,318
1049,619;   77,389;   -0,924;    1,955
1050,164;   77,480;    1,076;    0,227
1050,708;  127,662;    2,621;    0,045
1051,253;  236,298;    3,258;   -2,227
1051,797;  132,480;   -0,197;   -1,318
1052,342;   65,753;    1,348;    1,045
1052,886;  100,843;    1,803;   -1,409
1053,430;   63,480;    2,167;    0,136
1053,975;  110,934;    0,894;   -0,318
1054,519;  102,025;    1,803;    3,227
1055,063;  125,207;    3,621;    1,318
1055,607;  125,934;    1,348;    0,227
1056,151;  122,934;    0,530;    1,682
1056,695;   90,298;   -1,833;   -1,136
1057,239;   80,571;   -1,197;   -0,682
1057,783;   97,389;    2,258;   -1,500
1058,327;  137,207;    3,076;    1,409
1058,871;  212,571;    3,985;    1,318
1059,415;  149,571;   -0,561;   -0,045
1059,958;  210,207;    2,985;    2,591
1060,502;   88,571;    1,348;   -0,773
1061,046;   57,116;    1,712;   -0,955
1061,589;   56,571;    2,803;   -1,136
1062,133;   48,753;    0,985;    1,864
1062,676;   69,025;    1,439;    0,864
1063,220;   75,753;    0,985;    0,500
1063,763;   85,480;    2,985;    1,136
1064,306;   95,934;    0,985;    1,864
1064,849;   98,025;    2,076;    0,591
1065,393;   89,025;    2,894;   -1,500
1065,936;   86,298;    2,530;   -0,409
1066,479;   60,207;    2,621;    1,318
1067,022;   73,298;    1,894;   -0,227
1067,565;   61,753;   -1,197;   -1,318
1068,108;   54,843;    1,258;   -0,591
1068,651;   47,025;   -2,470;    1,409
1069,194;   48,662;   -1,106;   -1,682
1069,736;   46,662;    3,803;    0,955
1070,279;   46,207;   -1,652;   -0,500
1070,822;   75,843;    1,530;   -0,318
1071,364;  132,934;    0,530;    1,318
1071,907;   77,116;    0,348;    3,227
1072,450;   26,298;    0,258;   -0,045
1072,992;   50,298;   -0,561;    3,136
1073,535;   71,207;    0,167;    2,136
1074,077;   48,662;    2,985;    2,045
1074,619;   39,480;    0,985;    0,591
1075,161;   58,843;   -0,561;    1,500
1075,704;  108,207;    0,258;    1,227
1076,246;   58,571;    1,530;    0,682
1076,788;   36,571;   -1,015;    1,773
1077,330;   37,753;   -2,106;    2,136
1077,872;   49,480;   -1,924;    0,955
1078,414;  122,934;    3,712;    0,773
1078,956;   64,298;    0,167;   -0,227
1079,498;  109,298;    0,439;    0,318
1080,040;   62,116;    0,985;   -1,318
1080,581;   45,207;    0,621;   -0,318
1081,123;   27,207;   -0,106;   -0,773
1081,665;   31,207;    3,803;   -0,955
1082,206;  105,298;    3,258;   -0,500
1082,748;   65,753;    3,258;    2,045
1083,289;   35,571;    0,167;    1,318
1083,831;   30,662;    0,258;    0,227
1084,372;   48,662;    0,894;    0,591
1084,913;   45,662;    3,348;    0,864
1085,455;   34,025;    1,530;   -2,045
1085,996;   25,116;    0,530;    0,136
1086,537;   26,662;    0,985;    0,864
1087,078;   43,480;    0,439;   -2,136
1087,619;   67,389;   -1,652;    0,227
1088,160;   53,207;    1,439;    1,318
1088,701;   44,934;   -0,742;    0,682
1089,242;   39,934;   -0,561;   -2,227
1089,783;   51,298;   -0,561;    1,409
1090,324;   43,025;   -0,833;    0,682
1090,865;   30,207;   -1,924;   -0,409
1091,405;   25,934;   -0,561;    2,227
1091,946;   40,571;   -0,197;   -0,955
1092,487;   25,025;   -1,288;   -1,409
1093,027;   64,662;    1,803;   -1,500
1093,568;   35,025;    2,258;    1,227
1094,108;   46,025;    0,621;    1,773
1094,649;   36,843;   -0,470;    0,136
1095,189;   29,389;    1,167;   -0,682
1095,729;   25,662;    0,712;    0,955
1096,269;   25,934;    1,258;   -0,955
1096,810;   73,843;   -0,197;    0,500
1097,350;   52,025;   -0,561;   -0,773
1097,890;   40,298;    2,985;    1,227
1098,430;  114,116;    4,985;    2,864
1098,970;   76,753;    1,894;    1,682
1099,510;   31,116;   -0,833;   -2,318
1100,050;   28,298;    0,258;   -1,591
1100,589;   32,843;    0,076;   -0,318
1101,129;   47,480;    0,894;   -0,955
1101,669;   75,389;    2,803;    2,136
1102,209;   47,025;    1,530;    2,227
1102,748;   38,662;    3,439;    0,955
1103,288;   42,571;    0,712;   -1,227
1103,827;   34,753;    3,530;   -2,227
1104,367;   25,207;    1,712;   -2,409
1104,906;   29,025;   -1,015;   -1,136
1105,445;   43,116;    0,985;   -1,136
1105,985;   30,662;   -0,652;    1,500
1106,524;   35,298;    1,530;   -0,682
1107,063;   33,389;    1,167;    1,409
1107,602;   25,389;    1,894;   -1,500
1108,141;   19,389;    1,621;    1,500
1108,680;   37,116;    3,985;   -0,591
1109,219;   31,934;    0,167;   -0,500
1109,758;   27,934;    4,167;    0,682
1110,297;   27,116;   -1,106;   -0,682
1110,836;   19,753;    1,439;    0,955
1111,375;   21,662;    0,348;    0,409
1111,913;   40,662;    0,985;    0,773
1112,452;   31,480;    0,894;    0,136
1112,991;   21,480;    1,076;    1,955
1113,529;   18,662;    0,167;   -0,045
1114,068;   24,843;    0,439;    2,955
1114,606;   17,934;   -0,561;   -0,955
1115,144;   34,116;    1,530;    1,045
1115,683;   27,480;    1,985;    0,318
1116,221;   40,207;    2,076;   -0,864
1116,759;   23,480;    1,621;   -0,864
1117,297;   46,298;    1,621;    1,864
1117,836;   25,843;    1,985;   -1,227
1118,374;   23,662;    0,258;   -0,682
1118,912;   28,025;    0,439;    2,682
1119,450;   26,207;    0,985;    0,864
1119,988;   24,934;    3,348;    2,136
1120,525;  140,025;    7,258;    3,318
1121,063;   62,025;    0,530;    1,864
1121,601;   22,389;    1,076;   -1,227
1122,139;   16,207;    1,076;   -2,045
1122,676;   55,571;   -1,652;    2,773
1123,214;   46,389;    0,712;    4,409
1123,751;   17,025;    0,621;    2,227
1124,289;   29,934;    0,894;   -0,409
1124,826;   20,843;   -0,379;    0,227
1125,364;    9,298;    0,712;   -0,955
1125,901;   50,389;    6,258;    1,227
1126,438;   43,480;    3,530;    0,955
1126,975;   12,025;    2,985;   -0,773
1127,513;   15,480;    2,621;    2,136
1128,050;   11,571;   -0,561;   -0,682
1128,587;   23,753;    1,348;   -0,227
1129,124;   30,571;   -0,015;    1,318
1129,661;   17,389;   -1,924;    0,227
1130,198;   41,116;    2,439;    0,773
1130,734;   27,753;   -0,379;    1,409
1131,271;   13,207;   -1,197;    0,864
1131,808;   30,480;    1,621;    3,045
1132,345;   16,934;    4,530;    0,318
1132,881;    7,298;   -0,561;   -1,864
1133,418;   16,389;    0,348;   -1,136
1133,954;   12,843;    0,712;   -2,682
1134,491;   22,207;    1,712;   -0,773
1135,027;   10,934;    2,167;    0,864
1135,564;   18,753;    1,439;    2,955
1136,100;   18,934;   -0,742;    2,136
1136,636;   10,389;   -1,015;   -1,045
1137,172;   12,480;    0,894;   -1,045
1137,708;    7,571;   -1,561;   -1,045
1138,245;    8,298;    0,803;   -1,227
1138,781;    8,116;    1,803;   -3,318
1139,317;   11,843;    1,894;   -1,409
1139,852;   10,116;    3,076;    0,136
1140,388;   20,025;    2,076;   -0,409
1140,924;   11,207;    1,076;   -2,227
1141,460;    5,843;   -0,288;    0,136
1141,996;    5,389;   -0,652;    2,682
1142,531;    7,571;    1,076;    3,318
1143,067;   29,934;    1,167;    1,045
1143,602;   40,662;    3,439;   -0,318
1144,138;   17,480;    0,803;    1,045
1144,673;    6,662;    1,621;    1,409
1145,209;   11,480;    2,894;   -0,318
1145,744;    7,389;    0,803;    0,864
1146,279;   15,934;    1,530;   -0,136
1146,815;    8,753;    1,530;   -2,682
1147,350;   13,025;   -0,924;    0,045
1147,885;    6,934;   -1,924;   -1,318
1148,420;    7,934;    2,439;    0,773
1148,955;    8,389;   -1,470;    1,864
1149,490;    8,298;   -1,106;   -1,591
1150,025;    4,480;   -1,106;   -1,773
1150,560;   13,298;   -0,288;   -0,955
1151,094;    8,480;    0,258;   -0,591
1151,629;   10,025;   -3,742;    0,864
1152,164;    6,571;   -1,288;    1,318
1152,698;    6,843;    1,258;   -0,136
1153,233;    3,571;   -1,379;   -0,682
1153,767;    7,116;   -0,288;   -2,318
1154,302;    9,025;   -0,379;    1,773
1154,836;    9,025;    0,803;   -2,136
1155,371;   11,116;    2,258;    3,682
1155,905;    4,843;    1,985;    1,682
1156,439;    5,571;    0,530;   -0,500
1156,973;    8,116;    0,439;    0,318
1157,507;    5,389;   -1,742;    0,682
1158,042;    5,753;   -0,652;    1,045
1158,576;    7,480;   -0,561;    1,773
1159,110;    9,480;    0,076;    2,409
1159,643;    7,571;   -2,470;   -0,045
1160,177;    5,389;   -2,015;    1,500

