
Integration time [ms]:   0,050
Averaging Nr. [scans]: 11
Smoothing Nr. [pixels]: 0
Data measured with spectrometer [name]: 7318044SP
Wave   ;Sample   ;Dark     ;Reference
[nm]   ;[counts] ;[counts] ;[counts] 

186,757;   -0,576;   38,161;    1,318
187,357;   -0,268;   26,706;    0,955
187,958;   -2,897;   17,252;   -1,591
188,558;    4,602;   12,979;   -1,227
189,159;   -2,535;   10,070;   -4,500
189,759;   -3,447;    5,797;   -3,591
190,360;    0,826;    6,797;   -2,136
190,960;    2,732;    5,706;   -4,136
191,560;    4,890;    2,614;   -6,591
192,161;   51,372;    5,885;   -3,500
192,761;   26,333;    5,520;   -3,227
193,361;   15,475;    3,065;   -3,773
193,962;   20,070;    1,612;   -2,682
194,562;    6,699;   -0,114;   -3,955
195,162;    5,239;   -0,567;   -2,227
195,762;   30,000;    2,433;   -0,045
196,362;   17,388;    1,706;   -2,500
196,963;    3,516;    1,706;   -0,864
197,563;   12,422;    1,252;   -0,955
198,163;    3,587;   -0,111;   -0,682
198,763;    7,098;   -0,020;   -0,500
199,363;   12,285;    3,616;   -0,500
199,963;   11,898;    2,162;    0,409
200,563;    7,471;    6,344;   -1,409
201,163;    6,687;    5,435;   -0,227
201,763;   11,858;    1,435;    0,318
202,363;    7,240;    0,980;    1,500
202,963;    8,548;    1,526;    1,045
203,563;   20,798;    0,344;    0,500
204,162;   11,898;    1,889;   -1,864
204,762;    9,715;    2,071;    0,591
205,362;    5,406;    0,708;    1,955
205,962;    8,867;    3,435;    1,955
206,562;   10,570;    1,889;    2,318
207,161;    6,556;    1,708;    0,318
207,761;   30,752;    4,435;    2,409
208,361;   14,538;    1,889;    1,409
208,960;   16,197;    2,889;    1,500
209,560;   14,267;    0,435;    1,591
210,160;   16,874;    5,071;    1,864
210,759;   14,763;    0,708;    1,227
211,359;    8,935;   -0,474;    1,045
211,958;   45,516;    3,526;    2,045
212,558;   44,958;    0,799;    1,864
213,157;   20,077;   -0,929;    1,500
213,757;   78,493;    5,617;   -0,227
214,356;   35,914;    1,708;   -0,409
214,956;   67,944;    3,526;    0,409
215,555;   26,685;    0,617;    2,136
216,154;   14,049;   -0,292;   -0,591
216,754;   16,863;    1,253;    0,773
217,353;   19,728;   -0,383;   -1,045
217,952;    3,456;    2,072;    0,318
218,552;   30,549;    0,254;   -0,773
219,151;   18,575;   -1,110;    0,955
219,750;   14,434;    0,890;   -0,227
220,349;   11,195;   -2,292;    1,045
220,948;   40,770;    1,163;    1,136
221,548;   20,900;    0,617;    1,227
222,147;   25,890;   -1,292;   -0,409
222,746;   63,491;    1,254;   -0,955
223,345;   38,319;   -1,019;    0,500
223,944;   37,006;    1,163;    0,773
224,543;   41,342;    4,072;   -1,409
225,142;   28,088;    1,345;    0,136
225,741;   38,929;    1,163;    1,045
226,340;   35,486;    1,254;   -0,955
226,939;   70,886;    2,708;   -0,136
227,538;   35,742;    1,163;   -0,773
228,137;   87,868;    0,435;    0,864
228,735;   65,503;    0,435;    1,227
229,334;   23,680;   -0,474;   -0,227
229,933;  100,413;    0,799;    0,591
230,532;   95,661;   -1,201;   -0,409
231,131;  130,463;    1,253;    0,318
231,729;   82,221;    1,163;   -2,318
232,328;   58,668;    0,435;   -1,500
232,927;   67,449;    4,526;   -0,500
233,525;   61,993;    0,981;    0,045
234,124;   76,569;    1,890;   -1,591
234,723;   50,858;    1,617;   -1,045
235,321;   46,619;    1,163;    0,136
235,920;   61,041;    2,526;   -1,227
236,518;  136,165;    1,072;    0,318
237,117;   63,810;    2,890;   -0,227
237,715;   81,500;    1,163;   -0,500
238,314;   91,121;    1,708;   -2,318
238,912;  152,122;    0,526;   -1,409
239,510;  109,659;    1,162;   -1,227
240,109;  170,979;   -0,474;    3,773
240,707;  148,079;   -0,474;    1,227
241,305;   75,913;   -0,383;    0,136
241,904;  116,458;   -0,292;   -2,045
242,502;  191,556;    3,253;   -0,227
243,100;  131,768;    3,344;   -0,955
243,698;   90,367;    2,799;    1,682
244,297;  112,682;   -0,656;    0,682
244,895;  106,433;   -0,474;   -2,318
245,493;  203,362;    2,981;   -0,591
246,091;  210,353;    5,163;   -1,318
246,689;  160,260;    2,163;    0,591
247,287;  147,166;   -0,019;   -1,136
247,885;  126,845;   -1,019;    1,227
248,483;  102,891;   -0,201;   -0,500
249,081;  156,247;    0,981;    1,591
249,679;  170,694;   -1,019;    1,682
250,277;  107,557;   -2,292;    0,864
250,875;  180,498;    0,617;   -1,045
251,473;  120,722;   -0,019;    0,500
252,071;  178,709;   -0,383;    1,045
252,669;  131,279;   -1,565;    0,318
253,267;  102,896;    1,618;    0,773
253,864;  130,621;    0,617;    0,682
254,462;  208,747;    1,526;    1,591
255,060;  106,100;    0,072;    1,318
255,658;  103,370;   -3,292;   -0,136
256,255;  136,346;   -0,201;   -2,045
256,853;  167,935;    2,345;    1,409
257,451;  142,358;    1,981;    1,864
258,048;  393,984;    2,072;    1,864
258,646;  227,018;    0,436;   -1,045
259,243;  285,026;    2,981;    2,227
259,841;  205,280;    1,799;    0,318
260,438;  127,937;    0,254;    0,864
261,036;  198,776;    0,617;    1,409
261,633;  132,465;    1,526;    2,227
262,231;  110,364;   -0,110;   -0,045
262,828;  110,125;   -0,383;    1,136
263,425;  135,343;   -1,928;   -0,591
264,023;  138,100;    1,436;    0,045
264,620;  218,650;    1,526;   -0,318
265,217;  294,826;    2,890;    3,136
265,815;  148,789;    2,527;    2,136
266,412;  209,376;    0,072;    0,136
267,009;  208,447;    0,526;    0,773
267,606;  262,836;    0,345;   -0,955
268,203;  166,058;   -0,383;   -0,591
268,801;  177,459;   -0,474;    0,591
269,398;  134,124;   -0,564;    2,500
269,995;  221,216;    0,890;    1,591
270,592;  185,135;    0,799;   -0,500
271,189;  131,852;    1,981;    0,409
271,786;  116,891;    2,072;    1,227
272,383;  254,144;   -0,383;    0,227
272,980;  172,268;    1,617;    0,318
273,577;  148,201;    2,162;    1,227
274,174;  131,937;    1,435;    2,591
274,771;  215,642;    1,890;   -0,773
275,367;  470,654;    3,253;    1,409
275,964;  320,680;   -0,565;   -0,500
276,561;  197,740;   -2,474;   -1,045
277,158;  136,785;    1,799;   -1,773
277,755;  295,611;   -0,110;    0,409
278,351;  228,198;    0,436;   -1,500
278,948;  263,699;   -0,201;    0,045
279,545;  227,311;    0,527;    2,318
280,141;  330,622;    1,254;   -2,045
280,738;  323,547;    2,435;   -0,136
281,334;  186,488;   -0,383;    0,591
281,931;  186,647;    2,890;   -1,318
282,528;  269,910;    4,072;   -0,500
283,124;  315,838;    3,345;   -0,500
283,721;  300,639;    0,709;    1,409
284,317;  216,014;    0,163;    2,500
284,913;  331,188;   -0,110;    0,591
285,510;  485,279;    2,890;   -0,318
286,106;  351,614;    2,345;   -0,955
286,703;  236,238;    0,072;    1,955
287,299;  197,553;    1,254;   -0,591
287,895;  196,651;    0,890;   -1,045
288,491;  185,215;    0,163;    2,136
289,088;  251,052;    0,163;    2,409
289,684;  274,370;    2,890;    1,500
290,280;  373,070;    1,890;    0,682
290,876;  332,920;    0,163;    5,500
291,472;  283,604;    2,163;    2,227
292,068;  291,346;    1,254;    0,227
292,665;  217,735;   -0,564;    0,773
293,261;  158,493;   -1,292;    2,136
293,857;  272,884;    4,072;    2,136
294,453;  222,593;   -0,928;    0,955
295,049;  366,661;    0,253;    1,955
295,644;  250,537;   -1,292;    0,136
296,240;  166,228;    0,162;   -0,136
296,836;  237,545;   -0,747;    0,318
297,432;  317,054;    2,980;   -0,500
298,028;  333,691;    0,435;    0,773
298,624;  254,370;    0,889;    1,864
299,220;  246,623;    0,435;    0,591
299,815;  236,922;    0,526;   -0,409
300,411;  294,661;    0,435;    1,773
301,007;  365,412;    1,889;    0,227
301,602;  250,912;    2,071;   -2,318
302,198;  347,482;    1,435;   -0,773
302,794;  248,525;    1,526;   -0,500
303,389;  202,168;    1,071;    1,045
303,985;  233,355;    1,253;    1,409
304,580;  328,068;    0,889;    1,591
305,176;  262,660;    0,344;    0,136
305,771;  165,679;   -0,929;   -1,227
306,367;  449,421;    3,071;    0,136
306,962;  290,367;    2,889;    1,500
307,558;  331,184;    2,435;    0,136
308,153;  349,389;   -0,383;   -1,136
308,748;  220,558;    0,162;    1,682
309,344;  471,785;    0,253;   -1,318
309,939;  468,858;    2,071;   -1,318
310,534;  265,321;   -2,020;   -1,682
311,130;  246,834;   -0,656;   -2,500
311,725;  219,669;    0,526;   -0,500
312,320;  248,825;    1,253;    0,045
312,915;  316,869;    2,890;   -1,045
313,510;  471,399;    0,526;   -0,500
314,105;  272,602;   -3,565;    1,409
314,700;  181,983;   -1,656;   -1,045
315,295;  234,614;   -0,020;    0,045
315,890;  201,817;   -0,292;    0,864
316,485;  276,673;    0,253;   -0,318
317,080;  215,189;   -0,929;    1,591
317,675;  435,554;    3,071;   -0,682
318,270;  601,947;    6,889;    3,318
318,865;  499,218;    2,435;    3,045
319,460;  368,821;   -1,565;    0,591
320,055;  252,835;   -2,565;   -1,227
320,650;  252,187;   -1,838;   -0,591
321,244;  259,572;    0,889;   -1,409
321,839;  264,353;    0,980;   -0,227
322,434;  294,643;   -0,111;   -1,591
323,029;  246,049;   -0,474;    1,591
323,623;  230,376;    0,798;    0,773
324,218;  367,489;    2,707;    1,409
324,812;  315,072;    0,889;    1,591
325,407;  305,912;   -0,929;    2,045
326,002;  410,461;    0,526;   -0,409
326,596;  361,795;   -0,656;    1,318
327,191;  236,814;   -0,383;   -1,045
327,785;  239,158;   -0,747;   -0,227
328,379;  242,178;   -0,383;    0,136
328,974;  276,997;    1,798;   -3,955
329,568;  301,621;    2,889;   -2,409
330,163;  363,418;    2,435;    1,045
330,757;  239,042;    0,253;    1,591
331,351;  196,565;   -0,292;    0,682
331,945;  188,977;   -0,383;    1,409
332,540;  286,658;    1,617;   -0,591
333,134;  278,500;    3,344;    0,773
333,728;  281,749;    2,799;    0,318
334,322;  205,629;    0,889;   -0,864
334,916;  196,250;    0,344;    0,955
335,510;  321,016;   -0,111;   -0,136
336,105;  304,995;   -0,929;    1,591
336,699;  221,301;   -1,292;    0,591
337,293;  252,245;    1,071;    0,318
337,887;  211,007;    0,071;    1,955
338,481;  314,657;    2,980;    0,591
339,074;  387,975;    2,071;    2,682
339,668;  369,055;   -0,110;    1,227
340,262;  805,867;    7,708;    3,227
340,856;  484,725;    1,708;   -0,682
341,450;  248,379;    0,708;    1,864
342,044;  295,518;    1,799;    0,136
342,637;  383,342;    1,162;   -2,136
343,231;  349,541;   -1,474;    0,682
343,825;  289,572;   -0,747;   -0,591
344,419;  278,263;   -0,474;    0,500
345,012;  696,154;    2,889;    4,045
345,606;  518,686;   -0,656;    1,591
346,199;  284,477;   -0,111;   -0,227
346,793;  377,466;    2,525;    2,045
347,386;  235,524;    0,889;   -1,136
347,980;  171,078;   -0,838;   -0,045
348,573;  240,953;   -1,748;    0,409
349,167;  473,005;    6,161;    4,773
349,760;  360,374;    2,252;    2,682
350,354;  336,185;    1,616;    1,136
350,947;  361,866;    2,798;    1,682
351,540;  275,226;    0,616;   -1,409
352,134;  184,193;   -1,111;    1,136
352,727;  201,613;   -0,657;    1,136
353,320;  213,749;    2,343;    0,591
353,913;  157,217;   -1,929;    1,864
354,507;  312,409;    0,434;   -1,227
355,100;  225,670;    0,071;    0,864
355,693;  543,501;    4,798;    2,409
356,286;  351,736;    0,980;    2,773
356,879;  243,014;   -0,475;    1,227
357,472;  243,839;    0,980;    1,500
358,065;  266,896;    3,161;    2,500
358,658;  168,285;    0,798;    2,318
359,251;  153,198;    0,252;   -0,591
359,844;  278,708;    0,343;   -1,136
360,437;  337,582;    0,252;    0,045
361,030;  214,561;    0,525;   -0,682
361,623;  222,869;    0,434;    0,318
362,215;  399,163;    0,979;    2,045
362,808;  276,812;   -2,293;   -1,682
363,401;  219,670;    0,798;    0,136
363,994;  388,377;    3,252;   -1,500
364,586;  240,317;    0,888;   -1,500
365,179;  204,007;   -0,203;   -1,136
365,772;   95,877;   -0,930;    2,045
366,364;  208,302;    1,524;   -3,227
366,957;  253,751;    1,342;   -0,045
367,549;  216,090;   -0,203;   -0,864
368,142;  224,037;    0,978;   -1,500
368,734;  200,660;    2,523;   -2,136
369,327;  151,439;    2,341;   -0,500
369,919;  180,823;   -1,659;    0,409
370,512;  198,269;   -1,023;   -0,500
371,104;  408,815;    2,704;    1,591
371,696;  423,419;    1,703;   -0,955
372,289;  303,832;    0,157;    1,136
372,881;  257,049;    1,156;    1,318
373,473;  176,763;    4,064;    1,136
374,066;  237,125;    1,336;    0,500
374,658;  225,555;    0,879;    1,136
375,250;  181,191;   -1,668;   -1,409
375,842;  212,583;   -0,124;   -0,045
376,434;  180,357;   -2,762;   -0,409
377,026;  184,617;   -1,855;   -2,500
377,618;  223,265;    0,779;   -0,682
378,210;  183,609;    3,141;   -1,955
378,802;  179,457;    3,412;   -0,591
379,394;  474,091;    3,411;    0,682
379,986;  286,612;    1,138;   -0,955
380,578;  214,826;    1,410;    0,773
381,170;  400,848;    0,320;    0,045
381,762;  318,301;   -0,224;    1,409
382,354;  270,864;   -0,223;   -1,318
382,945;  211,344;    0,870;    0,318
383,537;  174,956;    1,144;   -1,955
384,129;  166,478;    0,963;   -1,136
384,721;  247,234;    0,418;    0,955
385,312;  204,498;   -1,399;   -0,955
385,904;  270,616;   -0,945;    1,591
386,496;  217,363;    0,691;    1,045
387,087;  333,417;    0,418;    2,500
387,679;  281,265;   -0,401;    0,045
388,270;  260,762;   -2,401;    2,045
388,862;  248,069;   -0,401;   -0,318
389,453;  235,230;    1,054;    1,045
390,045;  238,502;    3,236;   -2,682
390,636;  161,535;    0,144;   -0,591
391,227;  208,061;    2,054;   -0,045
391,819;  192,824;    0,781;    0,773
392,410;  391,238;    0,600;    0,045
393,001;  239,842;    1,600;   -1,591
393,593;  278,238;    0,600;   -0,045
394,184;  317,210;    0,873;   -0,409
394,775;  227,122;    1,146;    2,136
395,366;  169,773;    1,782;    0,773
395,957;  314,061;   -2,400;    0,136
396,548;  226,115;    1,054;    2,682
397,139;  335,031;    2,236;    0,591
397,730;  255,950;    0,873;    0,955
398,321;  264,727;    0,509;    0,955
398,912;  215,927;   -0,764;    0,136
399,503;  217,105;   -1,945;   -1,409
400,094;  256,594;   -1,582;    1,682
400,685;  242,174;    3,600;    0,045
401,276;  207,975;   -0,400;   -0,955
401,867;  193,288;   -1,127;    0,773
402,458;  164,880;    1,509;   -2,318
403,048;  277,030;    0,146;    0,591
403,639;  232,965;    1,509;    0,864
404,230;  323,944;    0,691;    0,318
404,821;  372,468;   -0,127;    0,045
405,411;  299,234;   -0,763;   -2,591
406,002;  225,762;    3,237;   -1,136
406,592;  417,815;    2,691;    0,045
407,183;  292,612;    0,328;   -1,500
407,774;  275,857;    1,419;   -0,136
408,364;  241,201;    2,600;    0,409
408,954;  338,223;   -0,036;    1,227
409,545;  340,580;    1,873;    1,045
410,135;  295,457;   -1,581;    0,500
410,726;  248,108;    0,783;    0,318
411,316;  408,669;    2,237;    0,773
411,906;  274,170;    0,146;   -0,409
412,497;  291,729;   -0,490;   -0,045
413,087;  239,462;    0,783;   -0,227
413,677;  184,382;   -2,490;    3,864
414,267;  178,191;   -1,035;    1,409
414,857;  167,022;    0,419;    4,227
415,448;  171,292;   -0,763;    0,500
416,038;  199,757;   -2,945;   -0,591
416,628;  230,830;    0,965;    0,409
417,218;  276,859;   -1,762;    3,318
417,808;  413,144;    0,965;   -0,409
418,398;  310,147;   -1,035;    2,682
418,988;  207,884;   -2,217;    0,591
419,578;  300,394;    3,601;    1,409
420,168;  246,992;    0,692;   -0,955
420,757;  369,565;    0,964;   -1,500
421,347;  265,839;    1,601;   -0,227
421,937;  241,561;    3,329;    1,409
422,527;  365,406;    2,602;   -0,773
423,116;  493,418;    2,692;   -0,045
423,706;  240,990;    2,965;    0,318
424,296;  203,168;    1,601;    0,682
424,885;  321,532;    1,510;   -3,045
425,475;  295,199;    1,147;   -2,864
426,065;  204,105;   -1,489;   -0,318
426,654;  187,283;    0,329;   -0,318
427,244;  443,936;    1,147;    1,409
427,833;  398,103;    1,056;   -0,500
428,423;  275,078;    0,147;    1,136
429,012;  282,680;    2,420;   -1,136
429,601;  398,074;    2,057;    0,136
430,191;  302,747;    2,511;    4,318
430,780;  211,899;   -1,671;   -0,409
431,369;  385,076;    1,329;   -0,045
431,959;  287,541;    1,693;    0,500
432,548;  222,003;   -1,398;   -0,045
433,137;  171,665;    0,329;   -1,318
433,726;  245,737;    0,148;    0,500
434,315;  268,664;    0,148;    2,409
434,905;  372,476;    0,693;    1,409
435,494;  369,253;    3,148;    0,955
436,083;  245,837;    1,420;   -0,955
436,672;  328,499;    1,148;    0,500
437,261;  280,726;    0,512;   -1,955
437,850;  503,250;   -1,125;    0,682
438,439;  552,145;    2,239;    1,955
439,027;  667,525;    3,421;    1,773
439,616;  588,568;    2,239;    1,227
440,205;  367,982;    0,057;   -2,136
440,794;  312,033;   -0,306;   -0,045
441,383;  248,358;    1,603;   -0,591
441,971;  221,167;   -0,306;    0,591
442,560;  233,764;    0,603;   -1,773
443,149;  111,447;    3,060;   -1,318
443,737;  179,561;    0,968;   -2,318
444,326;  213,316;    0,331;    0,318
444,915;  264,306;   -1,851;    0,864
445,503;  280,919;    0,058;   -0,318
446,092;  549,663;    7,876;    2,136
446,680;  478,967;    1,876;    0,318
447,269;  373,804;   -1,487;   -0,318
447,857;  354,573;    2,240;   -1,773
448,445;  314,043;    2,149;    1,318
449,034;  258,667;    0,876;   -1,136
449,622;  259,215;    1,240;    3,500
450,210;  549,487;    3,149;    2,227
450,799;  470,138;    2,604;   -0,591
451,387;  415,428;    1,786;   -0,591
451,975;  396,769;   -1,305;    0,864
452,563;  486,003;    0,422;    2,318
453,151;  288,609;   -1,032;   -1,227
453,739;  337,513;   -1,577;    0,136
454,328;  453,667;    0,604;   -2,136
454,916;  371,065;    1,150;   -0,136
455,504;  392,943;    3,513;    1,227
456,092;  279,189;    2,150;   -1,591
456,679;  241,286;    0,604;    0,682
457,267;  700,782;    3,604;    1,045
457,855;  344,261;    3,241;    1,409
458,443;  185,675;   -0,304;    1,682
459,031;  363,553;    1,332;    2,409
459,619;  327,434;   -3,577;    2,864
460,206;  217,726;   -0,759;    2,045
460,794;  227,756;   -0,668;   -0,227
461,382;  282,456;    0,878;   -0,864
461,970;  277,546;    0,605;    1,864
462,557;  204,815;    0,878;   -0,682
463,145;  339,246;   -0,304;   -1,682
463,732;  597,586;    2,514;   -1,045
464,320;  346,182;    1,514;   -3,045
464,907;  504,617;    0,423;   -0,773
465,495;  402,717;    2,696;   -1,227
466,082;  312,904;    2,060;   -0,045
466,670;  332,912;    2,605;    1,227
467,257;  219,933;    0,060;    2,045
467,844;  342,498;    1,514;    0,045
468,432;  312,689;   -0,031;    3,500
469,019;  262,747;    1,606;   -1,773
469,606;  356,986;    0,969;    3,682
470,193;  387,424;    2,151;    0,227
470,780;  338,908;    0,333;    0,864
471,368;  263,038;   -1,212;   -0,773
471,955;  375,746;    1,060;   -0,682
472,542;  323,074;   -0,303;   -1,136
473,129;  201,758;   -0,485;    0,136
473,716;  220,470;    0,060;    0,591
474,303;  254,929;    1,333;   -0,864
474,890;  257,301;    2,333;   -0,500
475,477;  372,782;   -0,576;    0,409
476,064;  259,297;    0,697;   -1,591
476,650;  388,606;    2,152;    0,318
477,237;  293,424;    1,879;    0,955
477,824;  271,256;    3,879;    0,864
478,411;  176,520;    0,606;   -0,318
478,997;  176,659;    0,606;   -0,773
479,584;  116,176;   -0,666;   -0,409
480,171;  331,060;    1,243;   -0,773
480,757;  396,208;   -0,848;    0,773
481,344;  271,609;    0,334;    0,409
481,931;  154,869;   -0,393;    1,045
482,517;  327,252;    0,425;    0,318
483,104;  449,539;    1,334;    2,864
483,690;  305,273;    0,243;    0,045
484,276;  272,865;    0,698;    0,227
484,863;  542,383;    2,152;    1,136
485,449;  350,812;    0,152;    0,318
486,035;  294,548;   -0,666;   -0,136
486,622;  422,322;   -2,393;    0,045
487,208;  305,715;    1,334;    1,500
487,794;  211,210;    0,971;    0,318
488,380;  211,408;    0,698;   -1,409
488,967;  223,127;   -1,120;   -0,409
489,553;  243,912;   -1,029;   -1,409
490,139;  341,279;    0,971;    0,773
490,725;  238,199;    0,789;   -0,227
491,311;  296,733;    1,516;    3,045
491,897;  244,739;   -0,665;    1,500
492,483;  245,302;    0,426;    1,227
493,069;  781,292;    5,426;    0,864
493,655;  426,969;    1,789;    0,682
494,241;  271,322;    1,517;   -0,955
494,826;  291,273;    0,335;   -1,045
495,412;  367,729;    0,335;   -0,682
495,998;  252,199;    0,971;   -0,318
496,584;  325,446;    2,244;    1,045
497,169;  339,377;    2,335;   -0,682
497,755;  257,361;    1,244;    1,227
498,341;  435,648;    2,153;    0,318
498,926;  577,771;    2,881;    1,955
499,512;  256,392;   -0,028;    2,955
500,097;  260,594;   -0,574;   -0,318
500,683;  287,023;   -0,028;    2,136
501,268;  223,755;    1,881;   -0,955
501,854;  258,962;   -0,119;    1,227
502,439;  234,657;   -0,573;   -1,773
503,024;  277,432;    1,608;    0,500
503,610;  308,609;    1,335;   -0,682
504,195;  236,178;    1,245;    1,955
504,780;  348,946;    2,335;    1,227
505,366;  441,660;    4,063;    2,864
505,951;  351,890;   -1,119;    1,045
506,536;  257,333;    1,427;   -3,682
507,121;  319,399;    1,699;   -0,318
507,706;  271,042;   -0,392;    1,045
508,291;  203,438;   -2,937;    1,136
508,876;  203,827;   -0,482;    2,591
509,461;  258,965;    1,427;   -0,773
510,046;  310,048;   -0,391;    0,318
510,631;  309,467;   -0,119;   -0,773
511,216;  221,314;   -0,664;   -0,500
511,801;  291,430;   -0,755;    2,591
512,386;  304,755;    0,972;    0,500
512,971;  318,541;    0,427;    0,955
513,555;  370,865;    1,154;   -1,500
514,140;  316,425;    1,336;   -3,136
514,725;  436,492;    1,791;   -1,136
515,309;  336,025;    1,064;    0,318
515,894;  236,295;   -0,300;   -2,227
516,479;  269,679;    1,973;   -0,955
517,063;  266,479;    0,882;    1,227
517,648;  224,214;    0,155;   -1,136
518,232;  190,409;   -1,300;   -1,409
518,817;  284,321;    1,337;    1,682
519,401;  393,490;    0,700;    0,591
519,985;  354,655;    2,700;    1,136
520,570;  225,148;   -0,118;   -1,955
521,154;  321,904;    0,064;    0,591
521,738;  465,053;    1,064;    2,409
522,323;  320,164;   -0,390;    1,682
522,907;  312,137;    2,428;   -0,136
523,491;  238,144;    1,155;    0,955
524,075;  211,874;    0,428;    0,591
524,659;  377,930;    0,973;    0,591
525,243;  323,303;    0,883;    0,409
525,827;  273,785;    0,883;   -0,045
526,411;  277,021;    1,155;   -0,136
526,995;  357,223;    0,337;    1,409
527,579;  398,210;    1,974;   -1,045
528,163;  337,881;    0,428;   -1,500
528,747;  411,688;    1,065;   -0,773
529,331;  366,406;    0,883;   -1,409
529,915;  245,522;    2,338;    0,955
530,499;  306,430;    0,247;    1,227
531,082;  448,661;    1,065;    1,591
531,666;  514,754;    0,520;    0,773
532,250;  410,147;    0,428;    2,682
532,833;  483,743;    0,610;    2,773
533,417;  372,930;    1,247;    0,864
534,001;  462,243;    0,429;   -0,318
534,584;  397,288;    1,974;    0,500
535,168;  252,556;    3,247;    1,409
535,751;  546,939;    4,520;    0,045
536,334;  332,140;    4,520;   -0,409
536,918;  211,225;    1,974;    1,591
537,501;  217,709;    1,520;    1,318
538,085;  260,178;    1,702;    1,045
538,668;  321,182;    0,883;    2,409
539,251;  540,640;    3,156;    3,773
539,834;  313,904;    0,156;    0,773
540,418;  411,509;    3,247;    4,318
541,001;  552,673;    2,702;    1,773
541,584;  370,407;    1,429;    2,227
542,167;  454,154;    0,702;    2,955
542,750;  317,447;    0,793;   -0,773
543,333;  208,515;    1,429;    2,136
543,916;  385,561;   -0,298;    2,500
544,499;  338,126;    2,520;    0,227
545,082;  407,586;    0,248;    3,591
545,665;  325,843;   -0,207;    1,500
546,248;  439,606;    0,520;   -0,318
546,830;  411,231;   -1,752;    1,955
547,413;  366,552;    0,157;   -0,773
547,996;  340,215;    0,157;    0,500
548,579;  314,068;   -0,843;    0,955
549,161;  510,528;    0,884;    2,682
549,744;  405,108;    0,612;    0,409
550,326;  293,658;    0,885;   -1,136
550,909;  680,323;    2,339;    0,591
551,492;  390,918;    0,521;    0,227
552,074;  481,795;   -0,024;   -1,318
552,657;  513,796;    2,430;    0,045
553,239;  403,898;   -3,024;   -0,773
553,821;  301,038;   -1,570;    1,045
554,404;  511,612;   -0,024;    1,136
554,986;  577,455;    2,248;    1,045
555,568;  446,466;    0,430;   -0,955
556,151;  627,196;    4,067;   -0,227
556,733;  369,081;   -1,388;   -0,864
557,315;  391,057;    4,703;    0,500
557,897;  279,866;    0,521;   -0,500
558,479;  285,689;    1,703;    1,318
559,061;  354,752;    1,067;   -0,864
559,643;  395,268;   -0,297;    0,045
560,225;  432,198;   -0,388;    2,864
560,807;  306,359;    0,340;    0,318
561,389;  299,643;   -1,206;    2,318
561,971;  363,087;   -0,660;    2,136
562,553;  294,482;    0,613;    1,591
563,135;  365,840;    1,249;    1,136
563,717;  702,838;    3,158;    1,136
564,298;  615,496;    3,976;   -0,045
564,880;  398,403;    0,340;   -1,409
565,462;  264,313;    1,977;    1,318
566,043;  358,517;   -0,933;    2,318
566,625;  627,878;    4,067;    1,227
567,207;  477,734;    0,704;    1,682
567,788;  349,290;   -0,114;    1,500
568,370;  347,160;   -1,841;   -0,500
568,951;  341,122;   -0,569;    0,227
569,533;  425,371;    0,977;   -0,500
570,114;  426,264;   -0,296;    0,682
570,695;  452,982;   -0,478;   -1,318
571,277;  435,189;   -0,205;   -1,682
571,858;  604,987;    2,704;   -1,136
572,439;  456,595;    0,795;   -1,045
573,021;  471,889;    0,432;   -2,773
573,602;  569,134;    1,795;    0,318
574,183;  532,525;   -0,114;    2,227
574,764;  487,245;    2,068;    0,409
575,345;  642,359;    0,250;   -0,136
575,926;  496,488;    2,704;    0,136
576,507;  560,405;    2,704;   -0,227
577,088;  521,950;    1,704;    1,682
577,669;  685,807;    1,704;    1,955
578,250;  839,434;   -0,750;   -1,045
578,831;  648,868;   -0,841;   -2,227
579,412;  640,992;   -1,205;    0,955
579,993;  608,271;    1,432;    0,227
580,573;  521,455;   -0,023;   -0,955
581,154;  656,173;    1,613;   -0,591
581,735;  678,077;    0,341;    0,773
582,315;  808,804;    0,523;    2,136
582,896;  618,063;   -1,750;    1,227
583,477;  483,022;    0,614;    1,227
584,057;  603,452;    1,159;    0,955
584,638;  709,180;   -2,750;    2,318
585,218;  927,448;    2,886;    2,682
585,799;  743,159;    1,977;   -0,227
586,379;  642,586;    1,250;    1,591
586,959;  615,435;    2,613;    0,318
587,540;  540,041;    0,432;    2,227
588,120;  540,101;   -1,113;   -0,045
588,700;  577,690;    2,977;    2,136
589,281;  736,272;    1,250;   -0,955
589,861;  607,194;   -0,296;   -1,682
590,441;  481,094;   -1,477;   -2,682
591,021;  551,632;    1,432;   -2,591
591,601;  526,299;    0,431;    0,500
592,181;  511,110;   -1,296;   -0,773
592,761;  420,432;    2,250;    1,409
593,341;  522,978;    1,522;    0,045
593,921;  548,676;   -0,569;    1,591
594,501;  457,163;    1,250;    1,318
595,081;  461,582;    0,522;   -0,318
595,661;  519,331;    1,068;    0,955
596,240;  465,300;   -1,023;    0,136
596,820;  824,352;    2,613;    1,955
597,400;  580,144;    1,977;    0,773
597,980;  486,375;   -0,750;    1,045
598,559;  435,320;    0,341;   -0,227
599,139;  429,787;   -0,750;   -1,227
599,718;  421,969;    0,795;   -0,409
600,298;  413,957;   -2,387;    0,682
600,877;  860,017;    4,795;    1,409
601,457;  587,433;    0,340;    1,136
602,036;  482,388;    1,795;    2,045
602,616;  526,191;    2,250;    1,682
603,195;  631,703;    0,431;    3,500
603,774;  683,806;   -0,296;    2,045
604,354;  630,446;    2,522;   -0,500
604,933;  570,475;    0,250;    1,864
605,512;  653,997;    2,340;    0,591
606,091;  645,324;    1,886;    3,773
606,671;  603,525;    0,249;    0,773
607,250;  763,893;    1,431;    3,136
607,829;  702,117;    1,158;    3,227
608,408;  573,774;    4,613;    2,591
608,987;  678,345;    2,704;    3,409
609,566;  506,424;    0,341;   -2,500
610,145;  603,171;    2,885;    0,682
610,723;  648,362;    1,613;    6,864
611,302;  557,236;    1,067;    1,682
611,881;  834,707;    5,158;   11,227
612,460;  562,076;    0,795;    3,955
613,039;  456,308;    1,703;    2,045
613,617;  447,945;    0,886;    4,773
614,196;  462,350;    1,613;    1,227
614,775;  509,757;    1,249;    2,409
615,353;  574,097;   -1,660;    0,864
615,932;  548,466;    0,249;    2,409
616,510;  525,119;    0,158;    0,591
617,089; 1000,927;    8,794;   17,591
617,667;  640,741;    4,885;    6,136
618,246;  430,262;   -1,115;    1,318
618,824;  491,179;    1,612;   -0,955
619,402;  503,363;    0,431;   -1,773
619,981;  563,063;    1,067;   -1,045
620,559;  489,225;    0,794;    1,682
621,137;  507,873;    3,067;    1,864
621,715;  428,973;    3,703;   -0,682
622,293;  450,325;    1,885;   -0,773
622,871;  462,239;    0,340;    0,500
623,450;  420,827;    0,430;   -0,864
624,028;  591,587;   -0,388;   -0,955
624,606;  539,019;    2,339;    1,682
625,183;  390,353;   -0,661;   -1,136
625,761;  524,896;    1,885;    1,136
626,339;  779,666;    2,339;    2,591
626,917;  469,307;    0,339;   -0,045
627,495;  419,950;    2,794;    1,318
628,073;  523,829;    5,248;    2,864
628,650;  541,878;    3,067;    2,136
629,228;  542,092;    1,248;    4,409
629,806;  380,428;   -0,024;    1,136
630,383;  430,664;    0,066;   -0,318
630,961;  427,156;   -2,206;   -0,955
631,539;  471,477;   -2,479;    0,227
632,116; 1163,247;   12,703;   15,409
632,694;  778,214;    4,885;    6,500
633,271;  621,238;    1,975;    2,682
633,848;  712,995;    1,430;    2,045
634,426;  470,126;    1,521;    1,773
635,003;  355,504;   -0,207;   -0,409
635,580;  718,041;    1,884;    3,682
636,158;  607,281;    3,793;    1,227
636,735;  446,694;    3,339;   -0,500
637,312;  433,096;    0,521;   -0,682
637,889;  430,387;    2,248;   -0,682
638,466;  415,119;    0,066;   -0,409
639,043;  467,514;    1,702;   -1,136
639,620;  388,420;    0,611;   -0,955
640,197;  504,530;    1,612;    1,682
640,774;  359,626;    1,430;    1,136
641,351;  416,813;    0,612;    1,136
641,928;  588,728;    2,794;    1,409
642,505;  684,278;    0,794;   -0,500
643,082;  528,284;    1,885;    1,227
643,658;  420,380;    1,157;    1,500
644,235;  399,930;   -2,479;    2,500
644,812;  559,663;    1,794;    0,773
645,388;  550,123;    1,612;    1,409
645,965;  370,401;    1,521;    1,682
646,542;  378,315;    3,430;   -0,227
647,118;  714,502;    3,703;   -0,955
647,695;  521,689;    0,339;    1,136
648,271;  364,422;   -2,115;    0,500
648,848;  507,245;    0,248;    2,227
649,424;  620,887;    0,976;    1,318
650,000;  451,165;   -0,388;   -1,045
650,577;  489,079;    0,158;   -0,955
651,153;  483,902;   -1,115;    0,955
651,729;  447,726;    0,521;    0,864
652,305;  786,640;    1,339;    2,773
652,881;  696,554;   -1,297;    1,136
653,458;  739,923;    0,249;    0,227
654,034;  768,929;    0,703;    1,591
654,610;  905,297;    0,339;    0,773
655,186; 1375,212;    1,612;    3,045
655,762;  932,490;   -1,842;    0,409
656,338;  910,404;    0,703;    0,136
656,913;  974,318;   -0,297;    0,409
657,489;  776,142;    0,249;   -0,318
658,065;  873,329;    0,794;   -1,591
658,641;  896,152;    2,158;   -0,864
659,217;  841,794;    2,067;    0,409
659,792; 1005,072;   -1,751;   -0,409
660,368;  839,623;   -0,388;   -0,682
660,944;  834,537;    1,794;    1,227
661,519;  794,724;    0,522;    0,409
662,095;  603,275;   -0,206;    0,591
662,670;  495,553;   -0,206;   -0,136
663,246;  424,012;   -0,660;   -0,409
663,821;  558,927;    0,431;    1,682
664,396;  504,750;    0,613;    1,864
664,972;  437,119;   -0,660;   -0,500
665,547;  485,942;    3,794;    0,136
666,122;  467,402;    1,340;    0,318
666,698;  637,680;    2,431;    0,318
667,273;  436,322;    0,885;    0,136
667,848;  467,691;    0,340;    1,500
668,423;  599,696;    1,795;    2,318
668,998;  470,428;    0,976;   -0,682
669,573;  443,797;    2,067;   -1,500
670,148;  586,621;    1,885;   -0,682
670,723;  412,081;   -0,024;    0,318
671,298;  670,268;   -1,296;    1,045
671,873;  581,546;   -0,296;   -0,136
672,448;  572,824;    1,704;    0,136
673,023;  569,192;    0,249;   -0,227
673,597;  649,198;    2,704;    2,318
674,172;  691,657;    2,431;    0,318
674,747;  616,117;   -0,205;   -1,045
675,321;  413,941;   -0,933;    3,318
675,896;  360,037;    2,158;    1,045
676,471;  555,951;    2,522;    1,591
677,045;  477,775;   -0,296;    0,682
677,620;  560,871;    2,158;    1,136
678,194;  425,603;    0,249;    1,136
678,769;  497,154;    0,886;   -0,318
679,343;  529,523;   -0,023;    1,773
679,917;  626,437;    0,340;    1,955
680,492;  502,442;    0,249;    3,227
681,066;  537,811;    0,613;    0,409
681,640;  474,453;    1,795;   -0,318
682,214;  494,913;    2,340;    0,500
682,788;  492,554;    0,613;   -0,773
683,363;  612,650;    1,977;    1,682
683,937;  504,019;    0,886;   -0,318
684,511;  526,388;   -1,023;   -0,591
685,085;  542,393;   -1,478;    0,318
685,659;  464,490;    1,431;    0,864
686,232;  676,586;    1,159;   -0,318
686,806;  554,318;    2,159;    0,409
687,380;  461,778;   -1,932;    0,591
687,954;  424,874;    2,432;    1,136
688,528;  700,698;    2,613;    1,955
689,101;  545,339;    0,432;    1,045
689,675;  447,344;    0,886;   -0,136
690,249;  657,350;    3,432;    0,409
690,822;  652,355;    1,159;    0,318
691,396;  560,178;    2,068;    1,227
691,969;  495,911;    2,523;    0,136
692,543;  416,098;   -0,568;   -1,955
693,116;  402,830;   -0,659;   -1,409
693,690;  479,654;   -0,296;    0,500
694,263;  423,023;    2,341;    2,955
694,836;  731,210;    2,795;    3,591
695,410;  625,033;    1,159;    1,773
695,983;  645,038;    1,614;    0,591
696,556;  479,953;   -0,750;   -1,045
697,129;  402,776;   -1,114;    1,409
697,703;  603,600;    1,341;    1,955
698,276;  494,605;    1,705;   -0,773
698,849;  631,519;   -1,023;    1,409
699,422;  440,070;    1,250;    0,591
699,995;  355,257;   -0,659;    0,136
700,568;  475,171;   -0,204;    3,045
701,140;  487,995;   -1,841;    1,682
701,713;  629,455;    0,341;    2,409
702,286;  535,642;    0,796;    0,864
702,859;  607,556;    0,614;   -0,591
703,432;  690,016;   -0,841;    0,682
704,004;  581,657;    1,978;    0,318
704,577;  448,844;    1,068;    0,136
705,150;  514,759;    0,887;    2,500
705,722;  568,218;    1,523;   -3,227
706,295;  624,315;    1,432;   -0,591
706,867;  509,593;    0,250;    1,955
707,440;  590,052;   -0,113;   -0,409
708,012;  653,694;   -0,022;    0,591
708,584;  595,972;    2,705;    0,227
709,157;  400,523;    1,160;   -0,591
709,729;  603,619;    1,069;    2,045
710,301;  469,897;   -1,204;    0,045
710,874;  474,993;    0,341;   -0,227
711,446;  381,180;   -0,295;    0,864
712,018;  446,822;   -3,022;    0,500
712,590;  396,827;   -0,204;    1,682
713,162;  645,378;   -0,477;    1,318
713,734;  465,201;    1,796;   -2,045
714,306;  381,024;    0,342;   -0,409
714,878;  429,939;   -0,295;    0,864
715,450;  397,217;   -0,113;    0,864
716,022;  407,313;    2,433;    1,318
716,593;  403,500;    0,978;    0,591
717,165;  448,414;    1,796;   -1,227
717,737;  672,510;    0,796;    0,409
718,309;  480,697;    1,160;   -0,045
718,880;  415,612;   -1,295;   -1,409
719,452;  480,435;    0,887;   -1,591
720,024;  557,440;    1,705;   -0,591
720,595;  464,173;    2,978;    0,955
721,167;  447,905;    1,160;   -2,045
721,738;  562,002;    2,069;   -1,045
722,309;  698,552;    1,251;   -1,227
722,881;  455,103;    2,705;    0,773
723,452;  526,199;    1,251;    2,864
724,023;  526,841;    1,524;    2,682
724,595;  584,028;    2,342;    0,682
725,166;  478,124;    1,524;   -0,409
725,737;  643,584;    1,887;    0,227
726,308;  464,044;    0,797;    0,318
726,879;  382,503;    1,069;    1,227
727,450;  526,599;   -2,022;   -0,045
728,021;  484,696;    1,069;    0,682
728,592;  632,155;    1,160;    0,500
729,163;  699,161;    1,433;   -0,136
729,734;  667,348;    2,160;   -0,227
730,305;  563,080;    0,615;    0,136
730,876;  532,813;    0,888;    2,955
731,447;  804,091;    0,797;    2,682
732,017;  721,732;   -0,840;    1,864
732,588;  528,101;   -0,021;    1,227
733,159;  775,925;    3,615;   -1,045
733,729;  540,748;    1,251;    0,409
734,300;  684,390;    0,160;    0,864
734,870;  513,304;   -1,385;    0,591
735,441;  506,946;    0,888;   -0,591
736,011;  489,769;    1,070;   -1,591
736,582;  475,956;    1,251;    0,045
737,152;  585,507;    0,979;   -2,045
737,722;  570,057;    1,070;   -0,682
738,293;  448,972;   -2,021;    1,318
738,863;  607,522;    1,797;    2,318
739,433;  831,164;    4,524;    0,318
740,003;  587,533;    1,524;   -0,682
740,573;  703,629;    2,252;   -1,591
741,143;  574,180;    3,615;    0,318
741,713;  498,912;    0,252;   -0,500
742,283;  557,554;    1,706;    1,591
742,853;  507,559;    0,524;    1,591
743,423;  359,564;    0,161;    0,045
743,993;  460,024;    1,070;    1,500
744,563;  503,211;    2,524;   -0,864
745,133;  528,489;   -0,112;   -0,864
745,702;  423,222;    2,797;    1,773
746,272;  598,954;    0,434;    0,591
746,842;  619,960;   -0,748;   -0,591
747,411;  438,328;   -0,839;   -0,318
747,981;  355,697;   -0,930;    0,500
748,551;  349,521;   -0,021;   -1,045
749,120;  518,890;   -0,112;   -0,227
749,690;  478,258;    2,161;    2,409
750,259;  571,446;    0,979;    2,955
750,828;  611,633;    4,070;   -1,955
751,398;  426,638;   -0,112;   -0,045
751,967;  850,825;    2,888;    0,409
752,536;  537,285;    1,161;   -0,227
753,105;  629,654;   -1,384;    0,227
753,675;  486,841;   -0,112;    1,773
754,244;  485,209;    0,888;    3,591
754,813;  522,215;    0,979;    1,227
755,382;  484,765;    0,798;    0,955
755,951;  593,589;   -0,112;    3,682
756,520;  702,321;    2,525;    1,864
757,089;  784,599;    1,888;    0,500
757,658;  552,786;    2,434;    1,227
758,227;  411,519;   -1,111;    0,318
758,795;  461,888;   -1,021;    1,136
759,364;  465,529;    0,525;   -0,591
759,933;  413,444;    1,343;   -0,045
760,501;  363,449;    0,252;   -1,318
761,070;  501,454;   -0,293;   -1,409
761,639;  460,187;    1,434;    1,318
762,207;  566,101;    0,889;   -0,955
762,776;  609,743;    2,889;    0,864
763,344;  477,748;    0,071;    0,591
763,913;  325,844;    1,616;    1,409
764,481;  776,304;    1,980;   -0,136
765,049;  781,218;    0,616;    1,409
765,618;  704,042;    1,434;    0,318
766,186;  534,774;    2,434;    0,136
766,754;  580,779;    1,798;    1,864
767,322;  477,694;    1,162;    0,409
767,890;  432,517;    0,525;   -1,773
768,459;  444,977;    2,616;   -0,318
769,027;  629,891;    2,525;    3,409
769,595;  476,896;    2,616;    2,591
770,163;  573,174;    3,344;    2,955
770,730;  529,543;    2,525;   -0,136
771,298;  516,639;    1,162;   -1,409
771,866;  456,099;    0,253;    4,955
772,434;  486,014;    1,162;   -1,864
773,002;  666,928;    2,616;    0,682
773,569;  550,570;    1,071;    1,682
774,137;  648,666;    0,889;   -0,045
774,705;  472,216;   -0,747;   -0,136
775,272;  458,949;    0,253;    0,682
775,840;  468,409;   -0,111;    2,682
776,407;  567,414;   -0,293;    1,955
776,975;  450,601;    1,162;    0,318
777,542;  412,697;    2,162;   -0,045
778,110;  447,975;    0,707;   -0,045
778,677;  346,526;    1,071;   -0,864
779,244;  412,531;   -1,020;    1,045
779,812;  514,536;    0,980;    0,864
780,379;  604,814;    2,435;    1,136
780,946;  504,547;    2,617;   -0,773
781,513;  421,279;   -0,565;    0,318
782,080;  393,648;    1,253;    2,864
782,647;  416,108;    1,708;    3,045
783,214;  403,295;   -0,201;    3,864
783,781;  570,937;    1,708;   -0,682
784,348;  529,578;    0,253;    1,500
784,915;  349,674;   -1,474;    0,318
785,482;  557,225;    2,708;    2,591
786,049;  470,958;    1,071;   -0,591
786,615;  373,417;    1,708;   -0,955
787,182;  349,604;   -3,201;   -0,682
787,749;  329,246;   -2,201;    1,409
788,315;  525,069;    0,253;   -0,409
788,882;  417,166;    0,981;   -1,227
789,448;  682,080;    1,435;   -0,955
790,015;  473,449;    1,799;    3,227
790,581;  632,272;    0,708;    0,227
791,148;  467,368;    1,344;    1,045
791,714;  372,737;   -1,019;    3,136
792,280;  383,924;    3,708;    1,591
792,847;  336,020;   -0,928;    2,500
793,413;  414,662;   -0,110;   -0,318
793,979;  611,667;    1,526;   -1,318
794,545;  850,673;    2,981;    2,682
795,111;  732,496;    2,435;    1,318
795,678;  602,501;    3,526;   -1,682
796,244;  745,870;    2,799;    0,136
796,810;  610,057;    0,799;    0,773
797,375;  588,426;   -0,292;   -2,136
797,941;  325,159;   -1,110;    0,591
798,507;  339,527;    0,254;   -0,955
799,073;  376,624;    2,708;    0,591
799,639;  366,265;    1,435;    3,136
800,205;  342,998;   -1,565;    2,682
800,770;  373,730;    1,345;    1,773
801,336;  382,099;    2,981;   -0,955
801,901;  909,013;    6,072;    3,136
802,467;  595,473;    0,526;    2,045
803,033;  408,115;   -0,019;    0,864
803,598;  397,484;    1,072;   -1,045
804,163;  399,943;    0,708;   -0,318
804,729;  476,040;   -0,110;    1,136
805,294;  391,499;    1,072;    2,227
805,859;  349,505;    0,890;   -0,409
806,425;  694,601;    3,890;    2,682
806,990;  659,424;    1,890;    4,318
807,555;  456,157;   -0,110;    2,591
808,120;  573,071;   -1,292;   -0,409
808,685;  397,258;    1,072;   -2,500
809,250;  334,991;    2,072;   -0,500
809,815;  323,814;   -0,201;    0,682
810,380;  427,001;    0,981;    1,591
810,945;  589,643;    2,890;    2,045
811,510;  440,284;   -0,200;    1,591
812,075;  487,653;    2,800;   -1,409
812,640;  683,749;    3,709;    1,409
813,204;  478,573;    2,163;   -0,227
813,769;  600,942;    0,254;   -0,045
814,334;  596,765;    0,527;    0,864
814,898;  361,952;    1,981;    0,591
815,463;  450,412;    0,981;   -0,773
816,027;  396,599;    1,345;   -2,318
816,592;  335,786;    2,163;   -2,045
817,156;  490,428;   -2,200;    1,136
817,721;  594,615;    0,982;    2,318
818,285;  369,256;    0,618;    1,500
818,849;  416,534;   -0,018;    1,682
819,414;  348,358;    0,073;    2,955
819,978;  308,090;   -0,291;    1,773
820,542;  551,550;    2,891;    0,500
821,106;  408,737;    2,800;    0,682
821,670;  606,833;    2,709;    2,591
822,234;  404,111;    1,073;    1,409
822,798;  320,026;   -0,836;    0,500
823,362;  515,940;    1,527;    4,227
823,926;  396,581;   -0,018;    1,136
824,490;  549,859;    3,527;   -0,682
825,054;  439,047;    2,527;   -1,136
825,618;  354,597;   -1,200;   -1,500
826,181;  407,875;    0,982;   -1,318
826,745;  493,244;   -0,745;   -1,045
827,309;  677,249;    2,255;    1,318
827,872;  558,436;    0,527;    0,955
828,436;  454,351;    1,982;   -0,773
828,999;  374,810;    2,436;    1,227
829,563;  360,816;   -0,654;    1,136
830,126;  339,821;   -0,018;   -0,591
830,690;  448,008;    0,709;    2,864
831,253;  368,468;   -0,473;    2,227
831,816;  402,473;   -0,018;    0,500
832,380;  372,024;    1,164;    0,864
832,943;  346,211;    3,073;   -0,500
833,506;  346,216;    0,255;   -1,227
834,069;  482,767;    2,164;   -0,955
834,632;  347,863;   -2,200;    1,318
835,195;  381,868;    1,346;    0,955
835,758;  341,055;    0,709;    1,955
836,321;  358,697;    1,073;   -1,045
836,884;  331,066;   -1,291;   -0,955
837,447;  285,162;    0,528;    1,773
838,010;  432,531;    1,800;    3,227
838,573;  431,263;    0,528;    0,773
839,135;  315,814;   -0,109;   -0,955
839,698;  377,183;    2,528;    0,409
840,261;  335,461;    0,255;   -0,227
840,823;  300,284;   -0,927;    0,864
841,386;  289,744;   -0,018;   -2,409
841,948;  540,476;    0,255;    1,773
842,511;  361,118;    0,255;    1,682
843,073;  520,942;    2,982;    0,227
843,636;  320,310;    0,619;   -0,227
844,198;  501,225;    1,255;    0,591
844,760;  462,139;    0,619;    1,955
845,322;  296,417;    0,164;    1,136
845,885;  420,422;   -0,290;    0,591
846,447;  370,609;    0,710;    0,227
847,009;  655,887;    3,983;   -0,682
847,571;  415,438;    1,346;   -2,045
848,133;  360,080;   -0,199;   -1,864
848,695;  246,358;    2,346;    1,409
849,257;  310,545;    1,346;   -1,682
849,819;  434,914;    2,983;   -0,409
850,381;  328,919;    1,801;   -0,864
850,942;  374,833;    1,892;   -0,591
851,504;  447,475;    0,983;    0,227
852,066;  333,298;    1,619;   -1,591
852,628;  351,849;    0,165;    1,955
853,189;  280,127;    0,256;    2,682
853,751;  285,405;   -0,654;    1,409
854,312;  399,501;    1,256;   -1,682
854,874;  512,961;   -0,108;   -0,773
855,435;  367,966;    0,528;   -1,682
855,997;  400,244;    3,983;   -0,136
856,558;  499,704;    0,801;    1,773
857,119;  419,527;   -0,744;    2,864
857,681;  288,441;   -0,108;    0,318
858,242;  524,901;    1,347;   -2,136
858,803;  477,270;    1,074;   -0,773
859,364;  374,821;    0,892;   -4,773
859,925;  445,917;   -0,290;   -0,955
860,486;  342,559;    0,529;   -0,955
861,047;  292,837;    0,165;   -1,227
861,608;  328,478;    0,165;   -0,773
862,169;  213,211;   -0,562;   -0,045
862,730;  326,307;   -0,290;    1,409
863,291;  365,221;    0,438;   -0,500
863,852;  337,954;   -0,926;    1,955
864,412;  344,141;   -1,835;   -0,864
864,973;  540,328;    1,892;    0,500
865,534;  619,242;    2,074;    0,227
866,094;  439,793;    2,620;    0,227
866,655;  566,162;    4,711;    3,318
867,215;  404,803;    0,074;    0,136
867,776;  286,536;   -1,199;   -0,136
868,336;  358,359;    1,529;    0,136
868,897;  668,819;    3,438;    1,682
869,457;  484,915;    3,256;    0,318
870,017;  314,829;    2,438;   -1,227
870,578;  314,653;    1,893;    0,773
871,138;  381,931;    2,620;   -0,955
871,698;  316,482;   -0,562;   -1,318
872,258;  401,487;    0,711;   -2,864
872,818;  523,765;    2,347;    0,045
873,378;  381,134;   -2,198;    1,045
873,938;  367,684;    4,984;    0,500
874,498;  282,871;    1,256;   -1,955
875,058;  381,058;    4,347;    1,773
875,618;  373,518;    1,438;   -2,682
876,177;  404,251;   -0,471;    0,136
876,737;  267,347;   -0,289;    1,955
877,297;  572,716;    2,711;    1,955
877,856;  501,539;    2,529;    0,318
878,416;  313,090;    2,438;   -0,136
878,976;  285,004;    3,438;    0,409
879,535;  317,373;    4,529;    3,136
880,095;  300,287;    1,347;    0,045
880,654;  259,929;    0,347;    1,318
881,213;  517,934;    2,347;    1,500
881,773;  380,212;    1,984;    2,682
882,332;  805,672;    6,075;    5,136
882,891;  383,586;    0,711;    2,136
883,451;  363,592;   -2,016;    1,682
884,010;  330,051;   -1,107;   -0,409
884,569;  274,057;   -2,289;   -0,045
885,128;  414,335;   -0,743;   -1,864
885,687;  613,431;   -0,743;    0,682
886,246;  756,072;    2,620;    2,136
886,805;  595,805;    1,620;    2,045
887,364;  317,447;    1,166;   -0,500
887,922;  263,270;   -0,016;    0,045
888,481;  431,730;    1,530;    0,591
889,040;  474,099;    3,711;    2,136
889,599;  381,467;    2,166;    1,409
890,157;  373,655;    2,166;    2,409
890,716;  309,933;    2,166;    0,227
891,274;  414,938;    0,075;   -1,136
891,833;  466,216;    1,166;    0,864
892,391;  376,494;    1,802;    0,500
892,950;  447,135;    0,166;   -0,773
893,508;  293,777;    0,984;   -0,409
894,067;  238,600;   -0,379;    0,136
894,625;  316,606;   -1,016;   -1,500
895,183;  287,247;   -0,198;   -0,682
895,741;  503,889;    2,257;   -1,773
896,299;  346,803;    1,621;   -2,409
896,858;  302,445;    1,530;   -1,591
897,416;  413,995;    0,166;   -1,318
897,974;  349,364;   -2,197;    0,318
898,532;  736,279;    6,530;    2,682
899,089;  479,102;    0,621;   -0,682
899,647;  381,744;    0,530;    1,318
900,205;  368,567;    0,257;    1,045
900,763;  365,845;    2,166;    0,227
901,321;  330,214;    3,530;   -1,409
901,878;  204,219;    3,257;   -0,773
902,436;  276,043;    0,257;    1,318
902,994;  860,048;    6,712;    3,682
903,551;  479,235;    1,439;    0,409
904,109;  366,240;    1,530;   -1,409
904,666;  338,245;    1,439;    1,045
905,224;  253,432;    3,894;   -0,409
905,781;  382,074;   -0,470;   -0,318
906,338;  329,807;    0,167;    1,045
906,895;  248,721;    1,894;    2,045
907,453;  464,362;    2,348;    1,136
908,010;  342,913;    3,348;    0,409
908,567;  337,100;   -0,561;    0,591
909,124;  219,560;    2,439;   -1,500
909,681;  264,838;   -1,288;    0,682
910,238;  295,207;   -0,106;   -1,318
910,795;  226,485;   -1,561;   -1,136
911,352;  233,576;   -0,379;   -2,682
911,909;  267,212;    2,803;   -0,864
912,466;  273,303;    1,985;    1,500
913,022;  365,121;   -0,924;    0,500
913,579;  422,758;   -0,470;    2,045
914,136;  321,212;   -2,561;    0,955
914,692;  320,758;    1,530;   -1,227
915,249;  345,394;    0,530;    0,409
915,806;  390,848;    1,803;    1,955
916,362;  311,121;    0,894;    1,864
916,918;  299,939;    2,439;    1,045
917,475;  390,667;    1,621;    0,955
918,031;  263,485;    0,076;   -0,045
918,587;  326,212;    0,621;   -0,318
919,144;  264,758;   -0,379;    0,227
919,700;  210,394;    0,167;    0,773
920,256;  212,667;    0,439;    0,045
920,812;  257,667;    1,439;   -1,045
921,368;  228,848;    1,348;   -1,045
921,924;  251,667;    0,439;   -0,136
922,480;  319,848;    0,076;    1,227
923,036;  325,121;   -0,652;    1,955
923,592;  251,121;    0,621;    0,318
924,148;  259,030;    1,894;   -0,955
924,704;  361,667;    0,258;   -0,409
925,259;  234,667;   -0,561;    0,591
925,815;  232,848;    3,803;    0,500
926,371;  217,576;    3,530;    1,409
926,926;  341,303;    1,621;    0,591
927,482;  310,758;    1,621;    0,773
928,037;  257,758;   -0,833;    2,045
928,593;  398,758;    0,258;    1,045
929,148;  234,939;    1,167;   -1,500
929,704;  289,848;    2,439;   -0,500
930,259;  240,303;    0,894;   -0,136
930,814;  359,303;    1,803;    1,955
931,369;  310,758;    0,258;   -0,773
931,925;  197,758;   -1,924;    0,136
932,480;  268,667;    3,076;   -2,591
933,035;  507,758;    3,985;   -0,318
933,590;  431,394;   -1,742;   -1,773
934,145;  206,848;   -1,288;   -0,318
934,700;  142,212;    0,348;   -0,591
935,255;  184,121;    4,803;    0,045
935,809;  423,667;    6,258;    0,864
936,364;  185,303;    2,167;   -0,136
936,919;  177,121;    2,348;   -1,773
937,474;  136,576;    1,348;    0,136
938,028;  144,758;    3,076;    1,136
938,583;  429,121;    6,348;    4,682
939,138;  208,303;    0,167;    2,136
939,692;  119,303;   -1,015;   -1,136
940,247;  152,485;    1,167;   -1,045
940,801;  168,212;    0,621;    0,227
941,355;  127,485;    0,439;    2,591
941,910;   91,030;    0,712;   -2,136
942,464;  113,394;    2,712;   -0,318
943,018;  230,485;    3,258;   -0,227
943,572;  153,485;    2,803;   -0,682
944,126;  201,485;   -0,924;   -0,409
944,681;  129,667;    0,712;    0,227
945,235;   91,030;    2,167;   -0,591
945,789;   85,212;    1,258;   -1,864
946,342;  225,485;   -0,561;   -0,591
946,896;  111,212;    0,348;    0,955
947,450;   83,394;   -0,561;   -0,227
948,004;  217,121;    1,076;   -0,045
948,558;  135,394;    1,258;   -0,864
949,111;  124,667;   -1,197;   -0,318
949,665;  206,758;   -0,106;   -0,682
950,219;  196,667;    0,621;   -1,045
950,772;  148,485;    0,258;    1,864
951,326;  138,030;   -1,106;   -0,955
951,879;  119,848;    1,076;   -2,318
952,433;  190,394;    1,348;    2,227
952,986;  112,212;    0,348;    0,682
953,539;   95,212;    1,530;    0,591
954,093;   74,758;    0,985;   -1,318
954,646;  126,030;   -0,288;    1,318
955,199;   85,667;    1,258;   -0,500
955,752;  217,212;    1,985;    1,773
956,305;  129,121;    0,894;    2,955
956,858;  148,394;    0,621;   -0,318
957,411;  176,212;    3,621;    2,136
957,964;  146,939;    2,076;    2,136
958,517;  102,576;    0,985;    3,136
959,070;   77,394;   -1,197;    1,955
959,623;  216,030;    1,076;    1,500
960,176;  188,576;    0,712;    2,045
960,728;  150,848;    1,712;    0,773
961,281;  124,303;    2,258;    0,500
961,834;   95,030;   -0,833;    0,864
962,386;  102,667;    1,258;    1,045
962,939;   91,848;    3,439;   -0,318
963,491;  118,394;    2,621;    1,136
964,043;   85,758;    0,076;    2,409
964,596;  166,848;    1,712;    2,227
965,148;  118,939;   -0,379;    1,773
965,700;   84,030;   -0,015;   -0,227
966,253;  166,576;   -0,833;    0,318
966,805;  136,485;    1,894;    0,773
967,357;  103,485;    0,439;   -1,500
967,909;  151,485;    1,167;   -1,227
968,461;  108,303;    0,894;    3,136
969,013;   86,030;   -1,561;   -0,864
969,565;  168,576;    1,803;   -1,136
970,117;  281,848;    3,803;    1,045
970,669;  167,394;    3,258;   -0,136
971,220;   74,485;    2,167;   -1,500
971,772;  111,394;    1,348;   -0,318
972,324;  152,394;   -1,197;   -0,500
972,876;   93,939;    0,167;   -0,045
973,427;  151,303;   -1,197;   -1,045
973,979;  194,485;    0,076;   -2,500
974,530;  107,576;    0,803;    1,318
975,082;  141,848;    2,167;    1,682
975,633;  113,576;    2,894;    1,682
976,184;  123,939;    2,076;    0,773
976,736;  119,394;    0,348;    0,227
977,287;  139,576;    0,258;   -0,500
977,838;  113,576;   -0,924;   -0,318
978,389;  109,576;    0,803;   -0,500
978,940;   59,939;    1,258;   -0,409
979,491;   62,303;    2,258;   -0,500
980,042;  104,030;   -0,652;    3,045
980,593;  119,939;    1,894;    0,227
981,144;  146,939;    3,530;   -0,500
981,695;  148,485;   -0,470;    1,500
982,246;  132,667;   -1,833;    1,045
982,797;   82,485;   -0,561;    0,682
983,347;  146,030;    2,167;    0,591
983,898;  252,303;    4,167;    0,409
984,449;  238,939;    2,530;    0,773
984,999;  150,030;    1,894;   -1,136
985,550;  129,939;    3,167;   -0,318
986,100;   76,121;    0,712;   -0,318
986,651;   71,485;    0,258;    0,045
987,201;   81,030;    0,894;   -0,591
987,751;   88,394;   -0,288;    2,864
988,302;  102,485;   -0,379;    1,500
988,852;  134,667;    1,985;   -1,136
989,402;  152,667;    0,985;    0,682
989,952;  171,394;    1,621;    0,864
990,502;   97,030;    1,076;    0,682
991,052;   54,394;   -0,106;    0,045
991,602;   77,667;    1,167;    1,318
992,152;  100,667;    2,803;    0,682
992,702;  119,394;    1,167;   -0,045
993,252;   86,121;    0,076;   -0,500
993,802;  132,667;    1,167;    1,318
994,352;  109,758;   -0,742;    1,136
994,901;   71,485;    1,076;    3,227
995,451;   68,212;   -1,197;    0,318
996,000;   82,212;    1,076;    0,318
996,550;   88,394;    2,894;    0,227
997,100;  102,121;   -0,561;   -0,045
997,649;  161,848;   -0,197;    0,955
998,198;   90,303;   -0,288;   -1,500
998,748;  129,394;    0,348;   -2,318
999,297;  101,576;    0,985;   -0,409
999,846;  159,758;    1,894;   -0,773
1000,395;  116,758;    1,530;    0,500
1000,945;  164,848;    1,076;   -0,773
1001,494;  166,121;    0,167;    0,682
1002,043;  169,848;    0,712;    0,864
1002,592;   91,576;    3,439;    1,955
1003,141;   82,303;    2,439;   -0,682
1003,690;  165,394;    1,258;    0,500
1004,238;  106,758;   -0,106;   -0,045
1004,787;   72,030;   -1,288;    1,227
1005,336;  142,121;    1,621;    0,682
1005,885;  116,303;   -0,197;   -2,773
1006,433;  110,212;   -0,470;    0,955
1006,982;  185,303;    2,167;    1,682
1007,531;  127,667;    2,712;   -0,227
1008,079;  112,939;    0,258;    0,500
1008,627;   90,121;    1,621;    0,409
1009,176;  103,758;    0,076;   -1,955
1009,724;   78,030;   -2,742;    0,864
1010,273;  145,212;    1,076;    0,500
1010,821;   90,848;    1,076;    1,409
1011,369;   72,667;    0,076;    1,318
1011,917;   74,303;   -0,833;   -0,591
1012,465;  114,758;    2,530;   -1,591
1013,013;  103,667;    0,439;   -1,682
1013,561;  156,939;   -1,288;   -0,773
1014,109;  197,848;   -0,833;    1,682
1014,657;  137,212;    1,348;    0,591
1015,205;   96,576;    0,894;   -0,955
1015,753;   76,848;    0,258;   -1,409
1016,301;  109,303;    2,621;    3,045
1016,848;  144,485;    2,167;    0,409
1017,396;  127,121;    1,621;    0,045
1017,944;  126,121;    2,621;    1,864
1018,491;   99,939;   -0,197;    1,409
1019,039;  233,394;   -0,652;    0,591
1019,586;  127,030;    0,076;    1,682
1020,134;  117,394;    0,712;    1,500
1020,681;  155,394;    2,894;   -1,136
1021,228;  118,576;   -0,561;   -2,227
1021,776;  100,030;   -0,833;   -1,136
1022,323;  211,394;    0,803;    0,773
1022,870;  153,030;   -0,470;   -0,045
1023,417;  174,303;    2,076;    1,864
1023,964;  109,576;    0,621;    1,227
1024,511;   89,939;   -0,652;    0,773
1025,058;  119,212;    0,439;   -0,045
1025,605;   91,485;   -1,742;    3,136
1026,152;  192,121;   -0,106;   -0,591
1026,699;  114,394;    0,167;    1,318
1027,245;  109,485;    2,439;    0,318
1027,792;   86,667;    0,712;    1,409
1028,339;  194,939;    4,076;   -0,045
1028,885;  122,667;    3,621;   -0,227
1029,432;   99,758;   -0,106;    0,227
1029,978;  136,848;    1,348;   -1,591
1030,525;  150,394;    1,621;    0,409
1031,071;   93,848;    0,348;    1,136
1031,618;  219,212;    1,258;    1,682
1032,164;  144,212;    2,076;    3,045
1032,710;  159,848;    0,076;   -1,500
1033,256;  139,121;    0,712;   -0,136
1033,803;   78,485;   -0,288;    1,500
1034,349;   32,394;    1,803;    0,136
1034,895;   54,576;    2,621;   -0,318
1035,441;   83,848;    0,439;    0,318
1035,987;   98,121;   -2,288;   -0,682
1036,533;  125,121;   -0,197;   -0,955
1037,078;  240,758;    4,712;    1,682
1037,624;  164,030;    2,439;   -0,955
1038,170;   93,758;    1,712;   -0,318
1038,716;  133,667;    2,167;   -0,409
1039,261;   82,939;    2,167;   -0,773
1039,807;   89,303;   -0,015;    3,409
1040,352;   96,758;   -1,288;   -0,318
1040,898;   91,394;    0,167;   -0,682
1041,443;   66,212;    0,803;   -2,591
1041,989;  213,394;    3,621;    1,591
1042,534;  120,576;    0,985;    2,591
1043,079;   64,030;    1,985;    0,955
1043,625;  102,939;    0,258;    0,500
1044,170;  109,939;    2,439;    1,045
1044,715;  202,394;    0,167;    0,955
1045,260;  154,576;   -0,833;   -0,955
1045,805;   86,121;    0,258;   -0,591
1046,350;   77,121;    0,530;   -0,409
1046,895;  159,485;    0,803;    1,591
1047,440;  141,758;    1,530;    0,409
1047,985;   91,303;   -1,197;   -0,955
1048,530;   80,394;    1,348;    1,227
1049,074;   97,485;    2,803;    0,318
1049,619;   77,303;   -0,924;    1,955
1050,164;   76,303;    1,076;    0,227
1050,708;  128,303;    2,621;    0,045
1051,253;  237,212;    3,258;   -2,227
1051,797;  137,121;   -0,197;   -1,318
1052,342;   67,121;    1,348;    1,045
1052,886;   97,758;    1,803;   -1,409
1053,430;   62,030;    2,167;    0,136
1053,975;  106,576;    0,894;   -0,318
1054,519;   98,121;    1,803;    3,227
1055,063;  127,394;    3,621;    1,318
1055,607;  117,758;    1,348;    0,227
1056,151;  117,485;    0,530;    1,682
1056,695;   85,485;   -1,833;   -1,136
1057,239;   81,030;   -1,197;   -0,682
1057,783;   95,939;    2,258;   -1,500
1058,327;  132,121;    3,076;    1,409
1058,871;  213,212;    3,985;    1,318
1059,415;  148,303;   -0,561;   -0,045
1059,958;  206,303;    2,985;    2,591
1060,502;   87,030;    1,348;   -0,773
1061,046;   56,121;    1,712;   -0,955
1061,589;   58,758;    2,803;   -1,136
1062,133;   49,030;    0,985;    1,864
1062,676;   69,576;    1,439;    0,864
1063,220;   75,576;    0,985;    0,500
1063,763;   88,394;    2,985;    1,136
1064,306;   89,758;    0,985;    1,864
1064,849;   97,121;    2,076;    0,591
1065,393;   88,212;    2,894;   -1,500
1065,936;   90,485;    2,530;   -0,409
1066,479;   63,394;    2,621;    1,318
1067,022;   71,939;    1,894;   -0,227
1067,565;   60,485;   -1,197;   -1,318
1068,108;   53,030;    1,258;   -0,591
1068,651;   46,758;   -2,470;    1,409
1069,194;   43,394;   -1,106;   -1,682
1069,736;   49,758;    3,803;    0,955
1070,279;   46,030;   -1,652;   -0,500
1070,822;   77,939;    1,530;   -0,318
1071,364;  132,303;    0,530;    1,318
1071,907;   76,121;    0,348;    3,227
1072,450;   23,212;    0,258;   -0,045
1072,992;   47,848;   -0,561;    3,136
1073,535;   69,667;    0,167;    2,136
1074,077;   48,848;    2,985;    2,045
1074,619;   35,121;    0,985;    0,591
1075,161;   56,848;   -0,561;    1,500
1075,704;  111,030;    0,258;    1,227
1076,246;   60,030;    1,530;    0,682
1076,788;   36,485;   -1,015;    1,773
1077,330;   38,030;   -2,106;    2,136
1077,872;   49,303;   -1,924;    0,955
1078,414;  121,212;    3,712;    0,773
1078,956;   63,121;    0,167;   -0,227
1079,498;  110,939;    0,439;    0,318
1080,040;   59,212;    0,985;   -1,318
1080,581;   47,939;    0,621;   -0,318
1081,123;   27,848;   -0,106;   -0,773
1081,665;   30,758;    3,803;   -0,955
1082,206;  107,485;    3,258;   -0,500
1082,748;   68,303;    3,258;    2,045
1083,289;   35,485;    0,167;    1,318
1083,831;   30,030;    0,258;    0,227
1084,372;   48,758;    0,894;    0,591
1084,913;   46,758;    3,348;    0,864
1085,455;   33,030;    1,530;   -2,045
1085,996;   23,121;    0,530;    0,136
1086,537;   28,030;    0,985;    0,864
1087,078;   39,485;    0,439;   -2,136
1087,619;   64,758;   -1,652;    0,227
1088,160;   50,303;    1,439;    1,318
1088,701;   43,939;   -0,742;    0,682
1089,242;   40,121;   -0,561;   -2,227
1089,783;   55,121;   -0,561;    1,409
1090,324;   44,758;   -0,833;    0,682
1090,865;   30,848;   -1,924;   -0,409
1091,405;   26,394;   -0,561;    2,227
1091,946;   41,121;   -0,197;   -0,955
1092,487;   23,121;   -1,288;   -1,409
1093,027;   58,212;    1,803;   -1,500
1093,568;   34,667;    2,258;    1,227
1094,108;   46,485;    0,621;    1,773
1094,649;   38,576;   -0,470;    0,136
1095,189;   26,030;    1,167;   -0,682
1095,729;   24,939;    0,712;    0,955
1096,269;   23,030;    1,258;   -0,955
1096,810;   76,939;   -0,197;    0,500
1097,350;   52,667;   -0,561;   -0,773
1097,890;   34,758;    2,985;    1,227
1098,430;  103,667;    4,985;    2,864
1098,970;   76,121;    1,894;    1,682
1099,510;   33,394;   -0,833;   -2,318
1100,050;   27,394;    0,258;   -1,591
1100,589;   33,576;    0,076;   -0,318
1101,129;   49,939;    0,894;   -0,955
1101,669;   77,121;    2,803;    2,136
1102,209;   50,939;    1,530;    2,227
1102,748;   36,212;    3,439;    0,955
1103,288;   39,758;    0,712;   -1,227
1103,827;   35,212;    3,530;   -2,227
1104,367;   24,030;    1,712;   -2,409
1104,906;   26,212;   -1,015;   -1,136
1105,445;   39,303;    0,985;   -1,136
1105,985;   29,485;   -0,652;    1,500
1106,524;   36,758;    1,530;   -0,682
1107,063;   32,485;    1,167;    1,409
1107,602;   22,121;    1,894;   -1,500
1108,141;   19,121;    1,621;    1,500
1108,680;   40,030;    3,985;   -0,591
1109,219;   31,667;    0,167;   -0,500
1109,758;   27,939;    4,167;    0,682
1110,297;   26,394;   -1,106;   -0,682
1110,836;   19,212;    1,439;    0,955
1111,375;   20,121;    0,348;    0,409
1111,913;   41,394;    0,985;    0,773
1112,452;   32,212;    0,894;    0,136
1112,991;   19,212;    1,076;    1,955
1113,529;   18,576;    0,167;   -0,045
1114,068;   22,758;    0,439;    2,955
1114,606;   16,485;   -0,561;   -0,955
1115,144;   32,576;    1,530;    1,045
1115,683;   26,576;    1,985;    0,318
1116,221;   39,121;    2,076;   -0,864
1116,759;   23,212;    1,621;   -0,864
1117,297;   42,394;    1,621;    1,864
1117,836;   23,485;    1,985;   -1,227
1118,374;   22,576;    0,258;   -0,682
1118,912;   26,667;    0,439;    2,682
1119,450;   25,030;    0,985;    0,864
1119,988;   23,576;    3,348;    2,136
1120,525;  137,212;    7,258;    3,318
1121,063;   59,394;    0,530;    1,864
1121,601;   24,485;    1,076;   -1,227
1122,139;   17,303;    1,076;   -2,045
1122,676;   51,485;   -1,652;    2,773
1123,214;   45,303;    0,712;    4,409
1123,751;   18,667;    0,621;    2,227
1124,289;   26,121;    0,894;   -0,409
1124,826;   20,303;   -0,379;    0,227
1125,364;   11,121;    0,712;   -0,955
1125,901;   50,667;    6,258;    1,227
1126,438;   40,667;    3,530;    0,955
1126,975;    8,394;    2,985;   -0,773
1127,513;   14,848;    2,621;    2,136
1128,050;    9,667;   -0,561;   -0,682
1128,587;   17,121;    1,348;   -0,227
1129,124;   25,576;   -0,015;    1,318
1129,661;   15,030;   -1,924;    0,227
1130,198;   38,758;    2,439;    0,773
1130,734;   24,576;   -0,379;    1,409
1131,271;   10,121;   -1,197;    0,864
1131,808;   30,030;    1,621;    3,045
1132,345;   16,212;    4,530;    0,318
1132,881;    3,303;   -0,561;   -1,864
1133,418;   17,576;    0,348;   -1,136
1133,954;   13,939;    0,712;   -2,682
1134,491;   22,939;    1,712;   -0,773
1135,027;   11,848;    2,167;    0,864
1135,564;   18,485;    1,439;    2,955
1136,100;   18,121;   -0,742;    2,136
1136,636;    7,848;   -1,015;   -1,045
1137,172;   14,212;    0,894;   -1,045
1137,708;   10,212;   -1,561;   -1,045
1138,245;    7,121;    0,803;   -1,227
1138,781;    4,758;    1,803;   -3,318
1139,317;    9,121;    1,894;   -1,409
1139,852;   13,667;    3,076;    0,136
1140,388;   20,485;    2,076;   -0,409
1140,924;   12,030;    1,076;   -2,227
1141,460;    4,303;   -0,288;    0,136
1141,996;    2,485;   -0,652;    2,682
1142,531;    5,394;    1,076;    3,318
1143,067;   27,758;    1,167;    1,045
1143,602;   38,121;    3,439;   -0,318
1144,138;   17,939;    0,803;    1,045
1144,673;   10,030;    1,621;    1,409
1145,209;    8,485;    2,894;   -0,318
1145,744;    5,121;    0,803;    0,864
1146,279;   15,394;    1,530;   -0,136
1146,815;    8,576;    1,530;   -2,682
1147,350;   13,758;   -0,924;    0,045
1147,885;    4,758;   -1,924;   -1,318
1148,420;    7,758;    2,439;    0,773
1148,955;    5,939;   -1,470;    1,864
1149,490;    6,303;   -1,106;   -1,591
1150,025;    3,030;   -1,106;   -1,773
1150,560;   12,485;   -0,288;   -0,955
1151,094;    9,939;    0,258;   -0,591
1151,629;   12,121;   -3,742;    0,864
1152,164;    8,758;   -1,288;    1,318
1152,698;    3,848;    1,258;   -0,136
1153,233;    0,848;   -1,379;   -0,682
1153,767;    2,394;   -0,288;   -2,318
1154,302;    6,758;   -0,379;    1,773
1154,836;   10,939;    0,803;   -2,136
1155,371;    8,939;    2,258;    3,682
1155,905;    1,758;    1,985;    1,682
1156,439;    5,394;    0,530;   -0,500
1156,973;    9,576;    0,439;    0,318
1157,507;    6,394;   -1,742;    0,682
1158,042;   10,121;   -0,652;    1,045
1158,576;   11,394;   -0,561;    1,773
1159,110;    9,939;    0,076;    2,409
1159,643;    4,303;   -2,470;   -0,045
1160,177;    2,030;   -2,015;    1,500

