
Integration time [ms]:   0,050
Averaging Nr. [scans]: 11
Smoothing Nr. [pixels]: 0
Data measured with spectrometer [name]: 7318044SP
Wave   ;Sample   ;Dark     ;Reference
[nm]   ;[counts] ;[counts] ;[counts] 

186,757;   -0,571;   38,161;    1,318
187,357;    4,828;   26,706;    0,955
187,958;   -3,165;   17,252;   -1,591
188,558;    4,243;   12,979;   -1,227
189,159;   -0,348;   10,070;   -4,500
189,759;   -4,169;    5,797;   -3,591
190,360;   -1,351;    6,797;   -2,136
190,960;    1,100;    5,706;   -4,136
191,560;    7,532;    2,614;   -6,591
192,161;   53,559;    5,885;   -3,500
192,761;   26,519;    5,520;   -3,227
193,361;   15,389;    3,065;   -3,773
193,962;   20,076;    1,612;   -2,682
194,562;    7,795;   -0,114;   -3,955
195,162;    5,062;   -0,567;   -2,227
195,762;   31,186;    2,433;   -0,045
196,362;   19,575;    1,706;   -2,500
196,963;    4,248;    1,706;   -0,864
197,563;   12,791;    1,252;   -0,955
198,163;    3,319;   -0,111;   -0,682
198,763;    6,557;   -0,020;   -0,500
199,363;   18,381;    3,616;   -0,500
199,963;   10,903;    2,162;    0,409
200,563;   10,658;    6,344;   -1,409
201,163;    6,601;    5,435;   -0,227
201,763;    9,318;    1,435;    0,318
202,363;    6,336;    0,980;    1,500
202,963;   10,917;    1,526;    1,045
203,563;   20,531;    0,344;    0,500
204,162;   12,084;    1,889;   -1,864
204,762;   10,357;    2,071;    0,591
205,362;    6,593;    0,708;    1,955
205,962;    9,326;    3,435;    1,955
206,562;    8,211;    1,889;    2,318
207,161;    7,833;    1,708;    0,318
207,761;   25,666;    4,435;    2,409
208,361;   12,634;    1,889;    1,409
208,960;   15,838;    2,889;    1,500
209,560;   12,272;    0,435;    1,591
210,160;   19,697;    5,071;    1,864
210,759;   13,950;    0,708;    1,227
211,359;   11,485;   -0,474;    1,045
211,958;   47,158;    3,526;    2,045
212,558;   44,418;    0,799;    1,864
213,157;   19,536;   -0,929;    1,500
213,757;   74,225;    5,617;   -0,227
214,356;   34,919;    1,708;   -0,409
214,956;   71,858;    3,526;    0,409
215,555;   28,781;    0,617;    2,136
216,154;   14,054;   -0,292;   -0,591
216,754;   15,141;    1,253;    0,773
217,353;   20,824;   -0,383;   -1,045
217,952;    5,915;    2,072;    0,318
218,552;   30,372;    0,254;   -0,773
219,151;   17,034;   -1,110;    0,955
219,750;   13,075;    0,890;   -0,227
220,349;   12,564;   -2,292;    1,045
220,948;   39,775;    1,163;    1,136
221,548;   19,541;    0,617;    1,227
222,147;   23,622;   -1,292;   -0,409
222,746;   60,678;    1,254;   -0,955
223,345;   35,870;   -1,019;    0,500
223,944;   39,284;    1,163;    0,773
224,543;   44,620;    4,072;   -1,409
225,142;   28,275;    1,345;    0,136
225,741;   37,298;    1,163;    1,045
226,340;   39,309;    1,254;   -0,955
226,939;   72,982;    2,708;   -0,136
227,538;   37,656;    1,163;   -0,773
228,137;   82,782;    0,435;    0,864
228,735;   67,053;    0,435;    1,227
229,334;   24,867;   -0,474;   -0,227
229,933;   99,327;    0,799;    0,591
230,532;   97,393;   -1,201;   -0,409
231,131;  131,104;    1,253;    0,318
231,729;   76,771;    1,163;   -2,318
232,328;   53,764;    0,435;   -1,500
232,927;   67,454;    4,526;   -0,500
233,525;   60,452;    0,981;    0,045
234,124;   79,301;    1,890;   -1,591
234,723;   52,864;    1,617;   -1,045
235,321;   43,169;    1,163;    0,136
235,920;   57,046;    2,526;   -1,227
236,518;  132,988;    1,072;    0,318
237,117;   65,088;    2,890;   -0,227
237,715;   82,959;    1,163;   -0,500
238,314;   93,672;    1,708;   -2,318
238,912;  154,400;    0,526;   -1,409
239,510;  111,119;    1,162;   -1,227
240,109;  170,893;   -0,474;    3,773
240,707;  152,084;   -0,474;    1,227
241,305;   76,282;   -0,383;    0,136
241,904;  116,645;   -0,292;   -2,045
242,502;  190,652;    3,253;   -0,227
243,100;  131,501;    3,344;   -0,955
243,698;   90,736;    2,799;    1,682
244,297;  112,778;   -0,656;    0,682
244,895;  105,529;   -0,474;   -2,318
245,493;  200,458;    2,981;   -0,591
246,091;  212,540;    5,163;   -1,318
246,689;  159,992;    2,163;    0,591
247,287;  145,080;   -0,019;   -1,136
247,885;  123,577;   -1,019;    1,227
248,483;  103,078;   -0,201;   -0,500
249,081;  156,525;    0,981;    1,591
249,679;  169,517;   -1,019;    1,682
250,277;  109,562;   -2,292;    0,864
250,875;  176,139;    0,617;   -1,045
251,473;  117,091;   -0,019;    0,500
252,071;  178,168;   -0,383;    1,045
252,669;  130,466;   -1,565;    0,318
253,267;  101,628;    1,618;    0,773
253,864;  134,535;    0,617;    0,682
254,462;  209,480;    1,526;    1,591
255,060;  103,196;    0,072;    1,318
255,658;  101,102;   -3,292;   -0,136
256,255;  136,533;   -0,201;   -2,045
256,853;  170,486;    2,345;    1,409
257,451;  140,908;    1,981;    1,864
258,048;  394,261;    2,072;    1,864
258,646;  224,387;    0,436;   -1,045
259,243;  282,304;    2,981;    2,227
259,841;  202,285;    1,799;    0,318
260,438;  120,124;    0,254;    0,864
261,036;  192,236;    0,617;    1,409
261,633;  131,561;    1,526;    2,227
262,231;  108,006;   -0,110;   -0,045
262,828;  110,585;   -0,383;    1,136
263,425;  139,803;   -1,928;   -0,591
264,023;  135,833;    1,436;    0,045
264,620;  215,564;    1,526;   -0,318
265,217;  299,559;    2,890;    3,136
265,815;  152,703;    2,527;    2,136
266,412;  211,926;    0,072;    0,136
267,009;  209,088;    0,526;    0,773
267,606;  261,387;    0,345;   -0,955
268,203;  161,517;   -0,383;   -0,591
268,801;  174,010;   -0,474;    0,591
269,398;  128,311;   -0,564;    2,500
269,995;  217,494;    0,890;    1,591
270,592;  179,959;    0,799;   -0,500
271,189;  127,948;    1,981;    0,409
271,786;  117,806;    2,072;    1,227
272,383;  253,876;   -0,383;    0,227
272,980;  174,819;    1,617;    0,318
273,577;  151,206;    2,162;    1,227
274,174;  132,852;    1,435;    2,591
274,771;  210,011;    1,890;   -0,773
275,367;  472,659;    3,253;    1,409
275,964;  318,867;   -0,565;   -0,500
276,561;  192,926;   -2,474;   -1,045
277,158;  130,699;    1,799;   -1,773
277,755;  297,252;   -0,110;    0,409
278,351;  227,566;    0,436;   -1,500
278,948;  260,795;   -0,201;    0,045
279,545;  226,589;    0,527;    2,318
280,141;  332,900;    1,254;   -2,045
280,738;  330,461;    2,435;   -0,136
281,334;  193,766;   -0,383;    0,591
281,931;  191,289;    2,890;   -1,318
282,528;  268,370;    4,072;   -0,500
283,124;  314,207;    3,345;   -0,500
283,721;  298,917;    0,709;    1,409
284,317;  218,110;    0,163;    2,500
284,913;  327,102;   -0,110;    0,591
285,510;  481,102;    2,890;   -0,318
286,106;  354,529;    2,345;   -0,955
286,703;  236,152;    0,072;    1,955
287,299;  195,831;    1,254;   -0,591
287,895;  195,929;    0,890;   -1,045
288,491;  183,311;    0,163;    2,136
289,088;  250,511;    0,163;    2,409
289,684;  277,193;    2,890;    1,500
290,280;  371,985;    1,890;    0,682
290,876;  331,561;    0,163;    5,500
291,472;  283,245;    2,163;    2,227
292,068;  291,169;    1,254;    0,227
292,665;  216,376;   -0,564;    0,773
293,261;  156,861;   -1,292;    2,136
293,857;  274,799;    4,072;    2,136
294,453;  218,961;   -0,928;    0,955
295,049;  361,120;    0,253;    1,955
295,644;  248,633;   -1,292;    0,136
296,240;  165,869;    0,162;   -0,136
296,836;  235,096;   -0,747;    0,318
297,432;  327,695;    2,980;   -0,500
298,028;  337,333;    0,435;    0,773
298,624;  250,466;    0,889;    1,864
299,220;  242,628;    0,435;    0,591
299,815;  230,654;    0,526;   -0,409
300,411;  295,393;    0,435;    1,773
301,007;  360,872;    1,889;    0,227
301,602;  250,917;    2,071;   -2,318
302,198;  338,124;    1,435;   -0,773
302,794;  240,984;    1,526;   -0,500
303,389;  196,263;    1,071;    1,045
303,985;  225,178;    1,253;    1,409
304,580;  323,891;    0,889;    1,591
305,176;  259,847;    0,344;    0,136
305,771;  167,684;   -0,929;   -1,227
306,367;  449,153;    3,071;    0,136
306,962;  290,008;    2,889;    1,500
307,558;  328,916;    2,435;    0,136
308,153;  343,031;   -0,383;   -1,136
308,748;  218,108;    0,162;    1,682
309,344;  468,245;    0,253;   -1,318
309,939;  463,590;    2,071;   -1,318
310,534;  259,872;   -2,020;   -1,682
311,130;  241,657;   -0,656;   -2,500
311,725;  214,219;    0,526;   -0,500
312,320;  243,375;    1,253;    0,045
312,915;  313,965;    2,890;   -1,045
313,510;  472,495;    0,526;   -0,500
314,105;  272,517;   -3,565;    1,409
314,700;  177,261;   -1,656;   -1,045
315,295;  235,437;   -0,020;    0,045
315,890;  199,913;   -0,292;    0,864
316,485;  270,405;    0,253;   -0,318
317,080;  212,012;   -0,929;    1,591
317,675;  435,105;    3,071;   -0,682
318,270;  604,316;    6,889;    3,318
318,865;  498,587;    2,435;    3,045
319,460;  364,917;   -1,565;    0,591
320,055;  248,203;   -2,565;   -1,227
320,650;  250,465;   -1,838;   -0,591
321,244;  252,759;    0,889;   -1,409
321,839;  258,358;    0,980;   -0,227
322,434;  299,557;   -0,111;   -1,591
323,029;  244,327;   -0,474;    1,591
323,623;  222,472;    0,798;    0,773
324,218;  361,585;    2,707;    1,409
324,812;  310,623;    0,889;    1,591
325,407;  304,553;   -0,929;    2,045
326,002;  409,284;    0,526;   -0,409
326,596;  359,436;   -0,656;    1,318
327,191;  236,819;   -0,383;   -1,045
327,785;  234,800;   -0,747;   -0,227
328,379;  240,910;   -0,383;    0,136
328,974;  278,366;    1,798;   -3,955
329,568;  301,535;    2,889;   -2,409
330,163;  362,241;    2,435;    1,045
330,757;  242,047;    0,253;    1,591
331,351;  196,480;   -0,292;    0,682
331,945;  191,073;   -0,383;    1,409
332,540;  286,845;    1,617;   -0,591
333,134;  274,142;    3,344;    0,773
333,728;  279,481;    2,799;    0,318
334,322;  201,180;    0,889;   -0,864
334,916;  194,437;    0,344;    0,955
335,510;  320,203;   -0,111;   -0,136
336,105;  303,637;   -0,929;    1,591
336,699;  223,579;   -1,292;    0,591
337,293;  252,614;    1,071;    0,318
337,887;  209,194;    0,071;    1,955
338,481;  307,298;    2,980;    0,591
339,074;  379,435;    2,071;    2,682
339,668;  370,515;   -0,110;    1,227
340,262;  808,145;    7,708;    3,227
340,856;  484,003;    1,708;   -0,682
341,450;  249,566;    0,708;    1,864
342,044;  298,705;    1,799;    0,136
342,637;  385,075;    1,162;   -2,136
343,231;  355,364;   -1,474;    0,682
343,825;  290,304;   -0,747;   -0,591
344,419;  277,722;   -0,474;    0,500
345,012;  692,340;    2,889;    4,045
345,606;  519,963;   -0,656;    1,591
346,199;  285,301;   -0,111;   -0,227
346,793;  370,107;    2,525;    2,045
347,386;  237,075;    0,889;   -1,136
347,980;  171,901;   -0,838;   -0,045
348,573;  236,594;   -1,748;    0,409
349,167;  472,647;    6,161;    4,773
349,760;  358,470;    2,252;    2,682
350,354;  329,008;    1,616;    1,136
350,947;  353,326;    2,798;    1,682
351,540;  274,231;    0,616;   -1,409
352,134;  183,198;   -1,111;    1,136
352,727;  193,436;   -0,657;    1,136
353,320;  208,754;    2,343;    0,591
353,913;  162,949;   -1,929;    1,864
354,507;  309,778;    0,434;   -1,227
355,100;  223,856;    0,071;    0,864
355,693;  545,415;    4,798;    2,409
356,286;  349,923;    0,980;    2,773
356,879;  243,201;   -0,475;    1,227
357,472;  242,117;    0,980;    1,500
358,065;  276,083;    3,161;    2,500
358,658;  171,835;    0,798;    2,318
359,251;  153,112;    0,252;   -0,591
359,844;  275,804;    0,343;   -1,136
360,437;  327,769;    0,252;    0,045
361,030;  211,475;    0,525;   -0,682
361,623;  224,419;    0,434;    0,318
362,215;  402,532;    0,979;    2,045
362,808;  273,454;   -2,293;   -1,682
363,401;  216,584;    0,798;    0,136
363,994;  387,110;    3,252;   -1,500
364,586;  237,777;    0,888;   -1,500
365,179;  201,558;   -0,203;   -1,136
365,772;   97,336;   -0,930;    2,045
366,364;  201,670;    1,524;   -3,227
366,957;  245,847;    1,342;   -0,045
367,549;  212,277;   -0,203;   -0,864
368,142;  221,588;    0,978;   -1,500
368,734;  199,574;    2,523;   -2,136
369,327;  153,080;    2,341;   -0,500
369,919;  180,919;   -1,659;    0,409
370,512;  195,365;   -1,023;   -0,500
371,104;  404,820;    2,704;    1,591
371,696;  419,515;    1,703;   -0,955
372,289;  299,110;    0,157;    1,136
372,881;  253,326;    1,156;    1,318
373,473;  175,677;    4,064;    1,136
374,066;  240,948;    1,336;    0,500
374,658;  222,833;    0,879;    1,136
375,250;  182,014;   -1,668;   -1,409
375,842;  215,589;   -0,124;   -0,045
376,434;  182,908;   -2,762;   -0,409
377,026;  180,350;   -1,855;   -2,500
377,618;  218,997;    0,779;   -0,682
378,210;  179,705;    3,141;   -1,955
378,802;  175,916;    3,412;   -0,591
379,394;  471,006;    3,411;    0,682
379,986;  286,527;    1,138;   -0,955
380,578;  208,194;    1,410;    0,773
381,170;  390,944;    0,320;    0,045
381,762;  316,306;   -0,224;    1,409
382,354;  272,779;   -0,223;   -1,318
382,945;  206,622;    0,870;    0,318
383,537;  167,598;    1,144;   -1,955
384,129;  161,665;    0,963;   -1,136
384,721;  248,239;    0,418;    0,955
385,312;  206,685;   -1,399;   -0,955
385,904;  269,621;   -0,945;    1,591
386,496;  219,822;    0,691;    1,045
387,087;  336,331;    0,418;    2,500
387,679;  282,088;   -0,401;    0,045
388,270;  253,767;   -2,401;    2,045
388,862;  241,529;   -0,401;   -0,318
389,453;  235,326;    1,054;    1,045
390,045;  238,325;    3,236;   -2,682
390,636;  160,268;    0,144;   -0,591
391,227;  207,885;    2,054;   -0,045
391,819;  191,193;    0,781;    0,773
392,410;  397,879;    0,600;    0,045
393,001;  233,211;    1,600;   -1,591
393,593;  276,606;    0,600;   -0,045
394,184;  319,215;    0,873;   -0,409
394,775;  227,127;    1,146;    2,136
395,366;  172,960;    1,782;    0,773
395,957;  316,066;   -2,400;    0,136
396,548;  227,211;    1,054;    2,682
397,139;  331,491;    2,236;    0,591
397,730;  257,773;    0,873;    0,955
398,321;  264,278;    0,509;    0,955
398,912;  218,204;   -0,764;    0,136
399,503;  218,746;   -1,945;   -1,409
400,094;  256,599;   -1,582;    1,682
400,685;  247,179;    3,600;    0,045
401,276;  210,071;   -0,400;   -0,955
401,867;  196,839;   -1,127;    0,773
402,458;  168,339;    1,509;   -2,318
403,048;  283,217;    0,146;    0,591
403,639;  237,697;    1,509;    0,864
404,230;  326,313;    0,691;    0,318
404,821;  376,837;   -0,127;    0,045
405,411;  292,876;   -0,763;   -2,591
406,002;  220,858;    3,237;   -1,136
406,592;  415,547;    2,691;    0,045
407,183;  291,799;    0,328;   -1,500
407,774;  272,407;    1,419;   -0,136
408,364;  235,206;    2,600;    0,409
408,954;  328,319;   -0,036;    1,227
409,545;  334,585;    1,873;    1,045
410,135;  295,462;   -1,581;    0,500
410,726;  247,659;    0,783;    0,318
411,316;  410,401;    2,237;    0,773
411,906;  276,448;    0,146;   -0,409
412,497;  288,371;   -0,490;   -0,045
413,087;  244,831;    0,783;   -0,227
413,677;  186,023;   -2,490;    3,864
414,267;  181,014;   -1,035;    1,409
414,857;  163,572;    0,419;    4,227
415,448;  170,388;   -0,763;    0,500
416,038;  195,853;   -2,945;   -0,591
416,628;  230,472;    0,965;    0,409
417,218;  274,409;   -1,762;    3,318
417,808;  410,604;    0,965;   -0,409
418,398;  305,243;   -1,035;    2,682
418,988;  208,980;   -2,217;    0,591
419,578;  299,944;    3,601;    1,409
420,168;  245,543;    0,692;   -0,955
420,757;  365,479;    0,964;   -1,500
421,347;  260,935;    1,601;   -0,227
421,937;  235,384;    3,329;    1,409
422,527;  362,866;    2,602;   -0,773
423,116;  495,241;    2,692;   -0,045
423,706;  243,450;    2,965;    0,318
424,296;  204,264;    1,601;    0,682
424,885;  324,537;    1,510;   -3,045
425,475;  294,023;    1,147;   -2,864
426,065;  205,110;   -1,489;   -0,318
426,654;  186,197;    0,329;   -0,318
427,244;  436,304;    1,147;    1,409
427,833;  397,108;    1,056;   -0,500
428,423;  273,992;    0,147;    1,136
429,012;  284,958;    2,420;   -1,136
429,601;  398,442;    2,057;    0,136
430,191;  304,570;    2,511;    4,318
430,780;  209,086;   -1,671;   -0,409
431,369;  375,353;    1,329;   -0,045
431,959;  284,274;    1,693;    0,500
432,548;  223,735;   -1,398;   -0,045
433,137;  167,488;    0,329;   -1,318
433,726;  245,923;    0,148;    0,500
434,315;  269,487;    0,148;    2,409
434,905;  370,117;    0,693;    1,409
435,494;  363,712;    3,148;    0,955
436,083;  245,842;    1,420;   -0,955
436,672;  331,049;    1,148;    0,500
437,261;  280,367;    0,512;   -1,955
437,850;  498,619;   -1,125;    0,682
438,439;  552,605;    2,239;    1,955
439,027;  668,985;    3,421;    1,773
439,616;  581,573;    2,239;    1,227
440,205;  365,714;    0,057;   -2,136
440,794;  313,129;   -0,306;   -0,045
441,383;  246,363;    1,603;   -0,591
441,971;  215,172;   -0,306;    0,591
442,560;  233,769;    0,603;   -1,773
443,149;  112,634;    3,060;   -1,318
443,737;  182,475;    0,968;   -2,318
444,326;  215,684;    0,331;    0,318
444,915;  264,765;   -1,851;    0,864
445,503;  276,561;    0,058;   -0,318
446,092;  544,486;    7,876;    2,136
446,680;  476,427;    1,876;    0,318
447,269;  379,536;   -1,487;   -0,318
447,857;  357,760;    2,240;   -1,773
448,445;  308,957;    2,149;    1,318
449,034;  254,945;    0,876;   -1,136
449,622;  258,038;    1,240;    3,500
450,210;  549,310;    3,149;    2,227
450,799;  462,416;    2,604;   -0,591
451,387;  409,161;    1,786;   -0,591
451,975;  397,138;   -1,305;    0,864
452,563;  479,735;    0,422;    2,318
453,151;  288,433;   -1,032;   -1,227
453,739;  340,518;   -1,577;    0,136
454,328;  452,490;    0,604;   -2,136
454,916;  373,524;    1,150;   -0,136
455,504;  394,130;    3,513;    1,227
456,092;  281,376;    2,150;   -1,591
456,679;  235,654;    0,604;    0,682
457,267;  701,515;    3,604;    1,045
457,855;  348,266;    3,241;    1,409
458,443;  181,408;   -0,304;    1,682
459,031;  363,376;    1,332;    2,409
459,619;  322,894;   -3,577;    2,864
460,206;  222,550;   -0,759;    2,045
460,794;  225,398;   -0,668;   -0,227
461,382;  274,825;    0,878;   -0,864
461,970;  268,096;    0,605;    1,864
462,557;  201,002;    0,878;   -0,682
463,145;  338,887;   -0,304;   -1,682
463,732;  601,682;    2,514;   -1,045
464,320;  346,915;    1,514;   -3,045
464,907;  499,531;    0,423;   -0,773
465,495;  391,813;    2,696;   -1,227
466,082;  312,000;    2,060;   -0,045
466,670;  329,736;    2,605;    1,227
467,257;  223,120;    0,060;    2,045
467,844;  342,958;    1,514;    0,045
468,432;  314,603;   -0,031;    3,500
469,019;  266,480;    1,606;   -1,773
469,606;  357,809;    0,969;    3,682
470,193;  386,429;    2,151;    0,227
470,780;  333,004;    0,333;    0,864
471,368;  259,952;   -1,212;   -0,773
471,955;  374,387;    1,060;   -0,682
472,542;  325,170;   -0,303;   -1,136
473,129;  204,945;   -0,485;    0,136
473,716;  213,929;    0,060;    0,591
474,303;  251,934;    1,333;   -0,864
474,890;  257,124;    2,333;   -0,500
475,477;  368,332;   -0,576;    0,409
476,064;  259,029;    0,697;   -1,591
476,650;  392,702;    2,152;    0,318
477,237;  298,066;    1,879;    0,955
477,824;  278,715;    3,879;    0,864
478,411;  181,889;    0,606;   -0,318
478,997;  180,574;    0,606;   -0,773
479,584;  123,181;   -0,666;   -0,409
480,171;  330,883;    1,243;   -0,773
480,757;  394,395;   -0,848;    0,773
481,344;  271,978;    0,334;    0,409
481,931;  156,692;   -0,393;    1,045
482,517;  330,894;    0,425;    0,318
483,104;  451,635;    1,334;    2,864
483,690;  295,460;    0,243;    0,045
484,276;  273,143;    0,698;    0,227
484,863;  548,297;    2,152;    1,136
485,449;  347,817;    0,152;    0,318
486,035;  292,917;   -0,666;   -0,136
486,622;  425,327;   -2,393;    0,045
487,208;  314,083;    1,334;    1,500
487,794;  205,397;    0,971;    0,318
488,380;  212,595;    0,698;   -1,409
488,967;  221,223;   -1,120;   -0,409
489,553;  243,190;   -1,029;   -1,409
490,139;  343,739;    0,971;    0,773
490,725;  237,386;    0,789;   -0,227
491,311;  292,283;    1,516;    3,045
491,897;  240,199;   -0,665;    1,500
492,483;  246,307;    0,426;    1,227
493,069;  784,570;    5,426;    0,864
493,655;  424,793;    1,789;    0,682
494,241;  264,509;    1,517;   -0,955
494,826;  289,733;    0,335;   -1,045
495,412;  369,825;    0,335;   -0,682
495,998;  252,568;    0,971;   -0,318
496,584;  326,087;    2,244;    1,045
497,169;  331,564;    2,335;   -0,682
497,755;  258,275;    1,244;    1,227
498,341;  430,016;    2,153;    0,318
498,926;  570,413;    2,881;    1,955
499,512;  253,852;   -0,028;    2,955
500,097;  256,508;   -0,574;   -0,318
500,683;  287,574;   -0,028;    2,136
501,268;  224,488;    1,881;   -0,955
501,854;  253,330;   -0,119;    1,227
502,439;  232,753;   -0,573;   -1,773
503,024;  277,801;    1,608;    0,500
503,610;  301,977;    1,335;   -0,682
504,195;  232,910;    1,245;    1,955
504,780;  340,860;    2,335;    1,227
505,366;  438,756;    4,063;    2,864
505,951;  350,986;   -1,119;    1,045
506,536;  263,247;    1,427;   -3,682
507,121;  324,314;    1,699;   -0,318
507,706;  267,774;   -0,392;    1,045
508,291;  205,988;   -2,937;    1,136
508,876;  196,468;   -0,482;    2,591
509,461;  254,697;    1,427;   -0,773
510,046;  305,689;   -0,391;    0,318
510,631;  312,290;   -0,119;   -0,773
511,216;  218,228;   -0,664;   -0,500
511,801;  293,162;   -0,755;    2,591
512,386;  309,306;    0,972;    0,500
512,971;  320,547;    0,427;    0,955
513,555;  358,506;    1,154;   -1,500
514,140;  313,340;    1,336;   -3,136
514,725;  428,770;    1,791;   -1,136
515,309;  328,848;    1,064;    0,318
515,894;  232,936;   -0,300;   -2,227
516,479;  269,230;    1,973;   -0,955
517,063;  272,393;    0,882;    1,227
517,648;  227,310;    0,155;   -1,136
518,232;  187,596;   -1,300;   -1,409
518,817;  277,508;    1,337;    1,682
519,401;  385,949;    0,700;    0,591
519,985;  357,205;    2,700;    1,136
520,570;  224,607;   -0,118;   -1,955
521,154;  315,818;    0,064;    0,591
521,738;  463,695;    1,064;    2,409
522,323;  320,896;   -0,390;    1,682
522,907;  312,961;    2,428;   -0,136
523,491;  236,421;    1,155;    0,955
524,075;  210,789;    0,428;    0,591
524,659;  373,481;    0,973;    0,591
525,243;  325,672;    0,883;    0,409
525,827;  269,517;    0,883;   -0,045
526,411;  270,208;    1,155;   -0,136
526,995;  348,592;    0,337;    1,409
527,579;  390,579;    1,974;   -1,045
528,163;  333,159;    0,428;   -1,500
528,747;  404,603;    1,065;   -0,773
529,331;  357,411;    0,883;   -1,409
529,915;  237,527;    2,338;    0,955
530,499;  312,799;    0,247;    1,227
531,082;  440,847;    1,065;    1,591
531,666;  517,668;    0,520;    0,773
532,250;  412,242;    0,428;    2,682
532,833;  483,021;    0,610;    2,773
533,417;  364,389;    1,247;    0,864
534,001;  460,521;    0,429;   -0,318
534,584;  393,202;    1,974;    0,500
535,168;  254,198;    3,247;    1,409
535,751;  545,126;    4,520;    0,045
536,334;  325,599;    4,520;   -0,409
536,918;  207,139;    1,974;    1,591
537,501;  213,623;    1,520;    1,318
538,085;  253,819;    1,702;    1,045
538,668;  320,823;    0,883;    2,409
539,251;  546,281;    3,156;    3,773
539,834;  315,454;    0,156;    0,773
540,418;  411,423;    3,247;    4,318
541,001;  552,860;    2,702;    1,773
541,584;  366,685;    1,429;    2,227
542,167;  453,614;    0,702;    2,955
542,750;  310,997;    0,793;   -0,773
543,333;  206,611;    1,429;    2,136
543,916;  387,111;   -0,298;    2,500
544,499;  338,222;    2,520;    0,227
545,082;  404,319;    0,248;    3,591
545,665;  330,030;   -0,207;    1,500
546,248;  430,702;    0,520;   -0,318
546,830;  403,418;   -1,752;    1,955
547,413;  368,466;    0,157;   -0,773
547,996;  344,310;    0,157;    0,500
548,579;  311,255;   -0,843;    0,955
549,161;  507,896;    0,884;    2,682
549,744;  408,386;    0,612;    0,409
550,326;  294,481;    0,885;   -1,136
550,909;  674,873;    2,339;    0,591
551,492;  390,105;    0,521;    0,227
552,074;  483,073;   -0,024;   -1,318
552,657;  512,801;    2,430;    0,045
553,239;  406,176;   -3,024;   -0,773
553,821;  299,588;   -1,570;    1,045
554,404;  504,526;   -0,024;    1,136
554,986;  581,369;    2,248;    1,045
555,568;  446,834;    0,430;   -0,955
556,151;  616,201;    4,067;   -0,227
556,733;  361,177;   -1,388;   -0,864
557,315;  387,790;    4,703;    0,500
557,897;  278,780;    0,521;   -0,500
558,479;  289,604;    1,703;    1,318
559,061;  357,303;    1,067;   -0,864
559,643;  396,636;   -0,297;    0,045
560,225;  429,931;   -0,388;    2,864
560,807;  308,091;    0,340;    0,318
561,389;  299,467;   -1,206;    2,318
561,971;  360,364;   -0,660;    2,136
562,553;  292,488;    0,613;    1,591
563,135;  365,664;    1,249;    1,136
563,717;  700,025;    3,158;    1,136
564,298;  612,046;    3,976;   -0,045
564,880;  401,863;    0,340;   -1,409
565,462;  263,318;    1,977;    1,318
566,043;  364,158;   -0,933;    2,318
566,625;  624,702;    4,067;    1,227
567,207;  468,285;    0,704;    1,682
567,788;  348,841;   -0,114;    1,500
568,370;  348,438;   -1,841;   -0,500
568,951;  342,127;   -0,569;    0,227
569,533;  420,649;    0,977;   -0,500
570,114;  425,541;   -0,296;    0,682
570,695;  450,714;   -0,478;   -1,318
571,277;  439,194;   -0,205;   -1,682
571,858;  599,628;    2,704;   -1,136
572,439;  454,964;    0,795;   -1,045
573,021;  471,530;    0,432;   -2,773
573,602;  573,594;    1,795;    0,318
574,183;  529,802;   -0,114;    2,227
574,764;  486,068;    2,068;    0,409
575,345;  645,637;    0,250;   -0,136
575,926;  493,493;    2,704;    0,136
576,507;  563,228;    2,704;   -0,227
577,088;  519,409;    1,704;    1,682
577,669;  691,176;    1,704;    1,955
578,250;  832,257;   -0,750;   -1,045
578,831;  641,418;   -0,841;   -2,227
579,412;  627,725;   -1,205;    0,955
579,993;  611,367;    1,432;    0,227
580,573;  521,369;   -0,023;   -0,955
581,154;  640,906;    1,613;   -0,591
581,735;  681,537;    0,341;    0,773
582,315;  806,991;    0,523;    2,136
582,896;  610,159;   -1,750;    1,227
583,477;  489,027;    0,614;    1,227
584,057;  597,366;    1,159;    0,955
584,638;  700,276;   -2,750;    2,318
585,218;  912,271;    2,886;    2,682
585,799;  732,800;    1,977;   -0,227
586,379;  635,773;    1,250;    1,591
586,959;  611,895;    2,613;    0,318
587,540;  536,137;    0,432;    2,227
588,120;  545,015;   -1,113;   -0,045
588,700;  577,786;    2,977;    2,136
589,281;  734,277;    1,250;   -0,955
589,861;  606,563;   -0,296;   -1,682
590,441;  488,281;   -1,477;   -2,682
591,021;  555,637;    1,432;   -2,591
591,601;  526,486;    0,431;    0,500
592,181;  511,933;   -1,296;   -0,773
592,761;  420,073;    2,250;    1,409
593,341;  526,255;    1,522;    0,045
593,921;  544,772;   -0,569;    1,591
594,501;  449,623;    1,250;    1,318
595,081;  461,678;    0,522;   -0,318
595,661;  515,155;    1,068;    0,955
596,240;  462,760;   -1,023;    0,136
596,820;  822,720;    2,613;    1,955
597,400;  575,422;    1,977;    0,773
597,980;  484,289;   -0,750;    1,045
598,559;  436,597;    0,341;   -0,227
599,139;  427,246;   -0,750;   -1,227
599,718;  427,428;    0,795;   -0,409
600,298;  426,507;   -2,387;    0,682
600,877;  858,295;    4,795;    1,409
601,457;  586,983;    0,340;    1,136
602,036;  477,666;    1,795;    2,045
602,616;  520,105;    2,250;    1,682
603,195;  623,345;    0,431;    3,500
603,774;  678,357;   -0,296;    2,045
604,354;  633,997;    2,522;   -0,500
604,933;  576,934;    0,250;    1,864
605,512;  651,730;    2,340;    0,591
606,091;  641,511;    1,886;    3,773
606,671;  604,439;    0,249;    0,773
607,250;  767,171;    1,431;    3,136
607,829;  707,850;    1,158;    3,227
608,408;  573,597;    4,613;    2,591
608,987;  673,260;    2,704;    3,409
609,566;  495,339;    0,341;   -2,500
610,145;  596,540;    2,885;    0,682
610,723;  649,276;    1,613;    6,864
611,302;  561,968;    1,067;    1,682
611,881;  826,257;    5,158;   11,227
612,460;  560,809;    0,795;    3,955
613,039;  456,313;    1,703;    2,045
613,617;  446,404;    0,886;    4,773
614,196;  462,446;    1,613;    1,227
614,775;  514,217;    1,249;    2,409
615,353;  572,829;   -1,660;    0,864
615,932;  546,653;    0,249;    2,409
616,510;  535,760;    0,158;    0,591
617,089; 1004,022;    8,794;   17,591
617,667;  633,110;    4,885;    6,136
618,246;  423,540;   -1,115;    1,318
618,824;  488,457;    1,612;   -0,955
619,402;  505,550;    0,431;   -1,773
619,981;  563,704;    1,067;   -1,045
620,559;  490,866;    0,794;    1,682
621,137;  509,515;    3,067;    1,864
621,715;  425,342;    3,703;   -0,682
622,293;  442,330;    1,885;   -0,773
622,871;  459,517;    0,340;    0,500
623,450;  417,014;    0,430;   -0,864
624,028;  593,865;   -0,388;   -0,955
624,606;  533,388;    2,339;    1,682
625,183;  382,358;   -0,661;   -1,136
625,761;  516,174;    1,885;    1,136
626,339;  778,398;    2,339;    2,591
626,917;  470,403;    0,339;   -0,045
627,495;  418,955;    2,794;    1,318
628,073;  526,743;    5,248;    2,864
628,650;  541,247;    3,067;    2,136
629,228;  539,734;    1,248;    4,409
629,806;  380,160;   -0,024;    1,136
630,383;  434,760;    0,066;   -0,318
630,961;  428,343;   -2,206;   -0,955
631,539;  474,937;   -2,479;    0,227
632,116; 1166,888;   12,703;   15,409
632,694;  771,492;    4,885;    6,500
633,271;  621,062;    1,975;    2,682
633,848;  713,364;    1,430;    2,045
634,426;  467,222;    1,521;    1,773
635,003;  352,054;   -0,207;   -0,409
635,580;  710,046;    1,884;    3,682
636,158;  597,013;    3,793;    1,227
636,735;  443,244;    3,339;   -0,500
637,312;  432,828;    0,521;   -0,682
637,889;  427,938;    2,248;   -0,682
638,466;  413,670;    0,066;   -0,409
639,043;  467,519;    1,702;   -1,136
639,620;  388,061;    0,611;   -0,955
640,197;  503,626;    1,612;    1,682
640,774;  363,995;    1,430;    1,136
641,351;  416,182;    0,612;    1,136
641,928;  584,369;    2,794;    1,409
642,505;  682,556;    0,794;   -0,500
643,082;  523,743;    1,885;    1,227
643,658;  421,203;    1,157;    1,500
644,235;  401,208;   -2,479;    2,500
644,812;  551,122;    1,794;    0,773
645,388;  548,582;    1,612;    1,409
645,965;  369,224;    1,521;    1,682
646,542;  374,411;    3,430;   -0,227
647,118;  710,780;    3,703;   -0,955
647,695;  525,149;    0,339;    1,136
648,271;  371,245;   -2,115;    0,500
648,848;  510,614;    0,248;    2,227
649,424;  621,983;    0,976;    1,318
650,000;  455,533;   -0,388;   -1,045
650,577;  481,902;    0,158;   -0,955
651,153;  484,089;   -1,115;    0,955
651,729;  443,913;    0,521;    0,864
652,305;  778,372;    1,339;    2,773
652,881;  690,559;   -1,297;    1,136
653,458;  733,019;    0,249;    0,227
654,034;  763,388;    0,703;    1,591
654,610;  906,030;    0,339;    0,773
655,186; 1376,853;    1,612;    3,045
655,762;  929,313;   -1,842;    0,409
656,338;  904,591;    0,703;    0,136
656,913;  960,505;   -0,297;    0,409
657,489;  768,965;    0,249;   -0,318
658,065;  871,788;    0,794;   -1,591
658,641;  896,885;    2,158;   -0,864
659,217;  836,799;    2,067;    0,409
659,792; 1000,441;   -1,751;   -0,409
660,368;  825,264;   -0,388;   -0,682
660,944;  827,633;    1,794;    1,227
661,519;  794,093;    0,522;    0,409
662,095;  602,280;   -0,206;    0,591
662,670;  499,921;   -0,206;   -0,136
663,246;  423,472;   -0,660;   -0,409
663,821;  555,295;    0,431;    1,682
664,396;  511,937;    0,613;    1,864
664,972;  442,942;   -0,660;   -0,500
665,547;  472,948;    3,794;    0,136
666,122;  453,589;    1,340;    0,318
666,698;  633,049;    2,431;    0,318
667,273;  435,327;    0,885;    0,136
667,848;  463,423;    0,340;    1,500
668,423;  600,337;    1,795;    2,318
668,998;  472,706;    0,976;   -0,682
669,573;  441,893;    2,067;   -1,500
670,148;  597,717;    1,885;   -0,682
670,723;  412,813;   -0,024;    0,318
671,298;  671,273;   -1,296;    1,045
671,873;  585,187;   -0,296;   -0,136
672,448;  573,738;    1,704;    0,136
673,023;  564,561;    0,249;   -0,227
673,597;  646,021;    2,704;    2,318
674,172;  679,935;    2,431;    0,318
674,747;  602,486;   -0,205;   -1,045
675,321;  408,582;   -0,933;    3,318
675,896;  362,678;    2,158;    1,045
676,471;  562,502;    2,522;    1,591
677,045;  479,598;   -0,296;    0,682
677,620;  555,421;    2,158;    1,136
678,194;  425,154;    0,249;    1,136
678,769;  497,614;    0,886;   -0,318
679,343;  535,073;   -0,023;    1,773
679,917;  631,897;    0,340;    1,955
680,492;  507,447;    0,249;    3,227
681,066;  532,180;    0,613;    0,409
681,640;  478,912;    1,795;   -0,318
682,214;  493,281;    2,340;    0,500
682,788;  487,832;    0,613;   -0,773
683,363;  612,565;    1,977;    1,682
683,937;  498,752;    0,886;   -0,318
684,511;  534,848;   -1,023;   -0,591
685,085;  548,489;   -1,478;    0,318
685,659;  464,222;    1,431;    0,864
686,232;  674,045;    1,159;   -0,318
686,806;  555,869;    2,159;    0,409
687,380;  457,056;   -1,932;    0,591
687,954;  420,425;    2,432;    1,136
688,528;  697,612;    2,613;    1,955
689,101;  546,072;    0,432;    1,045
689,675;  450,895;    0,886;   -0,136
690,249;  660,082;    3,432;    0,409
690,822;  641,724;    1,159;    0,318
691,396;  553,729;    2,068;    1,227
691,969;  487,280;    2,523;    0,136
692,543;  420,194;   -0,568;   -1,955
693,116;  399,108;   -0,659;   -1,409
693,690;  470,295;   -0,296;    0,500
694,263;  420,210;    2,341;    2,955
694,836;  735,215;    2,795;    3,591
695,410;  626,402;    1,159;    1,773
695,983;  650,407;    1,614;    0,591
696,556;  473,321;   -0,750;   -1,045
697,129;  397,781;   -1,114;    1,409
697,703;  599,332;    1,341;    1,955
698,276;  494,155;    1,705;   -0,773
698,849;  638,342;   -1,023;    1,409
699,422;  442,166;    1,250;    0,591
699,995;  356,171;   -0,659;    0,136
700,568;  474,085;   -0,204;    3,045
701,140;  490,454;   -1,841;    1,682
701,713;  631,278;    0,341;    2,409
702,286;  533,647;    0,796;    0,864
702,859;  598,561;    0,614;   -0,591
703,432;  684,930;   -0,841;    0,682
704,004;  577,208;    1,978;    0,318
704,577;  449,031;    1,068;    0,136
705,150;  515,491;    0,887;    2,500
705,722;  561,496;    1,523;   -3,227
706,295;  621,047;    1,432;   -0,591
706,867;  511,779;    0,250;    1,955
707,440;  581,512;   -0,113;   -0,409
708,012;  652,608;   -0,022;    0,591
708,584;  592,613;    2,705;    0,227
709,157;  402,982;    1,160;   -0,591
709,729;  600,260;    1,069;    2,045
710,301;  475,811;   -1,204;    0,045
710,874;  469,089;    0,341;   -0,227
711,446;  372,730;   -0,295;    0,864
712,018;  439,463;   -3,022;    0,500
712,590;  401,105;   -0,204;    1,682
713,162;  636,655;   -0,477;    1,318
713,734;  459,206;    1,796;   -2,045
714,306;  384,757;    0,342;   -0,409
714,878;  429,580;   -0,295;    0,864
715,450;  392,494;   -0,113;    0,864
716,022;  406,863;    2,433;    1,318
716,593;  404,869;    0,978;    0,591
717,165;  442,601;    1,796;   -1,227
717,737;  673,788;    0,796;    0,409
718,309;  482,430;    1,160;   -0,045
718,880;  412,162;   -1,295;   -1,409
719,452;  477,895;    0,887;   -1,591
720,024;  549,900;    1,705;   -0,591
720,595;  458,269;    2,978;    0,955
721,167;  443,092;    1,160;   -2,045
721,738;  563,916;    2,069;   -1,045
722,309;  699,012;    1,251;   -1,227
722,881;  456,835;    2,705;    0,773
723,452;  525,295;    1,251;    2,864
724,023;  535,664;    1,524;    2,682
724,595;  588,578;    2,342;    0,682
725,166;  475,311;    1,524;   -0,409
725,737;  643,589;    1,887;    0,227
726,308;  468,594;    0,797;    0,318
726,879;  389,054;    1,069;    1,227
727,450;  525,059;   -2,022;   -0,045
728,021;  475,883;    1,069;    0,682
728,592;  619,979;    1,160;    0,500
729,163;  694,438;    1,433;   -0,136
729,734;  671,535;    2,160;   -0,227
730,305;  562,358;    0,615;    0,136
730,876;  530,181;    0,888;    2,955
731,447;  797,368;    0,797;    2,682
732,017;  715,646;   -0,840;    1,864
732,588;  530,197;   -0,021;    1,227
733,159;  783,384;    3,615;   -1,045
733,729;  536,208;    1,251;    0,409
734,300;  679,849;    0,160;    0,864
734,870;  511,400;   -1,385;    0,591
735,441;  504,496;    0,888;   -0,591
736,011;  490,320;    1,070;   -1,591
736,582;  482,416;    1,251;    0,045
737,152;  586,603;    0,979;   -2,045
737,722;  570,972;    1,070;   -0,682
738,293;  441,068;   -2,021;    1,318
738,863;  607,346;    1,797;    2,318
739,433;  834,624;    4,524;    0,318
740,003;  579,629;    1,524;   -0,682
740,573;  698,180;    2,252;   -1,591
741,143;  583,821;    3,615;    0,318
741,713;  499,281;    0,252;   -0,500
742,283;  555,286;    1,706;    1,591
742,853;  502,110;    0,524;    1,591
743,423;  359,388;    0,161;    0,045
743,993;  452,757;    1,070;    1,500
744,563;  502,489;    2,524;   -0,864
745,133;  520,858;   -0,112;   -0,864
745,702;  423,045;    2,797;    1,773
746,272;  598,687;    0,434;    0,591
746,842;  622,510;   -0,748;   -0,591
747,411;  442,061;   -0,839;   -0,318
747,981;  354,702;   -0,930;    0,500
748,551;  351,798;   -0,021;   -1,045
749,120;  522,167;   -0,112;   -0,227
749,690;  469,264;    2,161;    2,409
750,259;  567,632;    0,979;    2,955
750,828;  617,274;    4,070;   -1,955
751,398;  423,279;   -0,112;   -0,045
751,967;  856,466;    2,888;    0,409
752,536;  541,653;    1,161;   -0,227
753,105;  632,568;   -1,384;    0,227
753,675;  489,664;   -0,112;    1,773
754,244;  489,578;    0,888;    3,591
754,813;  519,492;    0,979;    1,227
755,382;  482,316;    0,798;    0,955
755,951;  586,503;   -0,112;    3,682
756,520;  707,326;    2,525;    1,864
757,089;  784,241;    1,888;    0,500
757,658;  547,610;    2,434;    1,227
758,227;  404,069;   -1,111;    0,318
758,795;  447,438;   -1,021;    1,136
759,364;  458,353;    0,525;   -0,591
759,933;  416,540;    1,343;   -0,045
760,501;  360,545;    0,252;   -1,318
761,070;  501,823;   -0,293;   -1,409
761,639;  460,101;    1,434;    1,318
762,207;  565,106;    0,889;   -0,955
762,776;  614,384;    2,889;    0,864
763,344;  478,662;    0,071;    0,591
763,913;  322,122;    1,616;    1,409
764,481;  778,491;    1,980;   -0,136
765,049;  783,769;    0,616;    1,409
765,618;  707,138;    1,434;    0,318
766,186;  533,325;    2,434;    0,136
766,754;  583,330;    1,798;    1,864
767,322;  472,881;    1,162;    0,409
767,890;  425,249;    0,525;   -1,773
768,459;  438,346;    2,616;   -0,318
769,027;  629,351;    2,525;    3,409
769,595;  469,720;    2,616;    2,591
770,163;  567,998;    3,344;    2,955
770,730;  527,639;    2,525;   -0,136
771,298;  526,008;    1,162;   -1,409
771,866;  457,922;    0,253;    4,955
772,434;  478,200;    1,162;   -1,864
773,002;  664,569;    2,616;    0,682
773,569;  554,575;    1,071;    1,682
774,137;  649,307;    0,889;   -0,045
774,705;  471,858;   -0,747;   -0,136
775,272;  449,681;    0,253;    0,682
775,840;  468,868;   -0,111;    2,682
776,407;  561,964;   -0,293;    1,955
776,975;  451,242;    1,162;    0,318
777,542;  412,611;    2,162;   -0,045
778,110;  444,798;    0,707;   -0,045
778,677;  346,076;    1,071;   -0,864
779,244;  408,354;   -1,020;    1,045
779,812;  514,359;    0,980;    0,864
780,379;  600,910;    2,435;    1,136
780,946;  493,370;    2,617;   -0,773
781,513;  419,102;   -0,565;    0,318
782,080;  396,290;    1,253;    2,864
782,647;  415,386;    1,708;    3,045
783,214;  393,936;   -0,201;    3,864
783,781;  565,305;    1,708;   -0,682
784,348;  522,765;    0,253;    1,500
784,915;  346,770;   -1,474;    0,318
785,482;  544,412;    2,708;    2,591
786,049;  471,326;    1,071;   -0,591
786,615;  372,877;    1,708;   -0,955
787,182;  351,882;   -3,201;   -0,682
787,749;  328,887;   -2,201;    1,409
788,315;  522,529;    0,253;   -0,409
788,882;  418,352;    0,981;   -1,227
789,448;  682,812;    1,435;   -0,955
790,015;  474,181;    1,799;    3,227
790,581;  624,095;    0,708;    0,227
791,148;  468,101;    1,344;    1,045
791,714;  380,651;   -1,019;    3,136
792,280;  391,111;    3,708;    1,591
792,847;  340,662;   -0,928;    2,500
793,413;  410,394;   -0,110;   -0,318
793,979;  606,491;    1,526;   -1,318
794,545;  843,041;    2,981;    2,682
795,111;  725,501;    2,435;    1,318
795,678;  602,234;    3,526;   -1,682
796,244;  739,966;    2,799;    0,136
796,810;  605,244;    0,799;    0,773
797,375;  583,704;   -0,292;   -2,136
797,941;  332,618;   -1,110;    0,591
798,507;  339,078;    0,254;   -0,955
799,073;  380,810;    2,708;    0,591
799,639;  367,725;    1,435;    3,136
800,205;  327,821;   -1,565;    2,682
800,770;  360,735;    1,345;    1,773
801,336;  383,104;    2,981;   -0,955
801,901;  907,746;    6,072;    3,136
802,467;  597,933;    0,526;    2,045
803,033;  401,029;   -0,019;    0,864
803,598;  390,580;    1,072;   -1,045
804,163;  398,858;    0,708;   -0,318
804,729;  486,136;   -0,110;    1,136
805,294;  394,323;    1,072;    2,227
805,859;  349,601;    0,890;   -0,409
806,425;  701,515;    3,890;    2,682
806,990;  665,702;    1,890;    4,318
807,555;  451,616;   -0,110;    2,591
808,120;  566,076;   -1,292;   -0,409
808,685;  400,718;    1,072;   -2,500
809,250;  329,450;    2,072;   -0,500
809,815;  316,637;   -0,201;    0,682
810,380;  429,097;    0,981;    1,591
810,945;  585,921;    2,890;    2,045
811,510;  435,471;   -0,200;    1,591
812,075;  479,022;    2,800;   -1,409
812,640;  686,027;    3,709;    1,409
813,204;  478,851;    2,163;   -0,227
813,769;  589,674;    0,254;   -0,045
814,334;  586,679;    0,527;    0,864
814,898;  358,412;    1,981;    0,591
815,463;  447,599;    0,981;   -0,773
816,027;  389,059;    1,345;   -2,318
816,592;  336,609;    2,163;   -2,045
817,156;  490,615;   -2,200;    1,136
817,721;  588,074;    0,982;    2,318
818,285;  364,261;    0,618;    1,500
818,849;  421,176;   -0,018;    1,682
819,414;  354,999;    0,073;    2,955
819,978;  308,368;   -0,291;    1,773
820,542;  548,464;    2,891;    0,500
821,106;  411,015;    2,800;    0,682
821,670;  598,838;    2,709;    2,591
822,234;  402,844;    1,073;    1,409
822,798;  321,940;   -0,836;    0,500
823,362;  515,672;    1,527;    4,227
823,926;  399,132;   -0,018;    1,136
824,490;  542,137;    3,527;   -0,682
825,054;  437,233;    2,527;   -1,136
825,618;  354,511;   -1,200;   -1,500
826,181;  407,244;    0,982;   -1,318
826,745;  498,613;   -0,745;   -1,045
827,309;  681,163;    2,255;    1,318
827,872;  553,896;    0,527;    0,955
828,436;  456,083;    1,982;   -0,773
828,999;  380,634;    2,436;    1,227
829,563;  358,003;   -0,654;    1,136
830,126;  342,462;   -0,018;   -0,591
830,690;  447,649;    0,709;    2,864
831,253;  363,018;   -0,473;    2,227
831,816;  403,387;   -0,018;    0,500
832,380;  370,665;    1,164;    0,864
832,943;  344,034;    3,073;   -0,500
833,506;  346,312;    0,255;   -1,227
834,069;  479,135;    2,164;   -0,955
834,632;  348,868;   -2,200;    1,318
835,195;  382,055;    1,346;    0,955
835,758;  339,697;    0,709;    1,955
836,321;  356,975;    1,073;   -1,045
836,884;  335,707;   -1,291;   -0,955
837,447;  289,258;    0,528;    1,773
838,010;  435,172;    1,800;    3,227
838,573;  435,814;    0,528;    0,773
839,135;  318,819;   -0,109;   -0,955
839,698;  379,006;    2,528;    0,409
840,261;  330,648;    0,255;   -0,227
840,823;  297,744;   -0,927;    0,864
841,386;  288,476;   -0,018;   -2,409
841,948;  544,754;    0,255;    1,773
842,511;  358,396;    0,255;    1,682
843,073;  517,219;    2,982;    0,227
843,636;  318,134;    0,619;   -0,227
844,198;  493,321;    1,255;    0,591
844,760;  463,326;    0,619;    1,955
845,322;  297,422;    0,164;    1,136
845,885;  415,609;   -0,290;    0,591
846,447;  365,887;    0,710;    0,227
847,009;  655,892;    3,983;   -0,682
847,571;  413,898;    1,346;   -2,045
848,133;  356,903;   -0,199;   -1,864
848,695;  247,908;    2,346;    1,409
849,257;  306,459;    1,346;   -1,682
849,819;  430,737;    2,983;   -0,409
850,381;  334,469;    1,801;   -0,864
850,942;  378,202;    1,892;   -0,591
851,504;  442,207;    0,983;    0,227
852,066;  323,121;    1,619;   -1,591
852,628;  352,127;    0,165;    1,955
853,189;  277,950;    0,256;    2,682
853,751;  287,228;   -0,654;    1,409
854,312;  403,688;    1,256;   -1,682
854,874;  515,875;   -0,108;   -0,773
855,435;  368,880;    0,528;   -1,682
855,997;  386,340;    3,983;   -0,136
856,558;  489,254;    0,801;    1,773
857,119;  414,259;   -0,744;    2,864
857,681;  282,901;   -0,108;    0,318
858,242;  522,270;    1,347;   -2,136
858,803;  466,002;    1,074;   -0,773
859,364;  368,280;    0,892;   -4,773
859,925;  442,922;   -0,290;   -0,955
860,486;  340,200;    0,529;   -0,955
861,047;  292,842;    0,165;   -1,227
861,608;  328,938;    0,165;   -0,773
862,169;  216,579;   -0,562;   -0,045
862,730;  323,948;   -0,290;    1,409
863,291;  358,590;    0,438;   -0,500
863,852;  340,050;   -0,926;    1,955
864,412;  339,418;   -1,835;   -0,864
864,973;  548,787;    1,892;    0,500
865,534;  626,156;    2,074;    0,227
866,094;  439,980;    2,620;    0,227
866,655;  566,167;    4,711;    3,318
867,215;  401,899;    0,074;    0,136
867,776;  282,450;   -1,199;   -0,136
868,336;  360,273;    1,529;    0,136
868,897;  672,824;    3,438;    1,682
869,457;  487,738;    3,256;    0,318
870,017;  321,198;    2,438;   -1,227
870,578;  310,022;    1,893;    0,773
871,138;  379,572;    2,620;   -0,955
871,698;  317,305;   -0,562;   -1,318
872,258;  403,855;    0,711;   -2,864
872,818;  516,861;    2,347;    0,045
873,378;  371,593;   -2,198;    1,045
873,938;  365,326;    4,984;    0,500
874,498;  283,786;    1,256;   -1,955
875,058;  386,700;    4,347;    1,773
875,618;  370,887;    1,438;   -2,682
876,177;  403,256;   -0,471;    0,136
876,737;  268,716;   -0,289;    1,955
877,297;  578,539;    2,711;    1,955
877,856;  511,999;    2,529;    0,318
878,416;  316,913;    2,438;   -0,136
878,976;  288,373;    3,438;    0,409
879,535;  319,015;    4,529;    3,136
880,095;  305,838;    1,347;    0,045
880,654;  262,025;    0,347;    1,318
881,213;  511,758;    2,347;    1,500
881,773;  372,763;    1,984;    2,682
882,332;  797,768;    6,075;    5,136
882,891;  376,501;    0,711;    2,136
883,451;  354,869;   -2,016;    1,682
884,010;  333,329;   -1,107;   -0,409
884,569;  280,698;   -2,289;   -0,045
885,128;  414,794;   -0,743;   -1,864
885,687;  608,254;   -0,743;    0,682
886,246;  763,259;    2,620;    2,136
886,805;  602,355;    1,620;    2,045
887,364;  314,997;    1,166;   -0,500
887,922;  263,275;   -0,016;    0,045
888,481;  430,098;    1,530;    0,591
889,040;  479,104;    3,711;    2,136
889,599;  380,291;    2,166;    1,409
890,157;  379,751;    2,166;    2,409
890,716;  308,665;    2,166;    0,227
891,274;  411,670;    0,075;   -1,136
891,833;  469,675;    1,166;    0,864
892,391;  374,044;    1,802;    0,500
892,950;  442,595;    0,166;   -0,773
893,508;  293,055;    0,984;   -0,409
894,067;  241,878;   -0,379;    0,136
894,625;  317,429;   -1,016;   -1,500
895,183;  286,252;   -0,198;   -0,682
895,741;  509,530;    2,257;   -1,773
896,299;  346,081;    1,621;   -2,409
896,858;  298,541;    1,530;   -1,591
897,416;  412,273;    0,166;   -1,318
897,974;  346,824;   -2,197;    0,318
898,532;  729,647;    6,530;    2,682
899,089;  476,471;    0,621;   -0,682
899,647;  376,385;    0,530;    1,318
900,205;  365,754;    0,257;    1,045
900,763;  364,759;    2,166;    0,227
901,321;  332,128;    3,530;   -1,409
901,878;  205,224;    3,257;   -0,773
902,436;  278,684;    0,257;    1,318
902,994;  854,962;    6,712;    3,682
903,551;  475,967;    1,439;    0,409
904,109;  359,609;    1,530;   -1,409
904,666;  332,978;    1,439;    1,045
905,224;  251,256;    3,894;   -0,409
905,781;  378,806;   -0,470;   -0,318
906,338;  327,993;    0,167;    1,045
906,895;  250,635;    1,894;    2,045
907,453;  464,640;    2,348;    1,136
908,010;  346,918;    3,348;    0,409
908,567;  340,833;   -0,561;    0,591
909,124;  219,565;    2,439;   -1,500
909,681;  262,661;   -1,288;    0,682
910,238;  289,212;   -0,106;   -1,318
910,795;  221,763;   -1,561;   -1,136
911,352;  241,490;   -0,379;   -2,682
911,909;  267,217;    2,803;   -0,864
912,466;  275,035;    1,985;    1,500
913,022;  360,308;   -0,924;    0,500
913,579;  421,399;   -0,470;    2,045
914,136;  319,944;   -2,561;    0,955
914,692;  313,672;    1,530;   -1,227
915,249;  341,763;    0,530;    0,409
915,806;  396,854;    1,803;    1,955
916,362;  306,944;    0,894;    1,864
916,918;  291,854;    2,439;    1,045
917,475;  391,763;    1,621;    0,955
918,031;  264,672;    0,076;   -0,045
918,587;  320,763;    0,621;   -0,318
919,144;  259,217;   -0,379;    0,227
919,700;  201,581;    0,167;    0,773
920,256;  214,490;    0,439;    0,045
920,812;  260,490;    1,439;   -1,045
921,368;  234,035;    1,348;   -1,045
921,924;  256,217;    0,439;   -0,136
922,480;  318,035;    0,076;    1,227
923,036;  323,490;   -0,652;    1,955
923,592;  249,944;    0,621;    0,318
924,148;  258,217;    1,894;   -0,955
924,704;  361,399;    0,258;   -0,409
925,259;  231,854;   -0,561;    0,591
925,815;  227,581;    3,803;    0,500
926,371;  210,217;    3,530;    1,409
926,926;  335,308;    1,621;    0,591
927,482;  311,581;    1,621;    0,773
928,037;  257,672;   -0,833;    2,045
928,593;  396,035;    0,258;    1,045
929,148;  231,399;    1,167;   -1,500
929,704;  284,672;    2,439;   -0,500
930,259;  238,854;    0,894;   -0,136
930,814;  365,308;    1,803;    1,955
931,369;  312,944;    0,258;   -0,773
931,925;  193,399;   -1,924;    0,136
932,480;  267,308;    3,076;   -2,591
933,035;  511,581;    3,985;   -0,318
933,590;  436,763;   -1,742;   -1,773
934,145;  209,854;   -1,288;   -0,318
934,700;  138,763;    0,348;   -0,591
935,255;  183,944;    4,803;    0,045
935,809;  415,672;    6,258;    0,864
936,364;  184,217;    2,167;   -0,136
936,919;  175,581;    2,348;   -1,773
937,474;  136,126;    1,348;    0,136
938,028;  144,217;    3,076;    1,136
938,583;  429,217;    6,348;    4,682
939,138;  208,035;    0,167;    2,136
939,692;  126,399;   -1,015;   -1,136
940,247;  154,035;    1,167;   -1,045
940,801;  173,672;    0,621;    0,227
941,355;  129,126;    0,439;    2,591
941,910;   91,126;    0,712;   -2,136
942,464;  110,763;    2,712;   -0,318
943,018;  233,217;    3,258;   -0,227
943,572;  151,217;    2,803;   -0,682
944,126;  195,399;   -0,924;   -0,409
944,681;  132,308;    0,712;    0,227
945,235;   93,854;    2,167;   -0,591
945,789;   84,854;    1,258;   -1,864
946,342;  222,944;   -0,561;   -0,591
946,896;  108,308;    0,348;    0,955
947,450;   83,763;   -0,561;   -0,227
948,004;  218,581;    1,076;   -0,045
948,558;  129,581;    1,258;   -0,864
949,111;  120,944;   -1,197;   -0,318
949,665;  207,763;   -0,106;   -0,682
950,219;  198,035;    0,621;   -1,045
950,772;  154,035;    0,258;    1,864
951,326;  141,035;   -1,106;   -0,955
951,879;  122,399;    1,076;   -2,318
952,433;  189,399;    1,348;    2,227
952,986;  113,126;    0,348;    0,682
953,539;   94,490;    1,530;    0,591
954,093;   74,944;    0,985;   -1,318
954,646;  121,672;   -0,288;    1,318
955,199;   82,308;    1,258;   -0,500
955,752;  221,035;    1,985;    1,773
956,305;  131,399;    0,894;    2,955
956,858;  151,854;    0,621;   -0,318
957,411;  175,672;    3,621;    2,136
957,964;  147,490;    2,076;    2,136
958,517;  103,399;    0,985;    3,136
959,070;   77,126;   -1,197;    1,955
959,623;  216,217;    1,076;    1,500
960,176;  190,944;    0,712;    2,045
960,728;  153,217;    1,712;    0,773
961,281;  128,308;    2,258;    0,500
961,834;   98,490;   -0,833;    0,864
962,386;  106,126;    1,258;    1,045
962,939;   88,672;    3,439;   -0,318
963,491;  117,217;    2,621;    1,136
964,043;   87,217;    0,076;    2,409
964,596;  166,308;    1,712;    2,227
965,148;  116,854;   -0,379;    1,773
965,700;   84,763;   -0,015;   -0,227
966,253;  170,035;   -0,833;    0,318
966,805;  135,672;    1,894;    0,773
967,357;  103,672;    0,439;   -1,500
967,909;  157,672;    1,167;   -1,227
968,461;  110,490;    0,894;    3,136
969,013;   84,763;   -1,561;   -0,864
969,565;  168,035;    1,803;   -1,136
970,117;  277,944;    3,803;    1,045
970,669;  164,763;    3,258;   -0,136
971,220;   71,854;    2,167;   -1,500
971,772;  112,672;    1,348;   -0,318
972,324;  151,308;   -1,197;   -0,500
972,876;   95,672;    0,167;   -0,045
973,427;  152,035;   -1,197;   -1,045
973,979;  195,490;    0,076;   -2,500
974,530;  107,854;    0,803;    1,318
975,082;  141,035;    2,167;    1,682
975,633;  112,944;    2,894;    1,682
976,184;  122,217;    2,076;    0,773
976,736;  119,854;    0,348;    0,227
977,287;  135,854;    0,258;   -0,500
977,838;  113,126;   -0,924;   -0,318
978,389;  105,763;    0,803;   -0,500
978,940;   57,854;    1,258;   -0,409
979,491;   61,035;    2,258;   -0,500
980,042;  101,763;   -0,652;    3,045
980,593;  115,490;    1,894;    0,227
981,144;  149,308;    3,530;   -0,500
981,695;  147,944;   -0,470;    1,500
982,246;  132,217;   -1,833;    1,045
982,797;   79,581;   -0,561;    0,682
983,347;  143,581;    2,167;    0,591
983,898;  252,217;    4,167;    0,409
984,449;  241,490;    2,530;    0,773
984,999;  150,490;    1,894;   -1,136
985,550;  128,490;    3,167;   -0,318
986,100;   76,944;    0,712;   -0,318
986,651;   75,035;    0,258;    0,045
987,201;   82,672;    0,894;   -0,591
987,751;   86,399;   -0,288;    2,864
988,302;   98,308;   -0,379;    1,500
988,852;  131,854;    1,985;   -1,136
989,402;  148,126;    0,985;    0,682
989,952;  170,308;    1,621;    0,864
990,502;  101,490;    1,076;    0,682
991,052;   55,854;   -0,106;    0,045
991,602;   82,308;    1,167;    1,318
992,152;   97,490;    2,803;    0,682
992,702;  114,763;    1,167;   -0,045
993,252;   84,944;    0,076;   -0,500
993,802;  132,854;    1,167;    1,318
994,352;  110,763;   -0,742;    1,136
994,901;   75,126;    1,076;    3,227
995,451;   68,035;   -1,197;    0,318
996,000;   79,035;    1,076;    0,318
996,550;   88,217;    2,894;    0,227
997,100;   98,763;   -0,561;   -0,045
997,649;  162,490;   -0,197;    0,955
998,198;   87,308;   -0,288;   -1,500
998,748;  124,308;    0,348;   -2,318
999,297;  102,399;    0,985;   -0,409
999,846;  154,944;    1,894;   -0,773
1000,395;  111,763;    1,530;    0,500
1000,945;  164,672;    1,076;   -0,773
1001,494;  164,035;    0,167;    0,682
1002,043;  170,581;    0,712;    0,864
1002,592;   89,854;    3,439;    1,955
1003,141;   76,126;    2,439;   -0,682
1003,690;  161,944;    1,258;    0,500
1004,238;  103,581;   -0,106;   -0,045
1004,787;   69,035;   -1,288;    1,227
1005,336;  142,217;    1,621;    0,682
1005,885;  114,944;   -0,197;   -2,773
1006,433;  112,217;   -0,470;    0,955
1006,982;  184,217;    2,167;    1,682
1007,531;  127,035;    2,712;   -0,227
1008,079;  111,944;    0,258;    0,500
1008,627;   91,581;    1,621;    0,409
1009,176;  106,763;    0,076;   -1,955
1009,724;   79,217;   -2,742;    0,864
1010,273;  143,490;    1,076;    0,500
1010,821;   91,672;    1,076;    1,409
1011,369;   72,672;    0,076;    1,318
1011,917;   73,308;   -0,833;   -0,591
1012,465;  106,763;    2,530;   -1,591
1013,013;  101,399;    0,439;   -1,682
1013,561;  158,581;   -1,288;   -0,773
1014,109;  199,763;   -0,833;    1,682
1014,657;  132,763;    1,348;    0,591
1015,205;   90,399;    0,894;   -0,955
1015,753;   74,490;    0,258;   -1,409
1016,301;  107,944;    2,621;    3,045
1016,848;  142,217;    2,167;    0,409
1017,396;  124,763;    1,621;    0,045
1017,944;  127,035;    2,621;    1,864
1018,491;   99,944;   -0,197;    1,409
1019,039;  235,944;   -0,652;    0,591
1019,586;  125,126;    0,076;    1,682
1020,134;  115,581;    0,712;    1,500
1020,681;  155,217;    2,894;   -1,136
1021,228;  114,490;   -0,561;   -2,227
1021,776;   99,217;   -0,833;   -1,136
1022,323;  205,490;    0,803;    0,773
1022,870;  151,672;   -0,470;   -0,045
1023,417;  175,126;    2,076;    1,864
1023,964;  109,490;    0,621;    1,227
1024,511;   91,672;   -0,652;    0,773
1025,058;  120,399;    0,439;   -0,045
1025,605;   91,944;   -1,742;    3,136
1026,152;  193,490;   -0,106;   -0,591
1026,699;  119,944;    0,167;    1,318
1027,245;  109,672;    2,439;    0,318
1027,792;   83,490;    0,712;    1,409
1028,339;  197,217;    4,076;   -0,045
1028,885;  123,490;    3,621;   -0,227
1029,432;   99,944;   -0,106;    0,227
1029,978;  139,035;    1,348;   -1,591
1030,525;  151,217;    1,621;    0,409
1031,071;   92,854;    0,348;    1,136
1031,618;  220,672;    1,258;    1,682
1032,164;  144,581;    2,076;    3,045
1032,710;  158,944;    0,076;   -1,500
1033,256;  140,763;    0,712;   -0,136
1033,803;   79,581;   -0,288;    1,500
1034,349;   28,490;    1,803;    0,136
1034,895;   47,672;    2,621;   -0,318
1035,441;   79,399;    0,439;    0,318
1035,987;   98,490;   -2,288;   -0,682
1036,533;  131,217;   -0,197;   -0,955
1037,078;  241,308;    4,712;    1,682
1037,624;  163,217;    2,439;   -0,955
1038,170;   89,944;    1,712;   -0,318
1038,716;  134,217;    2,167;   -0,409
1039,261;   82,399;    2,167;   -0,773
1039,807;   83,854;   -0,015;    3,409
1040,352;   92,126;   -1,288;   -0,318
1040,898;   89,763;    0,167;   -0,682
1041,443;   69,490;    0,803;   -2,591
1041,989;  216,035;    3,621;    1,591
1042,534;  120,944;    0,985;    2,591
1043,079;   68,308;    1,985;    0,955
1043,625;  107,490;    0,258;    0,500
1044,170;  110,126;    2,439;    1,045
1044,715;  206,217;    0,167;    0,955
1045,260;  157,854;   -0,833;   -0,955
1045,805;   87,763;    0,258;   -0,591
1046,350;   78,308;    0,530;   -0,409
1046,895;  161,308;    0,803;    1,591
1047,440;  142,399;    1,530;    0,409
1047,985;   90,854;   -1,197;   -0,955
1048,530;   83,672;    1,348;    1,227
1049,074;   97,672;    2,803;    0,318
1049,619;   78,581;   -0,924;    1,955
1050,164;   74,399;    1,076;    0,227
1050,708;  128,763;    2,621;    0,045
1051,253;  238,217;    3,258;   -2,227
1051,797;  132,035;   -0,197;   -1,318
1052,342;   66,672;    1,348;    1,045
1052,886;   96,944;    1,803;   -1,409
1053,430;   59,854;    2,167;    0,136
1053,975;  103,308;    0,894;   -0,318
1054,519;   99,308;    1,803;    3,227
1055,063;  126,399;    3,621;    1,318
1055,607;  121,035;    1,348;    0,227
1056,151;  117,126;    0,530;    1,682
1056,695;   85,217;   -1,833;   -1,136
1057,239;   78,035;   -1,197;   -0,682
1057,783;   97,854;    2,258;   -1,500
1058,327;  138,035;    3,076;    1,409
1058,871;  207,944;    3,985;    1,318
1059,415;  143,854;   -0,561;   -0,045
1059,958;  209,490;    2,985;    2,591
1060,502;   86,308;    1,348;   -0,773
1061,046;   53,672;    1,712;   -0,955
1061,589;   57,581;    2,803;   -1,136
1062,133;   46,763;    0,985;    1,864
1062,676;   64,581;    1,439;    0,864
1063,220;   74,854;    0,985;    0,500
1063,763;   89,217;    2,985;    1,136
1064,306;   96,581;    0,985;    1,864
1064,849;   94,763;    2,076;    0,591
1065,393;   85,763;    2,894;   -1,500
1065,936;   83,854;    2,530;   -0,409
1066,479;   59,854;    2,621;    1,318
1067,022;   71,672;    1,894;   -0,227
1067,565;   61,944;   -1,197;   -1,318
1068,108;   53,763;    1,258;   -0,591
1068,651;   44,854;   -2,470;    1,409
1069,194;   46,308;   -1,106;   -1,682
1069,736;   48,854;    3,803;    0,955
1070,279;   42,217;   -1,652;   -0,500
1070,822;   76,581;    1,530;   -0,318
1071,364;  135,672;    0,530;    1,318
1071,907;   77,126;    0,348;    3,227
1072,450;   25,217;    0,258;   -0,045
1072,992;   53,308;   -0,561;    3,136
1073,535;   71,217;    0,167;    2,136
1074,077;   50,399;    2,985;    2,045
1074,619;   38,035;    0,985;    0,591
1075,161;   54,763;   -0,561;    1,500
1075,704;  108,581;    0,258;    1,227
1076,246;   59,399;    1,530;    0,682
1076,788;   35,854;   -1,015;    1,773
1077,330;   37,581;   -2,106;    2,136
1077,872;   52,035;   -1,924;    0,955
1078,414;  120,490;    3,712;    0,773
1078,956;   63,490;    0,167;   -0,227
1079,498;  110,763;    0,439;    0,318
1080,040;   57,399;    0,985;   -1,318
1080,581;   47,308;    0,621;   -0,318
1081,123;   28,581;   -0,106;   -0,773
1081,665;   29,944;    3,803;   -0,955
1082,206;  108,672;    3,258;   -0,500
1082,748;   65,035;    3,258;    2,045
1083,289;   38,581;    0,167;    1,318
1083,831;   32,854;    0,258;    0,227
1084,372;   43,308;    0,894;    0,591
1084,913;   46,490;    3,348;    0,864
1085,455;   33,672;    1,530;   -2,045
1085,996;   22,672;    0,530;    0,136
1086,537;   31,581;    0,985;    0,864
1087,078;   41,854;    0,439;   -2,136
1087,619;   63,217;   -1,652;    0,227
1088,160;   49,763;    1,439;    1,318
1088,701;   44,217;   -0,742;    0,682
1089,242;   38,217;   -0,561;   -2,227
1089,783;   52,399;   -0,561;    1,409
1090,324;   44,854;   -0,833;    0,682
1090,865;   30,308;   -1,924;   -0,409
1091,405;   22,672;   -0,561;    2,227
1091,946;   40,308;   -0,197;   -0,955
1092,487;   23,490;   -1,288;   -1,409
1093,027;   62,854;    1,803;   -1,500
1093,568;   35,217;    2,258;    1,227
1094,108;   44,399;    0,621;    1,773
1094,649;   35,217;   -0,470;    0,136
1095,189;   27,035;    1,167;   -0,682
1095,729;   25,944;    0,712;    0,955
1096,269;   27,308;    1,258;   -0,955
1096,810;   71,308;   -0,197;    0,500
1097,350;   50,490;   -0,561;   -0,773
1097,890;   39,308;    2,985;    1,227
1098,430;  106,308;    4,985;    2,864
1098,970;   72,672;    1,894;    1,682
1099,510;   33,217;   -0,833;   -2,318
1100,050;   26,217;    0,258;   -1,591
1100,589;   32,854;    0,076;   -0,318
1101,129;   49,308;    0,894;   -0,955
1101,669;   75,126;    2,803;    2,136
1102,209;   47,581;    1,530;    2,227
1102,748;   38,308;    3,439;    0,955
1103,288;   41,854;    0,712;   -1,227
1103,827;   34,581;    3,530;   -2,227
1104,367;   27,581;    1,712;   -2,409
1104,906;   24,399;   -1,015;   -1,136
1105,445;   39,944;    0,985;   -1,136
1105,985;   32,763;   -0,652;    1,500
1106,524;   36,672;    1,530;   -0,682
1107,063;   31,035;    1,167;    1,409
1107,602;   22,399;    1,894;   -1,500
1108,141;   20,672;    1,621;    1,500
1108,680;   40,672;    3,985;   -0,591
1109,219;   30,399;    0,167;   -0,500
1109,758;   27,217;    4,167;    0,682
1110,297;   24,399;   -1,106;   -0,682
1110,836;   19,217;    1,439;    0,955
1111,375;   21,763;    0,348;    0,409
1111,913;   42,854;    0,985;    0,773
1112,452;   31,035;    0,894;    0,136
1112,991;   19,854;    1,076;    1,955
1113,529;   16,490;    0,167;   -0,045
1114,068;   23,035;    0,439;    2,955
1114,606;   18,763;   -0,561;   -0,955
1115,144;   39,763;    1,530;    1,045
1115,683;   29,944;    1,985;    0,318
1116,221;   37,308;    2,076;   -0,864
1116,759;   21,581;    1,621;   -0,864
1117,297;   43,944;    1,621;    1,864
1117,836;   25,217;    1,985;   -1,227
1118,374;   21,854;    0,258;   -0,682
1118,912;   27,308;    0,439;    2,682
1119,450;   24,399;    0,985;    0,864
1119,988;   22,672;    3,348;    2,136
1120,525;  143,217;    7,258;    3,318
1121,063;   58,490;    0,530;    1,864
1121,601;   22,672;    1,076;   -1,227
1122,139;   15,126;    1,076;   -2,045
1122,676;   48,854;   -1,652;    2,773
1123,214;   43,126;    0,712;    4,409
1123,751;   16,308;    0,621;    2,227
1124,289;   28,854;    0,894;   -0,409
1124,826;   18,126;   -0,379;    0,227
1125,364;    5,944;    0,712;   -0,955
1125,901;   49,944;    6,258;    1,227
1126,438;   45,035;    3,530;    0,955
1126,975;   11,126;    2,985;   -0,773
1127,513;   15,399;    2,621;    2,136
1128,050;   11,944;   -0,561;   -0,682
1128,587;   17,944;    1,348;   -0,227
1129,124;   26,308;   -0,015;    1,318
1129,661;   15,399;   -1,924;    0,227
1130,198;   39,126;    2,439;    0,773
1130,734;   23,944;   -0,379;    1,409
1131,271;    8,490;   -1,197;    0,864
1131,808;   30,490;    1,621;    3,045
1132,345;   17,944;    4,530;    0,318
1132,881;    6,944;   -0,561;   -1,864
1133,418;   19,490;    0,348;   -1,136
1133,954;    9,581;    0,712;   -2,682
1134,491;   21,308;    1,712;   -0,773
1135,027;   10,944;    2,167;    0,864
1135,564;   16,581;    1,439;    2,955
1136,100;   15,944;   -0,742;    2,136
1136,636;    6,308;   -1,015;   -1,045
1137,172;   11,217;    0,894;   -1,045
1137,708;   10,763;   -1,561;   -1,045
1138,245;    7,308;    0,803;   -1,227
1138,781;    8,399;    1,803;   -3,318
1139,317;    7,854;    1,894;   -1,409
1139,852;   13,308;    3,076;    0,136
1140,388;   18,581;    2,076;   -0,409
1140,924;   10,672;    1,076;   -2,227
1141,460;    5,854;   -0,288;    0,136
1141,996;    5,490;   -0,652;    2,682
1142,531;    4,035;    1,076;    3,318
1143,067;   26,399;    1,167;    1,045
1143,602;   38,944;    3,439;   -0,318
1144,138;   17,399;    0,803;    1,045
1144,673;    7,399;    1,621;    1,409
1145,209;    9,763;    2,894;   -0,318
1145,744;    2,035;    0,803;    0,864
1146,279;   12,399;    1,530;   -0,136
1146,815;   10,399;    1,530;   -2,682
1147,350;   14,035;   -0,924;    0,045
1147,885;    7,035;   -1,924;   -1,318
1148,420;    7,308;    2,439;    0,773
1148,955;    7,490;   -1,470;    1,864
1149,490;    7,308;   -1,106;   -1,591
1150,025;    4,308;   -1,106;   -1,773
1150,560;   13,944;   -0,288;   -0,955
1151,094;   11,581;    0,258;   -0,591
1151,629;   11,217;   -3,742;    0,864
1152,164;    4,763;   -1,288;    1,318
1152,698;    3,399;    1,258;   -0,136
1153,233;    1,035;   -1,379;   -0,682
1153,767;    4,308;   -0,288;   -2,318
1154,302;    8,763;   -0,379;    1,773
1154,836;   10,035;    0,803;   -2,136
1155,371;    6,854;    2,258;    3,682
1155,905;    6,035;    1,985;    1,682
1156,439;    9,763;    0,530;   -0,500
1156,973;    7,672;    0,439;    0,318
1157,507;    3,399;   -1,742;    0,682
1158,042;    5,126;   -0,652;    1,045
1158,576;    8,126;   -0,561;    1,773
1159,110;    9,763;    0,076;    2,409
1159,643;    8,581;   -2,470;   -0,045
1160,177;    3,308;   -2,015;    1,500

