
Integration time [ms]:   0,050
Averaging Nr. [scans]: 11
Smoothing Nr. [pixels]: 0
Data measured with spectrometer [name]: 7318044SP
Wave   ;Sample   ;Dark     ;Reference
[nm]   ;[counts] ;[counts] ;[counts] 

186,757;  -18,715;   38,161;    1,318
187,357;   26,202;   26,706;    0,955
187,958;   -5,957;   17,252;   -1,591
188,558;   43,074;   12,979;   -1,227
189,159;   12,064;   10,070;   -4,500
189,759;  -15,986;    5,797;   -3,591
190,360;  -15,643;    6,797;   -2,136
190,960;   20,070;    5,706;   -4,136
191,560;   26,233;    2,614;   -6,591
192,161;  236,409;    5,885;   -3,500
192,761;   92,906;    5,520;   -3,227
193,361;   42,939;    3,065;   -3,773
193,962;   90,383;    1,612;   -2,682
194,562;   27,393;   -0,114;   -3,955
195,162;   39,502;   -0,567;   -2,227
195,762;  176,390;    2,433;   -0,045
196,362;  128,109;    1,706;   -2,500
196,963;   22,845;    1,706;   -0,864
197,563;   73,725;    1,252;   -0,955
198,163;   20,266;   -0,111;   -0,682
198,763;   30,237;   -0,020;   -0,500
199,363;  105,609;    3,616;   -0,500
199,963;   72,708;    2,162;    0,409
200,563;   60,022;    6,344;   -1,409
201,163;   41,016;    5,435;   -0,227
201,763;   95,489;    1,435;    0,318
202,363;   55,675;    0,980;    1,500
202,963;  118,704;    1,526;    1,045
203,563;  190,944;    0,344;    0,500
204,162;   95,274;    1,889;   -1,864
204,762;   86,169;    2,071;    0,591
205,362;   59,524;    0,708;    1,955
205,962;  125,638;    3,435;    1,955
206,562;  117,611;    1,889;    2,318
207,161;   96,111;    1,708;    0,318
207,761;  222,464;    4,435;    2,409
208,361;  117,758;    1,889;    1,409
208,960;  178,973;    2,889;    1,500
209,560;  209,485;    0,435;    1,591
210,160;  213,555;    5,071;    1,864
210,759;  184,900;    0,708;    1,227
211,359;  180,429;   -0,474;    1,045
211,958;  384,053;    3,526;    2,045
212,558;  435,330;    0,799;    1,864
213,157;  312,973;   -0,929;    1,500
213,757;  645,789;    5,617;   -0,227
214,356;  396,592;    1,708;   -0,409
214,956;  649,683;    3,526;    0,409
215,555;  360,406;    0,617;    2,136
216,154;  313,714;   -0,292;   -0,591
216,754;  317,049;    1,253;    0,773
217,353;  403,437;   -0,383;   -1,045
217,952;  276,675;    2,072;    0,318
218,552;  473,508;    0,254;   -0,773
219,151;  373,534;   -1,110;    0,955
219,750;  367,879;    0,890;   -0,227
220,349;  390,454;   -2,292;    1,045
220,948;  509,111;    1,163;    1,136
221,548;  435,694;    0,617;    1,227
222,147;  523,384;   -1,292;   -0,409
222,746;  758,613;    1,254;   -0,955
223,345;  602,776;   -1,019;    0,500
223,944;  610,284;    1,163;    0,773
224,543;  686,278;    4,072;   -1,409
225,142;  780,212;    1,345;    0,136
225,741;  687,532;    1,163;    1,045
226,340;  668,003;    1,254;   -0,955
226,939;  959,355;    2,708;   -0,136
227,538;  757,160;    1,163;   -0,773
228,137;  943,931;    0,435;    0,864
228,735;  905,735;    0,435;    1,227
229,334;  697,797;   -0,474;   -0,227
229,933; 1026,714;    0,799;    0,591
230,532; 1080,995;   -1,201;   -0,409
231,131; 1148,460;    1,253;    0,318
231,729; 1023,915;    1,163;   -2,318
232,328;  952,018;    0,435;   -1,500
232,927;  945,793;    4,526;   -0,500
233,525;  927,708;    0,981;    0,045
234,124; 1029,142;    1,890;   -1,591
234,723;  937,349;    1,617;   -1,045
235,321;  965,545;    1,163;    0,136
235,920; 1047,111;    2,526;   -1,227
236,518; 1305,034;    1,072;    0,318
237,117; 1154,855;    2,890;   -0,227
237,715; 1181,413;    1,163;   -0,500
238,314; 1257,493;    1,708;   -2,318
238,912; 1468,346;    0,526;   -1,409
239,510; 1328,834;    1,162;   -1,227
240,109; 1530,712;   -0,474;    3,773
240,707; 1502,658;   -0,474;    1,227
241,305; 1496,158;   -0,383;    0,136
241,904; 1688,613;   -0,292;   -2,045
242,502; 1792,202;    3,253;   -0,227
243,100; 1738,293;    3,344;   -0,955
243,698; 1874,123;    2,799;    1,682
244,297; 2005,175;   -0,656;    0,682
244,895; 2018,789;   -0,474;   -2,318
245,493; 2338,807;    2,981;   -0,591
246,091; 2376,441;    5,163;   -1,318
246,689; 2373,518;    2,163;    0,591
247,287; 2502,468;   -0,019;   -1,136
247,885; 2773,758;   -1,019;    1,227
248,483; 2876,782;   -0,201;   -0,500
249,081; 3043,634;    0,981;    1,591
249,679; 3237,884;   -1,019;    1,682
250,277; 3461,020;   -2,292;    0,864
250,875; 3500,125;    0,617;   -1,045
251,473; 3605,722;   -0,019;    0,500
252,071; 3815,964;   -0,383;    1,045
252,669; 3980,739;   -1,565;    0,318
253,267; 4196,412;    1,618;    0,773
253,864; 4162,923;    0,617;    0,682
254,462; 4258,260;    1,526;    1,591
255,060; 4213,005;    0,072;    1,318
255,658; 4470,648;   -3,292;   -0,136
256,255; 4890,636;   -0,201;   -2,045
256,853; 4852,121;    2,345;    1,409
257,451; 4860,142;    1,981;    1,864
258,048; 5267,706;    2,072;    1,864
258,646; 4976,518;    0,436;   -1,045
259,243; 5180,848;    2,981;    2,227
259,841; 5254,718;    1,799;    0,318
260,438; 5181,828;    0,254;    0,864
261,036; 5790,406;    0,617;    1,409
261,633; 5819,041;    1,526;    2,227
262,231; 5673,913;   -0,110;   -0,045
262,828; 5800,396;   -0,383;    1,136
263,425; 5849,404;   -1,928;   -0,591
264,023; 6110,278;    1,436;    0,045
264,620; 5750,943;    1,526;   -0,318
265,217; 6099,208;    2,890;    3,136
265,815; 6242,696;    2,527;    2,136
266,412; 6153,782;    0,072;    0,136
267,009; 6197,673;    0,526;    0,773
267,606; 6204,154;    0,345;   -0,955
268,203; 6165,045;   -0,383;   -0,591
268,801; 6440,487;   -0,474;    0,591
269,398; 6706,927;   -0,564;    2,500
269,995; 6725,032;    0,890;    1,591
270,592; 6529,105;    0,799;   -0,500
271,189; 6740,235;    1,981;    0,409
271,786; 6867,908;    2,072;    1,227
272,383; 6771,344;   -0,383;    0,227
272,980; 6887,394;    1,617;    0,318
273,577; 7289,113;    2,162;    1,227
274,174; 6870,933;    1,435;    2,591
274,771; 6859,284;    1,890;   -0,773
275,367; 7035,371;    3,253;    1,409
275,964; 7025,706;   -0,565;   -0,500
276,561; 7136,055;   -2,474;   -1,045
277,158; 7289,156;    1,799;   -1,773
277,755; 7417,997;   -0,110;    0,409
278,351; 6843,322;    0,436;   -1,500
278,948; 7141,584;   -0,201;    0,045
279,545; 7173,536;    0,527;    2,318
280,141; 7811,266;    1,254;   -2,045
280,738; 7623,528;    2,435;   -0,136
281,334; 7803,018;   -0,383;    0,591
281,931; 7317,187;    2,890;   -1,318
282,528; 7525,059;    4,072;   -0,500
283,124; 8188,078;    3,345;   -0,500
283,721; 8078,129;    0,709;    1,409
284,317; 7974,817;    0,163;    2,500
284,913; 8533,578;   -0,110;    0,591
285,510; 8761,578;    2,890;   -0,318
286,106; 8808,900;    2,345;   -0,955
286,703; 8406,596;    0,072;    1,955
287,299; 8694,173;    1,254;   -0,591
287,895; 8985,979;    0,890;   -1,045
288,491; 9580,018;    0,163;    2,136
289,088; 9405,567;    0,163;    2,409
289,684; 9542,012;    2,890;    1,500
290,280; 9639,041;    1,890;    0,682
290,876; 9749,894;    0,163;    5,500
291,472; 9796,282;    2,163;    2,227
292,068; 9963,202;    1,254;    0,227
292,665; 9746,355;   -0,564;    0,773
293,261; 9508,173;   -1,292;    2,136
293,857; 9985,830;    4,072;    2,136
294,453;10025,245;   -0,928;    0,955
295,049; 9977,247;    0,253;    1,955
295,644;10083,253;   -1,292;    0,136
296,240;10093,427;    0,162;   -0,136
296,836;10260,109;   -0,747;    0,318
297,432;10635,975;    2,980;   -0,500
298,028;10779,590;    0,435;    0,773
298,624;11220,607;    0,889;    1,864
299,220;11571,351;    0,435;    0,591
299,815;11283,685;    0,526;   -0,409
300,411;11143,066;    0,435;    1,773
301,007;11238,729;    1,889;    0,227
301,602;11325,648;    2,071;   -2,318
302,198;11549,766;    1,435;   -0,773
302,794;11943,272;    1,526;   -0,500
303,389;12147,497;    1,071;    1,045
303,985;12211,960;    1,253;    1,409
304,580;12234,076;    0,889;    1,591
305,176;12264,576;    0,344;    0,136
305,771;12210,287;   -0,929;   -1,227
306,367;12029,807;    3,071;    0,136
306,962;12457,194;    2,889;    1,500
307,558;12183,487;    2,435;    0,136
308,153;12112,590;   -0,383;   -1,136
308,748;12321,014;    0,162;    1,682
309,344;12297,661;    0,253;   -1,318
309,939;12402,747;    2,071;   -1,318
310,534;12695,204;   -2,020;   -1,682
311,130;12624,008;   -0,656;   -2,500
311,725;12336,123;    0,526;   -0,500
312,320;12584,824;    1,253;    0,045
312,915;12463,127;    2,890;   -1,045
313,510;12431,809;    0,526;   -0,500
314,105;12939,514;   -3,565;    1,409
314,700;12278,630;   -1,656;   -1,045
315,295;11891,621;   -0,020;    0,045
315,890;11409,165;   -0,292;    0,864
316,485;11696,334;    0,253;   -0,318
317,080;11804,677;   -0,929;    1,591
317,675;12320,293;    3,071;   -0,682
318,270;11623,838;    6,889;    3,318
318,865;11652,460;    2,435;    3,045
319,460;11426,431;   -1,565;    0,591
320,055;11669,840;   -2,565;   -1,227
320,650;11280,278;   -1,838;   -0,591
321,244;11317,276;    0,889;   -1,409
321,839;12232,309;    0,980;   -0,227
322,434;12130,642;   -0,111;   -1,591
323,029;11762,673;   -0,474;    1,591
323,623;11586,468;    0,798;    0,773
324,218;11381,935;    2,707;    1,409
324,812;11289,378;    0,889;    1,591
325,407;11132,249;   -0,929;    2,045
326,002;11083,425;    0,526;   -0,409
326,596;11401,313;   -0,656;    1,318
327,191;11674,353;   -0,383;   -1,045
327,785;11265,223;   -0,747;   -0,227
328,379;11586,933;   -0,383;    0,136
328,974;11416,968;    1,798;   -3,955
329,568;11680,518;    2,889;   -2,409
330,163;11546,919;    2,435;    1,045
330,757;11984,706;    0,253;    1,591
331,351;11391,218;   -0,292;    0,682
331,945;11733,985;   -0,383;    1,409
332,540;11369,869;    1,617;   -0,591
333,134;11566,245;    3,344;    0,773
333,728;11873,198;    2,799;    0,318
334,322;12307,485;    0,889;   -0,864
334,916;11641,642;    0,344;    0,955
335,510;12051,952;   -0,111;   -0,136
336,105;12392,989;   -0,929;    1,591
336,699;12113,822;   -1,292;    0,591
337,293;12100,942;    1,071;    0,318
337,887;12332,495;    0,071;    1,955
338,481;12473,799;    2,980;    0,591
339,074;12680,718;    2,071;    2,682
339,668;12555,520;   -0,110;    1,227
340,262;12908,568;    7,708;    3,227
340,856;12460,570;    1,708;   -0,682
341,450;11847,756;    0,708;    1,864
342,044;12865,214;    1,799;    0,136
342,637;12670,894;    1,162;   -2,136
343,231;12556,939;   -1,474;    0,682
343,825;12530,080;   -0,747;   -0,591
344,419;12544,344;   -0,474;    0,500
345,012;12352,613;    2,889;    4,045
345,606;12369,037;   -0,656;    1,591
346,199;12254,975;   -0,111;   -0,227
346,793;11791,140;    2,525;    2,045
347,386;12054,419;    0,889;   -1,136
347,980;12088,183;   -0,838;   -0,045
348,573;11889,190;   -1,748;    0,409
349,167;11522,167;    6,161;    4,773
349,760;11898,049;    2,252;    2,682
350,354;11901,041;    1,616;    1,136
350,947;11597,380;    2,798;    1,682
351,540;11298,931;    0,616;   -1,409
352,134;11267,175;   -1,111;    1,136
352,727;11323,202;   -0,657;    1,136
353,320;11132,919;    2,343;    0,591
353,913;10996,586;   -1,929;    1,864
354,507;11152,113;    0,434;   -1,227
355,100;11152,208;    0,071;    0,864
355,693;10253,855;    4,798;    2,409
356,286;10340,979;    0,980;    2,773
356,879;10742,351;   -0,475;    1,227
357,472;10284,247;    0,980;    1,500
358,065;10463,617;    3,161;    2,500
358,658;10418,427;    0,798;    2,318
359,251;10025,911;    0,252;   -0,591
359,844; 9391,301;    0,343;   -1,136
360,437; 9576,657;    0,252;    0,045
361,030; 9865,421;    0,525;   -0,682
361,623; 9415,157;    0,434;    0,318
362,215; 9461,973;    0,979;    2,045
362,808; 9269,332;   -2,293;   -1,682
363,401; 9447,551;    0,798;    0,136
363,994; 9144,477;    3,252;   -1,500
364,586; 9068,093;    0,888;   -1,500
365,179; 9265,686;   -0,203;   -1,136
365,772; 8713,361;   -0,930;    2,045
366,364; 9002,774;    1,524;   -3,227
366,957; 9207,837;    1,342;   -0,045
367,549; 9180,789;   -0,203;   -0,864
368,142; 8801,973;    0,978;   -1,500
368,734; 9036,649;    2,523;   -2,136
369,327; 8990,283;    2,341;   -0,500
369,919; 8866,134;   -1,659;    0,409
370,512; 8609,930;   -1,023;   -0,500
371,104; 8314,106;    2,704;    1,591
371,696; 8460,029;    1,703;   -0,955
372,289; 8587,265;    0,157;    1,136
372,881; 8729,414;    1,156;    1,318
373,473; 8645,069;    4,064;    1,136
374,066; 8413,098;    1,336;    0,500
374,658; 8259,801;    0,879;    1,136
375,250; 8616,299;   -1,668;   -1,409
375,842; 8449,742;   -0,124;   -0,045
376,434; 8291,447;   -2,762;   -0,409
377,026; 8919,418;   -1,855;   -2,500
377,618; 8811,038;    0,779;   -0,682
378,210; 8639,623;    3,141;   -1,955
378,802; 8440,744;    3,412;   -0,591
379,394; 8355,066;    3,411;    0,682
379,986; 9012,068;    1,138;   -0,955
380,578; 9156,628;    1,410;    0,773
381,170; 8386,521;    0,320;    0,045
381,762; 8344,841;   -0,224;    1,409
382,354; 8557,564;   -0,223;   -1,318
382,945; 8675,092;    0,870;    0,318
383,537; 8885,330;    1,144;   -1,955
384,129; 8877,854;    0,963;   -1,136
384,721; 9033,370;    0,418;    0,955
385,312; 8990,061;   -1,399;   -0,955
385,904; 9041,773;   -0,945;    1,591
386,496; 8381,373;    0,691;    1,045
387,087; 8523,854;    0,418;    2,500
387,679; 8554,253;   -0,401;    0,045
388,270; 8685,011;   -2,401;    2,045
388,862; 8806,278;   -0,401;   -0,318
389,453; 8679,588;    1,054;    1,045
390,045; 9002,280;    3,236;   -2,682
390,636; 8947,127;    0,144;   -0,591
391,227; 8787,346;    2,054;   -0,045
391,819; 8870,774;    0,781;    0,773
392,410; 8918,631;    0,600;    0,045
393,001; 8858,693;    1,600;   -1,591
393,593; 9118,308;    0,600;   -0,045
394,184; 9007,449;    0,873;   -0,409
394,775; 8912,499;    1,146;    2,136
395,366; 9156,307;    1,782;    0,773
395,957; 9174,422;   -2,400;    0,136
396,548; 9504,344;    1,054;    2,682
397,139; 9800,129;    2,236;    0,591
397,730; 9532,697;    0,873;    0,955
398,321; 9546,862;    0,509;    0,955
398,912; 9563,831;   -0,764;    0,136
399,503; 9695,292;   -1,945;   -1,409
400,094; 9096,740;   -1,582;    1,682
400,685; 8940,930;    3,600;    0,045
401,276; 9045,997;   -0,400;   -0,955
401,867; 9341,180;   -1,127;    0,773
402,458; 9421,387;    1,509;   -2,318
403,048; 9401,191;    0,146;    0,591
403,639; 8968,742;    1,509;    0,864
404,230; 9215,709;    0,691;    0,318
404,821; 9146,019;   -0,127;    0,045
405,411; 9273,315;   -0,763;   -2,591
406,002; 8799,800;    3,237;   -1,136
406,592; 8579,616;    2,691;    0,045
407,183; 8890,947;    0,328;   -1,500
407,774; 8760,087;    1,419;   -0,136
408,364; 9137,649;    2,600;    0,409
408,954; 8689,501;   -0,036;    1,227
409,545; 8696,821;    1,873;    1,045
410,135; 8157,226;   -1,581;    0,500
410,726; 8311,075;    0,783;    0,318
411,316; 8669,065;    2,237;    0,773
411,906; 8303,509;    0,146;   -0,409
412,497; 7732,554;   -0,490;   -0,045
413,087; 8331,926;    0,783;   -0,227
413,677; 8726,746;   -2,490;    3,864
414,267; 8462,835;   -1,035;    1,409
414,857; 8413,104;    0,419;    4,227
415,448; 8675,125;   -0,763;    0,500
416,038; 8306,686;   -2,945;   -0,591
416,628; 8213,248;    0,965;    0,409
417,218; 7658,325;   -1,762;    3,318
417,808; 7854,503;    0,965;   -0,409
418,398; 8248,734;   -1,035;    2,682
418,988; 8222,317;   -2,217;    0,591
419,578; 8386,434;    3,601;    1,409
420,168; 8688,901;    0,692;   -0,955
420,757; 8187,887;    0,964;   -1,500
421,347; 7818,817;    1,601;   -0,227
421,937; 7884,263;    3,329;    1,409
422,527; 7767,542;    2,602;   -0,773
423,116; 7535,482;    2,692;   -0,045
423,706; 7853,998;    2,965;    0,318
424,296; 7729,515;    1,601;    0,682
424,885; 8079,151;    1,510;   -3,045
425,475; 8290,459;    1,147;   -2,864
426,065; 8157,283;   -1,489;   -0,318
426,654; 7732,310;    0,329;   -0,318
427,244; 7792,916;    1,147;    1,409
427,833; 7171,269;    1,056;   -0,500
428,423; 7547,025;    0,147;    1,136
429,012; 8198,779;    2,420;   -1,136
429,601; 7649,926;    2,057;    0,136
430,191; 7807,858;    2,511;    4,318
430,780; 7330,201;   -1,671;   -0,409
431,369; 7246,940;    1,329;   -0,045
431,959; 7747,502;    1,693;    0,500
432,548; 7468,035;   -1,398;   -0,045
433,137; 7520,209;    0,329;   -1,318
433,726; 7895,261;    0,148;    0,500
434,315; 7270,447;    0,148;    2,409
434,905; 7254,151;    0,693;    1,409
435,494; 7161,897;    3,148;    0,955
436,083; 7440,752;    1,420;   -0,955
436,672; 7201,653;    1,148;    0,500
437,261; 6785,482;    0,512;   -1,955
437,850; 6829,575;   -1,125;    0,682
438,439; 6706,984;    2,239;    1,955
439,027; 6471,554;    3,421;    1,773
439,616; 6695,696;    2,239;    1,227
440,205; 6434,659;    0,057;   -2,136
440,794; 6313,587;   -0,306;   -0,045
441,383; 6394,550;    1,603;   -0,591
441,971; 6168,855;   -0,306;    0,591
442,560; 5914,965;    0,603;   -1,773
443,149; 5626,078;    3,060;   -1,318
443,737; 5690,645;    0,968;   -2,318
444,326; 5745,826;    0,331;    0,318
444,915; 5628,607;   -1,851;    0,864
445,503; 5799,994;    0,058;   -0,318
446,092; 5293,110;    7,876;    2,136
446,680; 5599,690;    1,876;    0,318
447,269; 5562,240;   -1,487;   -0,318
447,857; 5261,529;    2,240;   -1,773
448,445; 5251,211;    2,149;    1,318
449,034; 5289,432;    0,876;   -1,136
449,622; 5236,901;    1,240;    3,500
450,210; 4824,523;    3,149;    2,227
450,799; 5033,806;    2,604;   -0,591
451,387; 4805,411;    1,786;   -0,591
451,975; 4534,343;   -1,305;    0,864
452,563; 4606,320;    0,422;    2,318
453,151; 4437,558;   -1,032;   -1,227
453,739; 4253,843;   -1,577;    0,136
454,328; 4204,620;    0,604;   -2,136
454,916; 3914,886;    1,150;   -0,136
455,504; 3922,523;    3,513;    1,227
456,092; 3972,461;    2,150;   -1,591
456,679; 3813,378;    0,604;    0,682
457,267; 4067,394;    3,604;    1,045
457,855; 3827,351;    3,241;    1,409
458,443; 3460,516;   -0,304;    1,682
459,031; 3695,845;    1,332;    2,409
459,619; 3818,167;   -3,577;    2,864
460,206; 3669,878;   -0,759;    2,045
460,794; 3707,934;   -0,668;   -0,227
461,382; 3784,312;    0,878;   -0,864
461,970; 3462,151;    0,605;    1,864
462,557; 3483,429;    0,878;   -0,682
463,145; 3600,053;   -0,304;   -1,682
463,732; 3700,334;    2,514;   -1,045
464,320; 3444,989;    1,514;   -3,045
464,907; 3365,551;    0,423;   -0,773
465,495; 3185,483;    2,696;   -1,227
466,082; 3134,254;    2,060;   -0,045
466,670; 2972,221;    2,605;    1,227
467,257; 3165,365;    0,060;    2,045
467,844; 3277,349;    1,514;    0,045
468,432; 3207,169;   -0,031;    3,500
469,019; 2943,630;    1,606;   -1,773
469,606; 3076,090;    0,969;    3,682
470,193; 2992,667;    2,151;    0,227
470,780; 2817,576;    0,333;    0,864
471,368; 2821,326;   -1,212;   -0,773
471,955; 2739,650;    1,060;   -0,682
472,542; 2504,971;   -0,303;   -1,136
473,129; 2422,157;   -0,485;    0,136
473,716; 2245,838;    0,060;    0,591
474,303; 2247,958;    1,333;   -0,864
474,890; 2284,582;    2,333;   -0,500
475,477; 2330,280;   -0,576;    0,409
476,064; 2127,609;    0,697;   -1,591
476,650; 2102,415;    2,152;    0,318
477,237; 1954,051;    1,879;    0,955
477,824; 1897,991;    3,879;    0,864
478,411; 1715,024;    0,606;   -0,318
478,997; 1682,720;    0,606;   -0,773
479,584; 1563,937;   -0,666;   -0,409
480,171; 1921,582;    1,243;   -0,773
480,757; 1886,008;   -0,848;    0,773
481,344; 1699,212;    0,334;    0,409
481,931; 1374,803;   -0,393;    1,045
482,517; 1680,675;    0,425;    0,318
483,104; 1779,902;    1,334;    2,864
483,690; 1607,946;    0,243;    0,045
484,276; 1525,935;    0,698;    0,227
484,863; 1779,384;    2,152;    1,136
485,449; 1546,832;    0,152;    0,318
486,035; 1397,379;   -0,666;   -0,136
486,622; 1588,985;   -2,393;    0,045
487,208; 1409,061;    1,334;    1,500
487,794; 1274,280;    0,971;    0,318
488,380; 1302,941;    0,698;   -1,409
488,967; 1294,960;   -1,120;   -0,409
489,553; 1298,218;   -1,029;   -1,409
490,139; 1421,939;    0,971;    0,773
490,725; 1251,375;    0,789;   -0,227
491,311; 1253,268;    1,516;    3,045
491,897; 1097,857;   -0,665;    1,500
492,483; 1163,098;    0,426;    1,227
493,069; 1976,516;    5,426;    0,864
493,655; 1495,189;    1,789;    0,682
494,241; 1334,082;    1,517;   -0,955
494,826; 1500,295;    0,335;   -1,045
495,412; 1555,330;    0,335;   -0,682
495,998; 1541,795;    0,971;   -0,318
496,584; 1657,005;    2,244;    1,045
497,169; 1653,311;    2,335;   -0,682
497,755; 1663,888;    1,244;    1,227
498,341; 2211,933;    2,153;    0,318
498,926; 2353,857;    2,881;    1,955
499,512; 2278,489;   -0,028;    2,955
500,097; 2310,542;   -0,574;   -0,318
500,683; 2540,460;   -0,028;    2,136
501,268; 2902,251;    1,881;   -0,955
501,854; 3089,208;   -0,119;    1,227
502,439; 3244,067;   -0,573;   -1,773
503,024; 3560,197;    1,608;    0,500
503,610; 3892,280;    1,335;   -0,682
504,195; 4152,020;    1,245;    1,955
504,780; 4599,400;    2,335;    1,227
505,366; 4912,586;    4,063;    2,864
505,951; 5058,030;   -1,119;    1,045
506,536; 5465,706;    1,427;   -3,682
507,121; 5798,567;    1,699;   -0,318
507,706; 6549,156;   -0,392;    1,045
508,291; 7200,954;   -2,937;    1,136
508,876; 7177,966;   -0,482;    2,591
509,461; 7197,299;    1,427;   -0,773
510,046; 7965,730;   -0,391;    0,318
510,631; 8578,939;   -0,119;   -0,773
511,216; 8676,561;   -0,664;   -0,500
511,801; 9449,532;   -0,755;    2,591
512,386;10060,020;    0,972;    0,500
512,971;10398,697;    0,427;    0,955
513,555;10364,115;    1,154;   -1,500
514,140;11432,796;    1,336;   -3,136
514,725;11812,406;    1,791;   -1,136
515,309;12224,501;    1,064;    0,318
515,894;12022,088;   -0,300;   -2,227
516,479;12752,505;    1,973;   -0,955
517,063;12861,193;    0,882;    1,227
517,648;13262,705;    0,155;   -1,136
518,232;13131,176;   -1,300;   -1,409
518,817;13683,807;    1,337;    1,682
519,401;14116,230;    0,700;    0,591
519,985;13810,205;    2,700;    1,136
520,570;13832,864;   -0,118;   -1,955
521,154;14321,032;    0,064;    0,591
521,738;14641,982;    1,064;    2,409
522,323;15389,672;   -0,390;    1,682
522,907;15274,904;    2,428;   -0,136
523,491;15058,765;    1,155;    0,955
524,075;15146,941;    0,428;    0,591
524,659;15345,548;    0,973;    0,591
525,243;14832,550;    0,883;    0,409
525,827;15152,193;    0,883;   -0,045
526,411;16117,548;    1,155;   -0,136
526,995;16471,749;    0,337;    1,409
527,579;16084,466;    1,974;   -1,045
528,163;16497,550;    0,428;   -1,500
528,747;16488,296;    1,065;   -0,773
529,331;16839,623;    0,883;   -1,409
529,915;17089,796;    2,338;    0,955
530,499;17068,306;    0,247;    1,227
531,082;16780,709;    1,065;    1,591
531,666;16195,598;    0,520;    0,773
532,250;17004,745;    0,428;    2,682
532,833;17416,036;    0,610;    2,773
533,417;17329,736;    1,247;    0,864
534,001;17313,864;    0,429;   -0,318
534,584;18077,476;    1,974;    0,500
535,168;17894,083;    3,247;    1,409
535,751;17994,647;    4,520;    0,045
536,334;17420,959;    4,520;   -0,409
536,918;18093,497;    1,974;    1,591
537,501;18204,790;    1,520;    1,318
538,085;18205,891;    1,702;    1,045
538,668;18417,885;    0,883;    2,409
539,251;18773,970;    3,156;    3,773
539,834;18784,275;    0,156;    0,773
540,418;18696,170;    3,247;    4,318
541,001;18887,019;    2,702;    1,773
541,584;18906,300;    1,429;    2,227
542,167;18579,627;    0,702;    2,955
542,750;18779,792;    0,793;   -0,773
543,333;18335,961;    1,429;    2,136
543,916;19183,405;   -0,298;    2,500
544,499;19867,970;    2,520;    0,227
545,082;19898,978;    0,248;    3,591
545,665;20054,624;   -0,207;    1,500
546,248;20431,052;    0,520;   -0,318
546,830;20104,854;   -1,752;    1,955
547,413;20558,060;    0,157;   -0,773
547,996;21105,941;    0,157;    0,500
548,579;20892,788;   -0,843;    0,955
549,161;20714,341;    0,884;    2,682
549,744;20489,279;    0,612;    0,409
550,326;21041,399;    0,885;   -1,136
550,909;20756,203;    2,339;    0,591
551,492;21201,858;    0,521;    0,227
552,074;20998,626;   -0,024;   -1,318
552,657;21592,060;    2,430;    0,045
553,239;21347,860;   -3,024;   -0,773
553,821;21225,934;   -1,570;    1,045
554,404;20714,102;   -0,024;    1,136
554,986;21136,457;    2,248;    1,045
555,568;21775,166;    0,430;   -0,955
556,151;20920,159;    4,067;   -0,227
556,733;21099,566;   -1,388;   -0,864
557,315;21642,938;    4,703;    0,500
557,897;21435,027;    0,521;   -0,500
558,479;21637,000;    1,703;    1,318
559,061;21717,434;    1,067;   -0,864
559,643;22096,197;   -0,297;    0,045
560,225;22535,174;   -0,388;    2,864
560,807;22573,833;    0,340;    0,318
561,389;22022,703;   -1,206;    2,318
561,971;22785,525;   -0,660;    2,136
562,553;22618,756;    0,613;    1,591
563,135;22785,748;    1,249;    1,136
563,717;22344,517;    3,158;    1,136
564,298;23155,424;    3,976;   -0,045
564,880;22896,283;    0,340;   -1,409
565,462;23102,920;    1,977;    1,318
566,043;24373,023;   -0,933;    2,318
566,625;23920,099;    4,067;    1,227
567,207;23753,814;    0,704;    1,682
567,788;25030,887;   -0,114;    1,500
568,370;25958,304;   -1,841;   -0,500
568,951;25865,498;   -0,569;    0,227
569,533;26881,052;    0,977;   -0,500
570,114;27420,825;   -0,296;    0,682
570,695;27973,479;   -0,478;   -1,318
571,277;28642,471;   -0,205;   -1,682
571,858;29539,544;    2,704;   -1,136
572,439;30617,684;    0,795;   -1,045
573,021;30861,213;    0,432;   -2,773
573,602;31462,025;    1,795;    0,318
574,183;32481,996;   -0,114;    2,227
574,764;32813,645;    2,068;    0,409
575,345;33498,076;    0,250;   -0,136
575,926;34192,170;    2,704;    0,136
576,507;34211,374;    2,704;   -0,227
577,088;35385,248;    1,704;    1,682
577,669;35411,851;    1,704;    1,955
578,250;36292,541;   -0,750;   -1,045
578,831;37059,180;   -0,841;   -2,227
579,412;37399,936;   -1,205;    0,955
579,993;38445,672;    1,432;    0,227
580,573;38771,357;   -0,023;   -0,955
581,154;37680,537;    1,613;   -0,591
581,735;38581,984;    0,341;    0,773
582,315;38067,074;    0,523;    2,136
582,896;38445,917;   -1,750;    1,227
583,477;37888,264;    0,614;    1,227
584,057;38002,273;    1,159;    0,955
584,638;38261,944;   -2,750;    2,318
585,218;38246,607;    2,886;    2,682
585,799;38417,981;    1,977;   -0,227
586,379;38398,793;    1,250;    1,591
586,959;37082,793;    2,613;    0,318
587,540;36234,758;    0,432;    2,227
588,120;35625,107;   -1,113;   -0,045
588,700;34474,628;    2,977;    2,136
589,281;34747,833;    1,250;   -0,955
589,861;34685,318;   -0,296;   -1,682
590,441;34452,498;   -1,477;   -2,682
591,021;33322,293;    1,432;   -2,591
591,601;33528,182;    0,431;    0,500
592,181;33467,796;   -1,296;   -0,773
592,761;32689,638;    2,250;    1,409
593,341;32486,108;    1,522;    0,045
593,921;32441,395;   -0,569;    1,591
594,501;32280,465;    1,250;    1,318
595,081;32148,855;    0,522;   -0,318
595,661;32514,434;    1,068;    0,955
596,240;33083,035;   -1,023;    0,136
596,820;32699,523;    2,613;    1,955
597,400;32947,153;    1,977;    0,773
597,980;33184,591;   -0,750;    1,045
598,559;33198,019;    0,341;   -0,227
599,139;32879,105;   -0,750;   -1,227
599,718;32776,378;    0,795;   -0,409
600,298;33030,236;   -2,387;    0,682
600,877;33238,816;    4,795;    1,409
601,457;33540,213;    0,340;    1,136
602,036;33437,622;    1,795;    2,045
602,616;33727,758;    2,250;    1,682
603,195;34055,017;    0,431;    3,500
603,774;33527,886;   -0,296;    2,045
604,354;33433,153;    2,522;   -0,500
604,933;32825,411;    0,250;    1,864
605,512;32983,343;    2,340;    0,591
606,091;33014,426;    1,886;    3,773
606,671;33810,465;    0,249;    0,773
607,250;32813,494;    1,431;    3,136
607,829;33096,161;    1,158;    3,227
608,408;32958,089;    4,613;    2,591
608,987;31905,368;    2,704;    3,409
609,566;32223,448;    0,341;   -2,500
610,145;32305,845;    2,885;    0,682
610,723;32747,665;    1,613;    6,864
611,302;31896,783;    1,067;    1,682
611,881;31337,535;    5,158;   11,227
612,460;32214,635;    0,795;    3,955
613,039;32637,835;    1,703;    2,045
613,617;31338,072;    0,886;    4,773
614,196;31572,397;    1,613;    1,227
614,775;31859,135;    1,249;    2,409
615,353;31827,395;   -1,660;    0,864
615,932;31421,676;    0,249;    2,409
616,510;32001,575;    0,158;    0,591
617,089;31516,957;    8,794;   17,591
617,667;31253,327;    4,885;    6,136
618,246;31054,006;   -1,115;    1,318
618,824;31194,938;    1,612;   -0,955
619,402;30723,225;    0,431;   -1,773
619,981;31236,856;    1,067;   -1,045
620,559;31110,418;    0,794;    1,682
621,137;30562,106;    3,067;    1,864
621,715;30552,108;    3,703;   -0,682
622,293;30447,783;    1,885;   -0,773
622,871;30974,484;    0,340;    0,500
623,450;30470,333;    0,430;   -0,864
624,028;30329,893;   -0,388;   -0,955
624,606;29911,951;    2,339;    1,682
625,183;30327,350;   -0,661;   -1,136
625,761;29882,608;    1,885;    1,136
626,339;30170,988;    2,339;    2,591
626,917;30596,486;    0,339;   -0,045
627,495;30619,019;    2,794;    1,318
628,073;30027,564;    5,248;    2,864
628,650;29695,240;    3,067;    2,136
629,228;30124,947;    1,248;    4,409
629,806;29446,178;   -0,024;    1,136
630,383;29766,806;    0,066;   -0,318
630,961;29478,486;   -2,206;   -0,955
631,539;29187,560;   -2,479;    0,227
632,116;28396,213;   12,703;   15,409
632,694;29054,017;    4,885;    6,500
633,271;29371,862;    1,975;    2,682
633,848;29270,064;    1,430;    2,045
634,426;29360,410;    1,521;    1,773
635,003;28426,945;   -0,207;   -0,409
635,580;28758,705;    1,884;    3,682
636,158;29298,075;    3,793;    1,227
636,735;29249,533;    3,339;   -0,500
637,312;29362,738;    0,521;   -0,682
637,889;29511,211;    2,248;   -0,682
638,466;28975,891;    0,066;   -0,409
639,043;28957,507;    1,702;   -1,136
639,620;29304,275;    0,611;   -0,955
640,197;29648,270;    1,612;    1,682
640,774;29739,352;    1,430;    1,136
641,351;30182,979;    0,612;    1,136
641,928;29598,969;    2,794;    1,409
642,505;29178,959;    0,794;   -0,500
643,082;29314,677;    1,885;    1,227
643,658;28277,759;    1,157;    1,500
644,235;29053,204;   -2,479;    2,500
644,812;29352,558;    1,794;    0,773
645,388;29090,366;    1,612;    1,409
645,965;29155,629;    1,521;    1,682
646,542;29240,256;    3,430;   -0,227
647,118;29264,610;    3,703;   -0,955
647,695;29576,055;    0,339;    1,136
648,271;29464,864;   -2,115;    0,500
648,848;29804,218;    0,248;    2,227
649,424;29625,936;    0,976;    1,318
650,000;29367,744;   -0,388;   -1,045
650,577;29206,826;    0,158;   -0,955
651,153;29680,634;   -1,115;    0,955
651,729;30736,625;    0,521;    0,864
652,305;30980,979;    1,339;    2,773
652,881;36301,515;   -1,297;    1,136
653,458;44433,141;    0,249;    0,227
654,034;49170,132;    0,703;    1,591
654,610;51091,213;    0,339;    0,773
655,186;52661,840;    1,612;    3,045
655,762;52435,103;   -1,842;    0,409
656,338;52437,457;    0,703;    0,136
656,913;53493,629;   -0,297;    0,409
657,489;52758,620;    0,249;   -0,318
658,065;52650,428;    0,794;   -1,591
658,641;53181,601;    2,158;   -0,864
659,217;52495,864;    2,067;    0,409
659,792;51909,582;   -1,751;   -0,409
660,368;52239,572;   -0,388;   -0,682
660,944;51681,017;    1,794;    1,227
661,519;46348,007;    0,522;    0,409
662,095;38973,907;   -0,206;    0,591
662,670;33355,443;   -0,206;   -0,136
663,246;31823,524;   -0,660;   -0,409
663,821;31009,969;    0,431;    1,682
664,396;30499,869;    0,613;    1,864
664,972;30765,314;   -0,660;   -0,500
665,547;31118,213;    3,794;    0,136
666,122;31073,295;    1,340;    0,318
666,698;31373,830;    2,431;    0,318
667,273;30657,457;    0,885;    0,136
667,848;31511,811;    0,340;    1,500
668,423;31311,529;    1,795;    2,318
668,998;31923,065;    0,976;   -0,682
669,573;32492,419;    2,067;   -1,500
670,148;32298,864;    1,885;   -0,682
670,723;32098,127;   -0,024;    0,318
671,298;32628,299;   -1,296;    1,045
671,873;32701,562;   -0,296;   -0,136
672,448;32643,917;    1,704;    0,136
673,023;33053,452;    0,249;   -0,227
673,597;33313,534;    2,704;    2,318
674,172;33076,161;    2,431;    0,318
674,747;32559,606;   -0,205;   -1,045
675,321;32447,596;   -0,933;    3,318
675,896;31980,677;    2,158;    1,045
676,471;33001,486;    2,522;    1,591
677,045;32813,567;   -0,296;    0,682
677,620;32757,194;    2,158;    1,136
678,194;33151,366;    0,249;    1,136
678,769;32726,448;    0,886;   -0,318
679,343;32931,347;   -0,023;    1,773
679,917;32809,519;    0,340;    1,955
680,492;32933,510;    0,249;    3,227
681,066;33089,137;    0,613;    0,409
681,640;33128,400;    1,795;   -0,318
682,214;33917,663;    2,340;    0,500
682,788;33370,199;    0,613;   -0,773
683,363;33372,735;    1,977;    1,682
683,937;33067,271;    0,886;   -0,318
684,511;33967,988;   -1,023;   -0,591
685,085;33584,070;   -1,478;    0,318
685,659;33370,878;    1,431;    0,864
686,232;33645,141;    1,159;   -0,318
686,806;33338,041;    2,159;    0,409
687,380;33986,122;   -1,932;    0,591
687,954;34235,476;    2,432;    1,136
688,528;33913,012;    2,613;    1,955
689,101;34723,730;    0,432;    1,045
689,675;34296,539;    0,886;   -0,136
690,249;33614,620;    3,432;    0,409
690,822;33935,429;    1,159;    0,318
691,396;33996,510;    2,068;    1,227
691,969;33405,591;    2,523;    0,136
692,543;33886,036;   -0,568;   -1,955
693,116;33584,845;   -0,659;   -1,409
693,690;33418,381;   -0,296;    0,500
694,263;33966,371;    2,341;    2,955
694,836;34025,998;    2,795;    3,591
695,410;32535,261;    1,159;    1,773
695,983;33029,342;    1,614;    0,591
696,556;32985,242;   -0,750;   -1,045
697,129;33452,869;   -1,114;    1,409
697,703;33057,677;    1,341;    1,955
698,276;33012,759;    1,705;   -0,773
698,849;32808,113;   -1,023;    1,409
699,422;33156,467;    1,250;    0,591
699,995;32803,639;   -0,659;    0,136
700,568;33361,902;   -0,204;    3,045
701,140;33369,075;   -1,841;    1,682
701,713;33074,974;    0,341;    2,409
702,286;32882,146;    0,796;    0,864
702,859;32737,409;    0,614;   -0,591
703,432;31814,309;   -0,841;    0,682
704,004;32412,027;    1,978;    0,318
704,577;32254,563;    1,068;    0,136
705,150;32780,553;    0,887;    2,500
705,722;32550,634;    1,523;   -3,227
706,295;32370,898;    1,432;   -0,591
706,867;32163,979;    0,250;    1,955
707,440;32408,060;   -0,113;   -0,409
708,012;32736,414;   -0,022;    0,591
708,584;32613,132;    2,705;    0,227
709,157;32926,850;    1,160;   -0,591
709,729;32541,386;    1,069;    2,045
710,301;33432,012;   -1,204;    0,045
710,874;33457,548;    0,341;   -0,227
711,446;32307,993;   -0,295;    0,864
712,018;32163,802;   -3,022;    0,500
712,590;31839,883;   -0,204;    1,682
713,162;32433,419;   -0,477;    1,318
713,734;32687,682;    1,796;   -2,045
714,306;32475,945;    0,342;   -0,409
714,878;31099,754;   -0,295;    0,864
715,450;31973,835;   -0,113;    0,864
716,022;32286,917;    2,433;    1,318
716,593;32425,362;    0,978;    0,591
717,165;32336,716;    1,796;   -1,227
717,737;32046,070;    0,796;    0,409
718,309;31723,333;    1,160;   -0,045
718,880;31613,596;   -1,295;   -1,409
719,452;31849,950;    0,887;   -1,591
720,024;31385,577;    1,705;   -0,591
720,595;31981,204;    2,978;    0,955
721,167;31454,012;    1,160;   -2,045
721,738;30907,730;    2,069;   -1,045
722,309;30830,084;    1,251;   -1,227
722,881;30619,984;    2,705;    0,773
723,452;31316,792;    1,251;    2,864
724,023;31557,328;    1,524;    2,682
724,595;31292,955;    2,342;    0,682
725,166;31040,945;    1,524;   -0,409
725,737;30648,027;    1,887;    0,227
726,308;30773,563;    0,797;    0,318
726,879;31254,553;    1,069;    1,227
727,450;31072,089;   -2,022;   -0,045
728,021;30996,989;    1,069;    0,682
728,592;30879,524;    1,160;    0,500
729,163;31204,879;    1,433;   -0,136
729,734;31212,323;    2,160;   -0,227
730,305;31532,496;    0,615;    0,136
730,876;31903,486;    0,888;    2,955
731,447;31626,749;    0,797;    2,682
732,017;31726,831;   -0,840;    1,864
732,588;31190,276;   -0,021;    1,227
733,159;31404,448;    3,615;   -1,045
733,729;31214,438;    1,251;    0,409
734,300;30513,883;    0,160;    0,864
734,870;30911,419;   -1,385;    0,591
735,441;31438,319;    0,888;   -0,591
736,011;31202,491;    1,070;   -1,591
736,582;31139,300;    1,251;    0,045
737,152;30605,654;    0,979;   -2,045
737,722;31043,190;    1,070;   -0,682
738,293;30792,180;   -2,021;    1,318
738,863;30671,807;    1,797;    2,318
739,433;30411,888;    4,524;    0,318
740,003;31074,788;    1,524;   -0,682
740,573;30408,324;    2,252;   -1,591
741,143;30416,496;    3,615;    0,318
741,713;31142,213;    0,252;   -0,500
742,283;30814,113;    1,706;    1,591
742,853;30519,467;    0,524;    1,591
743,423;29969,276;    0,161;    0,045
743,993;30126,539;    1,070;    1,500
744,563;29410,529;    2,524;   -0,864
745,133;29393,974;   -0,112;   -0,864
745,702;30143,147;    2,797;    1,773
746,272;29300,319;    0,434;    0,591
746,842;29032,764;   -0,748;   -0,591
747,411;29461,027;   -0,839;   -0,318
747,981;29688,836;   -0,930;    0,500
748,551;29800,099;   -0,021;   -1,045
749,120;29592,635;   -0,112;   -0,227
749,690;30001,716;    2,161;    2,409
750,259;30270,525;    0,979;    2,955
750,828;30213,515;    4,070;   -1,955
751,398;30465,233;   -0,112;   -0,045
751,967;29903,405;    2,888;    0,409
752,536;30122,941;    1,161;   -0,227
753,105;30598,568;   -1,384;    0,227
753,675;30431,831;   -0,112;    1,773
754,244;30368,821;    0,888;    3,591
754,813;30439,448;    0,979;    1,227
755,382;30045,166;    0,798;    0,955
755,951;30591,065;   -0,112;    3,682
756,520;30091,874;    2,525;    1,864
757,089;30685,137;    1,888;    0,500
757,658;30916,127;    2,434;    1,227
758,227;30801,209;   -1,111;    0,318
758,795;31165,745;   -1,021;    1,136
759,364;31426,826;    0,525;   -0,591
759,933;30377,271;    1,343;   -0,045
760,501;29874,898;    0,252;   -1,318
761,070;30422,525;   -0,293;   -1,409
761,639;31167,970;    1,434;    1,318
762,207;30410,960;    0,889;   -0,955
762,776;30326,587;    2,889;    0,864
763,344;30297,850;    0,071;    0,591
763,913;29419,749;    1,616;    1,409
764,481;30146,285;    1,980;   -0,136
765,049;29863,276;    0,616;    1,409
765,618;29755,175;    1,434;    0,318
766,186;29833,620;    2,434;    0,136
766,754;29972,793;    1,798;    1,864
767,322;28955,965;    1,162;    0,409
767,890;28969,137;    0,525;   -1,773
768,459;29340,582;    2,616;   -0,318
769,027;29513,572;    2,525;    3,409
769,595;28520,563;    2,616;    2,591
770,163;28917,553;    3,344;    2,955
770,730;28654,453;    2,525;   -0,136
771,298;28522,352;    1,162;   -1,409
771,866;28596,343;    0,253;    4,955
772,434;28862,515;    1,162;   -1,864
773,002;29057,415;    2,616;    0,682
773,569;28660,769;    1,071;    1,682
774,137;28498,941;    0,889;   -0,045
774,705;29336,204;   -0,747;   -0,136
775,272;28730,831;    0,253;    0,682
775,840;28490,367;   -0,111;    2,682
776,407;27994,357;   -0,293;    1,955
776,975;27537,893;    1,162;    0,318
777,542;28567,520;    2,162;   -0,045
778,110;28447,692;    0,707;   -0,045
778,677;28102,046;    1,071;   -0,864
779,244;27804,128;   -1,020;    1,045
779,812;27943,845;    0,980;    0,864
780,379;27800,472;    2,435;    1,136
780,946;28021,917;    2,617;   -0,773
781,513;28350,362;   -0,565;    0,318
782,080;27624,262;    1,253;    2,864
782,647;28420,797;    1,708;    3,045
783,214;27999,424;   -0,201;    3,864
783,781;27596,869;    1,708;   -0,682
784,348;27470,496;    0,253;    1,500
784,915;27963,486;   -1,474;    0,318
785,482;27736,295;    2,708;    2,591
786,049;28166,467;    1,071;   -0,591
786,615;28305,640;    1,708;   -0,955
787,182;28064,175;   -3,201;   -0,682
787,749;27725,711;   -2,201;    1,409
788,315;27005,974;    0,253;   -0,409
788,882;27251,419;    0,981;   -1,227
789,448;27971,774;    1,435;   -0,955
790,015;27960,673;    1,799;    3,227
790,581;27540,573;    0,708;    0,227
791,148;27421,108;    1,344;    1,045
791,714;27648,099;   -1,019;    3,136
792,280;27301,817;    3,708;    1,591
792,847;26865,534;   -0,928;    2,500
793,413;27465,252;   -0,110;   -0,318
793,979;26953,242;    1,526;   -1,318
794,545;26989,324;    2,981;    2,682
795,111;26382,314;    2,435;    1,318
795,678;26544,486;    3,526;   -1,682
796,244;26205,477;    2,799;    0,136
796,810;26766,831;    0,799;    0,773
797,375;26502,912;   -0,292;   -2,136
797,941;26540,721;   -1,110;    0,591
798,507;26667,893;    0,254;   -0,955
799,073;26181,975;    2,708;    0,591
799,639;26276,510;    1,435;    3,136
800,205;26327,774;   -1,565;    2,682
800,770;25764,764;    1,345;    1,773
801,336;25833,482;    2,981;   -0,955
801,901;25484,836;    6,072;    3,136
802,467;26080,190;    0,526;    2,045
803,033;25385,453;   -0,019;    0,864
803,598;25563,625;    1,072;   -1,045
804,163;25595,616;    0,708;   -0,318
804,729;25590,333;   -0,110;    1,136
805,294;25957,687;    1,072;    2,227
805,859;25809,314;    0,890;   -0,409
806,425;25229,941;    3,890;    2,682
806,990;24852,931;    1,890;    4,318
807,555;25463,922;   -0,110;    2,591
808,120;25279,549;   -1,292;   -0,409
808,685;25297,448;    1,072;   -2,500
809,250;24788,711;    2,072;   -0,500
809,815;25133,065;   -0,201;    0,682
810,380;25659,329;    0,981;    1,591
810,945;26200,592;    2,890;    2,045
811,510;25371,946;   -0,200;    1,591
812,075;25072,845;    2,800;   -1,409
812,640;25079,472;    3,709;    1,409
813,204;25102,554;    2,163;   -0,227
813,769;25640,544;    0,254;   -0,045
814,334;24993,898;    0,527;    0,864
814,898;25038,252;    1,981;    0,591
815,463;24875,606;    0,981;   -0,773
816,027;24851,324;    1,345;   -2,318
816,592;24956,951;    2,163;   -2,045
817,156;24431,941;   -2,200;    1,136
817,721;24222,204;    0,982;    2,318
818,285;24163,740;    0,618;    1,500
818,849;24868,367;   -0,018;    1,682
819,414;24772,630;    0,073;    2,955
819,978;24265,530;   -0,291;    1,773
820,542;24914,247;    2,891;    0,500
821,106;24614,147;    2,800;    0,682
821,670;24631,228;    2,709;    2,591
822,234;24417,582;    1,073;    1,409
822,798;23740,755;   -0,836;    0,500
823,362;23656,563;    1,527;    4,227
823,926;22948,463;   -0,018;    1,136
824,490;23213,999;    3,527;   -0,682
825,054;23669,716;    2,527;   -1,136
825,618;23247,616;   -1,200;   -1,500
826,181;23167,606;    0,982;   -1,318
826,745;23090,051;   -0,745;   -1,045
827,309;23429,042;    2,255;    1,318
827,872;22783,487;    0,527;    0,955
828,436;23819,113;    1,982;   -0,773
828,999;23883,013;    2,436;    1,227
829,563;22665,003;   -0,654;    1,136
830,126;22482,721;   -0,018;   -0,591
830,690;22437,984;    0,709;    2,864
831,253;21942,793;   -0,473;    2,227
831,816;22135,874;   -0,018;    0,500
832,380;21993,865;    1,164;    0,864
832,943;22202,128;    3,073;   -0,500
833,506;21693,482;    0,255;   -1,227
834,069;22542,018;    2,164;   -0,955
834,632;22594,735;   -2,200;    1,318
835,195;22460,908;    1,346;    0,955
835,758;21608,989;    0,709;    1,955
836,321;21398,070;    1,073;   -1,045
836,884;21558,788;   -1,291;   -0,955
837,447;21570,597;    0,528;    1,773
838,010;21795,042;    1,800;    3,227
838,573;22136,668;    0,528;    0,773
839,135;22114,113;   -0,109;   -0,955
839,698;21519,195;    2,528;    0,409
840,261;20980,458;    0,255;   -0,227
840,823;20838,812;   -0,927;    0,864
841,386;21108,439;   -0,018;   -2,409
841,948;20959,520;    0,255;    1,773
842,511;20674,238;    0,255;    1,682
843,073;20867,228;    2,982;    0,227
843,636;20643,764;    0,619;   -0,227
844,198;20534,755;    1,255;    0,591
844,760;20728,563;    0,619;    1,955
845,322;20365,372;    0,164;    1,136
845,885;20800,362;   -0,290;    0,591
846,447;21207,807;    0,710;    0,227
847,009;20746,980;    3,983;   -0,682
847,571;21120,970;    1,346;   -2,045
848,133;21218,869;   -0,199;   -1,864
848,695;21091,405;    2,346;    1,409
849,257;20562,941;    1,346;   -1,682
849,819;20728,113;    2,983;   -0,409
850,381;20760,649;    1,801;   -0,864
850,942;21180,185;    1,892;   -0,591
851,504;21095,903;    0,983;    0,227
852,066;21127,712;    1,619;   -1,591
852,628;20646,157;    0,165;    1,955
853,189;20221,420;    0,256;    2,682
853,751;20327,047;   -0,654;    1,409
854,312;20153,219;    1,256;   -1,682
854,874;20689,391;   -0,108;   -0,773
855,435;21206,109;    0,528;   -1,682
855,997;21367,826;    3,983;   -0,136
856,558;20600,908;    0,801;    1,773
857,119;20744,898;   -0,744;    2,864
857,681;20408,707;   -0,108;    0,318
858,242;20451,970;    1,347;   -2,136
858,803;20900,324;    1,074;   -0,773
859,364;21436,133;    0,892;   -4,773
859,925;20749,487;   -0,290;   -0,955
860,486;20658,295;    0,529;   -0,955
861,047;20380,286;    0,165;   -1,227
861,608;20140,276;    0,165;   -0,773
862,169;20281,721;   -0,562;   -0,045
862,730;20090,075;   -0,290;    1,409
863,291;20338,338;    0,438;   -0,500
863,852;20648,783;   -0,926;    1,955
864,412;20093,137;   -1,835;   -0,864
864,973;18610,673;    1,892;    0,500
865,534;18445,209;    2,074;    0,227
866,094;20033,654;    2,620;    0,227
866,655;19655,645;    4,711;    3,318
867,215;19961,817;    0,074;    0,136
867,776;19773,080;   -1,199;   -0,136
868,336;19883,343;    1,529;    0,136
868,897;19286,970;    3,438;    1,682
869,457;19044,233;    3,256;    0,318
870,017;19319,769;    2,438;   -1,227
870,578;19854,669;    1,893;    0,773
871,138;19450,659;    2,620;   -0,955
871,698;18990,740;   -0,562;   -1,318
872,258;18846,367;    0,711;   -2,864
872,818;19209,903;    2,347;    0,045
873,378;19159,712;   -2,198;    1,045
873,938;18712,157;    4,984;    0,500
874,498;19045,874;    1,256;   -1,955
875,058;18934,865;    4,347;    1,773
875,618;18775,037;    1,438;   -2,682
876,177;18733,755;   -0,471;    0,136
876,737;18253,745;   -0,289;    1,955
877,297;18265,827;    2,711;    1,955
877,856;18289,453;    2,529;    0,318
878,416;18191,716;    2,438;   -0,136
878,976;18477,798;    3,438;    0,409
879,535;18675,334;    4,529;    3,136
880,095;18372,415;    1,347;    0,045
880,654;18532,405;    0,347;    1,318
881,213;18600,123;    2,347;    1,500
881,773;18196,841;    1,984;    2,682
882,332;18514,195;    6,075;    5,136
882,891;18417,276;    0,711;    2,136
883,451;18932,903;   -2,016;    1,682
884,010;18410,984;   -1,107;   -0,409
884,569;18428,429;   -2,289;   -0,045
885,128;18552,329;   -0,743;   -1,864
885,687;18652,228;   -0,743;    0,682
886,246;18333,219;    2,620;    2,136
886,805;18072,391;    1,620;    2,045
887,364;18407,018;    1,166;   -0,500
887,922;18763,917;   -0,016;    0,045
888,481;18268,908;    1,530;    0,591
889,040;18579,171;    3,711;    2,136
889,599;19282,071;    2,166;    1,409
890,157;19329,788;    2,166;    2,409
890,716;18976,051;    2,166;    0,227
891,274;18755,042;    0,075;   -1,136
891,833;19159,487;    1,166;    0,864
892,391;19051,477;    1,802;    0,500
892,950;19144,195;    0,166;   -0,773
893,508;19527,822;    0,984;   -0,409
894,067;18873,085;   -0,379;    0,136
894,625;18730,894;   -1,016;   -1,500
895,183;18988,520;   -0,198;   -0,682
895,741;18907,874;    2,257;   -1,773
896,299;18749,138;    1,621;   -2,409
896,858;18904,764;    1,530;   -1,591
897,416;19025,937;    0,166;   -1,318
897,974;18777,836;   -2,197;    0,318
898,532;18900,736;    6,530;    2,682
899,089;18775,090;    0,621;   -0,682
899,647;18837,717;    0,530;    1,318
900,205;18562,707;    0,257;    1,045
900,763;18812,243;    2,166;    0,227
901,321;18809,324;    3,530;   -1,409
901,878;18235,951;    3,257;   -0,773
902,436;18020,760;    0,257;    1,318
902,994;18475,023;    6,712;    3,682
903,551;17880,286;    1,439;    0,409
904,109;18299,822;    1,530;   -1,409
904,666;17891,630;    1,439;    1,045
905,224;17646,985;    3,894;   -0,409
905,781;17377,248;   -0,470;   -0,318
906,338;17433,965;    0,167;    1,045
906,895;17371,683;    1,894;    2,045
907,453;17281,128;    2,348;    1,136
908,010;17300,300;    3,348;    0,409
908,567;16875,745;   -0,561;    0,591
909,124;16444,827;    2,439;   -1,500
909,681;16521,090;   -1,288;    0,682
910,238;16652,444;   -0,106;   -1,318
910,795;16962,980;   -1,561;   -1,136
911,352;16601,434;   -0,379;   -2,682
911,909;15970,889;    2,803;   -0,864
912,466;16445,798;    1,985;    1,500
913,022;15977,162;   -0,924;    0,500
913,579;16343,616;   -0,470;    2,045
914,136;15989,798;   -2,561;    0,955
914,692;16353,343;    1,530;   -1,227
915,249;15936,434;    0,530;    0,409
915,806;16188,889;    1,803;    1,955
916,362;15840,434;    0,894;    1,864
916,918;15380,434;    2,439;    1,045
917,475;15419,798;    1,621;    0,955
918,031;15487,889;    0,076;   -0,045
918,587;14883,162;    0,621;   -0,318
919,144;15114,071;   -0,379;    0,227
919,700;15450,253;    0,167;    0,773
920,256;15015,071;    0,439;    0,045
920,812;14588,980;    1,439;   -1,045
921,368;14564,162;    1,348;   -1,045
921,924;14221,162;    0,439;   -0,136
922,480;13746,525;    0,076;    1,227
923,036;14365,980;   -0,652;    1,955
923,592;14343,889;    0,621;    0,318
924,148;14208,980;    1,894;   -0,955
924,704;13539,162;    0,258;   -0,409
925,259;13777,071;   -0,561;    0,591
925,815;13515,343;    3,803;    0,500
926,371;13052,616;    3,530;    1,409
926,926;12919,980;    1,621;    0,591
927,482;12508,253;    1,621;    0,773
928,037;12358,162;   -0,833;    2,045
928,593;12643,525;    0,258;    1,045
929,148;12425,707;    1,167;   -1,500
929,704;11925,525;    2,439;   -0,500
930,259;12140,980;    0,894;   -0,136
930,814;11167,707;    1,803;    1,955
931,369;10822,525;    0,258;   -0,773
931,925;10708,525;   -1,924;    0,136
932,480;10583,253;    3,076;   -2,591
933,035;10435,071;    3,985;   -0,318
933,590;10182,343;   -1,742;   -1,773
934,145; 9813,071;   -1,288;   -0,318
934,700;10198,253;    0,348;   -0,591
935,255; 9948,162;    4,803;    0,045
935,809; 9151,162;    6,258;    0,864
936,364; 8272,253;    2,167;   -0,136
936,919; 8185,707;    2,348;   -1,773
937,474; 8051,889;    1,348;    0,136
938,028; 7802,889;    3,076;    1,136
938,583; 7191,525;    6,348;    4,682
939,138; 7522,162;    0,167;    2,136
939,692; 6958,253;   -1,015;   -1,136
940,247; 6596,434;    1,167;   -1,045
940,801; 6105,980;    0,621;    0,227
941,355; 6006,798;    0,439;    2,591
941,910; 5659,980;    0,712;   -2,136
942,464; 5735,616;    2,712;   -0,318
943,018; 5469,434;    3,258;   -0,227
943,572; 5440,253;    2,803;   -0,682
944,126; 4776,071;   -0,924;   -0,409
944,681; 4675,525;    0,712;    0,227
945,235; 4659,616;    2,167;   -0,591
945,789; 4588,798;    1,258;   -1,864
946,342; 4650,616;   -0,561;   -0,591
946,896; 4490,343;    0,348;    0,955
947,450; 4242,798;   -0,561;   -0,227
948,004; 4415,616;    1,076;   -0,045
948,558; 4423,798;    1,258;   -0,864
949,111; 4336,889;   -1,197;   -0,318
949,665; 4352,162;   -0,106;   -0,682
950,219; 4235,525;    0,621;   -1,045
950,772; 4334,162;    0,258;    1,864
951,326; 4238,162;   -1,106;   -0,955
951,879; 4335,980;    1,076;   -2,318
952,433; 4345,525;    1,348;    2,227
952,986; 4182,889;    0,348;    0,682
953,539; 4133,434;    1,530;    0,591
954,093; 4032,616;    0,985;   -1,318
954,646; 4151,798;   -0,288;    1,318
955,199; 3983,707;    1,258;   -0,500
955,752; 3838,980;    1,985;    1,773
956,305; 3797,253;    0,894;    2,955
956,858; 3991,889;    0,621;   -0,318
957,411; 4172,616;    3,621;    2,136
957,964; 3986,980;    2,076;    2,136
958,517; 3989,162;    0,985;    3,136
959,070; 3812,980;   -1,197;    1,955
959,623; 3846,525;    1,076;    1,500
960,176; 3615,525;    0,712;    2,045
960,728; 3593,525;    1,712;    0,773
961,281; 3664,343;    2,258;    0,500
961,834; 3705,707;   -0,833;    0,864
962,386; 3615,434;    1,258;    1,045
962,939; 3519,616;    3,439;   -0,318
963,491; 3676,889;    2,621;    1,136
964,043; 3541,616;    0,076;    2,409
964,596; 3664,707;    1,712;    2,227
965,148; 3490,253;   -0,379;    1,773
965,700; 3422,071;   -0,015;   -0,227
966,253; 3589,798;   -0,833;    0,318
966,805; 3394,980;    1,894;    0,773
967,357; 3472,707;    0,439;   -1,500
967,909; 3395,434;    1,167;   -1,227
968,461; 3532,162;    0,894;    3,136
969,013; 3440,162;   -1,561;   -0,864
969,565; 3531,525;    1,803;   -1,136
970,117; 3566,707;    3,803;    1,045
970,669; 3423,253;    3,258;   -0,136
971,220; 3290,798;    2,167;   -1,500
971,772; 3199,889;    1,348;   -0,318
972,324; 3337,434;   -1,197;   -0,500
972,876; 3291,616;    0,167;   -0,045
973,427; 3394,980;   -1,197;   -1,045
973,979; 3362,980;    0,076;   -2,500
974,530; 3415,889;    0,803;    1,318
975,082; 3441,162;    2,167;    1,682
975,633; 3303,434;    2,894;    1,682
976,184; 3488,162;    2,076;    0,773
976,736; 3248,434;    0,348;    0,227
977,287; 3022,434;    0,258;   -0,500
977,838; 3245,343;   -0,924;   -0,318
978,389; 3278,071;    0,803;   -0,500
978,940; 3157,253;    1,258;   -0,409
979,491; 3197,071;    2,258;   -0,500
980,042; 3121,162;   -0,652;    3,045
980,593; 3203,071;    1,894;    0,227
981,144; 3240,162;    3,530;   -0,500
981,695; 3204,162;   -0,470;    1,500
982,246; 3158,343;   -1,833;    1,045
982,797; 3351,707;   -0,561;    0,682
983,347; 3492,071;    2,167;    0,591
983,898; 3597,889;    4,167;    0,409
984,449; 3392,616;    2,530;    0,773
984,999; 3348,343;    1,894;   -1,136
985,550; 3095,980;    3,167;   -0,318
986,100; 3153,616;    0,712;   -0,318
986,651; 3184,071;    0,258;    0,045
987,201; 3162,889;    0,894;   -0,591
987,751; 3233,798;   -0,288;    2,864
988,302; 3219,162;   -0,379;    1,500
988,852; 3250,798;    1,985;   -1,136
989,402; 3290,707;    0,985;    0,682
989,952; 3181,434;    1,621;    0,864
990,502; 3320,616;    1,076;    0,682
991,052; 3300,707;   -0,106;    0,045
991,602; 3141,616;    1,167;    1,318
992,152; 3141,525;    2,803;    0,682
992,702; 3114,071;    1,167;   -0,045
993,252; 3012,525;    0,076;   -0,500
993,802; 3092,980;    1,167;    1,318
994,352; 3378,980;   -0,742;    1,136
994,901; 3489,343;    1,076;    3,227
995,451; 3382,162;   -1,197;    0,318
996,000; 3471,525;    1,076;    0,318
996,550; 3160,162;    2,894;    0,227
997,100; 3155,707;   -0,561;   -0,045
997,649; 3451,707;   -0,197;    0,955
998,198; 3066,525;   -0,288;   -1,500
998,748; 3231,434;    0,348;   -2,318
999,297; 3173,343;    0,985;   -0,409
999,846; 3264,980;    1,894;   -0,773
1000,395; 3304,343;    1,530;    0,500
1000,945; 3213,071;    1,076;   -0,773
1001,494; 3303,707;    0,167;    0,682
1002,043; 3312,343;    0,712;    0,864
1002,592; 3165,343;    3,439;    1,955
1003,141; 3305,162;    2,439;   -0,682
1003,690; 3120,980;    1,258;    0,500
1004,238; 3215,162;   -0,106;   -0,045
1004,787; 2833,253;   -1,288;    1,227
1005,336; 3072,798;    1,621;    0,682
1005,885; 3250,525;   -0,197;   -2,773
1006,433; 3417,343;   -0,470;    0,955
1006,982; 3440,253;    2,167;    1,682
1007,531; 3375,798;    2,712;   -0,227
1008,079; 3347,162;    0,258;    0,500
1008,627; 3500,434;    1,621;    0,409
1009,176; 3214,071;    0,076;   -1,955
1009,724; 3238,071;   -2,742;    0,864
1010,273; 3271,343;    1,076;    0,500
1010,821; 3440,162;    1,076;    1,409
1011,369; 3167,162;    0,076;    1,318
1011,917; 3122,071;   -0,833;   -0,591
1012,465; 3419,434;    2,530;   -1,591
1013,013; 3552,889;    0,439;   -1,682
1013,561; 3401,162;   -1,288;   -0,773
1014,109; 3426,707;   -0,833;    1,682
1014,657; 3314,798;    1,348;    0,591
1015,205; 3447,980;    0,894;   -0,955
1015,753; 3498,343;    0,258;   -1,409
1016,301; 3522,525;    2,621;    3,045
1016,848; 3534,253;    2,167;    0,409
1017,396; 3556,343;    1,621;    0,045
1017,944; 3691,616;    2,621;    1,864
1018,491; 3454,071;   -0,197;    1,409
1019,039; 3572,798;   -0,652;    0,591
1019,586; 3526,525;    0,076;    1,682
1020,134; 3634,525;    0,712;    1,500
1020,681; 3635,253;    2,894;   -1,136
1021,228; 3660,707;   -0,561;   -2,227
1021,776; 3494,162;   -0,833;   -1,136
1022,323; 3687,162;    0,803;    0,773
1022,870; 3647,980;   -0,470;   -0,045
1023,417; 3510,707;    2,076;    1,864
1023,964; 3697,889;    0,621;    1,227
1024,511; 3484,707;   -0,652;    0,773
1025,058; 3279,980;    0,439;   -0,045
1025,605; 3370,525;   -1,742;    3,136
1026,152; 3545,889;   -0,106;   -0,591
1026,699; 3274,162;    0,167;    1,318
1027,245; 3481,434;    2,439;    0,318
1027,792; 3727,707;    0,712;    1,409
1028,339; 3565,343;    4,076;   -0,045
1028,885; 3397,343;    3,621;   -0,227
1029,432; 3336,707;   -0,106;    0,227
1029,978; 3395,889;    1,348;   -1,591
1030,525; 3300,071;    1,621;    0,409
1031,071; 3595,525;    0,348;    1,136
1031,618; 3633,980;    1,258;    1,682
1032,164; 3438,434;    2,076;    3,045
1032,710; 3492,616;    0,076;   -1,500
1033,256; 3418,253;    0,712;   -0,136
1033,803; 3420,434;   -0,288;    1,500
1034,349; 3139,071;    1,803;    0,136
1034,895; 3302,525;    2,621;   -0,318
1035,441; 3269,980;    0,439;    0,318
1035,987; 3265,889;   -2,288;   -0,682
1036,533; 3251,434;   -0,197;   -0,955
1037,078; 3428,889;    4,712;    1,682
1037,624; 3266,616;    2,439;   -0,955
1038,170; 3299,253;    1,712;   -0,318
1038,716; 3180,889;    2,167;   -0,409
1039,261; 3116,707;    2,167;   -0,773
1039,807; 3037,798;   -0,015;    3,409
1040,352; 3103,707;   -1,288;   -0,318
1040,898; 3136,707;    0,167;   -0,682
1041,443; 3057,798;    0,803;   -2,591
1041,989; 3053,162;    3,621;    1,591
1042,534; 2957,253;    0,985;    2,591
1043,079; 3129,162;    1,985;    0,955
1043,625; 2850,434;    0,258;    0,500
1044,170; 2877,889;    2,439;    1,045
1044,715; 3149,798;    0,167;    0,955
1045,260; 2953,616;   -0,833;   -0,955
1045,805; 3019,616;    0,258;   -0,591
1046,350; 2973,253;    0,530;   -0,409
1046,895; 2899,980;    0,803;    1,591
1047,440; 2821,707;    1,530;    0,409
1047,985; 2749,525;   -1,197;   -0,955
1048,530; 2652,343;    1,348;    1,227
1049,074; 2726,525;    2,803;    0,318
1049,619; 2707,616;   -0,924;    1,955
1050,164; 2497,162;    1,076;    0,227
1050,708; 2543,798;    2,621;    0,045
1051,253; 2895,162;    3,258;   -2,227
1051,797; 2613,616;   -0,197;   -1,318
1052,342; 2664,343;    1,348;    1,045
1052,886; 2623,434;    1,803;   -1,409
1053,430; 2514,525;    2,167;    0,136
1053,975; 2529,980;    0,894;   -0,318
1054,519; 2506,071;    1,803;    3,227
1055,063; 2492,071;    3,621;    1,318
1055,607; 2367,071;    1,348;    0,227
1056,151; 2403,616;    0,530;    1,682
1056,695; 2326,798;   -1,833;   -1,136
1057,239; 2398,616;   -1,197;   -0,682
1057,783; 2378,707;    2,258;   -1,500
1058,327; 2326,343;    3,076;    1,409
1058,871; 2545,253;    3,985;    1,318
1059,415; 2247,525;   -0,561;   -0,045
1059,958; 2481,980;    2,985;    2,591
1060,502; 2225,162;    1,348;   -0,773
1061,046; 2146,071;    1,712;   -0,955
1061,589; 2136,980;    2,803;   -1,136
1062,133; 2002,434;    0,985;    1,864
1062,676; 1940,253;    1,439;    0,864
1063,220; 1937,343;    0,985;    0,500
1063,763; 1938,525;    2,985;    1,136
1064,306; 2014,434;    0,985;    1,864
1064,849; 1910,889;    2,076;    0,591
1065,393; 1915,162;    2,894;   -1,500
1065,936; 2038,707;    2,530;   -0,409
1066,479; 1930,434;    2,621;    1,318
1067,022; 1944,343;    1,894;   -0,227
1067,565; 1837,434;   -1,197;   -1,318
1068,108; 1872,162;    1,258;   -0,591
1068,651; 1845,071;   -2,470;    1,409
1069,194; 1770,162;   -1,106;   -1,682
1069,736; 1757,253;    3,803;    0,955
1070,279; 1751,071;   -1,652;   -0,500
1070,822; 1788,343;    1,530;   -0,318
1071,364; 1842,889;    0,530;    1,318
1071,907; 1688,162;    0,348;    3,227
1072,450; 1619,434;    0,258;   -0,045
1072,992; 1585,162;   -0,561;    3,136
1073,535; 1712,798;    0,167;    2,136
1074,077; 1520,253;    2,985;    2,045
1074,619; 1477,162;    0,985;    0,591
1075,161; 1502,616;   -0,561;    1,500
1075,704; 1675,889;    0,258;    1,227
1076,246; 1478,980;    1,530;    0,682
1076,788; 1413,071;   -1,015;    1,773
1077,330; 1505,253;   -2,106;    2,136
1077,872; 1462,707;   -1,924;    0,955
1078,414; 1674,980;    3,712;    0,773
1078,956; 1392,343;    0,167;   -0,227
1079,498; 1637,889;    0,439;    0,318
1080,040; 1349,253;    0,985;   -1,318
1080,581; 1294,343;    0,621;   -0,318
1081,123; 1242,616;   -0,106;   -0,773
1081,665; 1296,798;    3,803;   -0,955
1082,206; 1562,889;    3,258;   -0,500
1082,748; 1441,525;    3,258;    2,045
1083,289; 1319,707;    0,167;    1,318
1083,831; 1218,525;    0,258;    0,227
1084,372; 1240,798;    0,894;    0,591
1084,913; 1236,162;    3,348;    0,864
1085,455; 1223,343;    1,530;   -2,045
1085,996; 1194,798;    0,530;    0,136
1086,537; 1205,616;    0,985;    0,864
1087,078; 1234,525;    0,439;   -2,136
1087,619; 1278,434;   -1,652;    0,227
1088,160; 1189,798;    1,439;    1,318
1088,701; 1179,616;   -0,742;    0,682
1089,242; 1111,798;   -0,561;   -2,227
1089,783; 1199,798;   -0,561;    1,409
1090,324; 1186,071;   -0,833;    0,682
1090,865; 1056,889;   -1,924;   -0,409
1091,405; 1050,434;   -0,561;    2,227
1091,946; 1079,253;   -0,197;   -0,955
1092,487;  997,525;   -1,288;   -1,409
1093,027; 1142,162;    1,803;   -1,500
1093,568; 1005,162;    2,258;    1,227
1094,108; 1073,798;    0,621;    1,773
1094,649; 1029,616;   -0,470;    0,136
1095,189;  970,889;    1,167;   -0,682
1095,729;  915,162;    0,712;    0,955
1096,269;  931,889;    1,258;   -0,955
1096,810; 1229,434;   -0,197;    0,500
1097,350; 1051,980;   -0,561;   -0,773
1097,890;  954,798;    2,985;    1,227
1098,430; 1205,798;    4,985;    2,864
1098,970; 1074,616;    1,894;    1,682
1099,510;  955,434;   -0,833;   -2,318
1100,050;  870,343;    0,258;   -1,591
1100,589;  837,434;    0,076;   -0,318
1101,129;  955,162;    0,894;   -0,955
1101,669; 1091,889;    2,803;    2,136
1102,209;  929,980;    1,530;    2,227
1102,748;  875,707;    3,439;    0,955
1103,288;  865,889;    0,712;   -1,227
1103,827;  890,071;    3,530;   -2,227
1104,367;  776,343;    1,712;   -2,409
1104,906;  743,343;   -1,015;   -1,136
1105,445;  805,889;    0,985;   -1,136
1105,985;  743,616;   -0,652;    1,500
1106,524;  785,707;    1,530;   -0,682
1107,063;  754,707;    1,167;    1,409
1107,602;  736,434;    1,894;   -1,500
1108,141;  668,980;    1,621;    1,500
1108,680;  760,980;    3,985;   -0,591
1109,219;  704,253;    0,167;   -0,500
1109,758;  714,525;    4,167;    0,682
1110,297;  671,253;   -1,106;   -0,682
1110,836;  625,616;    1,439;    0,955
1111,375;  779,980;    0,348;    0,409
1111,913;  785,071;    0,985;    0,773
1112,452;  731,980;    0,894;    0,136
1112,991;  614,525;    1,076;    1,955
1113,529;  575,798;    0,167;   -0,045
1114,068;  642,889;    0,439;    2,955
1114,606;  539,071;   -0,561;   -0,955
1115,144;  689,525;    1,530;    1,045
1115,683;  642,798;    1,985;    0,318
1116,221;  692,253;    2,076;   -0,864
1116,759;  598,616;    1,621;   -0,864
1117,297;  779,616;    1,621;    1,864
1117,836;  601,798;    1,985;   -1,227
1118,374;  608,616;    0,258;   -0,682
1118,912;  552,889;    0,439;    2,682
1119,450;  523,071;    0,985;    0,864
1119,988;  572,071;    3,348;    2,136
1120,525; 1028,980;    7,258;    3,318
1121,063;  724,980;    0,530;    1,864
1121,601;  529,071;    1,076;   -1,227
1122,139;  500,253;    1,076;   -2,045
1122,676;  682,071;   -1,652;    2,773
1123,214;  615,343;    0,712;    4,409
1123,751;  435,434;    0,621;    2,227
1124,289;  557,253;    0,894;   -0,409
1124,826;  445,343;   -0,379;    0,227
1125,364;  370,434;    0,712;   -0,955
1125,901;  543,707;    6,258;    1,227
1126,438;  642,343;    3,530;    0,955
1126,975;  392,707;    2,985;   -0,773
1127,513;  455,525;    2,621;    2,136
1128,050;  374,343;   -0,561;   -0,682
1128,587;  461,707;    1,348;   -0,227
1129,124;  489,616;   -0,015;    1,318
1129,661;  377,525;   -1,924;    0,227
1130,198;  540,525;    2,439;    0,773
1130,734;  473,707;   -0,379;    1,409
1131,271;  343,889;   -1,197;    0,864
1131,808;  509,889;    1,621;    3,045
1132,345;  376,980;    4,530;    0,318
1132,881;  262,162;   -0,561;   -1,864
1133,418;  392,525;    0,348;   -1,136
1133,954;  328,889;    0,712;   -2,682
1134,491;  397,616;    1,712;   -0,773
1135,027;  308,980;    2,167;    0,864
1135,564;  386,253;    1,439;    2,955
1136,100;  364,071;   -0,742;    2,136
1136,636;  273,162;   -1,015;   -1,045
1137,172;  350,343;    0,894;   -1,045
1137,708;  286,798;   -1,561;   -1,045
1138,245;  287,434;    0,803;   -1,227
1138,781;  242,980;    1,803;   -3,318
1139,317;  298,162;    1,894;   -1,409
1139,852;  296,434;    3,076;    0,136
1140,388;  404,343;    2,076;   -0,409
1140,924;  289,343;    1,076;   -2,227
1141,460;  230,525;   -0,288;    0,136
1141,996;  175,162;   -0,652;    2,682
1142,531;  210,980;    1,076;    3,318
1143,067;  420,798;    1,167;    1,045
1143,602;  464,162;    3,439;   -0,318
1144,138;  307,889;    0,803;    1,045
1144,673;  192,616;    1,621;    1,409
1145,209;  261,798;    2,894;   -0,318
1145,744;  183,980;    0,803;    0,864
1146,279;  306,525;    1,530;   -0,136
1146,815;  233,162;    1,530;   -2,682
1147,350;  270,889;   -0,924;    0,045
1147,885;  183,343;   -1,924;   -1,318
1148,420;  183,343;    2,439;    0,773
1148,955;  164,798;   -1,470;    1,864
1149,490;  198,434;   -1,106;   -1,591
1150,025;  172,616;   -1,106;   -1,773
1150,560;  280,071;   -0,288;   -0,955
1151,094;  247,434;    0,258;   -0,591
1151,629;  249,980;   -3,742;    0,864
1152,164;  181,889;   -1,288;    1,318
1152,698;  153,343;    1,258;   -0,136
1153,233;  107,253;   -1,379;   -0,682
1153,767;  152,798;   -0,288;   -2,318
1154,302;  195,253;   -0,379;    1,773
1154,836;  195,616;    0,803;   -2,136
1155,371;  247,253;    2,258;    3,682
1155,905;  200,162;    1,985;    1,682
1156,439;  171,889;    0,530;   -0,500
1156,973;  206,707;    0,439;    0,318
1157,507;  146,525;   -1,742;    0,682
1158,042;  165,253;   -0,652;    1,045
1158,576;  207,434;   -0,561;    1,773
1159,110;  196,707;    0,076;    2,409
1159,643;  164,889;   -2,470;   -0,045
1160,177;  113,162;   -2,015;    1,500

