
Integration time [ms]:   0,050
Averaging Nr. [scans]: 11
Smoothing Nr. [pixels]: 0
Data measured with spectrometer [name]: 7318044SP
Wave   ;Sample   ;Dark     ;Reference
[nm]   ;[counts] ;[counts] ;[counts] 

186,757;   -8,841;   38,161;    1,318
187,357;   28,622;   26,706;    0,955
187,958;   13,190;   17,252;   -1,591
188,558;   57,857;   12,979;   -1,227
189,159;   28,120;   10,070;   -4,500
189,759;    1,797;    5,797;   -3,591
190,360;    7,414;    6,797;   -2,136
190,960;   44,945;    5,706;   -4,136
191,560;   55,564;    2,614;   -6,591
192,161;  292,196;    5,885;   -3,500
192,761;  134,148;    5,520;   -3,227
193,361;   89,000;    3,065;   -3,773
193,962;  143,534;    1,612;   -2,682
194,562;   70,360;   -0,114;   -3,955
195,162;  113,741;   -0,567;   -2,227
195,762;  278,356;    2,433;   -0,045
196,362;  217,257;    1,706;   -2,500
196,963;   82,356;    1,706;   -0,864
197,563;  157,326;    1,252;   -0,955
198,163;  106,685;   -0,111;   -0,682
198,763;  128,657;   -0,020;   -0,500
199,363;  229,574;    3,616;   -0,500
199,963;  192,946;    2,162;    0,409
200,563;  168,259;    6,344;   -1,409
201,163;  152,799;    5,435;   -0,227
201,763;  242,999;    1,435;    0,318
202,363;  192,548;    0,980;    1,500
202,963;  305,941;    1,526;    1,045
203,563;  416,272;    0,344;    0,500
204,162;  258,420;    1,889;   -1,864
204,762;  244,405;    2,071;    0,591
205,362;  228,852;    0,708;    1,955
205,962;  326,602;    3,435;    1,955
206,562;  327,302;    1,889;    2,318
207,161;  295,075;    1,708;    0,318
207,761;  446,792;    4,435;    2,409
208,361;  328,722;    1,889;    1,409
208,960;  428,846;    2,889;    1,500
209,560;  513,631;    0,435;    1,591
210,160;  495,337;    5,071;    1,864
210,759;  468,410;    0,708;    1,227
211,359;  459,938;   -0,474;    1,045
211,958;  738,653;    3,526;    2,045
212,558;  836,749;    0,799;    1,864
213,157;  662,755;   -0,929;    1,500
213,757; 1134,389;    5,617;   -0,227
214,356;  828,193;    1,708;   -0,409
214,956; 1165,920;    3,526;    0,409
215,555;  800,188;    0,617;    2,136
216,154;  734,678;   -0,292;   -0,591
216,754;  757,285;    1,253;    0,773
217,353;  907,129;   -0,383;   -1,045
217,952;  775,366;    2,072;    0,318
218,552; 1000,107;    0,254;   -0,773
219,151;  916,225;   -1,110;    0,955
219,750;  932,206;    0,890;   -0,227
220,349; 1118,781;   -2,292;    1,045
220,948; 1144,438;    1,163;    1,136
221,548; 1211,748;    0,617;    1,227
222,147; 1331,893;   -1,292;   -0,409
222,746; 1610,758;    1,254;   -0,955
223,345; 1515,921;   -1,019;    0,500
223,944; 1552,884;    1,163;    0,773
224,543; 1768,333;    4,072;   -1,409
225,142; 1875,539;    1,345;    0,136
225,741; 1804,678;    1,163;    1,045
226,340; 1827,785;    1,254;   -0,955
226,939; 2347,136;    2,708;   -0,136
227,538; 2397,215;    1,163;   -0,773
228,137; 2530,622;    0,435;    0,864
228,735; 2770,062;    0,435;    1,227
229,334; 2480,761;   -0,474;   -0,227
229,933; 2873,132;    0,799;    0,591
230,532; 3026,686;   -1,201;   -0,409
231,131; 3094,788;    1,253;    0,318
231,729; 3292,969;    1,163;   -2,318
232,328; 3535,436;    0,435;   -1,500
232,927; 3670,938;    4,526;   -0,500
233,525; 3849,217;    0,981;    0,045
234,124; 4073,833;    1,890;   -1,591
234,723; 4154,949;    1,617;   -1,045
235,321; 4364,236;    1,163;    0,136
235,920; 4668,347;    2,526;   -1,227
236,518; 4970,725;    1,072;    0,318
237,117; 5271,364;    2,890;   -0,227
237,715; 5469,649;    1,163;   -0,500
238,314; 5497,366;    1,708;   -2,318
238,912; 5634,947;    0,526;   -1,409
239,510; 5722,252;    1,162;   -1,227
240,109; 5923,312;   -0,474;    3,773
240,707; 6039,259;   -0,474;    1,227
241,305; 6517,486;   -0,383;    0,136
241,904; 6766,850;   -0,292;   -2,045
242,502; 6707,438;    3,253;   -0,227
243,100; 6710,075;    3,344;   -0,955
243,698; 6995,087;    2,799;    1,682
244,297; 7191,411;   -0,656;    0,682
244,895; 7013,570;   -0,474;   -2,318
245,493; 7453,407;    2,981;   -0,591
246,091; 7537,405;    5,163;   -1,318
246,689; 7513,936;    2,163;    0,591
247,287; 7714,432;   -0,019;   -1,136
247,885; 8119,721;   -1,019;    1,227
248,483; 8279,291;   -0,201;   -0,500
249,081; 8429,779;    0,981;    1,591
249,679; 8610,120;   -1,019;    1,682
250,277; 8966,529;   -2,292;    0,864
250,875; 8932,271;    0,617;   -1,045
251,473; 9000,959;   -0,019;    0,500
252,071; 9214,473;   -0,383;    1,045
252,669; 9393,066;   -1,565;    0,318
253,267; 9745,739;    1,618;    0,773
253,864; 9756,068;    0,617;    0,682
254,462; 9541,132;    1,526;    1,591
255,060; 9564,060;    0,072;    1,318
255,658; 9972,793;   -3,292;   -0,136
256,255;10429,327;   -0,201;   -2,045
256,853;10294,357;    2,345;    1,409
257,451;10344,469;    1,981;    1,864
258,048;10584,488;    2,072;    1,864
258,646;10355,390;    0,436;   -1,045
259,243;10595,085;    2,981;    2,227
259,841;10665,682;    1,799;    0,318
260,438;10536,882;    0,254;    0,864
261,036;11401,552;    0,617;    1,409
261,633;11308,095;    1,526;    2,227
262,231;11034,876;   -0,110;   -0,045
262,828;11169,178;   -0,383;    1,136
263,425;11219,822;   -1,928;   -0,591
264,023;11503,424;    1,436;    0,045
264,620;11028,998;    1,526;   -0,318
265,217;11434,262;    2,890;    3,136
265,815;11580,750;    2,527;    2,136
266,412;11287,019;    0,072;    0,136
267,009;11357,182;    0,526;    0,773
267,606;11208,663;    0,345;   -0,955
268,203;11242,008;   -0,383;   -0,591
268,801;11564,814;   -0,474;    0,591
269,398;11957,436;   -0,564;    2,500
269,995;11961,178;    0,890;    1,591
270,592;11674,796;    0,799;   -0,500
271,189;11958,198;    1,981;    0,409
271,786;12108,963;    2,072;    1,227
272,383;11888,672;   -0,383;    0,227
272,980;12134,812;    1,617;    0,318
273,577;12730,986;    2,162;    1,227
274,174;12228,352;    1,435;    2,591
274,771;12216,975;    1,890;   -0,773
275,367;12366,790;    3,253;    1,409
275,964;12310,579;   -0,565;   -0,500
276,561;12486,928;   -2,474;   -1,045
277,158;12798,029;    1,799;   -1,773
277,755;12878,870;   -0,110;    0,409
278,351;12178,012;    0,436;   -1,500
278,948;12584,456;   -0,201;    0,045
279,545;12651,500;    0,527;    2,318
280,141;13271,048;    1,254;   -2,045
280,738;13148,401;    2,435;   -0,136
281,334;13514,527;   -0,383;    0,591
281,931;12827,696;    2,890;   -1,318
282,528;12950,840;    4,072;   -0,500
283,124;13751,769;    3,345;   -0,500
283,721;13690,547;    0,709;    1,409
284,317;13526,962;    0,163;    2,500
284,913;14100,995;   -0,110;    0,591
285,510;14341,177;    2,890;   -0,318
286,106;14383,227;    2,345;   -0,955
286,703;13935,469;    0,072;    1,955
287,299;14154,591;    1,254;   -0,591
287,895;14456,760;    0,890;   -1,045
288,491;15154,527;    0,163;    2,136
289,088;14801,894;    0,163;    2,409
289,684;14837,339;    2,890;    1,500
290,280;14839,459;    1,890;    0,682
290,876;14977,948;    0,163;    5,500
291,472;14871,427;    2,163;    2,227
292,068;14965,710;    1,254;    0,227
292,665;14685,864;   -0,564;    0,773
293,261;14183,045;   -1,292;    2,136
293,857;14666,157;    4,072;    2,136
294,453;14646,573;   -0,928;    0,955
295,049;14451,211;    0,253;    1,955
295,644;14457,126;   -1,292;    0,136
296,240;14399,482;    0,162;   -0,136
296,836;14450,437;   -0,747;    0,318
297,432;14773,484;    2,980;   -0,500
298,028;14785,009;    0,435;    0,773
298,624;15247,480;    0,889;    1,864
299,220;15618,769;    0,435;    0,591
299,815;15242,468;    0,526;   -0,409
300,411;14982,302;    0,435;    1,773
301,007;15021,875;    1,889;    0,227
301,602;15106,067;    2,071;   -2,318
302,198;15248,730;    1,435;   -0,773
302,794;15645,418;    1,526;   -0,500
303,389;15865,007;    1,071;    1,045
303,985;15916,470;    1,253;    1,409
304,580;15844,767;    0,889;    1,591
305,176;15882,176;    0,344;    0,136
305,771;15844,069;   -0,929;   -1,227
306,367;15564,771;    3,071;    0,136
306,962;16021,794;    2,889;    1,500
307,558;15736,906;    2,435;    0,136
308,153;15655,191;   -0,383;   -1,136
308,748;15922,251;    0,162;    1,682
309,344;15870,079;    0,253;   -1,318
309,939;16021,075;    2,071;   -1,318
310,534;16406,168;   -2,020;   -1,682
311,130;16357,335;   -0,656;   -2,500
311,725;16073,997;    0,526;   -0,500
312,320;16397,788;    1,253;    0,045
312,915;16229,455;    2,890;   -1,045
313,510;16255,410;    0,526;   -0,500
314,105;16871,206;   -3,565;    1,409
314,700;16252,685;   -1,656;   -1,045
315,295;15805,858;   -0,020;    0,045
315,890;15289,674;   -0,292;    0,864
316,485;15683,480;    0,253;   -0,318
317,080;15805,550;   -0,929;    1,591
317,675;16374,439;    3,071;   -0,682
318,270;15658,985;    6,889;    3,318
318,865;15700,152;    2,435;    3,045
319,460;15510,032;   -1,565;    0,591
320,055;15806,987;   -2,565;   -1,227
320,650;15458,879;   -1,838;   -0,591
321,244;15516,877;    0,889;   -1,409
321,839;16574,819;    0,980;   -0,227
322,434;16459,606;   -0,111;   -1,591
323,029;16035,001;   -0,474;    1,591
323,623;15880,614;    0,798;    0,773
324,218;15576,263;    2,707;    1,409
324,812;15489,160;    0,889;    1,591
325,407;15271,214;   -0,929;    2,045
326,002;15156,571;    0,526;   -0,409
326,596;15507,278;   -0,656;    1,318
327,191;15768,590;   -0,383;   -1,045
327,785;15297,460;   -0,747;   -0,227
328,379;15545,079;   -0,383;    0,136
328,974;15303,478;    1,798;   -3,955
329,568;15535,937;    2,889;   -2,409
330,163;15323,520;    2,435;    1,045
330,757;15759,125;    0,253;    1,591
331,351;15014,455;   -0,292;    0,682
331,945;15288,677;   -0,383;    1,409
332,540;14826,924;    1,617;   -0,591
333,134;14958,118;    3,344;    0,773
333,728;15248,798;    2,799;    0,318
334,322;15635,722;    0,889;   -0,864
334,916;14901,606;    0,344;    0,955
335,510;15239,371;   -0,111;   -0,136
336,105;15493,135;   -0,929;    1,591
336,699;15138,877;   -1,292;    0,591
337,293;15031,087;    1,071;    0,318
337,887;15186,641;    0,071;    1,955
338,481;15274,127;    2,980;    0,591
339,074;15419,864;    2,071;    2,682
339,668;15225,029;   -0,110;    1,227
340,262;15485,623;    7,708;    3,227
340,856;14985,443;    1,708;   -0,682
341,450;14239,901;    0,708;    1,864
342,044;15232,633;    1,799;    0,136
342,637;14999,949;    1,162;   -2,136
343,231;14841,812;   -1,474;    0,682
343,825;14783,135;   -0,747;   -0,591
344,419;14685,491;   -0,474;    0,500
345,012;14359,396;    2,889;    4,045
345,606;14391,274;   -0,656;    1,591
346,199;14219,303;   -0,111;   -0,227
346,793;13633,195;    2,525;    2,045
347,386;13893,929;    0,889;   -1,136
347,980;13863,693;   -0,838;   -0,045
348,573;13622,518;   -1,748;    0,409
349,167;13175,768;    6,161;    4,773
349,760;13544,378;    2,252;    2,682
350,354;13578,279;    1,616;    1,136
350,947;13243,072;    2,798;    1,682
351,540;12865,169;    0,616;   -1,409
352,134;12797,140;   -1,111;    1,136
352,727;12870,621;   -0,657;    1,136
353,320;12649,247;    2,343;    0,591
353,913;12500,006;   -1,929;    1,864
354,507;12666,805;    0,434;   -1,227
355,100;12630,173;    0,071;    0,864
355,693;11671,184;    4,798;    2,409
356,286;11731,580;    0,980;    2,773
356,879;12170,407;   -0,475;    1,227
357,472;11729,758;    0,980;    1,500
358,065;11938,310;    3,161;    2,500
358,658;11874,119;    0,798;    2,318
359,251;11464,876;    0,252;   -0,591
359,844;10807,357;    0,343;   -1,136
360,437;10956,258;    0,252;    0,045
361,030;11309,386;    0,525;   -0,682
361,623;10803,394;    0,434;    0,318
362,215;10813,847;    0,979;    2,045
362,808;10687,388;   -2,293;   -1,682
363,401;10833,425;    0,798;    0,136
363,994;10499,533;    3,252;   -1,500
364,586;10436,331;    0,888;   -1,500
365,179;10681,833;   -0,203;   -1,136
365,772;10119,144;   -0,930;    2,045
366,364;10445,649;    1,524;   -3,227
366,957;10673,348;    1,342;   -0,045
367,549;10695,482;   -0,203;   -0,864
368,142;10288,485;    0,978;   -1,500
368,734;10499,524;    2,523;   -2,136
369,327;10436,250;    2,341;   -0,500
369,919;10342,738;   -1,659;    0,409
370,512;10050,534;   -1,023;   -0,500
371,104; 9734,619;    2,704;    1,591
371,696; 9946,453;    1,703;   -0,955
372,289;10080,871;    0,157;    1,136
372,881;10237,293;    1,156;    1,318
373,473;10178,131;    4,064;    1,136
374,066; 9932,798;    1,336;    0,500
374,658; 9732,775;    0,879;    1,136
375,250;10188,275;   -1,668;   -1,409
375,842; 9985,174;   -0,124;   -0,045
376,434; 9851,608;   -2,762;   -0,409
377,026;10519,127;   -1,855;   -2,500
377,618;10371,658;    0,779;   -0,682
378,210;10208,973;    3,141;   -1,955
378,802;10049,276;    3,412;   -0,591
379,394; 9941,327;    3,411;    0,682
379,986;10667,239;    1,138;   -0,955
380,578;10794,890;    1,410;    0,773
381,170;10001,690;    0,320;    0,045
381,762; 9978,373;   -0,224;    1,409
382,354;10242,913;   -0,223;   -1,318
382,945;10337,531;    0,870;    0,318
383,537;10569,039;    1,144;   -1,955
384,129;10521,744;    0,963;   -1,136
384,721;10766,987;    0,418;    0,955
385,312;10704,223;   -1,399;   -0,955
385,904;10771,845;   -0,945;    1,591
386,496;10045,444;    0,691;    1,045
387,087;10220,017;    0,418;    2,500
387,679;10250,689;   -0,401;    0,045
388,270;10388,993;   -2,401;    2,045
388,862;10521,532;   -0,401;   -0,318
389,453;10388,751;    1,054;    1,045
390,045;10731,989;    3,236;   -2,682
390,636;10689,745;    0,144;   -0,591
391,227;10506,873;    2,054;   -0,045
391,819;10570,300;    0,781;    0,773
392,410;10678,067;    0,600;    0,045
393,001;10601,764;    1,600;   -1,591
393,593;10922,107;    0,600;   -0,045
394,184;10719,248;    0,873;   -0,409
394,775;10710,297;    1,146;    2,136
395,366;10923,197;    1,782;    0,773
395,957;10992,676;   -2,400;    0,136
396,548;11338,597;    1,054;    2,682
397,139;11660,292;    2,236;    0,591
397,730;11342,678;    0,873;    0,955
398,321;11411,752;    0,509;    0,955
398,912;11470,539;   -0,764;    0,136
399,503;11537,182;   -1,945;   -1,409
400,094;10909,630;   -1,582;    1,682
400,685;10751,275;    3,600;    0,045
401,276;10855,432;   -0,400;   -0,955
401,867;11228,616;   -1,127;    0,773
402,458;11335,368;    1,509;   -2,318
403,048;11320,444;    0,146;    0,591
403,639;10876,723;    1,509;    0,864
404,230;11084,963;    0,691;    0,318
404,821;11008,455;   -0,127;    0,045
405,411;11102,841;   -0,763;   -2,591
406,002;10682,326;    3,237;   -1,136
406,592;10442,779;    2,691;    0,045
407,183;10809,109;    0,328;   -1,500
407,774;10712,522;    1,419;   -0,136
408,364;11095,721;    2,600;    0,409
408,954;10617,845;   -0,036;    1,227
409,545;10671,347;    1,873;    1,045
410,135;10122,115;   -1,581;    0,500
410,726;10343,327;    0,783;    0,318
411,316;10783,863;    2,237;    0,773
411,906;10427,579;    0,146;   -0,409
412,497; 9819,443;   -0,490;   -0,045
413,087;10492,543;    0,783;   -0,227
413,677;10970,908;   -2,490;    3,864
414,267;10736,451;   -1,035;    1,409
414,857;10765,629;    0,419;    4,227
415,448;11099,286;   -0,763;    0,500
416,038;10747,666;   -2,945;   -0,591
416,628;10695,955;    0,965;    0,409
417,218;10058,486;   -1,762;    3,318
417,808;10379,846;    0,965;   -0,409
418,398;10947,713;   -1,035;    2,682
418,988;10987,842;   -2,217;    0,591
419,578;11295,414;    3,601;    1,409
420,168;11685,427;    0,692;   -0,955
420,757;11210,412;    0,964;   -1,500
421,347;10823,796;    1,601;   -0,227
421,937;10988,697;    3,329;    1,409
422,527;10922,339;    2,602;   -0,773
423,116;10696,552;    2,692;   -0,045
423,706;11164,705;    2,965;    0,318
424,296;11163,222;    1,601;    0,682
424,885;11621,949;    1,510;   -3,045
425,475;11944,166;    1,147;   -2,864
426,065;11883,899;   -1,489;   -0,318
426,654;11427,198;    0,329;   -0,318
427,244;11552,895;    1,147;    1,409
427,833;10924,703;    1,056;   -0,500
428,423;11507,732;    0,147;    1,136
429,012;12367,485;    2,420;   -1,136
429,601;11762,359;    2,057;    0,136
430,191;12043,655;    2,511;    4,318
430,780;11665,544;   -1,671;   -0,409
431,369;11525,646;    1,329;   -0,045
431,959;12270,299;    1,693;    0,500
432,548;12025,741;   -1,398;   -0,045
433,137;12216,369;    0,329;   -1,318
433,726;12786,057;    0,148;    0,500
434,315;12055,789;    0,148;    2,409
434,905;12151,311;    0,693;    1,409
435,494;12070,330;    3,148;    0,955
436,083;12589,367;    1,420;   -0,955
436,672;12420,904;    1,148;    0,500
437,261;11892,005;    0,512;   -1,955
437,850;11996,553;   -1,125;    0,682
438,439;11979,144;    2,239;    1,955
439,027;11776,077;    3,421;    1,773
439,616;12216,674;    2,239;    1,227
440,205;12132,546;    0,057;   -2,136
440,794;12209,747;   -0,306;   -0,045
441,383;12510,164;    1,603;   -0,591
441,971;12370,379;   -0,306;    0,591
442,560;12231,852;    0,603;   -1,773
443,149;11982,144;    3,060;   -1,318
443,737;12174,349;    0,968;   -2,318
444,326;12421,531;    0,331;    0,318
444,915;12482,585;   -1,851;    0,864
445,503;12878,244;    0,058;   -0,318
446,092;12074,178;    7,876;    2,136
446,680;12728,849;    1,876;    0,318
447,269;12948,853;   -1,487;   -0,318
447,857;12691,415;    2,240;   -1,773
448,445;12796,824;    2,149;    1,318
449,034;13047,227;    0,876;   -1,136
449,622;13195,787;    1,240;    3,500
450,210;12217,045;    3,149;    2,227
450,799;12833,692;    2,604;   -0,591
451,387;12787,751;    1,786;   -0,591
451,975;12352,320;   -1,305;    0,864
452,563;12467,388;    0,422;    2,318
453,151;12554,080;   -1,032;   -1,227
453,739;12473,365;   -1,577;    0,136
454,328;12250,869;    0,604;   -2,136
454,916;11887,590;    1,150;   -0,136
455,504;12098,408;    3,513;    1,227
456,092;12357,710;    2,150;   -1,591
456,679;12312,718;    0,604;    0,682
457,267;12105,280;    3,604;    1,045
457,855;12354,782;    3,241;    1,409
458,443;12153,856;   -0,304;    1,682
459,031;12230,276;    1,332;    2,409
459,619;12798,871;   -3,577;    2,864
460,206;12975,763;   -0,759;    2,045
460,794;13039,001;   -0,668;   -0,227
461,382;13313,379;    0,878;   -0,864
461,970;12839,490;    0,605;    1,864
462,557;12884,587;    0,878;   -0,682
463,145;13148,666;   -0,304;   -1,682
463,732;13295,310;    2,514;   -1,045
464,320;13232,329;    1,514;   -3,045
464,907;12826,982;    0,423;   -0,773
465,495;12705,822;    2,696;   -1,227
466,082;12864,229;    2,060;   -0,045
466,670;12784,378;    2,605;    1,227
467,257;13230,704;    0,060;    2,045
467,844;13406,233;    1,514;    0,045
468,432;13417,417;   -0,031;    3,500
469,019;12838,332;    1,606;   -1,773
469,606;13350,429;    0,969;    3,682
470,193;13127,642;    2,151;    0,227
470,780;12602,097;    0,333;    0,864
471,368;13049,665;   -1,212;   -0,773
471,955;12812,080;    1,060;   -0,682
472,542;12368,491;   -0,303;   -1,136
473,129;12617,950;   -0,485;    0,136
473,716;12333,177;    0,060;    0,591
474,303;12612,388;    1,333;   -0,864
474,890;12906,921;    2,333;   -0,500
475,477;12863,710;   -0,576;    0,409
476,064;12800,856;    0,697;   -1,591
476,650;12747,844;    2,152;    0,318
477,237;12610,208;    1,879;    0,955
477,824;12791,602;    3,879;    0,864
478,411;12832,181;    0,606;   -0,318
478,997;13027,604;    0,606;   -0,773
479,584;13103,821;   -0,666;   -0,409
480,171;13912,556;    1,243;   -0,773
480,757;13565,618;   -0,848;    0,773
481,344;13936,823;    0,334;    0,409
481,931;13382,958;   -0,393;    1,045
482,517;14490,013;    0,425;    0,318
483,104;15222,967;    1,334;    2,864
483,690;15669,193;    0,243;    0,045
484,276;16150,818;    0,698;    0,227
484,863;15889,540;    2,152;    1,136
485,449;16554,079;    0,152;    0,318
486,035;16573,444;   -0,666;   -0,136
486,622;17049,959;   -2,393;    0,045
487,208;17005,762;    1,334;    1,500
487,794;16853,254;    0,971;    0,318
488,380;16914,097;    0,698;   -1,409
488,967;16984,388;   -1,120;   -0,409
489,553;17084,646;   -1,029;   -1,409
490,139;17262,640;    0,971;    0,773
490,725;16648,894;    0,789;   -0,227
491,311;16052,423;    1,516;    3,045
491,897;15191,739;   -0,665;    1,500
492,483;14902,617;    0,426;    1,227
493,069;14520,216;    5,426;    0,864
493,655;14513,617;    1,789;    0,682
494,241;14433,782;    1,517;   -0,955
494,826;14893,814;    0,335;   -1,045
495,412;14340,212;    0,335;   -0,682
495,998;14499,950;    0,971;   -0,318
496,584;14664,706;    2,244;    1,045
497,169;14652,830;    2,335;   -0,682
497,755;14595,588;    1,244;    1,227
498,341;15192,543;    2,153;    0,318
498,926;14684,193;    2,881;    1,955
499,512;14931,552;   -0,028;    2,955
500,097;15124,788;   -0,574;   -0,318
500,683;15054,433;   -0,028;    2,136
501,268;15421,951;    1,881;   -0,955
501,854;15129,999;   -0,119;    1,227
502,439;15052,676;   -0,573;   -1,773
503,024;15253,897;    1,608;    0,500
503,610;15322,980;    1,335;   -0,682
504,195;15374,810;    1,245;    1,955
504,780;15467,918;    2,335;    1,227
505,366;15250,195;    4,063;    2,864
505,951;14943,911;   -1,119;    1,045
506,536;14958,951;    1,427;   -3,682
507,121;14957,449;    1,699;   -0,318
507,706;15528,765;   -0,392;    1,045
508,291;16025,835;   -2,937;    1,136
508,876;15417,483;   -0,482;    2,591
509,461;14802,180;    1,427;   -0,773
510,046;15261,702;   -0,391;    0,318
510,631;15474,820;   -0,119;   -0,773
511,216;15149,624;   -0,664;   -0,500
511,801;15523,413;   -0,755;    2,591
512,386;15847,355;    0,972;    0,500
512,971;15801,124;    0,427;    0,955
513,555;15256,632;    1,154;   -1,500
514,140;16154,223;    1,336;   -3,136
514,725;16193,559;    1,791;   -1,136
515,309;16350,473;    1,064;    0,318
515,894;15697,332;   -0,300;   -2,227
516,479;16151,295;    1,973;   -0,955
517,063;16025,165;    0,882;    1,227
517,648;16213,586;    0,155;   -1,136
518,232;15799,148;   -1,300;   -1,409
518,817;16144,323;    1,337;    1,682
519,401;16387,383;    0,700;    0,591
519,985;15829,813;    2,700;    1,136
520,570;15702,654;   -0,118;   -1,955
521,154;16070,367;    0,064;    0,591
521,738;16230,226;    1,064;    2,409
522,323;16854,098;   -0,390;    1,682
522,907;16551,329;    2,428;   -0,136
523,491;16269,463;    1,155;    0,955
524,075;16244,366;    0,428;    0,591
524,659;16360,338;    0,973;    0,591
525,243;15754,158;    0,883;    0,409
525,827;16006,073;    0,883;   -0,045
526,411;16938,338;    1,155;   -0,136
526,995;17188,356;    0,337;    1,409
527,579;16739,891;    1,974;   -1,045
528,163;17034,066;    0,428;   -1,500
528,747;16952,539;    1,065;   -0,773
529,331;17293,321;    0,883;   -1,409
529,915;17511,767;    2,338;    0,955
530,499;17478,095;    0,247;    1,227
531,082;17169,407;    1,065;    1,591
531,666;16572,932;    0,520;    0,773
532,250;17357,533;    0,428;    2,682
532,833;17726,279;    0,610;    2,773
533,417;17616,252;    1,247;    0,864
534,001;17551,107;    0,429;   -0,318
534,584;18312,355;    1,974;    0,500
535,168;18162,781;    3,247;    1,409
535,751;18204,618;    4,520;    0,045
536,334;17578,293;    4,520;   -0,409
536,918;18238,285;    1,974;    1,591
537,501;18399,396;    1,520;    1,318
538,085;18341,679;    1,702;    1,045
538,668;18565,855;    0,883;    2,409
539,251;18893,940;    3,156;    3,773
539,834;18930,246;    0,156;    0,773
540,418;18806,413;    3,247;    4,318
541,001;19018,262;    2,702;    1,773
541,584;19060,451;    1,429;    2,227
542,167;18699,051;    0,702;    2,955
542,750;18905,762;    0,793;   -0,773
543,333;18462,294;    1,429;    2,136
543,916;19293,284;   -0,298;    2,500
544,499;20035,939;    2,520;    0,227
545,082;20020,220;    0,248;    3,591
545,665;20151,412;   -0,207;    1,500
546,248;20506,022;    0,520;   -0,318
546,830;20158,096;   -1,752;    1,955
547,413;20629,030;    0,157;   -0,773
547,996;21140,001;    0,157;    0,500
548,579;20917,211;   -0,843;    0,955
549,161;20763,765;    0,884;    2,682
549,744;20563,703;    0,612;    0,409
550,326;21120,732;    0,885;   -1,136
550,909;20809,899;    2,339;    0,591
551,492;21275,736;    0,521;    0,227
552,074;21015,686;   -0,024;   -1,318
552,657;21617,120;    2,430;    0,045
553,239;21386,192;   -3,024;   -0,773
553,821;21302,358;   -1,570;    1,045
554,404;20782,525;   -0,024;    1,136
554,986;21189,517;    2,248;    1,045
555,568;21840,589;    0,430;   -0,955
556,151;20970,128;    4,067;   -0,227
556,733;21191,990;   -1,388;   -0,864
557,315;21683,725;    4,703;    0,500
557,897;21491,814;    0,521;   -0,500
558,479;21669,969;    1,703;    1,318
559,061;21748,493;    1,067;   -0,864
559,643;22135,529;   -0,297;    0,045
560,225;22557,779;   -0,388;    2,864
560,807;22597,529;    0,340;    0,318
561,389;22057,671;   -1,206;    2,318
561,971;22829,220;   -0,660;    2,136
562,553;22646,179;    0,613;    1,591
563,135;22787,898;    1,249;    1,136
563,717;22412,121;    3,158;    1,136
564,298;23252,392;    3,976;   -0,045
564,880;22933,978;    0,340;   -1,409
565,462;23114,433;    1,977;    1,318
566,043;24425,991;   -0,933;    2,318
566,625;23962,886;    4,067;    1,227
567,207;23784,055;    0,704;    1,682
567,788;25064,309;   -0,114;    1,500
568,370;26004,817;   -1,841;   -0,500
568,951;25870,648;   -0,569;    0,227
569,533;26900,565;    0,977;   -0,500
570,114;27470,974;   -0,296;    0,682
570,695;28051,902;   -0,478;   -1,318
571,277;28730,348;   -0,205;   -1,682
571,858;29549,057;    2,704;   -1,136
572,439;30655,379;    0,795;   -1,045
573,021;30923,817;    0,432;   -2,773
573,602;31520,265;    1,795;    0,318
574,183;32522,600;   -0,114;    2,227
574,764;32833,339;    2,068;    0,409
575,345;33489,135;    0,250;   -0,136
575,926;34219,592;    2,704;    0,136
576,507;34187,978;    2,704;   -0,227
577,088;35343,216;    1,704;    1,682
577,669;35430,455;    1,704;    1,955
578,250;36284,872;   -0,750;   -1,045
578,831;37121,601;   -0,841;   -2,227
579,412;37439,994;   -1,205;    0,955
579,993;38474,821;    1,432;    0,227
580,573;38838,416;   -0,023;   -0,955
581,154;37770,868;    1,613;   -0,591
581,735;38665,678;    0,341;    0,773
582,315;38113,769;    0,523;    2,136
582,896;38458,976;   -1,750;    1,227
583,477;37929,686;    0,614;    1,227
584,057;38087,240;    1,159;    0,955
584,638;38346,184;   -2,750;    2,318
585,218;38352,848;    2,886;    2,682
585,799;38446,585;    1,977;   -0,227
586,379;38422,852;    1,250;    1,591
586,959;37112,306;    2,613;    0,318
587,540;36268,998;    0,432;    2,227
588,120;35665,802;   -1,113;   -0,045
588,700;34420,868;    2,977;    2,136
589,281;34717,982;    1,250;   -0,955
589,861;34633,195;   -0,296;   -1,682
590,441;34448,011;   -1,477;   -2,682
591,021;33324,170;    1,432;   -2,591
591,601;33526,149;    0,431;    0,500
592,181;33438,490;   -1,296;   -0,773
592,761;32713,696;    2,250;    1,409
593,341;32595,711;    1,522;    0,045
593,921;32508,817;   -0,569;    1,591
594,501;32332,887;    1,250;    1,318
595,081;32181,641;    0,522;   -0,318
595,661;32518,311;    1,068;    0,955
596,240;33124,639;   -1,023;    0,136
596,820;32747,309;    2,613;    1,955
597,400;32977,666;    1,977;    0,773
597,980;33251,013;   -0,750;    1,045
598,559;33256,986;    0,341;   -0,227
599,139;32873,618;   -0,750;   -1,227
599,718;32795,073;    0,795;   -0,409
600,298;33055,203;   -2,387;    0,682
600,877;33271,511;    4,795;    1,409
601,457;33593,453;    0,340;    1,136
602,036;33439,953;    1,795;    2,045
602,616;33728,726;    2,250;    1,682
603,195;34045,439;    0,431;    3,500
603,774;33541,945;   -0,296;    2,045
604,354;33416,121;    2,522;   -0,500
604,933;32829,197;    0,250;    1,864
605,512;32988,674;    2,340;    0,591
606,091;33052,757;    1,886;    3,773
606,671;33851,705;    0,249;    0,773
607,250;32832,916;    1,431;    3,136
607,829;33146,220;    1,158;    3,227
608,408;32948,602;    4,613;    2,591
608,987;31952,336;    2,704;    3,409
609,566;32287,779;    0,341;   -2,500
610,145;32315,086;    2,885;    0,682
610,723;32705,543;    1,613;    6,864
611,302;31878,206;    1,067;    1,682
611,881;31329,867;    5,158;   11,227
612,460;32250,330;    0,795;    3,955
613,039;32658,621;    1,703;    2,045
613,617;31294,859;    0,886;    4,773
614,196;31501,183;    1,613;    1,227
614,775;31857,012;    1,249;    2,409
615,353;31822,636;   -1,660;    0,864
615,932;31369,644;    0,249;    2,409
616,510;32007,997;    0,158;    0,591
617,089;31480,925;    8,794;   17,591
617,667;31205,931;    4,885;    6,136
618,246;31036,702;   -1,115;    1,318
618,824;31169,543;    1,612;   -0,955
619,402;30728,376;    0,431;   -1,773
619,981;31269,915;    1,067;   -1,045
620,559;31083,932;    0,794;    1,682
621,137;30588,620;    3,067;    1,864
621,715;30562,803;    3,703;   -0,682
622,293;30432,752;    1,885;   -0,773
622,871;30953,361;    0,340;    0,500
623,450;30418,120;    0,430;   -0,864
624,028;30281,316;   -0,388;   -0,955
624,606;29875,919;    2,339;    1,682
625,183;30299,500;   -0,661;   -1,136
625,761;29909,304;    1,885;    1,136
626,339;30196,775;    2,339;    2,591
626,917;30611,273;    0,339;   -0,045
627,495;30641,533;    2,794;    1,318
628,073;30042,352;    5,248;    2,864
628,650;29706,572;    3,067;    2,136
629,228;30103,006;    1,248;    4,409
629,806;29428,601;   -0,024;    1,136
630,383;29712,411;    0,066;   -0,318
630,961;29520,637;   -2,206;   -0,955
631,539;29179,984;   -2,479;    0,227
632,116;28383,000;   12,703;   15,409
632,694;29041,349;    4,885;    6,500
633,271;29377,013;    1,975;    2,682
633,848;29290,943;    1,430;    2,045
634,426;29318,197;    1,521;    1,773
635,003;28393,460;   -0,207;   -0,409
635,580;28781,766;    1,884;    3,682
636,158;29324,044;    3,793;    1,227
636,735;29237,139;    3,339;   -0,500
637,312;29361,707;    0,521;   -0,682
637,889;29472,453;    2,248;   -0,682
638,466;28961,679;    0,066;   -0,409
639,043;28949,840;    1,702;   -1,136
639,620;29283,882;    0,611;   -0,955
640,197;29599,240;    1,612;    1,682
640,774;29706,866;    1,430;    1,136
641,351;30190,220;    0,612;    1,136
641,928;29576,756;    2,794;    1,409
642,505;29151,292;    0,794;   -0,500
643,082;29254,464;    1,885;    1,227
643,658;28238,182;    1,157;    1,500
644,235;29043,991;   -2,479;    2,500
644,812;29384,617;    1,794;    0,773
645,388;29093,335;    1,612;    1,409
645,965;29179,598;    1,521;    1,682
646,542;29231,316;    3,430;   -0,227
647,118;29218,761;    3,703;   -0,955
647,695;29544,115;    0,339;    1,136
648,271;29388,469;   -2,115;    0,500
648,848;29780,823;    0,248;    2,227
649,424;29593,359;    0,976;    1,318
650,000;29396,440;   -0,388;   -1,045
650,577;29235,794;    0,158;   -0,955
651,153;29692,239;   -1,115;    0,955
651,729;30719,139;    0,521;    0,864
652,305;31030,584;    1,339;    2,773
652,881;36368,483;   -1,297;    1,136
653,458;44535,474;    0,249;    0,227
654,034;49227,737;    0,703;    1,591
654,610;51106,818;    0,339;    0,773
655,186;52671,899;    1,612;    3,045
655,762;52414,163;   -1,842;    0,409
656,338;52459,244;    0,703;    0,136
656,913;53506,416;   -0,297;    0,409
657,489;52801,407;    0,249;   -0,318
658,065;52708,397;    0,794;   -1,591
658,641;53209,387;    2,158;   -0,864
659,217;52474,650;    2,067;    0,409
659,792;51933,823;   -1,751;   -0,409
660,368;52163,631;   -0,388;   -0,682
660,944;51682,894;    1,794;    1,227
661,519;46324,430;    0,522;    0,409
662,095;38980,966;   -0,206;    0,591
662,670;33359,593;   -0,206;   -0,136
663,246;31871,220;   -0,660;   -0,409
663,821;31002,028;    0,431;    1,682
664,396;30510,291;    0,613;    1,864
664,972;30800,282;   -0,660;   -0,500
665,547;31100,363;    3,794;    0,136
666,122;31030,445;    1,340;    0,318
666,698;31329,708;    2,431;    0,318
667,273;30637,062;    0,885;    0,136
667,848;31526,234;    0,340;    1,500
668,423;31229,679;    1,795;    2,318
668,998;31917,488;    0,976;   -0,682
669,573;32486,023;    2,067;   -1,500
670,148;32296,105;    1,885;   -0,682
670,723;32098,913;   -0,024;    0,318
671,298;32570,631;   -1,296;    1,045
671,873;32747,349;   -0,296;   -0,136
672,448;32677,066;    1,704;    0,136
673,023;33042,329;    0,249;   -0,227
673,597;33331,047;    2,704;    2,318
674,172;33064,401;    2,431;    0,318
674,747;32576,755;   -0,205;   -1,045
675,321;32458,018;   -0,933;    3,318
675,896;31984,645;    2,158;    1,045
676,471;33021,272;    2,522;    1,591
677,045;32842,353;   -0,296;    0,682
677,620;32913,707;    2,158;    1,136
678,194;33260,789;    0,249;    1,136
678,769;32825,143;    0,886;   -0,318
679,343;32924,769;   -0,023;    1,773
679,917;32800,305;    0,340;    1,955
680,492;32934,750;    0,249;    3,227
681,066;33093,650;    0,613;    0,409
681,640;33119,822;    1,795;   -0,318
682,214;33955,903;    2,340;    0,500
682,788;33445,803;    0,613;   -0,773
683,363;33391,884;    1,977;    1,682
683,937;33110,966;    0,886;   -0,318
684,511;33927,229;   -1,023;   -0,591
685,085;33645,219;   -1,478;    0,318
685,659;33346,664;    1,431;    0,864
686,232;33548,291;    1,159;   -0,318
686,806;33319,554;    2,159;    0,409
687,380;34002,635;   -1,932;    0,591
687,954;34288,808;    2,432;    1,136
688,528;33905,252;    2,613;    1,955
689,101;34686,607;    0,432;    1,045
689,675;34321,961;    0,886;   -0,136
690,249;33614,678;    3,432;    0,409
690,822;33910,487;    1,159;    0,318
691,396;34001,659;    2,068;    1,227
691,969;33499,649;    2,523;    0,136
692,543;33911,640;   -0,568;   -1,955
693,116;33527,539;   -0,659;   -1,409
693,690;33362,166;   -0,296;    0,500
694,263;33901,247;    2,341;    2,955
694,836;33954,420;    2,795;    3,591
695,410;32477,228;    1,159;    1,773
695,983;33056,310;    1,614;    0,591
696,556;33014,209;   -0,750;   -1,045
697,129;33427,018;   -1,114;    1,409
697,703;33038,099;    1,341;    1,955
698,276;33055,362;    1,705;   -0,773
698,849;32888,171;   -1,023;    1,409
699,422;33214,343;    1,250;    0,591
699,995;32872,243;   -0,659;    0,136
700,568;33430,960;   -0,204;    3,045
701,140;33428,587;   -1,841;    1,682
701,713;33149,941;    0,341;    2,409
702,286;32858,295;    0,796;    0,864
702,859;32715,831;    0,614;   -0,591
703,432;31806,640;   -0,841;    0,682
704,004;32342,357;    1,978;    0,318
704,577;32219,257;    1,068;    0,136
705,150;32842,338;    0,887;    2,500
705,722;32582,692;    1,523;   -3,227
706,295;32315,955;    1,432;   -0,591
706,867;32176,491;    0,250;    1,955
707,440;32369,754;   -0,113;   -0,409
708,012;32623,199;   -0,022;    0,591
708,584;32552,371;    2,705;    0,227
709,157;32932,180;    1,160;   -0,591
709,729;32558,989;    1,069;    2,045
710,301;33454,615;   -1,204;    0,045
710,874;33418,424;    0,341;   -0,227
711,446;32273,596;   -0,295;    0,864
712,018;32186,405;   -3,022;    0,500
712,590;31874,486;   -0,204;    1,682
713,162;32362,477;   -0,477;    1,318
713,734;32631,103;    1,796;   -2,045
714,306;32501,003;    0,342;   -0,409
714,878;31173,357;   -0,295;    0,864
715,450;31976,620;   -0,113;    0,864
716,022;32239,883;    2,433;    1,318
716,593;32427,055;    0,978;    0,591
717,165;32313,591;    1,796;   -1,227
717,737;32015,582;    0,796;    0,409
718,309;31691,572;    1,160;   -0,045
718,880;31640,835;   -1,295;   -1,409
719,452;31854,644;    0,887;   -1,591
720,024;31347,271;    1,705;   -0,591
720,595;31884,716;    2,978;    0,955
721,167;31451,251;    1,160;   -2,045
721,738;30940,606;    2,069;   -1,045
722,309;30871,687;    1,251;   -1,227
722,881;30678,859;    2,705;    0,773
723,452;31416,031;    1,251;    2,864
724,023;31591,840;    1,524;    2,682
724,595;31376,376;    2,342;    0,682
725,166;31073,003;    1,524;   -0,409
725,737;30644,629;    1,887;    0,227
726,308;30764,892;    0,797;    0,318
726,879;31195,883;    1,069;    1,227
727,450;31071,782;   -2,022;   -0,045
728,021;31000,136;    1,069;    0,682
728,592;30815,218;    1,160;    0,500
729,163;31131,208;    1,433;   -0,136
729,734;31154,653;    2,160;   -0,227
730,305;31526,098;    0,615;    0,136
730,876;31924,816;    0,888;    2,955
731,447;31599,897;    0,797;    2,682
732,017;31739,069;   -0,840;    1,864
732,588;31222,696;   -0,021;    1,227
733,159;31384,505;    3,615;   -1,045
733,729;31217,586;    1,251;    0,409
734,300;30486,395;    0,160;    0,864
734,870;30914,112;   -1,385;    0,591
735,441;31470,739;    0,888;   -0,591
736,011;31254,548;    1,070;   -1,591
736,582;31153,265;    1,251;    0,045
737,152;30631,528;    0,979;   -2,045
737,722;31112,064;    1,070;   -0,682
738,293;30816,327;   -2,021;    1,318
738,863;30645,772;    1,797;    2,318
739,433;30426,217;    4,524;    0,318
740,003;31108,481;    1,524;   -0,682
740,573;30397,562;    2,252;   -1,591
741,143;30403,734;    3,615;    0,318
741,713;31117,270;    0,252;   -0,500
742,283;30787,533;    1,706;    1,591
742,853;30548,251;    0,524;    1,591
743,423;29985,423;    0,161;    0,045
743,993;30129,413;    1,070;    1,500
744,563;29406,131;    2,524;   -0,864
745,133;29326,576;   -0,112;   -0,864
745,702;30121,567;    2,797;    1,773
746,272;29272,648;    0,434;    0,591
746,842;29028,820;   -0,748;   -0,591
747,411;29478,447;   -0,839;   -0,318
747,981;29699,801;   -0,930;    0,500
748,551;29735,337;   -0,021;   -1,045
749,120;29537,509;   -0,112;   -0,227
749,690;29961,863;    2,161;    2,409
750,259;30287,399;    0,979;    2,955
750,828;30186,571;    4,070;   -1,955
751,398;30457,016;   -0,112;   -0,045
751,967;29875,825;    2,888;    0,409
752,536;30147,906;    1,161;   -0,227
753,105;30620,806;   -1,384;    0,227
753,675;30426,069;   -0,112;    1,773
754,244;30390,605;    0,888;    3,591
754,813;30425,504;    0,979;    1,227
755,382;30048,949;    0,798;    0,955
755,951;30588,667;   -0,112;    3,682
756,520;30091,384;    2,525;    1,864
757,089;30692,011;    1,888;    0,500
757,658;30855,002;    2,434;    1,227
758,227;30849,719;   -1,111;    0,318
758,795;31145,710;   -1,021;    1,136
759,364;31415,609;    0,525;   -0,591
759,933;30411,509;    1,343;   -0,045
760,501;29975,863;    0,252;   -1,318
761,070;30378,944;   -0,293;   -1,409
761,639;31096,662;    1,434;    1,318
762,207;30397,652;    0,889;   -0,955
762,776;30361,552;    2,889;    0,864
763,344;30237,997;    0,071;    0,591
763,913;29323,351;    1,616;    1,409
764,481;30102,614;    1,980;   -0,136
765,049;29899,241;    0,616;    1,409
765,618;29773,413;    1,434;    0,318
766,186;29838,585;    2,434;    0,136
766,754;29947,030;    1,798;    1,864
767,322;28889,111;    1,162;    0,409
767,890;28992,374;    0,525;   -1,773
768,459;29412,274;    2,616;   -0,318
769,027;29581,083;    2,525;    3,409
769,595;28504,982;    2,616;    2,591
770,163;28893,336;    3,344;    2,955
770,730;28607,599;    2,525;   -0,136
771,298;28464,408;    1,162;   -1,409
771,866;28553,853;    0,253;    4,955
772,434;28924,661;    1,162;   -1,864
773,002;29075,106;    2,616;    0,682
773,569;28705,642;    1,071;    1,682
774,137;28513,814;    0,889;   -0,045
774,705;29325,805;   -0,747;   -0,136
775,272;28719,795;    0,253;    0,682
775,840;28472,149;   -0,111;    2,682
776,407;27971,594;   -0,293;    1,955
776,975;27531,039;    1,162;    0,318
777,542;28609,302;    2,162;   -0,045
778,110;28500,020;    0,707;   -0,045
778,677;28132,465;    1,071;   -0,864
779,244;27825,546;   -1,020;    1,045
779,812;27987,355;    0,980;    0,864
780,379;27792,891;    2,435;    1,136
780,946;28055,699;    2,617;   -0,773
781,513;28362,417;   -0,565;    0,318
782,080;27683,680;    1,253;    2,864
782,647;28456,580;    1,708;    3,045
783,214;28045,752;   -0,201;    3,864
783,781;27602,379;    1,708;   -0,682
784,348;27451,006;    0,253;    1,500
784,915;27961,178;   -1,474;    0,318
785,482;27730,077;    2,708;    2,591
786,049;28124,886;    1,071;   -0,591
786,615;28278,604;    1,708;   -0,955
787,182;28059,048;   -3,201;   -0,682
787,749;27708,493;   -2,201;    1,409
788,315;27029,120;    0,253;   -0,409
788,882;27281,202;    0,981;   -1,227
789,448;28006,919;    1,435;   -0,955
790,015;28002,546;    1,799;    3,227
790,581;27527,809;    0,708;    0,227
791,148;27429,072;    1,344;    1,045
791,714;27633,154;   -1,019;    3,136
792,280;27338,235;    3,708;    1,591
792,847;26858,498;   -0,928;    2,500
793,413;27464,943;   -0,110;   -0,318
793,979;26918,115;    1,526;   -1,318
794,545;26997,651;    2,981;    2,682
795,111;26376,642;    2,435;    1,318
795,678;26594,268;    3,526;   -1,682
796,244;26198,259;    2,799;    0,136
796,810;26779,522;    0,799;    0,773
797,375;26477,603;   -0,292;   -2,136
797,941;26493,866;   -1,110;    0,591
798,507;26673,402;    0,254;   -0,955
799,073;26199,302;    2,708;    0,591
799,639;26242,838;    1,435;    3,136
800,205;26261,192;   -1,565;    2,682
800,770;25781,727;    1,345;    1,773
801,336;25814,172;    2,981;   -0,955
801,901;25469,163;    6,072;    3,136
802,467;26082,335;    0,526;    2,045
803,033;25351,053;   -0,019;    0,864
803,598;25573,316;    1,072;   -1,045
804,163;25627,306;    0,708;   -0,318
804,729;25515,206;   -0,110;    1,136
805,294;25977,560;    1,072;    2,227
805,859;25773,187;    0,890;   -0,409
806,425;25176,177;    3,890;    2,682
806,990;24865,804;    1,890;    4,318
807,555;25423,885;   -0,110;    2,591
808,120;25257,057;   -1,292;   -0,409
808,685;25318,593;    1,072;   -2,500
809,250;24781,856;    2,072;   -0,500
809,815;25154,301;   -0,201;    0,682
810,380;25708,474;    0,981;    1,591
810,945;26200,737;    2,890;    2,045
811,510;25390,091;   -0,200;    1,591
812,075;25014,899;    2,800;   -1,409
812,640;25070,344;    3,709;    1,409
813,204;25144,607;    2,163;   -0,227
813,769;25632,871;    0,254;   -0,045
814,334;24972,952;    0,527;    0,864
814,898;25039,851;    1,981;    0,591
815,463;24881,933;    0,981;   -0,773
816,027;24827,378;    1,345;   -2,318
816,592;24943,732;    2,163;   -2,045
817,156;24363,995;   -2,200;    1,136
817,721;24211,349;    0,982;    2,318
818,285;24227,430;    0,618;    1,500
818,849;24958,603;   -0,018;    1,682
819,414;24788,502;    0,073;    2,955
819,978;24283,402;   -0,291;    1,773
820,542;24941,756;    2,891;    0,500
821,106;24665,201;    2,800;    0,682
821,670;24725,555;    2,709;    2,591
822,234;24398,363;    1,073;    1,409
822,798;23751,899;   -0,836;    0,500
823,362;23740,071;    1,527;    4,227
823,926;22999,334;   -0,018;    1,136
824,490;23217,143;    3,527;   -0,682
825,054;23666,952;    2,527;   -1,136
825,618;23274,397;   -1,200;   -1,500
826,181;23204,387;    0,982;   -1,318
826,745;23118,287;   -0,745;   -1,045
827,309;23456,913;    2,255;    1,318
827,872;22772,540;    0,527;    0,955
828,436;23819,712;    1,982;   -0,773
828,999;23904,612;    2,436;    1,227
829,563;22678,966;   -0,654;    1,136
830,126;22486,138;   -0,018;   -0,591
830,690;22463,492;    0,709;    2,864
831,253;21998,483;   -0,473;    2,227
831,816;22134,746;   -0,018;    0,500
832,380;22015,463;    1,164;    0,864
832,943;22205,363;    3,073;   -0,500
833,506;21660,990;    0,255;   -1,227
834,069;22506,707;    2,164;   -0,955
834,632;22563,243;   -2,200;    1,318
835,195;22468,143;    1,346;    0,955
835,758;21591,224;    0,709;    1,955
836,321;21427,669;    1,073;   -1,045
836,884;21557,478;   -1,291;   -0,955
837,447;21505,377;    0,528;    1,773
838,010;21784,822;    1,800;    3,227
838,573;22132,540;    0,528;    0,773
839,135;22043,348;   -0,109;   -0,955
839,698;21440,884;    2,528;    0,409
840,261;20945,602;    0,255;   -0,227
840,823;20792,229;   -0,927;    0,864
841,386;21074,946;   -0,018;   -2,409
841,948;20982,846;    0,255;    1,773
842,511;20697,382;    0,255;    1,682
843,073;20875,827;    2,982;    0,227
843,636;20661,181;    0,619;   -0,227
844,198;20533,989;    1,255;    0,591
844,760;20695,707;    0,619;    1,955
845,322;20318,152;    0,164;    1,136
845,885;20776,597;   -0,290;    0,591
846,447;21195,315;    0,710;    0,227
847,009;20693,941;    3,983;   -0,682
847,571;21073,750;    1,346;   -2,045
848,133;21224,104;   -0,199;   -1,864
848,695;20992,367;    2,346;    1,409
849,257;20515,994;    1,346;   -1,682
849,819;20735,984;    2,983;   -0,409
850,381;20829,611;    1,801;   -0,864
850,942;21163,965;    1,892;   -0,591
851,504;21061,683;    0,983;    0,227
852,066;21161,764;    1,619;   -1,591
852,628;20648,118;    0,165;    1,955
853,189;20201,018;    0,256;    2,682
853,751;20300,917;   -0,654;    1,409
854,312;20144,635;    1,256;   -1,682
854,874;20712,353;   -0,108;   -0,773
855,435;21207,434;    0,528;   -1,682
855,997;21339,879;    3,983;   -0,136
856,558;20570,051;    0,801;    1,773
857,119;20701,042;   -0,744;    2,864
857,681;20391,668;   -0,108;    0,318
858,242;20390,386;    1,347;   -2,136
858,803;20810,740;    1,074;   -0,773
859,364;21433,458;    0,892;   -4,773
859,925;20719,812;   -0,290;   -0,955
860,486;20620,529;    0,529;   -0,955
861,047;20335,429;    0,165;   -1,227
861,608;20099,692;    0,165;   -0,773
862,169;20313,955;   -0,562;   -0,045
862,730;20088,127;   -0,290;    1,409
863,291;20313,482;    0,438;   -0,500
863,852;20657,472;   -0,926;    1,955
864,412;20083,008;   -1,835;   -0,864
864,973;18576,180;    1,892;    0,500
865,534;18442,170;    2,074;    0,227
866,094;20004,434;    2,620;    0,227
866,655;19679,606;    4,711;    3,318
867,215;19971,869;    0,074;    0,136
867,776;19798,496;   -1,199;   -0,136
868,336;19916,486;    1,529;    0,136
868,897;19293,840;    3,438;    1,682
869,457;19004,376;    3,256;    0,318
870,017;19271,367;    2,438;   -1,227
870,578;19822,902;    1,893;    0,773
871,138;19466,256;    2,620;   -0,955
871,698;19024,610;   -0,562;   -1,318
872,258;18821,965;    0,711;   -2,864
872,818;19197,046;    2,347;    0,045
873,378;19185,036;   -2,198;    1,045
873,938;18718,481;    4,984;    0,500
874,498;19101,472;    1,256;   -1,955
875,058;18938,462;    4,347;    1,773
875,618;18806,452;    1,438;   -2,682
876,177;18811,807;   -0,471;    0,136
876,737;18282,797;   -0,289;    1,955
877,297;18300,242;    2,711;    1,955
877,856;18309,778;    2,529;    0,318
878,416;18247,132;    2,438;   -0,136
878,976;18486,668;    3,438;    0,409
879,535;18704,204;    4,529;    3,136
880,095;18379,558;    1,347;    0,045
880,654;18477,548;    0,347;    1,318
881,213;18569,447;    2,347;    1,500
881,773;18232,983;    1,984;    2,682
882,332;18621,428;    6,075;    5,136
882,891;18459,601;    0,711;    2,136
883,451;18922,864;   -2,016;    1,682
884,010;18395,218;   -1,107;   -0,409
884,569;18467,481;   -2,289;   -0,045
885,128;18595,017;   -0,743;   -1,864
885,687;18644,371;   -0,743;    0,682
886,246;18294,361;    2,620;    2,136
886,805;18044,533;    1,620;    2,045
887,364;18366,433;    1,166;   -0,500
887,922;18749,151;   -0,016;    0,045
888,481;18200,687;    1,530;    0,591
889,040;18542,041;    3,711;    2,136
889,599;19263,395;    2,166;    1,409
890,157;19306,385;    2,166;    2,409
890,716;18957,557;    2,166;    0,227
891,274;18765,639;    0,075;   -1,136
891,833;19180,447;    1,166;    0,864
892,391;19106,983;    1,802;    0,500
892,950;19182,610;    0,166;   -0,773
893,508;19543,237;    0,984;   -0,409
894,067;18887,682;   -0,379;    0,136
894,625;18769,672;   -1,016;   -1,500
895,183;18979,117;   -0,198;   -0,682
895,741;18913,107;    2,257;   -1,773
896,299;18726,916;    1,621;   -2,409
896,858;18928,725;    1,530;   -1,591
897,416;19021,624;    0,166;   -1,318
897,974;18784,069;   -2,197;    0,318
898,532;18879,150;    6,530;    2,682
899,089;18800,232;    0,621;   -0,682
899,647;18896,313;    0,530;    1,318
900,205;18607,303;    0,257;    1,045
900,763;18799,476;    2,166;    0,227
901,321;18806,284;    3,530;   -1,409
901,878;18189,456;    3,257;   -0,773
902,436;18063,901;    0,257;    1,318
902,994;18470,528;    6,712;    3,682
903,551;17851,519;    1,439;    0,409
904,109;18257,327;    1,530;   -1,409
904,666;17822,590;    1,439;    1,045
905,224;17636,672;    3,894;   -0,409
905,781;17326,571;   -0,470;   -0,318
906,338;17447,380;    0,167;    1,045
906,895;17355,643;    1,894;    2,045
907,453;17294,451;    2,348;    1,136
908,010;17327,260;    3,348;    0,409
908,567;16904,978;   -0,561;    0,591
909,124;16437,605;    2,439;   -1,500
909,681;16499,959;   -1,288;    0,682
910,238;16651,222;   -0,106;   -1,318
910,795;16938,030;   -1,561;   -1,136
911,352;16556,939;   -0,379;   -2,682
911,909;15918,212;    2,803;   -0,864
912,466;16399,394;    1,985;    1,500
913,022;15950,394;   -0,924;    0,500
913,579;16346,485;   -0,470;    2,045
914,136;16018,848;   -2,561;    0,955
914,692;16390,394;    1,530;   -1,227
915,249;15916,848;    0,530;    0,409
915,806;16109,394;    1,803;    1,955
916,362;15832,667;    0,894;    1,864
916,918;15369,212;    2,439;    1,045
917,475;15378,394;    1,621;    0,955
918,031;15517,939;    0,076;   -0,045
918,587;14898,303;    0,621;   -0,318
919,144;15066,303;   -0,379;    0,227
919,700;15460,212;    0,167;    0,773
920,256;15046,394;    0,439;    0,045
920,812;14593,848;    1,439;   -1,045
921,368;14558,121;    1,348;   -1,045
921,924;14175,394;    0,439;   -0,136
922,480;13733,121;    0,076;    1,227
923,036;14376,576;   -0,652;    1,955
923,592;14336,030;    0,621;    0,318
924,148;14236,667;    1,894;   -0,955
924,704;13511,667;    0,258;   -0,409
925,259;13791,939;   -0,561;    0,591
925,815;13532,303;    3,803;    0,500
926,371;13049,303;    3,530;    1,409
926,926;12899,576;    1,621;    0,591
927,482;12499,212;    1,621;    0,773
928,037;12346,758;   -0,833;    2,045
928,593;12639,485;    0,258;    1,045
929,148;12426,030;    1,167;   -1,500
929,704;11968,030;    2,439;   -0,500
930,259;12138,121;    0,894;   -0,136
930,814;11137,848;    1,803;    1,955
931,369;10831,848;    0,258;   -0,773
931,925;10704,848;   -1,924;    0,136
932,480;10570,758;    3,076;   -2,591
933,035;10413,939;    3,985;   -0,318
933,590;10171,303;   -1,742;   -1,773
934,145; 9804,939;   -1,288;   -0,318
934,700;10186,758;    0,348;   -0,591
935,255; 9967,303;    4,803;    0,045
935,809; 9151,212;    6,258;    0,864
936,364; 8251,667;    2,167;   -0,136
936,919; 8203,758;    2,348;   -1,773
937,474; 8076,667;    1,348;    0,136
938,028; 7823,303;    3,076;    1,136
938,583; 7206,939;    6,348;    4,682
939,138; 7529,758;    0,167;    2,136
939,692; 6960,576;   -1,015;   -1,136
940,247; 6564,121;    1,167;   -1,045
940,801; 6094,303;    0,621;    0,227
941,355; 5989,303;    0,439;    2,591
941,910; 5653,212;    0,712;   -2,136
942,464; 5731,394;    2,712;   -0,318
943,018; 5479,485;    3,258;   -0,227
943,572; 5426,303;    2,803;   -0,682
944,126; 4793,576;   -0,924;   -0,409
944,681; 4653,485;    0,712;    0,227
945,235; 4657,485;    2,167;   -0,591
945,789; 4577,667;    1,258;   -1,864
946,342; 4648,939;   -0,561;   -0,591
946,896; 4484,303;    0,348;    0,955
947,450; 4237,848;   -0,561;   -0,227
948,004; 4406,848;    1,076;   -0,045
948,558; 4428,030;    1,258;   -0,864
949,111; 4325,485;   -1,197;   -0,318
949,665; 4352,576;   -0,106;   -0,682
950,219; 4202,212;    0,621;   -1,045
950,772; 4302,394;    0,258;    1,864
951,326; 4215,212;   -1,106;   -0,955
951,879; 4324,485;    1,076;   -2,318
952,433; 4334,758;    1,348;    2,227
952,986; 4166,758;    0,348;    0,682
953,539; 4100,576;    1,530;    0,591
954,093; 4044,303;    0,985;   -1,318
954,646; 4177,394;   -0,288;    1,318
955,199; 3971,758;    1,258;   -0,500
955,752; 3830,576;    1,985;    1,773
956,305; 3785,485;    0,894;    2,955
956,858; 3969,303;    0,621;   -0,318
957,411; 4154,121;    3,621;    2,136
957,964; 3983,667;    2,076;    2,136
958,517; 3980,030;    0,985;    3,136
959,070; 3794,303;   -1,197;    1,955
959,623; 3836,485;    1,076;    1,500
960,176; 3604,303;    0,712;    2,045
960,728; 3579,848;    1,712;    0,773
961,281; 3647,485;    2,258;    0,500
961,834; 3696,848;   -0,833;    0,864
962,386; 3601,848;    1,258;    1,045
962,939; 3527,030;    3,439;   -0,318
963,491; 3690,394;    2,621;    1,136
964,043; 3546,939;    0,076;    2,409
964,596; 3672,030;    1,712;    2,227
965,148; 3484,121;   -0,379;    1,773
965,700; 3413,576;   -0,015;   -0,227
966,253; 3578,485;   -0,833;    0,318
966,805; 3387,485;    1,894;    0,773
967,357; 3463,485;    0,439;   -1,500
967,909; 3392,848;    1,167;   -1,227
968,461; 3540,303;    0,894;    3,136
969,013; 3450,939;   -1,561;   -0,864
969,565; 3516,485;    1,803;   -1,136
970,117; 3561,303;    3,803;    1,045
970,669; 3407,939;    3,258;   -0,136
971,220; 3305,848;    2,167;   -1,500
971,772; 3195,303;    1,348;   -0,318
972,324; 3315,667;   -1,197;   -0,500
972,876; 3275,121;    0,167;   -0,045
973,427; 3405,303;   -1,197;   -1,045
973,979; 3378,303;    0,076;   -2,500
974,530; 3440,758;    0,803;    1,318
975,082; 3433,667;    2,167;    1,682
975,633; 3293,576;    2,894;    1,682
976,184; 3467,576;    2,076;    0,773
976,736; 3231,303;    0,348;    0,227
977,287; 3018,121;    0,258;   -0,500
977,838; 3217,303;   -0,924;   -0,318
978,389; 3271,576;    0,803;   -0,500
978,940; 3152,848;    1,258;   -0,409
979,491; 3186,848;    2,258;   -0,500
980,042; 3120,576;   -0,652;    3,045
980,593; 3178,485;    1,894;    0,227
981,144; 3227,758;    3,530;   -0,500
981,695; 3173,303;   -0,470;    1,500
982,246; 3136,758;   -1,833;    1,045
982,797; 3326,939;   -0,561;    0,682
983,347; 3450,848;    2,167;    0,591
983,898; 3591,121;    4,167;    0,409
984,449; 3395,667;    2,530;    0,773
984,999; 3338,758;    1,894;   -1,136
985,550; 3089,667;    3,167;   -0,318
986,100; 3135,121;    0,712;   -0,318
986,651; 3196,576;    0,258;    0,045
987,201; 3141,667;    0,894;   -0,591
987,751; 3239,576;   -0,288;    2,864
988,302; 3206,758;   -0,379;    1,500
988,852; 3235,212;    1,985;   -1,136
989,402; 3263,121;    0,985;    0,682
989,952; 3173,667;    1,621;    0,864
990,502; 3283,212;    1,076;    0,682
991,052; 3267,212;   -0,106;    0,045
991,602; 3122,576;    1,167;    1,318
992,152; 3122,121;    2,803;    0,682
992,702; 3114,485;    1,167;   -0,045
993,252; 3014,758;    0,076;   -0,500
993,802; 3095,848;    1,167;    1,318
994,352; 3388,939;   -0,742;    1,136
994,901; 3494,303;    1,076;    3,227
995,451; 3384,485;   -1,197;    0,318
996,000; 3486,758;    1,076;    0,318
996,550; 3178,758;    2,894;    0,227
997,100; 3162,394;   -0,561;   -0,045
997,649; 3462,121;   -0,197;    0,955
998,198; 3070,576;   -0,288;   -1,500
998,748; 3242,303;    0,348;   -2,318
999,297; 3170,212;    0,985;   -0,409
999,846; 3238,121;    1,894;   -0,773
1000,395; 3289,939;    1,530;    0,500
1000,945; 3214,394;    1,076;   -0,773
1001,494; 3310,030;    0,167;    0,682
1002,043; 3311,667;    0,712;    0,864
1002,592; 3154,758;    3,439;    1,955
1003,141; 3300,212;    2,439;   -0,682
1003,690; 3118,121;    1,258;    0,500
1004,238; 3224,758;   -0,106;   -0,045
1004,787; 2832,212;   -1,288;    1,227
1005,336; 3081,576;    1,621;    0,682
1005,885; 3258,939;   -0,197;   -2,773
1006,433; 3425,576;   -0,470;    0,955
1006,982; 3447,848;    2,167;    1,682
1007,531; 3364,758;    2,712;   -0,227
1008,079; 3331,030;    0,258;    0,500
1008,627; 3498,667;    1,621;    0,409
1009,176; 3203,121;    0,076;   -1,955
1009,724; 3239,121;   -2,742;    0,864
1010,273; 3277,939;    1,076;    0,500
1010,821; 3434,576;    1,076;    1,409
1011,369; 3139,939;    0,076;    1,318
1011,917; 3109,212;   -0,833;   -0,591
1012,465; 3421,394;    2,530;   -1,591
1013,013; 3545,485;    0,439;   -1,682
1013,561; 3402,394;   -1,288;   -0,773
1014,109; 3424,485;   -0,833;    1,682
1014,657; 3301,485;    1,348;    0,591
1015,205; 3453,303;    0,894;   -0,955
1015,753; 3506,939;    0,258;   -1,409
1016,301; 3544,030;    2,621;    3,045
1016,848; 3526,939;    2,167;    0,409
1017,396; 3571,303;    1,621;    0,045
1017,944; 3694,394;    2,621;    1,864
1018,491; 3455,667;   -0,197;    1,409
1019,039; 3592,485;   -0,652;    0,591
1019,586; 3516,667;    0,076;    1,682
1020,134; 3632,848;    0,712;    1,500
1020,681; 3617,485;    2,894;   -1,136
1021,228; 3652,030;   -0,561;   -2,227
1021,776; 3506,758;   -0,833;   -1,136
1022,323; 3707,303;    0,803;    0,773
1022,870; 3647,303;   -0,470;   -0,045
1023,417; 3525,303;    2,076;    1,864
1023,964; 3718,848;    0,621;    1,227
1024,511; 3522,303;   -0,652;    0,773
1025,058; 3291,394;    0,439;   -0,045
1025,605; 3347,121;   -1,742;    3,136
1026,152; 3555,030;   -0,106;   -0,591
1026,699; 3280,667;    0,167;    1,318
1027,245; 3467,485;    2,439;    0,318
1027,792; 3728,394;    0,712;    1,409
1028,339; 3574,939;    4,076;   -0,045
1028,885; 3422,667;    3,621;   -0,227
1029,432; 3368,030;   -0,106;    0,227
1029,978; 3414,667;    1,348;   -1,591
1030,525; 3283,939;    1,621;    0,409
1031,071; 3588,394;    0,348;    1,136
1031,618; 3656,303;    1,258;    1,682
1032,164; 3458,030;    2,076;    3,045
1032,710; 3490,030;    0,076;   -1,500
1033,256; 3412,758;    0,712;   -0,136
1033,803; 3413,576;   -0,288;    1,500
1034,349; 3151,848;    1,803;    0,136
1034,895; 3307,485;    2,621;   -0,318
1035,441; 3275,758;    0,439;    0,318
1035,987; 3272,394;   -2,288;   -0,682
1036,533; 3257,485;   -0,197;   -0,955
1037,078; 3436,394;    4,712;    1,682
1037,624; 3278,485;    2,439;   -0,955
1038,170; 3328,667;    1,712;   -0,318
1038,716; 3191,485;    2,167;   -0,409
1039,261; 3112,394;    2,167;   -0,773
1039,807; 3047,758;   -0,015;    3,409
1040,352; 3112,030;   -1,288;   -0,318
1040,898; 3154,485;    0,167;   -0,682
1041,443; 3065,758;    0,803;   -2,591
1041,989; 3051,939;    3,621;    1,591
1042,534; 2962,212;    0,985;    2,591
1043,079; 3108,030;    1,985;    0,955
1043,625; 2863,121;    0,258;    0,500
1044,170; 2886,667;    2,439;    1,045
1044,715; 3147,758;    0,167;    0,955
1045,260; 2960,030;   -0,833;   -0,955
1045,805; 3029,848;    0,258;   -0,591
1046,350; 2979,485;    0,530;   -0,409
1046,895; 2902,303;    0,803;    1,591
1047,440; 2828,212;    1,530;    0,409
1047,985; 2767,939;   -1,197;   -0,955
1048,530; 2666,485;    1,348;    1,227
1049,074; 2721,303;    2,803;    0,318
1049,619; 2698,030;   -0,924;    1,955
1050,164; 2503,667;    1,076;    0,227
1050,708; 2546,030;    2,621;    0,045
1051,253; 2893,121;    3,258;   -2,227
1051,797; 2617,758;   -0,197;   -1,318
1052,342; 2663,758;    1,348;    1,045
1052,886; 2642,758;    1,803;   -1,409
1053,430; 2524,758;    2,167;    0,136
1053,975; 2541,121;    0,894;   -0,318
1054,519; 2492,212;    1,803;    3,227
1055,063; 2479,394;    3,621;    1,318
1055,607; 2362,303;    1,348;    0,227
1056,151; 2394,030;    0,530;    1,682
1056,695; 2324,667;   -1,833;   -1,136
1057,239; 2403,576;   -1,197;   -0,682
1057,783; 2391,121;    2,258;   -1,500
1058,327; 2335,485;    3,076;    1,409
1058,871; 2552,212;    3,985;    1,318
1059,415; 2243,303;   -0,561;   -0,045
1059,958; 2483,667;    2,985;    2,591
1060,502; 2224,485;    1,348;   -0,773
1061,046; 2147,212;    1,712;   -0,955
1061,589; 2146,212;    2,803;   -1,136
1062,133; 2020,121;    0,985;    1,864
1062,676; 1928,758;    1,439;    0,864
1063,220; 1945,667;    0,985;    0,500
1063,763; 1937,121;    2,985;    1,136
1064,306; 2015,939;    0,985;    1,864
1064,849; 1901,848;    2,076;    0,591
1065,393; 1914,667;    2,894;   -1,500
1065,936; 2048,485;    2,530;   -0,409
1066,479; 1948,758;    2,621;    1,318
1067,022; 1958,758;    1,894;   -0,227
1067,565; 1850,939;   -1,197;   -1,318
1068,108; 1888,667;    1,258;   -0,591
1068,651; 1870,485;   -2,470;    1,409
1069,194; 1772,667;   -1,106;   -1,682
1069,736; 1764,576;    3,803;    0,955
1070,279; 1765,576;   -1,652;   -0,500
1070,822; 1784,848;    1,530;   -0,318
1071,364; 1846,030;    0,530;    1,318
1071,907; 1676,121;    0,348;    3,227
1072,450; 1629,667;    0,258;   -0,045
1072,992; 1602,576;   -0,561;    3,136
1073,535; 1710,939;    0,167;    2,136
1074,077; 1509,576;    2,985;    2,045
1074,619; 1480,667;    0,985;    0,591
1075,161; 1501,667;   -0,561;    1,500
1075,704; 1675,121;    0,258;    1,227
1076,246; 1479,576;    1,530;    0,682
1076,788; 1410,758;   -1,015;    1,773
1077,330; 1520,485;   -2,106;    2,136
1077,872; 1456,030;   -1,924;    0,955
1078,414; 1670,758;    3,712;    0,773
1078,956; 1396,303;    0,167;   -0,227
1079,498; 1640,667;    0,439;    0,318
1080,040; 1334,848;    0,985;   -1,318
1080,581; 1301,030;    0,621;   -0,318
1081,123; 1253,848;   -0,106;   -0,773
1081,665; 1310,121;    3,803;   -0,955
1082,206; 1558,939;    3,258;   -0,500
1082,748; 1436,758;    3,258;    2,045
1083,289; 1331,303;    0,167;    1,318
1083,831; 1223,848;    0,258;    0,227
1084,372; 1241,939;    0,894;    0,591
1084,913; 1238,758;    3,348;    0,864
1085,455; 1233,030;    1,530;   -2,045
1085,996; 1191,485;    0,530;    0,136
1086,537; 1203,030;    0,985;    0,864
1087,078; 1246,939;    0,439;   -2,136
1087,619; 1288,485;   -1,652;    0,227
1088,160; 1195,758;    1,439;    1,318
1088,701; 1180,758;   -0,742;    0,682
1089,242; 1118,576;   -0,561;   -2,227
1089,783; 1199,848;   -0,561;    1,409
1090,324; 1169,576;   -0,833;    0,682
1090,865; 1058,939;   -1,924;   -0,409
1091,405; 1045,303;   -0,561;    2,227
1091,946; 1074,030;   -0,197;   -0,955
1092,487;  993,121;   -1,288;   -1,409
1093,027; 1146,394;    1,803;   -1,500
1093,568; 1005,758;    2,258;    1,227
1094,108; 1092,212;    0,621;    1,773
1094,649; 1034,939;   -0,470;    0,136
1095,189;  975,212;    1,167;   -0,682
1095,729;  910,758;    0,712;    0,955
1096,269;  928,121;    1,258;   -0,955
1096,810; 1243,030;   -0,197;    0,500
1097,350; 1052,121;   -0,561;   -0,773
1097,890;  948,212;    2,985;    1,227
1098,430; 1189,394;    4,985;    2,864
1098,970; 1060,303;    1,894;    1,682
1099,510;  947,303;   -0,833;   -2,318
1100,050;  875,848;    0,258;   -1,591
1100,589;  835,394;    0,076;   -0,318
1101,129;  952,121;    0,894;   -0,955
1101,669; 1073,939;    2,803;    2,136
1102,209;  910,485;    1,530;    2,227
1102,748;  872,030;    3,439;    0,955
1103,288;  867,303;    0,712;   -1,227
1103,827;  887,576;    3,530;   -2,227
1104,367;  777,212;    1,712;   -2,409
1104,906;  740,576;   -1,015;   -1,136
1105,445;  806,303;    0,985;   -1,136
1105,985;  752,576;   -0,652;    1,500
1106,524;  789,758;    1,530;   -0,682
1107,063;  766,939;    1,167;    1,409
1107,602;  747,212;    1,894;   -1,500
1108,141;  666,303;    1,621;    1,500
1108,680;  763,212;    3,985;   -0,591
1109,219;  701,394;    0,167;   -0,500
1109,758;  702,758;    4,167;    0,682
1110,297;  676,121;   -1,106;   -0,682
1110,836;  625,030;    1,439;    0,955
1111,375;  782,030;    0,348;    0,409
1111,913;  787,939;    0,985;    0,773
1112,452;  737,667;    0,894;    0,136
1112,991;  629,485;    1,076;    1,955
1113,529;  577,030;    0,167;   -0,045
1114,068;  648,848;    0,439;    2,955
1114,606;  539,758;   -0,561;   -0,955
1115,144;  697,303;    1,530;    1,045
1115,683;  637,303;    1,985;    0,318
1116,221;  690,212;    2,076;   -0,864
1116,759;  598,848;    1,621;   -0,864
1117,297;  778,848;    1,621;    1,864
1117,836;  592,576;    1,985;   -1,227
1118,374;  601,758;    0,258;   -0,682
1118,912;  550,848;    0,439;    2,682
1119,450;  536,485;    0,985;    0,864
1119,988;  582,485;    3,348;    2,136
1120,525; 1031,576;    7,258;    3,318
1121,063;  729,303;    0,530;    1,864
1121,601;  544,667;    1,076;   -1,227
1122,139;  497,758;    1,076;   -2,045
1122,676;  686,939;   -1,652;    2,773
1123,214;  628,030;    0,712;    4,409
1123,751;  444,485;    0,621;    2,227
1124,289;  567,667;    0,894;   -0,409
1124,826;  430,303;   -0,379;    0,227
1125,364;  366,212;    0,712;   -0,955
1125,901;  548,485;    6,258;    1,227
1126,438;  645,121;    3,530;    0,955
1126,975;  389,303;    2,985;   -0,773
1127,513;  449,121;    2,621;    2,136
1128,050;  363,758;   -0,561;   -0,682
1128,587;  457,667;    1,348;   -0,227
1129,124;  495,758;   -0,015;    1,318
1129,661;  375,848;   -1,924;    0,227
1130,198;  525,758;    2,439;    0,773
1130,734;  474,848;   -0,379;    1,409
1131,271;  341,030;   -1,197;    0,864
1131,808;  502,030;    1,621;    3,045
1132,345;  373,121;    4,530;    0,318
1132,881;  270,939;   -0,561;   -1,864
1133,418;  393,939;    0,348;   -1,136
1133,954;  340,576;    0,712;   -2,682
1134,491;  398,303;    1,712;   -0,773
1135,027;  307,030;    2,167;    0,864
1135,564;  392,121;    1,439;    2,955
1136,100;  377,030;   -0,742;    2,136
1136,636;  276,758;   -1,015;   -1,045
1137,172;  349,303;    0,894;   -1,045
1137,708;  287,758;   -1,561;   -1,045
1138,245;  288,485;    0,803;   -1,227
1138,781;  251,939;    1,803;   -3,318
1139,317;  307,667;    1,894;   -1,409
1139,852;  292,212;    3,076;    0,136
1140,388;  396,394;    2,076;   -0,409
1140,924;  294,485;    1,076;   -2,227
1141,460;  230,848;   -0,288;    0,136
1141,996;  174,667;   -0,652;    2,682
1142,531;  216,667;    1,076;    3,318
1143,067;  419,121;    1,167;    1,045
1143,602;  471,667;    3,439;   -0,318
1144,138;  319,030;    0,803;    1,045
1144,673;  195,212;    1,621;    1,409
1145,209;  263,576;    2,894;   -0,318
1145,744;  193,212;    0,803;    0,864
1146,279;  308,758;    1,530;   -0,136
1146,815;  236,848;    1,530;   -2,682
1147,350;  269,667;   -0,924;    0,045
1147,885;  190,303;   -1,924;   -1,318
1148,420;  192,485;    2,439;    0,773
1148,955;  168,667;   -1,470;    1,864
1149,490;  198,030;   -1,106;   -1,591
1150,025;  181,303;   -1,106;   -1,773
1150,560;  279,303;   -0,288;   -0,955
1151,094;  248,667;    0,258;   -0,591
1151,629;  246,121;   -3,742;    0,864
1152,164;  184,848;   -1,288;    1,318
1152,698;  141,212;    1,258;   -0,136
1153,233;  112,848;   -1,379;   -0,682
1153,767;  155,576;   -0,288;   -2,318
1154,302;  206,485;   -0,379;    1,773
1154,836;  203,212;    0,803;   -2,136
1155,371;  252,030;    2,258;    3,682
1155,905;  212,848;    1,985;    1,682
1156,439;  181,030;    0,530;   -0,500
1156,973;  206,939;    0,439;    0,318
1157,507;  147,667;   -1,742;    0,682
1158,042;  166,576;   -0,652;    1,045
1158,576;  214,394;   -0,561;    1,773
1159,110;  210,394;    0,076;    2,409
1159,643;  176,667;   -2,470;   -0,045
1160,177;  121,394;   -2,015;    1,500

