
Integration time [ms]:   0,050
Averaging Nr. [scans]: 11
Smoothing Nr. [pixels]: 0
Data measured with spectrometer [name]: 7318044SP
Wave   ;Sample   ;Dark     ;Reference
[nm]   ;[counts] ;[counts] ;[counts] 

186,757;    3,230;   38,161;    1,318
187,357;    5,264;   26,706;    0,955
187,958;    2,999;   17,252;   -1,591
188,558;    5,407;   12,979;   -1,227
189,159;    1,452;   10,070;   -4,500
189,759;   -3,460;    5,797;   -3,591
190,360;   -1,553;    6,797;   -2,136
190,960;    2,805;    5,706;   -4,136
191,560;    6,686;    2,614;   -6,591
192,161;   53,794;    5,885;   -3,500
192,761;   26,837;    5,520;   -3,227
193,361;   14,706;    3,065;   -3,773
193,962;   25,397;    1,612;   -2,682
194,562;    6,947;   -0,114;   -3,955
195,162;    7,220;   -0,567;   -2,227
195,762;   28,893;    2,433;   -0,045
196,362;   15,555;    1,706;   -2,500
196,963;    3,501;    1,706;   -0,864
197,563;   12,410;    1,252;   -0,955
198,163;    2,667;   -0,111;   -0,682
198,763;    6,813;   -0,020;   -0,500
199,363;   16,819;    3,616;   -0,500
199,963;   12,524;    2,162;    0,409
200,563;    9,462;    6,344;   -1,409
201,163;    3,224;    5,435;   -0,227
201,763;    9,759;    1,435;    0,318
202,363;    3,868;    0,980;    1,500
202,963;   11,359;    1,526;    1,045
203,563;   22,245;    0,344;    0,500
204,162;    8,708;    1,889;   -1,864
204,762;   10,891;    2,071;    0,591
205,362;    6,763;    0,708;    1,955
205,962;    9,222;    3,435;    1,955
206,562;   11,835;    1,889;    2,318
207,161;    6,551;    1,708;    0,318
207,761;   33,109;    4,435;    2,409
208,361;   14,531;    1,889;    1,409
208,960;   14,281;    2,889;    1,500
209,560;   11,170;    0,435;    1,591
210,160;   17,413;    5,071;    1,864
210,759;   12,756;    0,708;    1,227
211,359;    8,566;   -0,474;    1,045
211,958;   44,056;    3,526;    2,045
212,558;   43,407;    0,799;    1,864
213,157;   18,435;   -0,929;    1,500
213,757;   77,943;    5,617;   -0,227
214,356;   35,273;    1,708;   -0,409
214,956;   70,028;    3,526;    0,409
215,555;   23,772;    0,617;    2,136
216,154;   15,954;   -0,292;   -0,591
216,754;   15,859;    1,253;    0,773
217,353;   18,722;   -0,383;   -1,045
217,952;    5,271;    2,072;    0,318
218,552;   31,091;    0,254;   -0,773
219,151;   18,663;   -1,110;    0,955
219,750;   12,432;    0,890;   -0,227
220,349;   14,465;   -2,292;    1,045
220,948;   43,858;    1,163;    1,136
221,548;   21,351;    0,617;    1,227
222,147;   25,250;   -1,292;   -0,409
222,746;   64,579;    1,254;   -0,955
223,345;   36,317;   -1,019;    0,500
223,944;   39,094;    1,163;    0,773
224,543;   43,611;    4,072;   -1,409
225,142;   29,723;    1,345;    0,136
225,741;   43,017;    1,163;    1,045
226,340;   39,210;    1,254;   -0,955
226,939;   74,427;    2,708;   -0,136
227,538;   37,921;    1,163;   -0,773
228,137;   88,864;    0,435;    0,864
228,735;   66,498;    0,435;    1,227
229,334;   24,767;   -0,474;   -0,227
229,933;  101,409;    0,799;    0,591
230,532;  100,201;   -1,201;   -0,409
231,131;  132,821;    1,253;    0,318
231,729;   79,034;    1,163;   -2,318
232,328;   59,664;    0,435;   -1,500
232,927;   67,535;    4,526;   -0,500
233,525;   60,807;    0,981;    0,045
234,124;   79,200;    1,890;   -1,591
234,723;   54,218;    1,617;   -1,045
235,321;   44,888;    1,163;    0,136
235,920;   65,400;    2,526;   -1,227
236,518;  138,979;    1,072;    0,318
237,117;   70,261;    2,890;   -0,227
237,715;   86,768;    1,163;   -0,500
238,314;   99,117;    1,708;   -2,318
238,912;  161,117;    0,526;   -1,409
239,510;  114,927;    1,162;   -1,227
240,109;  173,518;   -0,474;    3,773
240,707;  148,710;   -0,474;    1,227
241,305;   76,453;   -0,383;    0,136
241,904;  123,090;   -0,292;   -2,045
242,502;  201,823;    3,253;   -0,227
243,100;  135,855;    3,344;   -0,955
243,698;   90,089;    2,799;    1,682
244,297;  114,587;   -0,656;    0,682
244,895;  108,792;   -0,474;   -2,318
245,493;  209,995;    2,981;   -0,591
246,091;  216,168;    5,163;   -1,318
246,689;  162,620;    2,163;    0,591
247,287;  152,435;   -0,019;   -1,136
247,885;  130,933;   -1,019;    1,227
248,483;  104,341;   -0,201;   -0,500
249,081;  161,700;    0,981;    1,591
249,679;  175,056;   -1,019;    1,682
250,277;  111,009;   -2,292;    0,864
250,875;  181,221;    0,617;   -1,045
251,473;  122,537;   -0,019;    0,500
252,071;  184,069;   -0,383;    1,045
252,669;  135,821;   -1,565;    0,318
253,267;  105,803;    1,618;    0,773
253,864;  140,981;    0,617;    0,682
254,462;  216,017;    1,526;    1,591
255,060;  112,825;    0,072;    1,318
255,658;  112,185;   -3,292;   -0,136
256,255;  139,888;   -0,201;   -2,045
256,853;  171,478;    2,345;    1,409
257,451;  139,900;    1,981;    1,864
258,048;  405,707;    2,072;    1,864
258,646;  232,379;    0,436;   -1,045
259,243;  292,115;    2,981;    2,227
259,841;  213,186;    1,799;    0,318
260,438;  130,025;    0,254;    0,864
261,036;  200,499;    0,617;    1,409
261,633;  137,916;    1,526;    2,227
262,231;  113,543;   -0,110;   -0,045
262,828;  114,302;   -0,383;    1,136
263,425;  145,158;   -1,928;   -0,591
264,023;  144,097;    1,436;    0,045
264,620;  225,556;    1,526;   -0,318
265,217;  303,005;    2,890;    3,136
265,815;  157,969;    2,527;    2,136
266,412;  216,464;    0,072;    0,136
267,009;  217,989;    0,526;    0,773
267,606;  269,651;    0,345;   -0,955
268,203;  169,326;   -0,383;   -0,591
268,801;  177,638;   -0,474;    0,591
269,398;  136,940;   -0,564;    2,500
269,995;  222,302;    0,890;    1,591
270,592;  190,404;    0,799;   -0,500
271,189;  135,122;    1,981;    0,409
271,786;  118,888;    2,072;    1,227
272,383;  257,049;   -0,383;    0,227
272,980;  177,992;    1,617;    0,318
273,577;  154,469;    2,162;    1,227
274,174;  138,569;    1,435;    2,591
274,771;  221,821;    1,890;   -0,773
275,367;  482,739;    3,253;    1,409
275,964;  335,130;   -0,565;   -0,500
276,561;  198,737;   -2,474;   -1,045
277,158;  132,329;    1,799;   -1,773
277,755;  301,609;   -0,110;    0,409
278,351;  233,922;    0,436;   -1,500
278,948;  278,061;   -0,201;    0,045
279,545;  234,036;    0,527;    2,318
280,141;  338,891;    1,254;   -2,045
280,738;  331,180;    2,435;   -0,136
281,334;  196,304;   -0,383;    0,591
281,931;  197,010;    2,890;   -1,318
282,528;  273,818;    4,072;   -0,500
283,124;  319,654;    3,345;   -0,500
283,721;  317,911;    0,709;    1,409
284,317;  227,650;    0,163;    2,500
284,913;  334,550;   -0,110;    0,591
285,510;  494,278;    2,890;   -0,318
286,106;  360,704;    2,345;   -0,955
286,703;  246,054;    0,072;    1,955
287,299;  207,641;    1,254;   -0,591
287,895;  201,193;    0,890;   -1,045
288,491;  188,122;    0,163;    2,136
289,088;  259,595;    0,163;    2,409
289,684;  282,457;    2,890;    1,500
290,280;  383,885;    1,890;    0,682
290,876;  343,553;    0,163;    5,500
291,472;  295,511;    2,163;    2,227
292,068;  304,799;    1,254;    0,227
292,665;  219,095;   -0,564;    0,773
293,261;  153,490;   -1,292;    2,136
293,857;  280,153;    4,072;    2,136
294,453;  229,225;   -0,928;    0,955
295,049;  371,381;    0,253;    1,955
295,644;  255,168;   -1,292;    0,136
296,240;  169,767;    0,162;   -0,136
296,836;  244,538;   -0,747;    0,318
297,432;  329,409;    2,980;   -0,500
298,028;  339,956;    0,435;    0,773
298,624;  256,817;    0,889;    1,864
299,220;  248,706;    0,435;    0,591
299,815;  236,824;    0,526;   -0,409
300,411;  302,745;    0,435;    1,773
301,007;  362,949;    1,889;    0,227
301,602;  251,996;    2,071;   -2,318
302,198;  352,928;    1,435;   -0,773
302,794;  252,790;    1,526;   -0,500
303,389;  208,614;    1,071;    1,045
303,985;  234,075;    1,253;    1,409
304,580;  338,424;    0,889;    1,591
305,176;  269,017;    0,344;    0,136
305,771;  169,127;   -0,929;   -1,227
306,367;  461,051;    3,071;    0,136
306,962;  291,087;    2,889;    1,500
307,558;  334,358;    2,435;    0,136
308,153;  353,746;   -0,383;   -1,136
308,748;  223,460;    0,162;    1,682
309,344;  477,688;    0,253;   -1,318
309,939;  477,215;    2,071;   -1,318
310,534;  265,951;   -2,020;   -1,682
311,130;  252,009;   -0,656;   -2,500
311,725;  226,117;    0,526;   -0,500
312,320;  251,999;    1,253;    0,045
312,915;  324,681;    2,890;   -1,045
313,510;  484,029;    0,526;   -0,500
314,105;  282,322;   -3,565;    1,409
314,700;  187,884;   -1,656;   -1,045
315,295;  243,333;   -0,020;    0,045
315,890;  208,810;   -0,292;    0,864
316,485;  281,485;    0,253;   -0,318
317,080;  218,000;   -0,929;    1,591
317,675;  438,365;    3,071;   -0,682
318,270;  607,302;    6,889;    3,318
318,865;  509,300;    2,435;    3,045
319,460;  376,722;   -1,565;    0,591
320,055;  254,553;   -2,565;   -1,227
320,650;  259,087;   -1,838;   -0,591
321,244;  260,109;    0,889;   -1,409
321,839;  265,891;    0,980;   -0,227
322,434;  303,727;   -0,111;   -1,591
323,029;  250,041;   -0,474;    1,591
323,623;  229,187;    0,798;    0,773
324,218;  372,480;    2,707;    1,409
324,812;  320,246;    0,889;    1,591
325,407;  310,904;   -0,929;    2,045
326,002;  418,726;    0,526;   -0,409
326,596;  364,605;   -0,656;    1,318
327,191;  244,715;   -0,383;   -1,045
327,785;  246,878;   -0,747;   -0,227
328,379;  251,170;   -0,383;    0,136
328,974;  283,535;    1,798;   -3,955
329,568;  310,795;    2,889;   -2,409
330,163;  371,591;    2,435;    1,045
330,757;  241,763;    0,253;    1,591
331,351;  199,922;   -0,292;    0,682
331,945;  197,697;   -0,383;    1,409
332,540;  290,288;    1,617;   -0,591
333,134;  281,585;    3,344;    0,773
333,728;  289,742;    2,799;    0,318
334,322;  213,167;    0,889;   -0,864
334,916;  199,153;    0,344;    0,955
335,510;  324,009;   -0,111;   -0,136
336,105;  309,988;   -0,929;    1,591
336,699;  224,931;   -1,292;    0,591
337,293;  264,694;    1,071;    0,318
337,887;  224,182;    0,071;    1,955
338,481;  322,286;    2,980;    0,591
339,074;  399,606;    2,071;    2,682
339,668;  379,503;   -0,110;    1,227
340,262;  822,497;    7,708;    3,227
340,856;  494,901;    1,708;   -0,682
341,450;  258,829;    0,708;    1,864
342,044;  302,512;    1,799;    0,136
342,637;  392,518;    1,162;   -2,136
343,231;  360,174;   -1,474;    0,682
343,825;  295,019;   -0,747;   -0,591
344,419;  287,619;   -0,474;    0,500
345,012;  717,327;    2,889;    4,045
345,606;  532,405;   -0,656;    1,591
346,199;  295,741;   -0,111;   -0,227
346,793;  381,548;    2,525;    2,045
347,386;  245,062;    0,889;   -1,136
347,980;  173,523;   -0,838;   -0,045
348,573;  243,397;   -1,748;    0,409
349,167;  477,266;    6,161;    4,773
349,760;  361,362;    2,252;    2,682
350,354;  337,171;    1,616;    1,136
350,947;  364,035;    2,798;    1,682
351,540;  281,123;    0,616;   -1,409
352,134;  189,909;   -1,111;    1,136
352,727;  201,694;   -0,657;    1,136
353,320;  222,920;    2,343;    0,591
353,913;  169,206;   -1,929;    1,864
354,507;  319,762;    0,434;   -1,227
355,100;  235,477;    0,071;    0,864
355,693;  552,579;    4,798;    2,409
356,286;  359,179;    0,980;    2,773
356,879;  252,821;   -0,475;    1,227
357,472;  247,101;    0,980;    1,500
358,065;  279,248;    3,161;    2,500
358,658;  181,092;    0,798;    2,318
359,251;  158,278;    0,252;   -0,591
359,844;  289,423;    0,343;   -1,136
360,437;  337,299;    0,252;    0,045
361,030;  216,277;    0,525;   -0,682
361,623;  226,856;    0,434;    0,318
362,215;  406,788;    0,979;    2,045
362,808;  278,891;   -2,293;   -1,682
363,401;  222,748;    0,798;    0,136
363,994;  397,000;    3,252;   -1,500
364,586;  247,484;    0,888;   -1,500
365,179;  215,355;   -0,203;   -1,136
365,772;  103,501;   -0,930;    2,045
366,364;  214,559;    1,524;   -3,227
366,957;  252,370;    1,342;   -0,045
367,549;  219,345;   -0,203;   -0,864
368,142;  233,745;    0,978;   -1,500
368,734;  208,457;    2,523;   -2,136
369,327;  157,144;    2,341;   -0,500
369,919;  190,799;   -1,659;    0,409
370,512;  200,061;   -1,023;   -0,500
371,104;  406,602;    2,704;    1,591
371,696;  433,475;    1,703;   -0,955
372,289;  308,430;    0,157;    1,136
372,881;  262,914;    1,156;    1,318
373,473;  178,714;    4,064;    1,136
374,066;  247,432;    1,336;    0,500
374,658;  227,942;    0,879;    1,136
375,250;  183,386;   -1,668;   -1,409
375,842;  223,767;   -0,124;   -0,045
376,434;  191,804;   -2,762;   -0,409
377,026;  188,778;   -1,855;   -2,500
377,618;  224,323;    0,779;   -0,682
378,210;  182,202;    3,141;   -1,955
378,802;  188,042;    3,412;   -0,591
379,394;  482,216;    3,411;    0,682
379,986;  295,277;    1,138;   -0,955
380,578;  217,035;    1,410;    0,773
381,170;  404,789;    0,320;    0,045
381,762;  322,066;   -0,224;    1,409
382,354;  279,184;   -0,223;   -1,318
382,945;  214,218;    0,870;    0,318
383,537;  174,022;    1,144;   -1,955
384,129;  173,279;    0,963;   -1,136
384,721;  253,764;    0,418;    0,955
385,312;  211,121;   -1,399;   -0,955
385,904;  276,329;   -0,945;    1,591
386,496;  224,256;    0,691;    1,045
387,087;  342,398;    0,418;    2,500
387,679;  289,881;   -0,401;    0,045
388,270;  263,377;   -2,401;    2,045
388,862;  247,867;   -0,401;   -0,318
389,453;  241,936;    1,054;    1,045
390,045;  244,390;    3,236;   -2,682
390,636;  165,604;    0,144;   -0,591
391,227;  212,040;    2,054;   -0,045
391,819;  190,532;    0,781;    0,773
392,410;  402,037;    0,600;    0,045
393,001;  241,826;    1,600;   -1,591
393,593;  288,405;    0,600;   -0,045
394,184;  327,194;    0,873;   -0,409
394,775;  234,288;    1,146;    2,136
395,366;  175,119;    1,782;    0,773
395,957;  322,769;   -2,400;    0,136
396,548;  235,370;    1,054;    2,682
397,139;  332,921;    2,236;    0,591
397,730;  258,023;    0,873;    0,955
398,321;  274,257;    0,509;    0,955
398,912;  225,729;   -0,764;    0,136
399,503;  228,453;   -1,945;   -1,409
400,094;  264,579;   -1,582;    1,682
400,685;  249,885;    3,600;    0,045
401,276;  214,595;   -0,400;   -0,955
401,867;  196,363;   -1,127;    0,773
402,458;  167,954;    1,509;   -2,318
403,048;  285,015;    0,146;    0,591
403,639;  240,312;    1,509;    0,864
404,230;  337,292;    0,691;    0,318
404,821;  383,635;   -0,127;    0,045
405,411;  301,856;   -0,763;   -2,591
406,002;  225,747;    3,237;   -1,136
406,592;  420,255;    2,691;    0,045
407,183;  296,781;    0,328;   -1,500
407,774;  277,207;    1,419;   -0,136
408,364;  244,823;    2,600;    0,409
408,954;  340,119;   -0,036;    1,227
409,545;  340,113;    1,873;    1,045
410,135;  300,991;   -1,581;    0,500
410,726;  252,372;    0,783;    0,318
411,316;  419,112;    2,237;    0,773
411,906;  282,433;    0,146;   -0,409
412,497;  292,717;   -0,490;   -0,045
413,087;  244,450;    0,783;   -0,227
413,677;  189,645;   -2,490;    3,864
414,267;  188,999;   -1,035;    1,409
414,857;  166,285;    0,419;    4,227
415,448;  176,735;   -0,763;    0,500
416,038;  202,292;   -2,945;   -0,591
416,628;  236,002;    0,965;    0,409
417,218;  286,941;   -1,762;    3,318
417,808;  427,135;    0,965;   -0,409
418,398;  316,957;   -1,035;    2,682
418,988;  211,876;   -2,217;    0,591
419,578;  303,566;    3,601;    1,409
420,168;  249,255;    0,692;   -0,955
420,757;  374,463;    0,964;   -1,500
421,347;  270,832;    1,601;   -0,227
421,937;  246,190;    3,329;    1,409
422,527;  368,672;    2,602;   -0,773
423,116;  502,410;    2,692;   -0,045
423,706;  249,073;    2,965;    0,318
424,296;  208,614;    1,601;    0,682
424,885;  332,069;    1,510;   -3,045
425,475;  299,919;    1,147;   -2,864
426,065;  208,279;   -1,489;   -0,318
426,654;  187,369;    0,329;   -0,318
427,244;  446,565;    1,147;    1,409
427,833;  407,095;    1,056;   -0,500
428,423;  287,526;    0,147;    1,136
429,012;  293,948;    2,420;   -1,136
429,601;  404,979;    2,057;    0,136
430,191;  311,469;    2,511;    4,318
430,780;  216,257;   -1,671;   -0,409
431,369;  387,254;    1,329;   -0,045
431,959;  291,538;    1,693;    0,500
432,548;  234,181;   -1,398;   -0,045
433,137;  174,025;    0,329;   -1,318
433,726;  253,551;    0,148;    0,500
434,315;  276,661;    0,148;    2,409
434,905;  375,566;    0,693;    1,409
435,494;  376,887;    3,148;    0,955
436,083;  251,198;    1,420;   -0,955
436,672;  335,860;    1,148;    0,500
437,261;  288,906;    0,512;   -1,955
437,850;  515,884;   -1,125;    0,682
438,439;  556,417;    2,239;    1,955
439,027;  671,707;    3,421;    1,773
439,616;  600,933;    2,239;    1,227
440,205;  377,437;    0,057;   -2,136
440,794;  321,853;   -0,306;   -0,045
441,383;  248,087;    1,603;   -0,591
441,971;  225,624;   -0,306;    0,591
442,560;  237,858;    0,603;   -1,773
443,149;  116,737;    3,060;   -1,318
443,737;  191,204;    0,968;   -2,318
444,326;  220,956;    0,331;    0,318
444,915;  274,491;   -1,851;    0,864
445,503;  288,013;    0,058;   -0,318
446,092;  553,757;    7,876;    2,136
446,680;  488,153;    1,876;    0,318
447,269;  387,535;   -1,487;   -0,318
447,857;  362,306;    2,240;   -1,773
448,445;  314,230;    2,149;    1,318
449,034;  264,946;    0,876;   -1,136
449,622;  263,493;    1,240;    3,500
450,210;  564,495;    3,149;    2,227
450,799;  476,419;    2,604;   -0,591
451,387;  418,437;    1,786;   -0,591
451,975;  402,231;   -1,305;    0,864
452,563;  487,192;    0,422;    2,318
453,151;  293,163;   -1,032;   -1,227
453,739;  344,614;   -1,577;    0,136
454,328;  469,949;    0,604;   -2,136
454,916;  387,711;    1,150;   -0,136
455,504;  406,498;    3,513;    1,227
456,092;  286,925;    2,150;   -1,591
456,679;  244,204;    0,604;    0,682
457,267;  702,610;    3,604;    1,045
457,855;  352,272;    3,241;    1,409
458,443;  194,232;   -0,304;    1,682
459,031;  368,564;    1,332;    2,409
459,619;  332,626;   -3,577;    2,864
460,206;  228,464;   -0,759;    2,045
460,794;  233,132;   -0,668;   -0,227
461,382;  281,469;    0,878;   -0,864
461,970;  273,468;    0,605;    1,864
462,557;  203,192;    0,878;   -0,682
463,145;  346,258;   -0,304;   -1,682
463,732;  603,054;    2,514;   -1,045
464,320;  351,197;    1,514;   -3,045
464,907;  509,450;    0,423;   -0,773
465,495;  406,825;    2,696;   -1,227
466,082;  316,919;    2,060;   -0,045
466,670;  335,837;    2,605;    1,227
467,257;  228,494;    0,060;    2,045
467,844;  350,787;    1,514;    0,045
468,432;  317,796;   -0,031;    3,500
469,019;  272,947;    1,606;   -1,773
469,606;  364,548;    0,969;    3,682
470,193;  387,261;    2,151;    0,227
470,780;  336,743;    0,333;    0,864
471,368;  265,965;   -1,212;   -0,773
471,955;  380,491;    1,060;   -0,682
472,542;  332,456;   -0,303;   -1,136
473,129;  214,503;   -0,485;    0,136
473,716;  220,305;    0,060;    0,591
474,303;  256,855;    1,333;   -0,864
474,890;  264,229;    2,333;   -0,500
475,477;  374,620;   -0,576;    0,409
476,064;  263,773;    0,697;   -1,591
476,650;  399,809;    2,152;    0,318
477,237;  304,809;    1,879;    0,955
477,824;  282,277;    3,879;    0,864
478,411;  182,995;    0,606;   -0,318
478,997;  180,318;    0,606;   -0,773
479,584;  123,108;   -0,666;   -0,409
480,171;  342,355;    1,243;   -0,773
480,757;  402,141;   -0,848;    0,773
481,344;  276,177;    0,334;    0,409
481,931;  162,987;   -0,393;    1,045
482,517;  338,368;    0,425;    0,318
483,104;  457,926;    1,334;    2,864
483,690;  307,751;    0,243;    0,045
484,276;  278,071;    0,698;    0,227
484,863;  555,043;    2,152;    1,136
485,449;  358,928;    0,152;    0,318
486,035;  300,301;   -0,666;   -0,136
486,622;  435,256;   -2,393;    0,045
487,208;  321,831;    1,334;    1,500
487,794;  216,690;    0,971;    0,318
488,380;  220,071;    0,698;   -1,409
488,967;  231,246;   -1,120;   -0,409
489,553;  251,576;   -1,029;   -1,409
490,139;  350,398;    0,971;    0,773
490,725;  241,499;    0,789;   -0,227
491,311;  295,761;    1,516;    3,045
491,897;  249,767;   -0,665;    1,500
492,483;  259,330;    0,426;    1,227
493,069;  795,684;    5,426;    0,864
493,655;  433,816;    1,789;    0,682
494,241;  279,987;    1,517;   -0,955
494,826;  303,846;    0,335;   -1,045
495,412;  379,847;    0,335;   -0,682
495,998;  266,502;    0,971;   -0,318
496,584;  333,111;    2,244;    1,045
497,169;  342,861;    2,335;   -0,682
497,755;  262,302;    1,244;    1,227
498,341;  440,859;    2,153;    0,318
498,926;  583,257;    2,881;    1,955
499,512;  267,609;   -0,028;    2,955
500,097;  266,081;   -0,574;   -0,318
500,683;  293,601;   -0,028;    2,136
501,268;  230,879;    1,881;   -0,955
501,854;  259,631;   -0,119;    1,227
502,439;  238,509;   -0,573;   -1,773
503,024;  283,011;    1,608;    0,500
503,610;  309,732;    1,335;   -0,682
504,195;  233,120;    1,245;    1,955
504,780;  346,251;    2,335;    1,227
505,366;  446,692;    4,063;    2,864
505,951;  355,744;   -1,119;    1,045
506,536;  266,914;    1,427;   -3,682
507,121;  330,889;    1,699;   -0,318
507,706;  275,259;   -0,392;    1,045
508,291;  209,564;   -2,937;    1,136
508,876;  206,592;   -0,482;    2,591
509,461;  265,729;    1,427;   -0,773
510,046;  308,812;   -0,391;    0,318
510,631;  319,321;   -0,119;   -0,773
511,216;  227,350;   -0,664;   -0,500
511,801;  297,465;   -0,755;    2,591
512,386;  319,610;    0,972;    0,500
512,971;  323,761;    0,427;    0,955
513,555;  372,720;    1,154;   -1,500
514,140;  324,553;    1,336;   -3,136
514,725;  447,621;    1,791;   -1,136
515,309;  344,063;    1,064;    0,318
515,894;  242,424;   -0,300;   -2,227
516,479;  280,264;    1,973;   -0,955
517,063;  277,699;    0,882;    1,227
517,648;  229,435;    0,155;   -1,136
518,232;  192,086;   -1,300;   -1,409
518,817;  291,817;    1,337;    1,682
519,401;  405,894;    0,700;    0,591
519,985;  365,422;    2,700;    1,136
520,570;  237,098;   -0,118;   -1,955
521,154;  331,946;    0,064;    0,591
521,738;  479,733;    1,064;    2,409
522,323;  325,478;   -0,390;    1,682
522,907;  307,635;    2,428;   -0,136
523,491;  243,005;    1,155;    0,955
524,075;  217,009;    0,428;    0,591
524,659;  376,427;    0,973;    0,591
525,243;  331,800;    0,883;    0,409
525,827;  273,374;    0,883;   -0,045
526,411;  275,246;    1,155;   -0,136
526,995;  351,175;    0,337;    1,409
527,579;  403,528;    1,974;   -1,045
528,163;  346,199;    0,428;   -1,500
528,747;  428,916;    1,065;   -0,773
529,331;  371,269;    0,883;   -1,409
529,915;  247,386;    2,338;    0,955
530,499;  317,112;    0,247;    1,227
531,082;  456,978;    1,065;    1,591
531,666;  531,983;    0,520;    0,773
532,250;  416,555;    0,428;    2,682
532,833;  496,517;    0,610;    2,773
533,417;  380,158;    1,247;    0,864
534,001;  475,200;    0,429;   -0,318
534,584;  403,791;    1,974;    0,500
535,168;  267,241;    3,247;    1,409
535,751;  560,440;    4,520;    0,045
536,334;  340,550;    4,520;   -0,409
536,918;  217,727;    1,974;    1,591
537,501;  222,938;    1,520;    1,318
538,085;  262,590;    1,702;    1,045
538,668;  330,957;    0,883;    2,409
539,251;  555,052;    3,156;    3,773
539,834;  323,497;    0,156;    0,773
540,418;  415,467;    3,247;    4,318
541,001;  565,722;    2,702;    1,773
541,584;  377,550;    1,429;    2,227
542,167;  464,204;    0,702;    2,955
542,750;  316,406;    0,793;   -0,773
543,333;  207,294;    1,429;    2,136
543,916;  399,248;   -0,298;    2,500
544,499;  344,996;    2,520;    0,227
545,082;  416,820;    0,248;    3,591
545,665;  339,439;   -0,207;    1,500
546,248;  445,112;    0,520;   -0,318
546,830;  415,828;   -1,752;    1,955
547,413;  383,331;    0,157;   -0,773
547,996;  349,904;    0,157;    0,500
548,579;  326,849;   -0,843;    0,955
549,161;  521,855;    0,884;    2,682
549,744;  418,618;    0,612;    0,409
550,326;  300,440;    0,885;   -1,136
550,909;  686,742;    2,339;    0,591
551,492;  399,245;    0,521;    0,227
552,074;  495,578;   -0,024;   -1,318
552,657;  529,216;    2,430;    0,045
553,239;  411,681;   -3,024;   -0,773
553,821;  305,184;   -1,570;    1,045
554,404;  510,850;   -0,024;    1,136
554,986;  593,693;    2,248;    1,045
555,568;  454,795;    0,430;   -0,955
556,151;  636,799;    4,067;   -0,227
556,733;  372,865;   -1,388;   -0,864
557,315;  401,115;    4,703;    0,500
557,897;  289,197;    0,521;   -0,500
558,479;  299,929;    1,703;    1,318
559,061;  370,902;    1,067;   -0,864
559,643;  401,326;   -0,297;    0,045
560,225;  439,619;   -0,388;    2,864
560,807;  314,053;    0,340;    0,318
561,389;  305,066;   -1,206;    2,318
561,971;  373,056;   -0,660;    2,136
562,553;  303,451;    0,613;    1,591
563,135;  376,627;    1,249;    1,136
563,717;  708,624;    3,158;    1,136
564,298;  628,464;    3,976;   -0,045
564,880;  409,920;    0,340;   -1,409
565,462;  268,829;    1,977;    1,318
566,043;  371,668;   -0,933;    2,318
566,625;  640,847;    4,067;    1,227
567,207;  478,250;    0,704;    1,682
567,788;  352,715;   -0,114;    1,500
568,370;  355,131;   -1,841;   -0,500
568,951;  342,275;   -0,569;    0,227
569,533;  436,707;    0,977;   -0,500
570,114;  437,506;   -0,296;    0,682
570,695;  466,862;   -0,478;   -1,318
571,277;  441,615;   -0,205;   -1,682
571,858;  613,413;    2,704;   -1,136
572,439;  471,202;    0,795;   -1,045
573,021;  486,317;    0,432;   -2,773
573,602;  587,925;    1,795;    0,318
574,183;  546,134;   -0,114;    2,227
574,764;  500,127;    2,068;    0,409
575,345;  652,423;    0,250;   -0,136
575,926;  506,915;    2,704;    0,136
576,507;  575,014;    2,704;   -0,227
577,088;  533,468;    1,704;    1,682
577,669;  702,599;    1,704;    1,955
578,250;  850,225;   -0,750;   -1,045
578,831;  658,843;   -0,841;   -2,227
579,412;  651,966;   -1,205;    0,955
579,993;  630,154;    1,432;    0,227
580,573;  544,611;   -0,023;   -0,955
581,154;  665,056;    1,613;   -0,591
581,735;  699,505;    0,341;    0,773
582,315;  825,960;    0,523;    2,136
582,896;  628,036;   -1,750;    1,227
583,477;  501,088;    0,614;    1,227
584,057;  617,698;    1,159;    0,955
584,638;  719,426;   -2,750;    2,318
585,218;  939,876;    2,886;    2,682
585,799;  764,223;    1,977;   -0,227
586,379;  653,286;    1,250;    1,591
586,959;  626,954;    2,613;    0,318
587,540;  556,653;    0,432;    2,227
588,120;  556,532;   -1,113;   -0,045
588,700;  584,210;    2,977;    2,136
589,281;  750,246;    1,250;   -0,955
589,861;  617,260;   -0,296;   -1,682
590,441;  486,796;   -1,477;   -2,682
591,021;  567,061;    1,432;   -2,591
591,601;  537,726;    0,431;    0,500
592,181;  525,991;   -1,296;   -0,773
592,761;  432,952;    2,250;    1,409
593,341;  544,133;    1,522;    0,045
593,921;  565,194;   -0,569;    1,591
594,501;  473,046;    1,250;    1,318
595,081;  469,554;    0,522;   -0,318
595,661;  529,577;    1,068;    0,955
596,240;  471,272;   -1,023;    0,136
596,820;  834,687;    2,613;    1,955
597,400;  588,117;    1,977;    0,773
597,980;  496,347;   -0,750;    1,045
598,559;  449,383;    0,341;   -0,227
599,139;  445,851;   -0,750;   -1,227
599,718;  437,669;    0,795;   -0,409
600,298;  433,384;   -2,387;    0,682
600,877;  879,353;    4,795;    1,409
601,457;  600,313;    0,340;    1,136
602,036;  492,451;    1,795;    2,045
602,616;  539,436;    2,250;    1,682
603,195;  645,857;    0,431;    3,500
603,774;  698,778;   -0,296;    2,045
604,354;  648,054;    2,522;   -0,500
604,933;  588,720;    0,250;    1,864
605,512;  658,151;    2,340;    0,591
606,091;  650,841;    1,886;    3,773
606,671;  608,224;    0,249;    0,773
607,250;  773,955;    1,431;    3,136
607,829;  726,451;    1,158;    3,227
608,408;  584,018;    4,613;    2,591
608,987;  689,678;    2,704;    3,409
609,566;  515,943;    0,341;   -2,500
610,145;  612,414;    2,885;    0,682
610,723;  652,605;    1,613;    6,864
611,302;  565,295;    1,067;    1,682
611,881;  840,131;    5,158;   11,227
612,460;  570,773;    0,795;    3,955
613,039;  469,549;    1,703;    2,045
613,617;  458,461;    0,886;    4,773
614,196;  472,592;    1,613;    1,227
614,775;  527,998;    1,249;    2,409
615,353;  589,156;   -1,660;    0,864
615,932;  562,162;    0,249;    2,409
616,510;  548,905;    0,158;    0,591
617,089; 1022,531;    8,794;   17,591
617,667;  645,073;    4,885;    6,136
618,246;  436,684;   -1,115;    1,318
618,824;  506,692;    1,612;   -0,955
619,402;  520,694;    0,431;   -1,773
619,981;  572,212;    1,067;   -1,045
620,559;  505,101;    0,794;    1,682
621,137;  524,204;    3,067;    1,864
621,715;  435,849;    3,703;   -0,682
622,293;  456,383;    1,885;   -0,773
622,871;  469,115;    0,340;    0,500
623,450;  425,429;    0,430;   -0,864
624,028;  605,008;   -0,388;   -0,955
624,606;  546,804;    2,339;    1,682
625,183;  395,137;   -0,661;   -1,136
625,761;  538,316;    1,885;    1,136
626,339;  791,359;    2,339;    2,591
626,917;  483,998;    0,339;   -0,045
627,495;  429,915;    2,794;    1,318
628,073;  534,974;    5,248;    2,864
628,650;  551,025;    3,067;    2,136
629,228;  556,331;    1,248;    4,409
629,806;  382,120;   -0,024;    1,136
630,383;  438,992;    0,066;   -0,318
630,961;  440,030;   -2,206;   -0,955
631,539;  479,896;   -2,479;    0,227
632,116; 1173,303;   12,703;   15,409
632,694;  786,451;    4,885;    6,500
633,271;  633,383;    1,975;    2,682
633,848;  728,504;    1,430;    2,045
634,426;  491,270;    1,521;    1,773
635,003;  366,737;   -0,207;   -0,409
635,580;  725,092;    1,884;    3,682
636,158;  606,152;    3,793;    1,227
636,735;  453,020;    3,339;   -0,500
637,312;  445,514;    0,521;   -0,682
637,889;  443,804;    2,248;   -0,682
638,466;  425,898;    0,066;   -0,409
639,043;  479,472;    1,702;   -1,136
639,620;  400,197;    0,611;   -0,955
640,197;  515,948;    1,612;    1,682
640,774;  372,589;    1,430;    1,136
641,351;  429,231;    0,612;    1,136
641,928;  599,418;    2,794;    1,409
642,505;  698,242;    0,794;   -0,500
643,082;  533,702;    1,885;    1,227
643,658;  428,525;    1,157;    1,500
644,235;  406,258;   -2,479;    2,500
644,812;  568,536;    1,794;    0,773
645,388;  556,632;    1,612;    1,409
645,965;  380,274;    1,521;    1,682
646,542;  388,370;    3,430;   -0,227
647,118;  729,648;    3,703;   -0,955
647,695;  534,199;    0,339;    1,136
648,271;  377,023;   -2,115;    0,500
648,848;  519,755;    0,248;    2,227
649,424;  640,852;    0,976;    1,318
650,000;  463,857;   -0,388;   -1,045
650,577;  496,408;    0,158;   -0,955
651,153;  491,140;   -1,115;    0,955
651,729;  452,964;    0,521;    0,864
652,305;  790,606;    1,339;    2,773
652,881;  702,338;   -1,297;    1,136
653,458;  758,798;    0,249;    0,227
654,034;  781,804;    0,703;    1,591
654,610;  921,264;    0,339;    0,773
655,186; 1402,178;    1,612;    3,045
655,762;  956,456;   -1,842;    0,409
656,338;  925,825;    0,703;    0,136
656,913;  990,830;   -0,297;    0,409
657,489;  796,018;    0,249;   -0,318
658,065;  908,296;    0,794;   -1,591
658,641;  914,756;    2,158;   -0,864
659,217;  861,216;    2,067;    0,409
659,792; 1029,494;   -1,751;   -0,409
660,368;  854,044;   -0,388;   -0,682
660,944;  858,050;    1,794;    1,227
661,519;  817,601;    0,522;    0,409
662,095;  623,697;   -0,206;    0,591
662,670;  511,520;   -0,206;   -0,136
663,246;  431,435;   -0,660;   -0,409
663,821;  565,713;    0,431;    1,682
664,396;  518,809;    0,613;    1,864
664,972;  462,996;   -0,660;   -0,500
665,547;  500,184;    3,794;    0,136
666,122;  470,098;    1,340;    0,318
666,698;  638,558;    2,431;    0,318
667,273;  443,745;    0,885;    0,136
667,848;  468,841;    0,340;    1,500
668,423;  613,665;    1,795;    2,318
668,998;  488,307;    0,976;   -0,682
669,573;  450,403;    2,067;   -1,500
670,148;  607,681;    1,885;   -0,682
670,723;  429,323;   -0,024;    0,318
671,298;  684,965;   -1,296;    1,045
671,873;  597,243;   -0,296;   -0,136
672,448;  589,975;    1,704;    0,136
673,023;  577,162;    0,249;   -0,227
673,597;  659,531;    2,704;    2,318
674,172;  701,628;    2,431;    0,318
674,747;  622,088;   -0,205;   -1,045
675,321;  425,820;   -0,933;    3,318
675,896;  371,916;    2,158;    1,045
676,471;  569,467;    2,522;    1,591
677,045;  494,564;   -0,296;    0,682
677,620;  575,660;    2,158;    1,136
678,194;  438,665;    0,249;    1,136
678,769;  504,761;    0,886;   -0,318
679,343;  542,494;   -0,023;    1,773
679,917;  644,409;    0,340;    1,955
680,492;  518,323;    0,249;    3,227
681,066;  550,783;    0,613;    0,409
681,640;  492,788;    1,795;   -0,318
682,214;  508,157;    2,340;    0,500
682,788;  503,617;    0,613;   -0,773
683,363;  631,350;    1,977;    1,682
683,937;  514,264;    0,886;   -0,318
684,511;  541,724;   -1,023;   -0,591
685,085;  553,639;   -1,478;    0,318
685,659;  468,099;    1,431;    0,864
686,232;  681,740;    1,159;   -0,318
686,806;  576,018;    2,159;    0,409
687,380;  477,024;   -1,932;    0,591
687,954;  431,484;    2,432;    1,136
688,528;  715,489;    2,613;    1,955
689,101;  560,131;    0,432;    1,045
689,675;  461,318;    0,886;   -0,136
690,249;  670,505;    3,432;    0,409
690,822;  664,783;    1,159;    0,318
691,396;  568,334;    2,068;    1,227
691,969;  508,430;    2,523;    0,136
692,543;  422,345;   -0,568;   -1,955
693,116;  409,168;   -0,659;   -1,409
693,690;  488,810;   -0,296;    0,500
694,263;  431,452;    2,341;    2,955
694,836;  746,548;    2,795;    3,591
695,410;  642,553;    1,159;    1,773
695,983;  669,922;    1,614;    0,591
696,556;  490,655;   -0,750;   -1,045
697,129;  412,751;   -1,114;    1,409
697,703;  615,666;    1,341;    1,955
698,276;  517,035;    1,705;   -0,773
698,849;  645,858;   -1,023;    1,409
699,422;  452,318;    1,250;    0,591
699,995;  364,596;   -0,659;    0,136
700,568;  485,511;   -0,204;    3,045
701,140;  500,152;   -1,841;    1,682
701,713;  638,158;    0,341;    2,409
702,286;  540,072;    0,796;    0,864
702,859;  619,714;    0,614;   -0,591
703,432;  700,174;   -0,841;    0,682
704,004;  587,179;    1,978;    0,318
704,577;  457,821;    1,068;    0,136
705,150;  523,372;    0,887;    2,500
705,722;  583,559;    1,523;   -3,227
706,295;  633,019;    1,432;   -0,591
706,867;  518,297;    0,250;    1,955
707,440;  593,757;   -0,113;   -0,409
708,012;  669,762;   -0,022;    0,591
708,584;  604,222;    2,705;    0,227
709,157;  410,682;    1,160;   -0,591
709,729;  612,960;    1,069;    2,045
710,301;  482,329;   -1,204;    0,045
710,874;  488,153;    0,341;   -0,227
711,446;  387,067;   -0,295;    0,864
712,018;  457,072;   -3,022;    0,500
712,590;  411,078;   -0,204;    1,682
713,162;  657,629;   -0,477;    1,318
713,734;  471,543;    1,796;   -2,045
714,306;  394,639;    0,342;   -0,409
714,878;  442,736;   -0,295;    0,864
715,450;  409,832;   -0,113;    0,864
716,022;  421,928;    2,433;    1,318
716,593;  418,752;    0,978;    0,591
717,165;  458,484;    1,796;   -1,227
717,737;  685,762;    0,796;    0,409
718,309;  493,131;    1,160;   -0,045
718,880;  419,773;   -1,295;   -1,409
719,452;  486,233;    0,887;   -1,591
720,024;  564,693;    1,705;   -0,591
720,595;  478,607;    2,978;    0,955
721,167;  454,885;    1,160;   -2,045
721,738;  571,164;    2,069;   -1,045
722,309;  709,987;    1,251;   -1,227
722,881;  472,356;    2,705;    0,773
723,452;  535,998;    1,251;    2,864
724,023;  542,276;    1,524;    2,682
724,595;  598,918;    2,342;    0,682
725,166;  489,650;    1,524;   -0,409
725,737;  657,747;    1,887;    0,227
726,308;  469,206;    0,797;    0,318
726,879;  401,485;    1,069;    1,227
727,450;  539,126;   -2,022;   -0,045
728,021;  491,404;    1,069;    0,682
728,592;  635,864;    1,160;    0,500
729,163;  705,597;    1,433;   -0,136
729,734;  681,057;    2,160;   -0,227
730,305;  572,517;    0,615;    0,136
730,876;  546,340;    0,888;    2,955
731,447;  816,982;    0,797;    2,682
732,017;  728,806;   -0,840;    1,864
732,588;  546,902;   -0,021;    1,227
733,159;  795,998;    3,615;   -1,045
733,729;  552,276;    1,251;    0,409
734,300;  694,827;    0,160;    0,864
734,870;  521,378;   -1,385;    0,591
735,441;  514,929;    0,888;   -0,591
736,011;  498,025;    1,070;   -1,591
736,582;  498,848;    1,251;    0,045
737,152;  600,672;    0,979;   -2,045
737,722;  587,496;    1,070;   -0,682
738,293;  459,319;   -2,021;    1,318
738,863;  620,870;    1,797;    2,318
739,433;  846,966;    4,524;    0,318
740,003;  595,335;    1,524;   -0,682
740,573;  710,522;    2,252;   -1,591
741,143;  597,437;    3,615;    0,318
741,713;  513,897;    0,252;   -0,500
742,283;  566,266;    1,706;    1,591
742,853;  511,453;    0,524;    1,591
743,423;  368,095;    0,161;    0,045
743,993;  461,009;    1,070;    1,500
744,563;  515,560;    2,524;   -0,864
745,133;  534,656;   -0,112;   -0,864
745,702;  433,934;    2,797;    1,773
746,272;  620,667;    0,434;    0,591
746,842;  627,581;   -0,748;   -0,591
747,411;  441,587;   -0,839;   -0,318
747,981;  363,592;   -0,930;    0,500
748,551;  361,779;   -0,021;   -1,045
749,120;  531,785;   -0,112;   -0,227
749,690;  486,972;    2,161;    2,409
750,259;  581,977;    0,979;    2,955
750,828;  631,346;    4,070;   -1,955
751,398;  435,533;   -0,112;   -0,045
751,967;  862,993;    2,888;    0,409
752,536;  553,453;    1,161;   -0,227
753,105;  641,731;   -1,384;    0,227
753,675;  499,464;   -0,112;    1,773
754,244;  505,196;    0,888;    3,591
754,813;  535,202;    0,979;    1,227
755,382;  498,844;    0,798;    0,955
755,951;  607,667;   -0,112;    3,682
756,520;  715,491;    2,525;    1,864
757,089;  798,132;    1,888;    0,500
757,658;  565,501;    2,434;    1,227
758,227;  421,870;   -1,111;    0,318
758,795;  462,239;   -1,021;    1,136
759,364;  469,699;    0,525;   -0,591
759,933;  421,341;    1,343;   -0,045
760,501;  371,255;    0,252;   -1,318
761,070;  513,443;   -0,293;   -1,409
761,639;  468,539;    1,434;    1,318
762,207;  580,544;    0,889;   -0,955
762,776;  626,004;    2,889;    0,864
763,344;  494,282;    0,071;    0,591
763,913;  333,197;    1,616;    1,409
764,481;  791,384;    1,980;   -0,136
765,049;  798,116;    0,616;    1,409
765,618;  720,576;    1,434;    0,318
766,186;  545,036;    2,434;    0,136
766,754;  597,496;    1,798;    1,864
767,322;  487,229;    1,162;    0,409
767,890;  437,961;    0,525;   -1,773
768,459;  451,967;    2,616;   -0,318
769,027;  647,518;    2,525;    3,409
769,595;  487,432;    2,616;    2,591
770,163;  583,801;    3,344;    2,955
770,730;  542,897;    2,525;   -0,136
771,298;  537,357;    1,162;   -1,409
771,866;  471,999;    0,253;    4,955
772,434;  495,823;    1,162;   -1,864
773,002;  679,646;    2,616;    0,682
773,569;  562,833;    1,071;    1,682
774,137;  661,475;    0,889;   -0,045
774,705;  488,844;   -0,747;   -0,136
775,272;  464,940;    0,253;    0,682
775,840;  483,309;   -0,111;    2,682
776,407;  586,042;   -0,293;    1,955
776,975;  464,593;    1,162;    0,318
777,542;  419,689;    2,162;   -0,045
778,110;  456,694;    0,707;   -0,045
778,677;  359,063;    1,071;   -0,864
779,244;  425,523;   -1,020;    1,045
779,812;  532,983;    0,980;    0,864
780,379;  609,443;    2,435;    1,136
780,946;  504,085;    2,617;   -0,773
781,513;  430,454;   -0,565;    0,318
782,080;  399,368;    1,253;    2,864
782,647;  426,374;    1,708;    3,045
783,214;  406,652;   -0,201;    3,864
783,781;  580,475;    1,708;   -0,682
784,348;  537,571;    0,253;    1,500
784,915;  356,486;   -1,474;    0,318
785,482;  562,491;    2,708;    2,591
786,049;  488,769;    1,071;   -0,591
786,615;  389,593;    1,708;   -0,955
787,182;  363,780;   -3,201;   -0,682
787,749;  340,604;   -2,201;    1,409
788,315;  534,973;    0,253;   -0,409
788,882;  430,614;    0,981;   -1,227
789,448;  694,620;    1,435;   -0,955
790,015;  486,352;    1,799;    3,227
790,581;  637,449;    0,708;    0,227
791,148;  480,818;    1,344;    1,045
791,714;  388,187;   -1,019;    3,136
792,280;  395,556;    3,708;    1,591
792,847;  355,016;   -0,928;    2,500
793,413;  426,657;   -0,110;   -0,318
793,979;  617,754;    1,526;   -1,318
794,545;  858,941;    2,981;    2,682
795,111;  740,037;    2,435;    1,318
795,678;  616,861;    3,526;   -1,682
796,244;  758,230;    2,799;    0,136
796,810;  620,689;    0,799;    0,773
797,375;  603,695;   -0,292;   -2,136
797,941;  337,609;   -1,110;    0,591
798,507;  354,524;    0,254;   -0,955
799,073;  394,529;    2,708;    0,591
799,639;  370,353;    1,435;    3,136
800,205;  341,176;   -1,565;    2,682
800,770;  372,272;    1,345;    1,773
801,336;  387,096;    2,981;   -0,955
801,901;  927,738;    6,072;    3,136
802,467;  614,561;    0,526;    2,045
803,033;  416,294;   -0,019;    0,864
803,598;  403,390;    1,072;   -1,045
804,163;  417,214;    0,708;   -0,318
804,729;  487,674;   -0,110;    1,136
805,294;  396,224;    1,072;    2,227
805,859;  356,957;    0,890;   -0,409
806,425;  707,871;    3,890;    2,682
806,990;  674,422;    1,890;    4,318
807,555;  457,428;   -0,110;    2,591
808,120;  582,797;   -1,292;   -0,409
808,685;  409,438;    1,072;   -2,500
809,250;  338,626;    2,072;   -0,500
809,815;  329,358;   -0,201;    0,682
810,380;  433,000;    0,981;    1,591
810,945;  601,914;    2,890;    2,045
811,510;  449,374;   -0,200;    1,591
812,075;  495,925;    2,800;   -1,409
812,640;  696,749;    3,709;    1,409
813,204;  486,845;    2,163;   -0,227
813,769;  605,214;    0,254;   -0,045
814,334;  602,947;    0,527;    0,864
814,898;  371,225;    1,981;    0,591
815,463;  458,866;    0,981;   -0,773
816,027;  408,872;    1,345;   -2,318
816,592;  348,786;    2,163;   -2,045
817,156;  495,519;   -2,200;    1,136
817,721;  595,433;    0,982;    2,318
818,285;  373,166;    0,618;    1,500
818,849;  432,899;   -0,018;    1,682
819,414;  364,813;    0,073;    2,955
819,978;  319,818;   -0,291;    1,773
820,542;  562,824;    2,891;    0,500
821,106;  425,011;    2,800;    0,682
821,670;  611,744;    2,709;    2,591
822,234;  416,658;    1,073;    1,409
822,798;  328,209;   -0,836;    0,500
823,362;  524,669;    1,527;    4,227
823,926;  401,401;   -0,018;    1,136
824,490;  557,225;    3,527;   -0,682
825,054;  447,958;    2,527;   -1,136
825,618;  363,508;   -1,200;   -1,500
826,181;  414,877;    0,982;   -1,318
826,745;  505,883;   -0,745;   -1,045
827,309;  685,070;    2,255;    1,318
827,872;  565,166;    0,527;    0,955
828,436;  460,717;    1,982;   -0,773
828,999;  384,177;    2,436;    1,227
829,563;  362,091;   -0,654;    1,136
830,126;  346,460;   -0,018;   -0,591
830,690;  455,193;    0,709;    2,864
831,253;  369,835;   -0,473;    2,227
831,816;  405,931;   -0,018;    0,500
832,380;  377,754;    1,164;    0,864
832,943;  350,669;    3,073;   -0,500
833,506;  349,492;    0,255;   -1,227
834,069;  495,407;    2,164;   -0,955
834,632;  358,321;   -2,200;    1,318
835,195;  386,327;    1,346;    0,955
835,758;  344,605;    0,709;    1,955
836,321;  368,156;    1,073;   -1,045
836,884;  344,161;   -1,291;   -0,955
837,447;  297,348;    0,528;    1,773
838,010;  448,172;    1,800;    3,227
838,573;  443,723;    0,528;    0,773
839,135;  324,273;   -0,109;   -0,955
839,698;  389,188;    2,528;    0,409
840,261;  336,466;    0,255;   -0,227
840,823;  303,199;   -0,927;    0,864
841,386;  296,840;   -0,018;   -2,409
841,948;  550,937;    0,255;    1,773
842,511;  372,578;    0,255;    1,682
843,073;  531,856;    2,982;    0,227
843,636;  334,225;    0,619;   -0,227
844,198;  507,776;    1,255;    0,591
844,760;  470,963;    0,619;    1,955
845,322;  299,060;    0,164;    1,136
845,885;  430,247;   -0,290;    0,591
846,447;  374,889;    0,710;    0,227
847,009;  669,712;    3,983;   -0,682
847,571;  419,627;    1,346;   -2,045
848,133;  367,268;   -0,199;   -1,864
848,695;  251,364;    2,346;    1,409
849,257;  316,370;    1,346;   -1,682
849,819;  441,648;    2,983;   -0,409
850,381;  334,471;    1,801;   -0,864
850,942;  393,477;    1,892;   -0,591
851,504;  452,755;    0,983;    0,227
852,066;  337,851;    1,619;   -1,591
852,628;  360,857;    0,165;    1,955
853,189;  288,953;    0,256;    2,682
853,751;  293,504;   -0,654;    1,409
854,312;  411,054;    1,256;   -1,682
854,874;  529,060;   -0,108;   -0,773
855,435;  370,883;    0,528;   -1,682
855,997;  403,616;    3,983;   -0,136
856,558;  502,621;    0,801;    1,773
857,119;  417,172;   -0,744;    2,864
857,681;  295,814;   -0,108;    0,318
858,242;  533,456;    1,347;   -2,136
858,803;  481,825;    1,074;   -0,773
859,364;  371,739;    0,892;   -4,773
859,925;  445,290;   -0,290;   -0,955
860,486;  338,841;    0,529;   -0,955
861,047;  298,119;    0,165;   -1,227
861,608;  338,306;    0,165;   -0,773
862,169;  225,039;   -0,562;   -0,045
862,730;  330,862;   -0,290;    1,409
863,291;  369,140;    0,438;   -0,500
863,852;  350,509;   -0,926;    1,955
864,412;  350,606;   -1,835;   -0,864
864,973;  550,156;    1,892;    0,500
865,534;  634,616;    2,074;    0,227
866,094;  451,440;    2,620;    0,227
866,655;  575,809;    4,711;    3,318
867,215;  417,632;    0,074;    0,136
867,776;  293,910;   -1,199;   -0,136
868,336;  370,552;    1,529;    0,136
868,897;  689,194;    3,438;    1,682
869,457;  498,745;    3,256;    0,318
870,017;  325,659;    2,438;   -1,227
870,578;  320,664;    1,893;    0,773
871,138;  394,397;    2,620;   -0,955
871,698;  321,493;   -0,562;   -1,318
872,258;  411,499;    0,711;   -2,864
872,818;  535,959;    2,347;    0,045
873,378;  383,419;   -2,198;    1,045
873,938;  377,424;    4,984;    0,500
874,498;  292,157;    1,256;   -1,955
875,058;  388,526;    4,347;    1,773
875,618;  379,895;    1,438;   -2,682
876,177;  416,354;   -0,471;    0,136
876,737;  274,451;   -0,289;    1,955
877,297;  580,274;    2,711;    1,955
877,856;  514,643;    2,529;    0,318
878,416;  322,103;    2,438;   -0,136
878,976;  290,927;    3,438;    0,409
879,535;  328,932;    4,529;    3,136
880,095;  310,937;    1,347;    0,045
880,654;  271,943;    0,347;    1,318
881,213;  523,948;    2,347;    1,500
881,773;  382,772;    1,984;    2,682
882,332;  811,595;    6,075;    5,136
882,891;  390,055;    0,711;    2,136
883,451;  372,697;   -2,016;    1,682
884,010;  336,248;   -1,107;   -0,409
884,569;  280,344;   -2,289;   -0,045
885,128;  428,258;   -0,743;   -1,864
885,687;  625,082;   -0,743;    0,682
886,246;  778,996;    2,620;    2,136
886,805;  607,911;    1,620;    2,045
887,364;  318,462;    1,166;   -0,500
887,922;  268,285;   -0,016;    0,045
888,481;  440,200;    1,530;    0,591
889,040;  483,296;    3,711;    2,136
889,599;  382,574;    2,166;    1,409
890,157;  385,216;    2,166;    2,409
890,716;  316,130;    2,166;    0,227
891,274;  422,772;    0,075;   -1,136
891,833;  472,232;    1,166;    0,864
892,391;  379,692;    1,802;    0,500
892,950;  445,606;    0,166;   -0,773
893,508;  299,066;    0,984;   -0,409
894,067;  247,981;   -0,379;    0,136
894,625;  324,622;   -1,016;   -1,500
895,183;  295,355;   -0,198;   -0,682
895,741;  519,724;    2,257;   -1,773
896,299;  348,820;    1,621;   -2,409
896,858;  301,916;    1,530;   -1,591
897,416;  419,013;    0,166;   -1,318
897,974;  355,200;   -2,197;    0,318
898,532;  743,205;    6,530;    2,682
899,089;  483,665;    0,621;   -0,682
899,647;  390,852;    0,530;    1,318
900,205;  381,767;    0,257;    1,045
900,763;  377,499;    2,166;    0,227
901,321;  340,414;    3,530;   -1,409
901,878;  215,783;    3,257;   -0,773
902,436;  284,334;    0,257;    1,318
902,994;  867,794;    6,712;    3,682
903,551;  484,708;    1,439;    0,409
904,109;  372,623;    1,530;   -1,409
904,666;  342,537;    1,439;    1,045
905,224;  259,270;    3,894;   -0,409
905,781;  390,002;   -0,470;   -0,318
906,338;  333,826;    0,167;    1,045
906,895;  258,468;    1,894;    2,045
907,453;  477,927;    2,348;    1,136
908,010;  350,387;    3,348;    0,409
908,567;  349,847;   -0,561;    0,591
909,124;  228,307;    2,439;   -1,500
909,681;  271,222;   -1,288;    0,682
910,238;  306,227;   -0,106;   -1,318
910,795;  236,051;   -1,561;   -1,136
911,352;  243,596;   -0,379;   -2,682
911,909;  273,687;    2,803;   -0,864
912,466;  280,960;    1,985;    1,500
913,022;  367,778;   -0,924;    0,500
913,579;  429,141;   -0,470;    2,045
914,136;  321,960;   -2,561;    0,955
914,692;  321,869;    1,530;   -1,227
915,249;  349,687;    0,530;    0,409
915,806;  401,232;    1,803;    1,955
916,362;  312,505;    0,894;    1,864
916,918;  297,596;    2,439;    1,045
917,475;  392,778;    1,621;    0,955
918,031;  267,505;    0,076;   -0,045
918,587;  327,051;    0,621;   -0,318
919,144;  266,869;   -0,379;    0,227
919,700;  209,051;    0,167;    0,773
920,256;  219,141;    0,439;    0,045
920,812;  265,778;    1,439;   -1,045
921,368;  235,232;    1,348;   -1,045
921,924;  260,051;    0,439;   -0,136
922,480;  327,687;    0,076;    1,227
923,036;  328,869;   -0,652;    1,955
923,592;  255,778;    0,621;    0,318
924,148;  258,596;    1,894;   -0,955
924,704;  362,778;    0,258;   -0,409
925,259;  238,414;   -0,561;    0,591
925,815;  233,141;    3,803;    0,500
926,371;  217,778;    3,530;    1,409
926,926;  341,051;    1,621;    0,591
927,482;  313,414;    1,621;    0,773
928,037;  263,051;   -0,833;    2,045
928,593;  408,960;    0,258;    1,045
929,148;  237,778;    1,167;   -1,500
929,704;  291,505;    2,439;   -0,500
930,259;  245,141;    0,894;   -0,136
930,814;  374,505;    1,803;    1,955
931,369;  318,232;    0,258;   -0,773
931,925;  204,596;   -1,924;    0,136
932,480;  276,869;    3,076;   -2,591
933,035;  516,687;    3,985;   -0,318
933,590;  442,869;   -1,742;   -1,773
934,145;  209,051;   -1,288;   -0,318
934,700;  147,778;    0,348;   -0,591
935,255;  190,323;    4,803;    0,045
935,809;  424,960;    6,258;    0,864
936,364;  189,051;    2,167;   -0,136
936,919;  181,051;    2,348;   -1,773
937,474;  140,414;    1,348;    0,136
938,028;  145,051;    3,076;    1,136
938,583;  429,869;    6,348;    4,682
939,138;  212,051;    0,167;    2,136
939,692;  123,960;   -1,015;   -1,136
940,247;  156,051;    1,167;   -1,045
940,801;  173,687;    0,621;    0,227
941,355;  129,596;    0,439;    2,591
941,910;   94,778;    0,712;   -2,136
942,464;  114,778;    2,712;   -0,318
943,018;  240,596;    3,258;   -0,227
943,572;  152,323;    2,803;   -0,682
944,126;  203,687;   -0,924;   -0,409
944,681;  134,596;    0,712;    0,227
945,235;   95,232;    2,167;   -0,591
945,789;   83,869;    1,258;   -1,864
946,342;  226,778;   -0,561;   -0,591
946,896;  112,960;    0,348;    0,955
947,450;   88,232;   -0,561;   -0,227
948,004;  221,232;    1,076;   -0,045
948,558;  134,323;    1,258;   -0,864
949,111;  125,141;   -1,197;   -0,318
949,665;  214,778;   -0,106;   -0,682
950,219;  200,869;    0,621;   -1,045
950,772;  151,960;    0,258;    1,864
951,326;  140,687;   -1,106;   -0,955
951,879;  122,414;    1,076;   -2,318
952,433;  193,778;    1,348;    2,227
952,986;  110,778;    0,348;    0,682
953,539;   94,778;    1,530;    0,591
954,093;   75,051;    0,985;   -1,318
954,646;  122,323;   -0,288;    1,318
955,199;   85,414;    1,258;   -0,500
955,752;  224,596;    1,985;    1,773
956,305;  137,596;    0,894;    2,955
956,858;  153,596;    0,621;   -0,318
957,411;  180,505;    3,621;    2,136
957,964;  145,869;    2,076;    2,136
958,517;  103,778;    0,985;    3,136
959,070;   79,505;   -1,197;    1,955
959,623;  222,687;    1,076;    1,500
960,176;  191,414;    0,712;    2,045
960,728;  158,414;    1,712;    0,773
961,281;  127,596;    2,258;    0,500
961,834;   97,414;   -0,833;    0,864
962,386;  107,596;    1,258;    1,045
962,939;   93,869;    3,439;   -0,318
963,491;  117,778;    2,621;    1,136
964,043;   86,869;    0,076;    2,409
964,596;  171,687;    1,712;    2,227
965,148;  117,323;   -0,379;    1,773
965,700;   82,051;   -0,015;   -0,227
966,253;  169,232;   -0,833;    0,318
966,805;  142,505;    1,894;    0,773
967,357;  107,687;    0,439;   -1,500
967,909;  156,778;    1,167;   -1,227
968,461;  108,414;    0,894;    3,136
969,013;   84,960;   -1,561;   -0,864
969,565;  166,960;    1,803;   -1,136
970,117;  283,869;    3,803;    1,045
970,669;  170,414;    3,258;   -0,136
971,220;   76,414;    2,167;   -1,500
971,772;  112,051;    1,348;   -0,318
972,324;  152,596;   -1,197;   -0,500
972,876;   99,596;    0,167;   -0,045
973,427;  156,960;   -1,197;   -1,045
973,979;  200,505;    0,076;   -2,500
974,530;  108,051;    0,803;    1,318
975,082;  142,414;    2,167;    1,682
975,633;  113,232;    2,894;    1,682
976,184;  125,960;    2,076;    0,773
976,736;  123,141;    0,348;    0,227
977,287;  140,232;    0,258;   -0,500
977,838;  115,141;   -0,924;   -0,318
978,389;  111,323;    0,803;   -0,500
978,940;   60,596;    1,258;   -0,409
979,491;   65,687;    2,258;   -0,500
980,042;  107,505;   -0,652;    3,045
980,593;  117,323;    1,894;    0,227
981,144;  151,323;    3,530;   -0,500
981,695;  153,869;   -0,470;    1,500
982,246;  132,960;   -1,833;    1,045
982,797;   79,869;   -0,561;    0,682
983,347;  149,869;    2,167;    0,591
983,898;  257,051;    4,167;    0,409
984,449;  238,596;    2,530;    0,773
984,999;  153,141;    1,894;   -1,136
985,550;  127,505;    3,167;   -0,318
986,100;   72,596;    0,712;   -0,318
986,651;   73,869;    0,258;    0,045
987,201;   84,778;    0,894;   -0,591
987,751;   85,960;   -0,288;    2,864
988,302;  100,505;   -0,379;    1,500
988,852;  139,051;    1,985;   -1,136
989,402;  155,869;    0,985;    0,682
989,952;  175,869;    1,621;    0,864
990,502;  101,778;    1,076;    0,682
991,052;   56,596;   -0,106;    0,045
991,602;   81,960;    1,167;    1,318
992,152;   99,596;    2,803;    0,682
992,702;  117,141;    1,167;   -0,045
993,252;   87,232;    0,076;   -0,500
993,802;  133,414;    1,167;    1,318
994,352;  112,051;   -0,742;    1,136
994,901;   77,778;    1,076;    3,227
995,451;   67,778;   -1,197;    0,318
996,000;   80,414;    1,076;    0,318
996,550;   87,596;    2,894;    0,227
997,100;  103,051;   -0,561;   -0,045
997,649;  168,869;   -0,197;    0,955
998,198;   93,232;   -0,288;   -1,500
998,748;  133,414;    0,348;   -2,318
999,297;  109,687;    0,985;   -0,409
999,846;  163,687;    1,894;   -0,773
1000,395;  120,687;    1,530;    0,500
1000,945;  169,232;    1,076;   -0,773
1001,494;  169,232;    0,167;    0,682
1002,043;  175,051;    0,712;    0,864
1002,592;   91,141;    3,439;    1,955
1003,141;   79,687;    2,439;   -0,682
1003,690;  166,323;    1,258;    0,500
1004,238;  104,687;   -0,106;   -0,045
1004,787;   70,596;   -1,288;    1,227
1005,336;  142,232;    1,621;    0,682
1005,885;  117,687;   -0,197;   -2,773
1006,433;  112,778;   -0,470;    0,955
1006,982;  187,232;    2,167;    1,682
1007,531;  125,051;    2,712;   -0,227
1008,079;  108,323;    0,258;    0,500
1008,627;   88,232;    1,621;    0,409
1009,176;  103,869;    0,076;   -1,955
1009,724;   75,596;   -2,742;    0,864
1010,273;  144,596;    1,076;    0,500
1010,821;   91,323;    1,076;    1,409
1011,369;   75,141;    0,076;    1,318
1011,917;   76,596;   -0,833;   -0,591
1012,465;  114,141;    2,530;   -1,591
1013,013;  103,960;    0,439;   -1,682
1013,561;  156,687;   -1,288;   -0,773
1014,109;  202,232;   -0,833;    1,682
1014,657;  137,596;    1,348;    0,591
1015,205;   97,778;    0,894;   -0,955
1015,753;   74,869;    0,258;   -1,409
1016,301;  108,687;    2,621;    3,045
1016,848;  144,687;    2,167;    0,409
1017,396;  131,869;    1,621;    0,045
1017,944;  126,596;    2,621;    1,864
1018,491;   97,960;   -0,197;    1,409
1019,039;  242,778;   -0,652;    0,591
1019,586;  129,778;    0,076;    1,682
1020,134;  115,323;    0,712;    1,500
1020,681;  154,869;    2,894;   -1,136
1021,228;  121,960;   -0,561;   -2,227
1021,776;  100,869;   -0,833;   -1,136
1022,323;  208,778;    0,803;    0,773
1022,870;  155,232;   -0,470;   -0,045
1023,417;  176,778;    2,076;    1,864
1023,964;  111,414;    0,621;    1,227
1024,511;   93,778;   -0,652;    0,773
1025,058;  120,323;    0,439;   -0,045
1025,605;   97,869;   -1,742;    3,136
1026,152;  200,323;   -0,106;   -0,591
1026,699;  117,687;    0,167;    1,318
1027,245;  114,141;    2,439;    0,318
1027,792;   89,869;    0,712;    1,409
1028,339;  200,414;    4,076;   -0,045
1028,885;  127,232;    3,621;   -0,227
1029,432;  105,232;   -0,106;    0,227
1029,978;  143,778;    1,348;   -1,591
1030,525;  156,414;    1,621;    0,409
1031,071;   96,323;    0,348;    1,136
1031,618;  222,596;    1,258;    1,682
1032,164;  143,960;    2,076;    3,045
1032,710;  162,141;    0,076;   -1,500
1033,256;  146,505;    0,712;   -0,136
1033,803;   87,051;   -0,288;    1,500
1034,349;   32,323;    1,803;    0,136
1034,895;   51,051;    2,621;   -0,318
1035,441;   82,778;    0,439;    0,318
1035,987;   98,960;   -2,288;   -0,682
1036,533;  131,232;   -0,197;   -0,955
1037,078;  241,232;    4,712;    1,682
1037,624;  164,141;    2,439;   -0,955
1038,170;   97,869;    1,712;   -0,318
1038,716;  131,869;    2,167;   -0,409
1039,261;   83,687;    2,167;   -0,773
1039,807;   88,323;   -0,015;    3,409
1040,352;   91,869;   -1,288;   -0,318
1040,898;   89,869;    0,167;   -0,682
1041,443;   67,232;    0,803;   -2,591
1041,989;  216,960;    3,621;    1,591
1042,534;  119,414;    0,985;    2,591
1043,079;   66,687;    1,985;    0,955
1043,625;  105,960;    0,258;    0,500
1044,170;  111,596;    2,439;    1,045
1044,715;  209,778;    0,167;    0,955
1045,260;  160,596;   -0,833;   -0,955
1045,805;   87,687;    0,258;   -0,591
1046,350;   77,778;    0,530;   -0,409
1046,895;  164,869;    0,803;    1,591
1047,440;  147,414;    1,530;    0,409
1047,985;   95,687;   -1,197;   -0,955
1048,530;   86,505;    1,348;    1,227
1049,074;  104,414;    2,803;    0,318
1049,619;   81,141;   -0,924;    1,955
1050,164;   81,232;    1,076;    0,227
1050,708;  128,323;    2,621;    0,045
1051,253;  239,778;    3,258;   -2,227
1051,797;  133,323;   -0,197;   -1,318
1052,342;   64,687;    1,348;    1,045
1052,886;  101,141;    1,803;   -1,409
1053,430;   62,232;    2,167;    0,136
1053,975;  104,869;    0,894;   -0,318
1054,519;  102,232;    1,803;    3,227
1055,063;  129,232;    3,621;    1,318
1055,607;  125,232;    1,348;    0,227
1056,151;  118,869;    0,530;    1,682
1056,695;   87,960;   -1,833;   -1,136
1057,239;   81,141;   -1,197;   -0,682
1057,783;  103,505;    2,258;   -1,500
1058,327;  136,960;    3,076;    1,409
1058,871;  207,505;    3,985;    1,318
1059,415;  146,869;   -0,561;   -0,045
1059,958;  209,051;    2,985;    2,591
1060,502;   85,414;    1,348;   -0,773
1061,046;   56,596;    1,712;   -0,955
1061,589;   59,687;    2,803;   -1,136
1062,133;   51,960;    0,985;    1,864
1062,676;   69,323;    1,439;    0,864
1063,220;   80,323;    0,985;    0,500
1063,763;   95,051;    2,985;    1,136
1064,306;   95,505;    0,985;    1,864
1064,849;   97,687;    2,076;    0,591
1065,393;   87,323;    2,894;   -1,500
1065,936;   89,051;    2,530;   -0,409
1066,479;   62,414;    2,621;    1,318
1067,022;   74,323;    1,894;   -0,227
1067,565;   63,051;   -1,197;   -1,318
1068,108;   52,505;    1,258;   -0,591
1068,651;   44,414;   -2,470;    1,409
1069,194;   46,232;   -1,106;   -1,682
1069,736;   51,414;    3,803;    0,955
1070,279;   49,051;   -1,652;   -0,500
1070,822;   78,323;    1,530;   -0,318
1071,364;  135,596;    0,530;    1,318
1071,907;   77,051;    0,348;    3,227
1072,450;   26,869;    0,258;   -0,045
1072,992;   49,323;   -0,561;    3,136
1073,535;   73,323;    0,167;    2,136
1074,077;   49,505;    2,985;    2,045
1074,619;   43,323;    0,985;    0,591
1075,161;   57,960;   -0,561;    1,500
1075,704;  114,323;    0,258;    1,227
1076,246;   63,960;    1,530;    0,682
1076,788;   37,687;   -1,015;    1,773
1077,330;   36,414;   -2,106;    2,136
1077,872;   51,687;   -1,924;    0,955
1078,414;  123,141;    3,712;    0,773
1078,956;   61,505;    0,167;   -0,227
1079,498;  110,687;    0,439;    0,318
1080,040;   60,141;    0,985;   -1,318
1080,581;   45,778;    0,621;   -0,318
1081,123;   26,687;   -0,106;   -0,773
1081,665;   34,869;    3,803;   -0,955
1082,206;  110,596;    3,258;   -0,500
1082,748;   66,051;    3,258;    2,045
1083,289;   39,869;    0,167;    1,318
1083,831;   30,323;    0,258;    0,227
1084,372;   47,778;    0,894;    0,591
1084,913;   46,232;    3,348;    0,864
1085,455;   36,141;    1,530;   -2,045
1085,996;   26,414;    0,530;    0,136
1086,537;   34,232;    0,985;    0,864
1087,078;   45,141;    0,439;   -2,136
1087,619;   62,869;   -1,652;    0,227
1088,160;   49,232;    1,439;    1,318
1088,701;   48,141;   -0,742;    0,682
1089,242;   38,051;   -0,561;   -2,227
1089,783;   53,414;   -0,561;    1,409
1090,324;   46,596;   -0,833;    0,682
1090,865;   29,232;   -1,924;   -0,409
1091,405;   26,869;   -0,561;    2,227
1091,946;   41,505;   -0,197;   -0,955
1092,487;   22,687;   -1,288;   -1,409
1093,027;   61,505;    1,803;   -1,500
1093,568;   37,596;    2,258;    1,227
1094,108;   44,778;    0,621;    1,773
1094,649;   38,869;   -0,470;    0,136
1095,189;   26,232;    1,167;   -0,682
1095,729;   24,869;    0,712;    0,955
1096,269;   26,232;    1,258;   -0,955
1096,810;   78,141;   -0,197;    0,500
1097,350;   51,141;   -0,561;   -0,773
1097,890;   36,323;    2,985;    1,227
1098,430;  110,960;    4,985;    2,864
1098,970;   77,505;    1,894;    1,682
1099,510;   36,960;   -0,833;   -2,318
1100,050;   26,687;    0,258;   -1,591
1100,589;   31,960;    0,076;   -0,318
1101,129;   47,141;    0,894;   -0,955
1101,669;   76,869;    2,803;    2,136
1102,209;   48,051;    1,530;    2,227
1102,748;   39,596;    3,439;    0,955
1103,288;   42,051;    0,712;   -1,227
1103,827;   34,505;    3,530;   -2,227
1104,367;   24,687;    1,712;   -2,409
1104,906;   30,414;   -1,015;   -1,136
1105,445;   43,414;    0,985;   -1,136
1105,985;   30,141;   -0,652;    1,500
1106,524;   35,141;    1,530;   -0,682
1107,063;   30,869;    1,167;    1,409
1107,602;   22,505;    1,894;   -1,500
1108,141;   18,505;    1,621;    1,500
1108,680;   41,141;    3,985;   -0,591
1109,219;   30,414;    0,167;   -0,500
1109,758;   25,687;    4,167;    0,682
1110,297;   25,232;   -1,106;   -0,682
1110,836;   19,414;    1,439;    0,955
1111,375;   20,323;    0,348;    0,409
1111,913;   39,778;    0,985;    0,773
1112,452;   29,232;    0,894;    0,136
1112,991;   18,414;    1,076;    1,955
1113,529;   19,141;    0,167;   -0,045
1114,068;   24,596;    0,439;    2,955
1114,606;   16,687;   -0,561;   -0,955
1115,144;   36,869;    1,530;    1,045
1115,683;   30,596;    1,985;    0,318
1116,221;   41,414;    2,076;   -0,864
1116,759;   25,778;    1,621;   -0,864
1117,297;   42,323;    1,621;    1,864
1117,836;   26,141;    1,985;   -1,227
1118,374;   24,960;    0,258;   -0,682
1118,912;   26,960;    0,439;    2,682
1119,450;   23,414;    0,985;    0,864
1119,988;   21,596;    3,348;    2,136
1120,525;  139,778;    7,258;    3,318
1121,063;   63,051;    0,530;    1,864
1121,601;   23,505;    1,076;   -1,227
1122,139;   19,232;    1,076;   -2,045
1122,676;   53,323;   -1,652;    2,773
1123,214;   42,778;    0,712;    4,409
1123,751;   21,596;    0,621;    2,227
1124,289;   28,414;    0,894;   -0,409
1124,826;   20,596;   -0,379;    0,227
1125,364;   11,051;    0,712;   -0,955
1125,901;   53,323;    6,258;    1,227
1126,438;   42,687;    3,530;    0,955
1126,975;   11,960;    2,985;   -0,773
1127,513;   14,323;    2,621;    2,136
1128,050;    9,505;   -0,561;   -0,682
1128,587;   22,323;    1,348;   -0,227
1129,124;   25,505;   -0,015;    1,318
1129,661;   11,778;   -1,924;    0,227
1130,198;   36,414;    2,439;    0,773
1130,734;   24,778;   -0,379;    1,409
1131,271;   11,141;   -1,197;    0,864
1131,808;   29,141;    1,621;    3,045
1132,345;   15,232;    4,530;    0,318
1132,881;    6,051;   -0,561;   -1,864
1133,418;   19,596;    0,348;   -1,136
1133,954;    9,414;    0,712;   -2,682
1134,491;   20,141;    1,712;   -0,773
1135,027;   11,778;    2,167;    0,864
1135,564;   19,141;    1,439;    2,955
1136,100;   17,596;   -0,742;    2,136
1136,636;    9,232;   -1,015;   -1,045
1137,172;   12,596;    0,894;   -1,045
1137,708;   11,141;   -1,561;   -1,045
1138,245;    7,141;    0,803;   -1,227
1138,781;    3,232;    1,803;   -3,318
1139,317;   11,141;    1,894;   -1,409
1139,852;   13,414;    3,076;    0,136
1140,388;   18,505;    2,076;   -0,409
1140,924;   10,960;    1,076;   -2,227
1141,460;    7,323;   -0,288;    0,136
1141,996;    2,960;   -0,652;    2,682
1142,531;    3,051;    1,076;    3,318
1143,067;   29,778;    1,167;    1,045
1143,602;   40,323;    3,439;   -0,318
1144,138;   14,869;    0,803;    1,045
1144,673;    5,869;    1,621;    1,409
1145,209;   11,505;    2,894;   -0,318
1145,744;    5,778;    0,803;    0,864
1146,279;   15,051;    1,530;   -0,136
1146,815;    9,232;    1,530;   -2,682
1147,350;   12,869;   -0,924;    0,045
1147,885;    6,778;   -1,924;   -1,318
1148,420;    6,051;    2,439;    0,773
1148,955;    7,414;   -1,470;    1,864
1149,490;    5,778;   -1,106;   -1,591
1150,025;    3,051;   -1,106;   -1,773
1150,560;   15,051;   -0,288;   -0,955
1151,094;   11,505;    0,258;   -0,591
1151,629;    8,596;   -3,742;    0,864
1152,164;    7,141;   -1,288;    1,318
1152,698;    3,232;    1,258;   -0,136
1153,233;   -0,040;   -1,379;   -0,682
1153,767;    3,778;   -0,288;   -2,318
1154,302;    8,051;   -0,379;    1,773
1154,836;    8,869;    0,803;   -2,136
1155,371;   10,596;    2,258;    3,682
1155,905;    2,960;    1,985;    1,682
1156,439;    6,869;    0,530;   -0,500
1156,973;    9,414;    0,439;    0,318
1157,507;    4,051;   -1,742;    0,682
1158,042;    6,323;   -0,652;    1,045
1158,576;    8,778;   -0,561;    1,773
1159,110;    8,869;    0,076;    2,409
1159,643;    7,323;   -2,470;   -0,045
1160,177;    4,778;   -2,015;    1,500

