
Integration time [ms]:   0,050
Averaging Nr. [scans]: 11
Smoothing Nr. [pixels]: 0
Data measured with spectrometer [name]: 7318044SP
Wave   ;Sample   ;Dark     ;Reference
[nm]   ;[counts] ;[counts] ;[counts] 

186,757;   -5,818;   38,161;    1,318
187,357;   31,647;   26,706;    0,955
187,958;    8,761;   17,252;   -1,591
188,558;   55,244;   12,979;   -1,227
189,159;   31,145;   10,070;   -4,500
189,759;    9,005;    5,797;   -3,591
190,360;   11,169;    6,797;   -2,136
190,960;   43,795;    5,706;   -4,136
191,560;   50,330;    2,614;   -6,591
192,161;  288,613;    5,885;   -3,500
192,761;  131,397;    5,520;   -3,227
193,361;   83,432;    3,065;   -3,773
193,962;  140,594;    1,612;   -2,682
194,562;   73,765;   -0,114;   -3,955
195,162;  112,137;   -0,567;   -2,227
195,762;  274,839;    2,433;   -0,045
196,362;  227,557;    1,706;   -2,500
196,963;   94,382;    1,706;   -0,864
197,563;  160,350;    1,252;   -0,955
198,163;  107,979;   -0,111;   -0,682
198,763;  127,133;   -0,020;   -0,500
199,363;  238,596;    3,616;   -0,500
199,963;  206,147;    2,162;    0,409
200,563;  172,005;    6,344;   -1,409
201,163;  156,998;    5,435;   -0,227
201,763;  253,108;    1,435;    0,318
202,363;  187,111;    0,980;    1,500
202,963;  302,230;    1,526;    1,045
203,563;  413,743;    0,344;    0,500
204,162;  268,437;    1,889;   -1,864
204,762;  254,146;    2,071;    0,591
205,362;  223,594;    0,708;    1,955
205,962;  338,165;    3,435;    1,955
206,562;  334,409;    1,889;    2,318
207,161;  304,088;    1,708;    0,318
207,761;  453,444;    4,435;    2,409
208,361;  328,466;    1,889;    1,409
208,960;  419,043;    2,889;    1,500
209,560;  512,826;    0,435;    1,591
210,160;  497,261;    5,071;    1,864
210,759;  466,425;    0,708;    1,227
211,359;  463,951;   -0,474;    1,045
211,958;  748,849;    3,526;    2,045
212,558;  826,672;    0,799;    1,864
213,157;  660,132;   -0,929;    1,500
213,757; 1135,582;    5,617;   -0,227
214,356;  831,115;    1,708;   -0,409
214,956; 1178,662;    3,526;    0,409
215,555;  808,836;    0,617;    2,136
216,154;  731,507;   -0,292;   -0,591
216,754;  758,388;    1,253;    0,773
217,353;  908,505;   -0,383;   -1,045
217,952;  776,648;    2,072;    0,318
218,552; 1004,390;    0,254;   -0,773
219,151;  918,143;   -1,110;    0,955
219,750;  929,032;    0,890;   -0,227
220,349; 1099,790;   -2,292;    1,045
220,948; 1133,719;    1,163;    1,136
221,548; 1199,576;    0,617;    1,227
222,147; 1331,085;   -1,292;   -0,409
222,746; 1642,221;    1,254;   -0,955
223,345; 1518,202;   -1,019;    0,500
223,944; 1552,621;    1,163;    0,773
224,543; 1767,889;    4,072;   -1,409
225,142; 1874,909;    1,345;    0,136
225,741; 1801,687;    1,163;    1,045
226,340; 1853,430;    1,254;   -0,955
226,939; 2357,875;    2,708;   -0,136
227,538; 2414,406;    1,163;   -0,773
228,137; 2549,906;    0,435;    0,864
228,735; 2793,437;    0,435;    1,227
229,334; 2509,681;   -0,474;   -0,227
229,933; 2886,871;    0,799;    0,591
230,532; 3024,517;   -1,201;   -0,409
231,131; 3075,255;    1,253;    0,318
231,729; 3300,526;    1,163;   -2,318
232,328; 3539,539;    0,435;   -1,500
232,927; 3673,588;    4,526;   -0,500
233,525; 3863,318;    0,981;    0,045
234,124; 4085,027;    1,890;   -1,591
234,723; 4160,324;    1,617;   -1,045
235,321; 4352,883;    1,163;    0,136
235,920; 4696,450;    2,526;   -1,227
236,518; 4982,918;    1,072;    0,318
237,117; 5260,647;    2,890;   -0,227
237,715; 5469,570;    1,163;   -0,500
238,314; 5513,923;    1,708;   -2,318
238,912; 5590,504;    0,526;   -1,409
239,510; 5712,628;    1,162;   -1,227
240,109; 5927,508;   -0,474;    3,773
240,707; 5994,636;   -0,474;    1,227
241,305; 6502,499;   -0,383;    0,136
241,904; 6771,499;   -0,292;   -2,045
242,502; 6704,542;    3,253;   -0,227
243,100; 6677,268;    3,344;   -0,955
243,698; 6999,646;    2,799;    1,682
244,297; 7223,968;   -0,656;    0,682
244,895; 7020,490;   -0,474;   -2,318
245,493; 7442,144;    2,981;   -0,591
246,091; 7537,870;    5,163;   -1,318
246,689; 7515,128;    2,163;    0,591
247,287; 7735,261;   -0,019;   -1,136
247,885; 8099,003;   -1,019;    1,227
248,483; 8245,393;   -0,201;   -0,500
249,081; 8410,605;    0,981;    1,591
249,679; 8592,582;   -1,019;    1,682
250,277; 8933,720;   -2,292;    0,864
250,875; 8909,828;    0,617;   -1,045
251,473; 8964,787;   -0,019;    0,500
252,071; 9197,938;   -0,383;    1,045
252,669; 9404,440;   -1,565;    0,318
253,267; 9732,383;    1,618;    0,773
253,864; 9722,715;    0,617;    0,682
254,462; 9507,687;    1,526;    1,591
255,060; 9549,979;    0,072;    1,318
255,658; 9965,258;   -3,292;   -0,136
256,255;10430,064;   -0,201;   -2,045
256,853;10295,548;    2,345;    1,409
257,451;10342,025;    1,981;    1,864
258,048;10550,226;    2,072;    1,864
258,646;10349,673;    0,436;   -1,045
259,243;10571,730;    2,981;    2,227
259,841;10648,055;    1,799;    0,318
260,438;10528,073;    0,254;    0,864
261,036;11379,654;    0,617;    1,409
261,633;11295,650;    1,526;    2,227
262,231;11022,977;   -0,110;   -0,045
262,828;11154,554;   -0,383;    1,136
263,425;11204,379;   -1,928;   -0,591
264,023;11489,615;    1,436;    0,045
264,620;11012,735;    1,526;   -0,318
265,217;11420,272;    2,890;    3,136
265,815;11567,849;    2,527;    2,136
266,412;11276,664;    0,072;    0,136
267,009;11346,283;    0,526;    0,773
267,606;11230,127;    0,345;   -0,955
268,203;11233,292;   -0,383;   -0,591
268,801;11602,188;   -0,474;    0,591
269,398;11954,172;   -0,564;    2,500
269,995;11955,826;    0,890;    1,591
270,592;11666,353;    0,799;   -0,500
271,189;11956,480;    1,981;    0,409
271,786;12090,883;    2,072;    1,227
272,383;11845,228;   -0,383;    0,227
272,980;12126,368;    1,617;    0,318
273,577;12709,907;    2,162;    1,227
274,174;12204,364;    1,435;    2,591
274,771;12173,349;    1,890;   -0,773
275,367;12329,257;    3,253;    1,409
275,964;12298,954;   -0,565;   -0,500
276,561;12469,846;   -2,474;   -1,045
277,158;12799,764;    1,799;   -1,773
277,755;12897,786;   -0,110;    0,409
278,351;12203,204;    0,436;   -1,500
278,948;12592,101;   -0,201;    0,045
279,545;12653,418;    0,527;    2,318
280,141;13304,331;    1,254;   -2,045
280,738;13169,229;    2,435;   -0,136
281,334;13488,081;   -0,383;    0,591
281,931;12807,157;    2,890;   -1,318
282,528;12944,393;    4,072;   -0,500
283,124;13789,596;    3,345;   -0,500
283,721;13659,281;    0,709;    1,409
284,317;13472,423;    0,163;    2,500
284,913;14068,729;   -0,110;    0,591
285,510;14325,002;    2,890;   -0,318
286,106;14351,871;    2,345;   -0,955
286,703;13880,295;    0,072;    1,955
287,299;14135,419;    1,254;   -0,591
287,895;14405,224;    0,890;   -1,045
288,491;15131,172;    0,163;    2,136
289,088;14817,266;    0,163;    2,409
289,684;14892,167;    2,890;    1,500
290,280;14868,651;    1,890;    0,682
290,876;14972,140;    0,163;    5,500
291,472;14839,981;    2,163;    2,227
292,068;14947,536;    1,254;    0,227
292,665;14662,964;   -0,564;    0,773
293,261;14182,599;   -1,292;    2,136
293,857;14626,623;    4,072;    2,136
294,453;14594,220;   -0,928;    0,955
295,049;14431,954;    0,253;    1,955
295,644;14433,140;   -1,292;    0,136
296,240;14376,133;    0,162;   -0,136
296,836;14453,908;   -0,747;    0,318
297,432;14777,866;    2,980;   -0,500
298,028;14767,845;    0,435;    0,773
298,624;15247,678;    0,889;    1,864
299,220;15583,968;    0,435;    0,591
299,815;15215,574;    0,526;   -0,409
300,411;14994,590;    0,435;    1,773
301,007;14996,711;    1,889;    0,227
301,602;15118,538;    2,071;   -2,318
302,198;15269,476;    1,435;   -0,773
302,794;15628,708;    1,526;   -0,500
303,389;15862,115;    1,071;    1,045
303,985;15905,759;    1,253;    1,409
304,580;15830,966;    0,889;    1,591
305,176;15844,555;    0,344;    0,136
305,771;15802,265;   -0,929;   -1,227
306,367;15543,058;    3,071;    0,136
306,962;16048,992;    2,889;    1,500
307,558;15756,013;    2,435;    0,136
308,153;15700,479;   -0,383;   -1,136
308,748;15970,721;    0,162;    1,682
309,344;15912,639;    0,253;   -1,318
309,939;15996,726;    2,071;   -1,318
310,534;16399,364;   -2,020;   -1,682
311,130;16338,897;   -0,656;   -2,500
311,725;16066,830;    0,526;   -0,500
312,320;16395,259;    1,253;    0,045
312,915;16179,924;    2,890;   -1,045
313,510;16259,516;    0,526;   -0,500
314,105;16902,496;   -3,565;    1,409
314,700;16203,156;   -1,656;   -1,045
315,295;15780,875;   -0,020;    0,045
315,890;15298,782;   -0,292;    0,864
316,485;15676,222;    0,253;   -0,318
317,080;15829,021;   -0,929;    1,591
317,675;16388,182;    3,071;   -0,682
318,270;15629,821;    6,889;    3,318
318,865;15729,534;    2,435;    3,045
319,460;15548,412;   -1,565;    0,591
320,055;15846,278;   -2,565;   -1,227
320,650;15438,898;   -1,838;   -0,591
321,244;15476,077;    0,889;   -1,409
321,839;16524,745;    0,980;   -0,227
322,434;16480,168;   -0,111;   -1,591
323,029;16024,655;   -0,474;    1,591
323,623;15863,357;    0,798;    0,773
324,218;15572,918;    2,707;    1,409
324,812;15463,813;    0,889;    1,591
325,407;15225,048;   -0,929;    2,045
326,002;15124,860;    0,526;   -0,409
326,596;15477,204;   -0,656;    1,318
327,191;15772,152;   -0,383;   -1,045
327,785;15274,749;   -0,747;   -0,227
328,379;15503,368;   -0,383;    0,136
328,974;15335,767;    1,798;   -3,955
329,568;15566,317;    2,889;   -2,409
330,163;15342,264;    2,435;    1,045
330,757;15760,412;    0,253;    1,591
331,351;14993,834;   -0,292;    0,682
331,945;15299,057;   -0,383;    1,409
332,540;14833,122;    1,617;   -0,591
333,134;14965,406;    3,344;    0,773
333,728;15260,996;    2,799;    0,318
334,322;15658,738;    0,889;   -0,864
334,916;14831,438;    0,344;    0,955
335,510;15188,659;   -0,111;   -0,136
336,105;15472,061;   -0,929;    1,591
336,699;15146,892;   -1,292;    0,591
337,293;15041,465;    1,071;    0,318
337,887;15208,748;    0,071;    1,955
338,481;15299,142;    2,980;    0,591
339,074;15442,242;    2,071;    2,682
339,668;15230,589;   -0,110;    1,227
340,262;15474,637;    7,708;    3,227
340,856;14971,092;    1,708;   -0,682
341,450;14231,005;    0,708;    1,864
342,044;15285,283;    1,799;    0,136
342,637;15020,599;    1,162;   -2,136
343,231;14846,640;   -1,474;    0,682
343,825;14767,878;   -0,747;   -0,591
344,419;14695,871;   -0,474;    0,500
345,012;14368,867;    2,889;    4,045
345,606;14361,837;   -0,656;    1,591
346,199;14187,503;   -0,111;   -0,227
346,793;13618,942;    2,525;    2,045
347,386;13880,491;    0,889;   -1,136
347,980;13880,350;   -0,838;   -0,045
348,573;13595,175;   -1,748;    0,409
349,167;13172,245;    6,161;    4,773
349,760;13572,763;    2,252;    2,682
350,354;13533,304;    1,616;    1,136
350,947;13230,460;    2,798;    1,682
351,540;12855,466;    0,616;   -1,409
352,134;12800,253;   -1,111;    1,136
352,727;12878,187;   -0,657;    1,136
353,320;12659,451;    2,343;    0,591
353,913;12493,481;   -1,929;    1,864
354,507;12628,462;    0,434;   -1,227
355,100;12634,376;    0,071;    0,864
355,693;11694,026;    4,798;    2,409
356,286;11764,420;    0,980;    2,773
356,879;12195,519;   -0,475;    1,227
357,472;11716,779;    0,980;    1,500
358,065;11923,242;    3,161;    2,500
358,658;11861,869;    0,798;    2,318
359,251;11404,625;    0,252;   -0,591
359,844;10753,471;    0,343;   -1,136
360,437;10923,279;    0,252;    0,045
361,030;11261,499;    0,525;   -0,682
361,623;10811,964;    0,434;    0,318
362,215;10845,052;    0,979;    2,045
362,808;10671,593;   -2,293;   -1,682
363,401;10879,177;    0,798;    0,136
363,994;10510,558;    3,252;   -1,500
364,586;10426,722;    0,888;   -1,500
365,179;10700,771;   -0,203;   -1,136
365,772;10109,895;   -0,930;    2,045
366,364;10439,768;    1,524;   -3,227
366,957;10651,561;    1,342;   -0,045
367,549;10708,060;   -0,203;   -0,864
368,142;10269,427;    0,978;   -1,500
368,734;10489,561;    2,523;   -2,136
369,327;10418,925;    2,341;   -0,500
369,919;10364,869;   -1,659;    0,409
370,512;10064,305;   -1,023;   -0,500
371,104; 9726,670;    2,704;    1,591
371,696; 9929,420;    1,703;   -0,955
372,289;10088,933;    0,157;    1,136
372,881;10252,636;    1,156;    1,318
373,473;10184,663;    4,064;    1,136
374,066; 9918,069;    1,336;    0,500
374,658; 9740,881;    0,879;    1,136
375,250;10178,306;   -1,668;   -1,409
375,842;10000,223;   -0,124;   -0,045
376,434; 9815,125;   -2,762;   -0,409
377,026;10525,845;   -1,855;   -2,500
377,618;10403,940;    0,779;   -0,682
378,210;10251,270;    3,141;   -1,955
378,802;10043,767;    3,412;   -0,591
379,394; 9915,827;    3,411;    0,682
379,986;10669,201;    1,138;   -0,955
380,578;10813,945;    1,410;    0,773
381,170; 9985,557;    0,320;    0,045
381,762; 9963,503;   -0,224;    1,409
382,354;10265,211;   -0,223;   -1,318
382,945;10349,998;    0,870;    0,318
383,537;10524,855;    1,144;   -1,955
384,129;10538,276;    0,963;   -1,136
384,721;10736,878;    0,418;    0,955
385,312;10670,656;   -1,399;   -0,955
385,904;10751,008;   -0,945;    1,591
386,496;10021,883;    0,691;    1,045
387,087;10176,551;    0,418;    2,500
387,679;10203,225;   -0,401;    0,045
388,270;10377,621;   -2,401;    2,045
388,862;10527,432;   -0,401;   -0,318
389,453;10429,743;    1,054;    1,045
390,045;10713,435;    3,236;   -2,682
390,636;10690,648;    0,144;   -0,591
391,227;10520,500;    2,054;   -0,045
391,819;10590,836;    0,781;    0,773
392,410;10678,600;    0,600;    0,045
393,001;10569,111;    1,600;   -1,591
393,593;10906,089;    0,600;   -0,045
394,184;10749,776;    0,873;   -0,409
394,775;10706,553;    1,146;    2,136
395,366;10938,364;    1,782;    0,773
395,957;10975,573;   -2,400;    0,136
396,548;11331,311;    1,054;    2,682
397,139;11675,554;    2,236;    0,591
397,730;11353,027;    0,873;    0,955
398,321;11436,918;    0,509;    0,955
398,912;11488,886;   -0,764;    0,136
399,503;11584,165;   -1,945;   -1,409
400,094;10890,339;   -1,582;    1,682
400,685;10748,986;    3,600;    0,045
401,276;10889,417;   -0,400;   -0,955
401,867;11198,781;   -1,127;    0,773
402,458;11308,807;    1,509;   -2,318
403,048;11300,609;    0,146;    0,591
403,639;10856,890;    1,509;    0,864
404,230;11066,400;    0,691;    0,318
404,821;10991,529;   -0,127;    0,045
405,411;11123,459;   -0,763;   -2,591
406,002;10642,673;    3,237;   -1,136
406,592;10420,396;    2,691;    0,045
407,183;10806,178;    0,328;   -1,500
407,774;10713,047;    1,419;   -0,136
408,364;11095,428;    2,600;    0,409
408,954;10649,278;   -0,036;    1,227
409,545;10687,871;    1,873;    1,045
410,135;10155,911;   -1,581;    0,500
410,726;10345,392;    0,783;    0,318
411,316;10756,294;    2,237;    0,773
411,906;10438,191;    0,146;   -0,409
412,497; 9814,148;   -0,490;   -0,045
413,087;10504,429;    0,783;   -0,227
413,677;10999,882;   -2,490;    3,864
414,267;10762,607;   -1,035;    1,409
414,857;10798,693;    0,419;    4,227
415,448;11080,081;   -0,763;    0,500
416,038;10744,916;   -2,945;   -0,591
416,628;10746,929;    0,965;    0,409
417,218;10084,277;   -1,762;    3,318
417,808;10369,182;    0,965;   -0,409
418,398;10930,322;   -1,035;    2,682
418,988;10958,450;   -2,217;    0,591
419,578;11289,569;    3,601;    1,409
420,168;11674,310;    0,692;   -0,955
420,757;11168,117;    0,964;   -1,500
421,347;10817,766;    1,601;   -0,227
421,937;11005,031;    3,329;    1,409
422,527;10903,218;    2,602;   -0,773
423,116;10734,798;    2,692;   -0,045
423,706;11199,768;    2,965;    0,318
424,296;11153,102;    1,601;    0,682
424,885;11591,466;    1,510;   -3,045
425,475;11952,227;    1,147;   -2,864
426,065;11877,597;   -1,489;   -0,318
426,654;11412,621;    0,329;   -0,318
427,244;11509,229;    1,147;    1,409
427,833;10918,492;    1,056;   -0,500
428,423;11502,337;    0,147;    1,136
429,012;12392,452;    2,420;   -1,136
429,601;11789,325;    2,057;    0,136
430,191;12075,168;    2,511;    4,318
430,780;11618,421;   -1,671;   -0,409
431,369;11554,067;    1,329;   -0,045
431,959;12307,810;    1,693;    0,500
432,548;12048,252;   -1,398;   -0,045
433,137;12242,515;    0,329;   -1,318
433,726;12813,659;    0,148;    0,500
434,315;12070,935;    0,148;    2,409
434,905;12137,181;    0,693;    1,409
435,494;12059,656;    3,148;    0,955
436,083;12588,332;    1,420;   -0,955
436,672;12403,868;    1,148;    0,500
437,261;11880,604;    0,512;   -1,955
437,850;11970,879;   -1,125;    0,682
438,439;11969,558;    2,239;    1,955
439,027;11767,582;    3,421;    1,773
439,616;12205,178;    2,239;    1,227
440,205;12095,688;    0,057;   -2,136
440,794;12208,523;   -0,306;   -0,045
441,383;12483,120;    1,603;   -0,591
441,971;12382,608;   -0,306;    0,591
442,560;12215,806;    0,603;   -1,773
443,149;11979,715;    3,060;   -1,318
443,737;12097,752;    0,968;   -2,318
444,326;12362,213;    0,331;    0,318
444,915;12433,267;   -1,851;    0,864
445,503;12902,200;    0,058;   -0,318
446,092;12081,951;    7,876;    2,136
446,680;12701,258;    1,876;    0,318
447,269;12937,261;   -1,487;   -0,318
447,857;12625,549;    2,240;   -1,773
448,445;12776,503;    2,149;    1,318
449,034;13027,633;    0,876;   -1,136
449,622;13169,829;    1,240;    3,500
450,210;12212,902;    3,149;    2,227
450,799;12831,276;    2,604;   -0,591
451,387;12795,426;    1,786;   -0,591
451,975;12369,540;   -1,305;    0,864
452,563;12460,247;    0,422;    2,318
453,151;12541,845;   -1,032;   -1,227
453,739;12434,764;   -1,577;    0,136
454,328;12252,723;    0,604;   -2,136
454,916;11914,534;    1,150;   -0,136
455,504;12103,262;    3,513;    1,227
456,092;12325,838;    2,150;   -1,591
456,679;12312,210;    0,604;    0,682
457,267;12123,497;    3,604;    1,045
457,855;12417,271;    3,241;    1,409
458,443;12191,889;   -0,304;    1,682
459,031;12242,946;    1,332;    2,409
459,619;12777,088;   -3,577;    2,864
460,206;12992,434;   -0,759;    2,045
460,794;13048,125;   -0,668;   -0,227
461,382;13338,228;    0,878;   -0,864
461,970;12862,612;    0,605;    1,864
462,557;12890,437;    0,878;   -0,682
463,145;13106,789;   -0,304;   -1,682
463,732;13309,976;    2,514;   -1,045
464,320;13254,447;    1,514;   -3,045
464,907;12802,919;    0,423;   -0,773
465,495;12677,665;    2,696;   -1,227
466,082;12853,894;    2,060;   -0,045
466,670;12717,588;    2,605;    1,227
467,257;13201,095;    0,060;    2,045
467,844;13380,987;    1,514;    0,045
468,432;13416,989;   -0,031;    3,500
469,019;12833,447;    1,606;   -1,773
469,606;13335,546;    0,969;    3,682
470,193;13120,483;    2,151;    0,227
470,780;12611,758;    0,333;    0,864
471,368;13007,779;   -1,212;   -0,773
471,955;12735,559;    1,060;   -0,682
472,542;12355,150;   -0,303;   -1,136
473,129;12636,610;   -0,485;    0,136
473,716;12340,020;    0,060;    0,591
474,303;12568,139;    1,333;   -0,864
474,890;12926,669;    2,333;   -0,500
475,477;12902,002;   -0,576;    0,409
476,064;12823,147;    0,697;   -1,591
476,650;12722,864;    2,152;    0,318
477,237;12560,682;    1,879;    0,955
477,824;12774,803;    3,879;    0,864
478,411;12803,473;    0,606;   -0,318
478,997;13056,076;    0,606;   -0,773
479,584;13144,927;   -0,666;   -0,409
480,171;13910,664;    1,243;   -0,773
480,757;13546,178;   -0,848;    0,773
481,344;13885,021;    0,334;    0,409
481,931;13394,515;   -0,393;    1,045
482,517;14444,753;    0,425;    0,318
483,104;15203,438;    1,334;    2,864
483,690;15653,117;    0,243;    0,045
484,276;16104,832;    0,698;    0,227
484,863;15859,736;    2,152;    1,136
485,449;16549,728;    0,152;    0,318
486,035;16556,275;   -0,666;   -0,136
486,622;17062,609;   -2,393;    0,045
487,208;16962,321;    1,334;    1,500
487,794;16782,811;    0,971;    0,318
488,380;16924,017;    0,698;   -1,409
488,967;16975,760;   -1,120;   -0,409
489,553;17051,746;   -1,029;   -1,409
490,139;17249,649;    0,971;    0,773
490,725;16595,176;    0,789;   -0,227
491,311;16052,523;    1,516;    3,045
491,897;15174,930;   -0,665;    1,500
492,483;14908,080;    0,426;    1,227
493,069;14516,589;    5,426;    0,864
493,655;14510,443;    1,789;    0,682
494,241;14456,699;    1,517;   -0,955
494,826;14904,459;    0,335;   -1,045
495,412;14295,131;    0,335;   -0,682
495,998;14482,592;    0,971;   -0,318
496,584;14673,258;    2,244;    1,045
497,169;14637,835;    2,335;   -0,682
497,755;14572,864;    1,244;    1,227
498,341;15170,003;    2,153;    0,318
498,926;14653,471;    2,881;    1,955
499,512;14911,369;   -0,028;    2,955
500,097;15060,880;   -0,574;   -0,318
500,683;15039,253;   -0,028;    2,136
501,268;15455,317;    1,881;   -0,955
501,854;15138,091;   -0,119;    1,227
502,439;15020,675;   -0,573;   -1,773
503,024;15240,171;    1,608;    0,500
503,610;15285,617;    1,335;   -0,682
504,195;15350,174;    1,245;    1,955
504,780;15474,011;    2,335;    1,227
505,366;15229,015;    4,063;    2,864
505,951;14940,182;   -1,119;    1,045
506,536;14949,858;    1,427;   -3,682
507,121;14958,084;    1,699;   -0,318
507,706;15530,309;   -0,392;    1,045
508,291;15971,196;   -2,937;    1,136
508,876;15416,567;   -0,482;    2,591
509,461;14779,084;    1,427;   -0,773
510,046;15220,243;   -0,391;    0,318
510,631;15459,726;   -0,119;   -0,773
511,216;15133,074;   -0,664;   -0,500
511,801;15513,775;   -0,755;    2,591
512,386;15850,806;    0,972;    0,500
512,971;15793,663;    0,427;    0,955
513,555;15269,446;    1,154;   -1,500
514,140;16154,490;    1,336;   -3,136
514,725;16175,279;    1,791;   -1,136
515,309;16293,647;    1,064;    0,318
515,894;15671,780;   -0,300;   -2,227
516,479;16152,742;    1,973;   -0,955
517,063;15980,067;    0,882;    1,227
517,648;16168,306;    0,155;   -1,136
518,232;15816,046;   -1,300;   -1,409
518,817;16136,858;    1,337;    1,682
519,401;16325,555;    0,700;    0,591
519,985;15805,530;    2,700;    1,136
520,570;15711,643;   -0,118;   -1,955
521,154;16058,354;    0,064;    0,591
521,738;16211,393;    1,064;    2,409
522,323;16851,813;   -0,390;    1,682
522,907;16576,588;    2,428;   -0,136
523,491;16251,995;    1,155;    0,955
524,075;16213,261;    0,428;    0,591
524,659;16309,415;    0,973;    0,591
525,243;15706,872;    0,883;    0,409
525,827;15966,695;    0,883;   -0,045
526,411;16914,415;    1,155;   -0,136
526,995;17193,433;    0,337;    1,409
527,579;16747,147;    1,974;   -1,045
528,163;17050,594;    0,428;   -1,500
528,747;16994,613;    1,065;   -0,773
529,331;17325,213;    0,883;   -1,409
529,915;17542,567;    2,338;    0,955
530,499;17486,986;    0,247;    1,227
531,082;17139,755;    1,065;    1,591
531,666;16552,548;    0,520;    0,773
532,250;17313,243;    0,428;    2,682
532,833;17664,351;    0,610;    2,773
533,417;17551,051;    1,247;    0,864
534,001;17513,086;    0,429;   -0,318
534,584;18269,787;    1,974;    0,500
535,168;18113,304;    3,247;    1,409
535,751;18197,234;    4,520;    0,045
536,334;17577,727;    4,520;   -0,409
536,918;18278,356;    1,974;    1,591
537,501;18382,557;    1,520;    1,318
538,085;18353,567;    1,702;    1,045
538,668;18536,379;    0,883;    2,409
539,251;18913,190;    3,156;    3,773
539,834;18909,860;    0,156;    0,773
540,418;18849,843;    3,247;    4,318
541,001;18991,512;    2,702;    1,773
541,584;19019,425;    1,429;    2,227
542,167;18696,572;    0,702;    2,955
542,750;18876,464;    0,793;   -0,773
543,333;18435,995;    1,429;    2,136
543,916;19288,532;   -0,298;    2,500
544,499;19957,913;    2,520;    0,227
545,082;19986,830;    0,248;    3,591
545,665;20181,205;   -0,207;    1,500
546,248;20513,904;    0,520;   -0,318
546,830;20142,888;   -1,752;    1,955
547,413;20642,002;    0,157;   -0,773
547,996;21206,881;    0,157;    0,500
548,579;20949,817;   -0,843;    0,955
549,161;20771,189;    0,884;    2,682
549,744;20566,489;    0,612;    0,409
550,326;21076,609;    0,885;   -1,136
550,909;20792,957;    2,339;    0,591
551,492;21256,614;    0,521;    0,227
552,074;21062,380;   -0,024;   -1,318
552,657;21644,541;    2,430;    0,045
553,239;21342,431;   -3,024;   -0,773
553,821;21279,053;   -1,570;    1,045
554,404;20772,219;   -0,024;    1,136
554,986;21181,210;    2,248;    1,045
555,568;21784,372;    0,430;   -0,955
556,151;20895,093;    4,067;   -0,227
556,733;21157,501;   -1,388;   -0,864
557,315;21680,961;    4,703;    0,500
557,897;21493,323;    0,521;   -0,500
558,479;21629,024;    1,703;    1,318
559,061;21757,455;    1,067;   -0,864
559,643;22105,491;   -0,297;    0,045
560,225;22513,926;   -0,388;    2,864
560,807;22585,855;    0,340;    0,318
561,389;22074,088;   -1,206;    2,318
561,971;22798,089;   -0,660;    2,136
562,553;22653,232;    0,613;    1,591
563,135;22797,042;    1,249;    1,136
563,717;22400,083;    3,158;    1,136
564,298;23193,535;    3,976;   -0,045
564,880;22874,118;    0,340;   -1,409
565,462;23108,300;    1,977;    1,318
566,043;24445,952;   -0,933;    2,318
566,625;23937,755;    4,067;    1,227
567,207;23820,469;    0,704;    1,682
567,788;25093,268;   -0,114;    1,500
568,370;26021,138;   -1,841;   -0,500
568,951;25876,515;   -0,569;    0,227
569,533;26861,794;    0,977;   -0,500
570,114;27456,843;   -0,296;    0,682
570,695;28006,222;   -0,478;   -1,318
571,277;28654,940;   -0,205;   -1,682
571,858;29558,014;    2,704;   -1,136
572,439;30612,428;    0,795;   -1,045
573,021;30868,134;    0,432;   -2,773
573,602;31436,038;    1,795;    0,318
574,183;32476,099;   -0,114;    2,227
574,764;32784,112;    2,068;    0,409
575,345;33444,816;    0,250;   -0,136
575,926;34174,547;    2,704;    0,136
576,507;34184,206;    2,704;   -0,227
577,088;35345,534;    1,704;    1,682
577,669;35390,227;    1,704;    1,955
578,250;36276,281;   -0,750;   -1,045
578,831;37064,008;   -0,841;   -2,227
579,412;37438,766;   -1,205;    0,955
579,993;38474,229;    1,432;    0,227
580,573;38791,642;   -0,023;   -0,955
581,154;37711,004;    1,613;   -0,591
581,735;38610,632;    0,341;    0,773
582,315;38113,814;    0,523;    2,136
582,896;38506,203;   -1,750;    1,227
583,477;37922,821;    0,614;    1,227
584,057;38063,557;    1,159;    0,955
584,638;38364,320;   -2,750;    2,318
585,218;38274,347;    2,886;    2,682
585,799;38460,903;    1,977;   -0,227
586,379;38475,171;    1,250;    1,591
586,959;37092,169;    2,613;    0,318
587,540;36218,496;    0,432;    2,227
588,120;35594,842;   -1,113;   -0,045
588,700;34429,547;    2,977;    2,136
589,281;34746,481;    1,250;   -0,955
589,861;34638,511;   -0,296;   -1,682
590,441;34429,146;   -1,477;   -2,682
591,021;33334,032;    1,432;   -2,591
591,601;33498,560;    0,431;    0,500
592,181;33435,446;   -1,296;   -0,773
592,761;32677,375;    2,250;    1,409
593,341;32535,938;    1,522;    0,045
593,921;32490,590;   -0,569;    1,591
594,501;32307,932;    1,250;    1,318
595,081;32168,687;    0,522;   -0,318
595,661;32541,810;    1,068;    0,955
596,240;33124,231;   -1,023;    0,136
596,820;32727,447;    2,613;    1,955
597,400;33007,984;    1,977;    0,773
597,980;33232,515;   -0,750;    1,045
598,559;33232,577;    0,341;   -0,227
599,139;32876,482;   -0,750;   -1,227
599,718;32732,755;    0,795;   -0,409
600,298;32989,612;   -2,387;    0,682
600,877;33219,740;    4,795;    1,409
601,457;33517,320;    0,340;    1,136
602,036;33454,818;    1,795;    2,045
602,616;33719,137;    2,250;    1,682
603,195;34008,578;    0,431;    3,500
603,774;33531,811;   -0,296;    2,045
604,354;33429,714;    2,522;   -0,500
604,933;32796,607;    0,250;    1,864
605,512;32977,995;    2,340;    0,591
606,091;33030,442;    1,886;    3,773
606,671;33832,754;    0,249;    0,773
607,250;32800,055;    1,431;    3,136
607,829;33122,452;    1,158;    3,227
608,408;32971,560;    4,613;    2,591
608,987;31918,933;    2,704;    3,409
609,566;32234,461;    0,341;   -2,500
610,145;32239,682;    2,885;    0,682
610,723;32728,957;    1,613;    6,864
611,302;31903,076;    1,067;    1,682
611,881;31385,555;    5,158;   11,227
612,460;32212,381;    0,795;    3,955
613,039;32647,674;    1,703;    2,045
613,617;31311,635;    0,886;    4,773
614,196;31483,052;    1,613;    1,227
614,775;31828,064;    1,249;    2,409
615,353;31810,235;   -1,660;    0,864
615,932;31397,425;    0,249;    2,409
616,510;32025,050;    0,158;    0,591
617,089;31486,251;    8,794;   17,591
617,667;31210,166;    4,885;    6,136
618,246;30976,302;   -1,115;    1,318
618,824;31188,324;    1,612;   -0,955
619,402;30666,247;    0,431;   -1,773
619,981;31212,970;    1,067;   -1,045
620,559;31058,078;    0,794;    1,682
621,137;30519,674;    3,067;    1,864
621,715;30507,403;    3,703;   -0,682
622,293;30442,079;    1,885;   -0,773
622,871;30978,780;    0,340;    0,500
623,450;30426,449;    0,430;   -0,864
624,028;30307,008;   -0,388;   -0,955
624,606;29880,884;    2,339;    1,682
625,183;30298,193;   -0,661;   -1,136
625,761;29850,452;    1,885;    1,136
626,339;30145,376;    2,339;    2,591
626,917;30572,059;    0,339;   -0,045
627,495;30584,228;    2,794;    1,318
628,073;30007,411;    5,248;    2,864
628,650;29659,176;    3,067;    2,136
629,228;30142,154;    1,248;    4,409
629,806;29467,114;   -0,024;    1,136
630,383;29716,470;    0,066;   -0,318
630,961;29412,967;   -2,206;   -0,955
631,539;29188,316;   -2,479;    0,227
632,116;28362,149;   12,703;   15,409
632,694;29013,499;    4,885;    6,500
633,271;29390,619;    1,975;    2,682
633,848;29304,003;    1,430;    2,045
634,426;29279,804;    1,521;    1,773
635,003;28409,251;   -0,207;   -0,409
635,580;28725,739;    1,884;    3,682
636,158;29287,198;    3,793;    1,227
636,735;29270,382;    3,339;   -0,500
637,312;29408,948;    0,521;   -0,682
637,889;29473,697;    2,248;   -0,682
638,466;28933,653;    0,066;   -0,409
639,043;28924,544;    1,702;   -1,136
639,620;29308,494;    0,611;   -0,955
640,197;29623,118;    1,612;    1,682
640,774;29737,290;    1,430;    1,136
641,351;30171,644;    0,612;    1,136
641,928;29534,543;    2,794;    1,409
642,505;29153,806;    0,794;   -0,500
643,082;29310,069;    1,885;    1,227
643,658;28228,969;    1,157;    1,500
644,235;28971,504;   -2,479;    2,500
644,812;29340,767;    1,794;    0,773
645,388;29055,212;    1,612;    1,409
645,965;29139,293;    1,521;    1,682
646,542;29184,374;    3,430;   -0,227
647,118;29173,001;    3,703;   -0,955
647,695;29480,900;    0,339;    1,136
648,271;29415,800;   -2,115;    0,500
648,848;29760,972;    0,248;    2,227
649,424;29539,416;    0,976;    1,318
650,000;29298,043;   -0,388;   -1,045
650,577;29116,579;    0,158;   -0,955
651,153;29647,660;   -1,115;    0,955
651,729;30693,377;    0,521;    0,864
652,305;30975,368;    1,339;    2,773
652,881;36315,176;   -1,297;    1,136
653,458;44462,530;    0,249;    0,227
654,034;49198,520;    0,703;    1,591
654,610;51120,783;    0,339;    0,773
655,186;52628,773;    1,612;    3,045
655,762;52311,218;   -1,842;    0,409
656,338;52396,481;    0,703;    0,136
656,913;53529,835;   -0,297;    0,409
657,489;52767,007;    0,249;   -0,318
658,065;52656,997;    0,794;   -1,591
658,641;53149,533;    2,158;   -0,864
659,217;52490,796;    2,067;    0,409
659,792;51874,331;   -1,751;   -0,409
660,368;52152,504;   -0,388;   -0,682
660,944;51681,403;    1,794;    1,227
661,519;46320,393;    0,522;    0,409
662,095;38966,565;   -0,206;    0,591
662,670;33312,374;   -0,206;   -0,136
663,246;31816,273;   -0,660;   -0,409
663,821;30978,536;    0,431;    1,682
664,396;30448,344;    0,613;    1,864
664,972;30703,880;   -0,660;   -0,500
665,547;31062,870;    3,794;    0,136
666,122;31031,133;    1,340;    0,318
666,698;31393,123;    2,431;    0,318
667,273;30629,750;    0,885;    0,136
667,848;31454,831;    0,340;    1,500
668,423;31254,912;    1,795;    2,318
668,998;31923,721;    0,976;   -0,682
669,573;32514,347;    2,067;   -1,500
670,148;32263,065;    1,885;   -0,682
670,723;32129,691;   -0,024;    0,318
671,298;32564,045;   -1,296;    1,045
671,873;32675,854;   -0,296;   -0,136
672,448;32636,571;    1,704;    0,136
673,023;33009,470;    0,249;   -0,227
673,597;33296,461;    2,704;    2,318
674,172;33018,087;    2,431;    0,318
674,747;32562,714;   -0,205;   -1,045
675,321;32393,886;   -0,933;    3,318
675,896;31932,967;    2,158;    1,045
676,471;33024,866;    2,522;    1,591
677,045;32772,948;   -0,296;    0,682
677,620;32810,301;    2,158;    1,136
678,194;33154,928;    0,249;    1,136
678,769;32665,464;    0,886;   -0,318
679,343;32874,363;   -0,023;    1,773
679,917;32809,626;    0,340;    1,955
680,492;32881,616;    0,249;    3,227
681,066;33009,334;    0,613;    0,409
681,640;33075,779;    1,795;   -0,318
682,214;33932,405;    2,340;    0,500
682,788;33421,850;    0,613;   -0,773
683,363;33439,840;    1,977;    1,682
683,937;33054,649;    0,886;   -0,318
684,511;33881,912;   -1,023;   -0,591
685,085;33602,720;   -1,478;    0,318
685,659;33353,347;    1,431;    0,864
686,232;33492,700;    1,159;   -0,318
686,806;33285,054;    2,159;    0,409
687,380;34015,408;   -1,932;    0,591
687,954;34206,035;    2,432;    1,136
688,528;33883,661;    2,613;    1,955
689,101;34697,470;    0,432;    1,045
689,675;34291,005;    0,886;   -0,136
690,249;33590,723;    3,432;    0,409
690,822;33869,895;    1,159;    0,318
691,396;33973,613;    2,068;    1,227
691,969;33433,330;    2,523;    0,136
692,543;33878,684;   -0,568;   -1,955
693,116;33459,856;   -0,659;   -1,409
693,690;33224,483;   -0,296;    0,500
694,263;33864,836;    2,341;    2,955
694,836;33930,099;    2,795;    3,591
695,410;32560,181;    1,159;    1,773
695,983;33049,262;    1,614;    0,591
696,556;33026,434;   -0,750;   -1,045
697,129;33417,788;   -1,114;    1,409
697,703;33006,596;    1,341;    1,955
698,276;32969,768;    1,705;   -0,773
698,849;32751,395;   -1,023;    1,409
699,422;33156,112;    1,250;    0,591
699,995;32798,557;   -0,659;    0,136
700,568;33317,274;   -0,204;    3,045
701,140;33328,628;   -1,841;    1,682
701,713;33034,437;    0,341;    2,409
702,286;32828,700;    0,796;    0,864
702,859;32727,781;    0,614;   -0,591
703,432;31766,407;   -0,841;    0,682
704,004;32372,852;    1,978;    0,318
704,577;32186,479;    1,068;    0,136
705,150;32781,924;    0,887;    2,500
705,722;32581,187;    1,523;   -3,227
706,295;32354,813;    1,432;   -0,591
706,867;32138,622;    0,250;    1,955
707,440;32364,066;   -0,113;   -0,409
708,012;32645,784;   -0,022;    0,591
708,584;32592,047;    2,705;    0,227
709,157;32896,128;    1,160;   -0,591
709,729;32481,755;    1,069;    2,045
710,301;33353,927;   -1,204;    0,045
710,874;33368,008;    0,341;   -0,227
711,446;32215,362;   -0,295;    0,864
712,018;32084,625;   -3,022;    0,500
712,590;31826,615;   -0,204;    1,682
713,162;32426,060;   -0,477;    1,318
713,734;32636,959;    1,796;   -2,045
714,306;32541,858;    0,342;   -0,409
714,878;31126,030;   -0,295;    0,864
715,450;31924,566;   -0,113;    0,864
716,022;32233,465;    2,433;    1,318
716,593;32380,092;    0,978;    0,591
717,165;32302,264;    1,796;   -1,227
717,737;32004,436;    0,796;    0,409
718,309;31654,335;    1,160;   -0,045
718,880;31601,689;   -1,295;   -1,409
719,452;31827,225;    0,887;   -1,591
720,024;31339,397;    1,705;   -0,591
720,595;31914,478;    2,978;    0,955
721,167;31439,923;    1,160;   -2,045
721,738;30923,549;    2,069;   -1,045
722,309;30826,449;    1,251;   -1,227
722,881;30596,530;    2,705;    0,773
723,452;31351,429;    1,251;    2,864
724,023;31571,601;    1,524;    2,682
724,595;31320,592;    2,342;    0,682
725,166;31021,764;    1,524;   -0,409
725,737;30626,481;    1,887;    0,227
726,308;30698,017;    0,797;    0,318
726,879;31160,643;    1,069;    1,227
727,450;30998,906;   -2,022;   -0,045
728,021;30971,897;    1,069;    0,682
728,592;30804,523;    1,160;    0,500
729,163;31130,786;    1,433;   -0,136
729,734;31165,049;    2,160;   -0,227
730,305;31543,403;    0,615;    0,136
730,876;31814,302;    0,888;    2,955
731,447;31515,383;    0,797;    2,682
732,017;31687,465;   -0,840;    1,864
732,588;31246,000;   -0,021;    1,227
733,159;31436,809;    3,615;   -1,045
733,729;31229,890;    1,251;    0,409
734,300;30498,244;    0,160;    0,864
734,870;30919,688;   -1,385;    0,591
735,441;31468,133;    0,888;   -0,591
736,011;31201,942;    1,070;   -1,591
736,582;31196,659;    1,251;    0,045
737,152;30616,286;    0,979;   -2,045
737,722;31069,731;    1,070;   -0,682
738,293;30781,084;   -2,021;    1,318
738,863;30619,075;    1,797;    2,318
739,433;30399,247;    4,524;    0,318
740,003;31017,146;    1,524;   -0,682
740,573;30448,409;    2,252;   -1,591
741,143;30369,763;    3,615;    0,318
741,713;31142,935;    0,252;   -0,500
742,283;30779,561;    1,706;    1,591
742,853;30522,824;    0,524;    1,591
743,423;29939,360;    0,161;    0,045
743,993;30111,259;    1,070;    1,500
744,563;29386,795;    2,524;   -0,864
745,133;29324,149;   -0,112;   -0,864
745,702;30105,503;    2,797;    1,773
746,272;29240,311;    0,434;    0,591
746,842;29016,665;   -0,748;   -0,591
747,411;29483,019;   -0,839;   -0,318
747,981;29657,827;   -0,930;    0,500
748,551;29730,000;   -0,021;   -1,045
749,120;29574,626;   -0,112;   -0,227
749,690;29978,435;    2,161;    2,409
750,259;30267,697;    0,979;    2,955
750,828;30104,779;    4,070;   -1,955
751,398;30373,133;   -0,112;   -0,045
751,967;29882,668;    2,888;    0,409
752,536;30122,295;    1,161;   -0,227
753,105;30605,921;   -1,384;    0,227
753,675;30423,912;   -0,112;    1,773
754,244;30345,811;    0,888;    3,591
754,813;30417,347;    0,979;    1,227
755,382;30049,428;    0,798;    0,955
755,951;30562,873;   -0,112;    3,682
756,520;30087,317;    2,525;    1,864
757,089;30691,762;    1,888;    0,500
757,658;30855,298;    2,434;    1,227
758,227;30852,379;   -1,111;    0,318
758,795;31219,096;   -1,021;    1,136
759,364;31501,814;    0,525;   -0,591
759,933;30420,077;    1,343;   -0,045
760,501;29886,976;    0,252;   -1,318
761,070;30391,966;   -0,293;   -1,409
761,639;31108,411;    1,434;    1,318
762,207;30392,311;    0,889;   -0,955
762,776;30275,664;    2,889;    0,864
763,344;30221,200;    0,071;    0,591
763,913;29338,009;    1,616;    1,409
764,481;30141,635;    1,980;   -0,136
765,049;29897,534;    0,616;    1,409
765,618;29736,070;    1,434;    0,318
766,186;29817,788;    2,434;    0,136
766,754;29987,232;    1,798;    1,864
767,322;28902,132;    1,162;    0,409
767,890;28947,122;    0,525;   -1,773
768,459;29365,203;    2,616;   -0,318
769,027;29523,102;    2,525;    3,409
769,595;28462,638;    2,616;    2,591
770,163;28938,356;    3,344;    2,955
770,730;28619,528;    2,525;   -0,136
771,298;28482,518;    1,162;   -1,409
771,866;28563,599;    0,253;    4,955
772,434;28844,317;    1,162;   -1,864
773,002;29021,489;    2,616;    0,682
773,569;28639,388;    1,071;    1,682
774,137;28486,651;    0,889;   -0,045
774,705;29277,459;   -0,747;   -0,136
775,272;28725,177;    0,253;    0,682
775,840;28503,622;   -0,111;    2,682
776,407;27951,066;   -0,293;    1,955
776,975;27513,329;    1,162;    0,318
777,542;28624,320;    2,162;   -0,045
778,110;28484,219;    0,707;   -0,045
778,677;28104,573;    1,071;   -0,864
779,244;27840,290;   -1,020;    1,045
779,812;27970,917;    0,980;    0,864
780,379;27810,180;    2,435;    1,136
780,946;28047,625;    2,617;   -0,773
781,513;28347,069;   -0,565;    0,318
782,080;27671,878;    1,253;    2,864
782,647;28479,686;    1,708;    3,045
783,214;28028,767;   -0,201;    3,864
783,781;27592,212;    1,708;   -0,682
784,348;27496,021;    0,253;    1,500
784,915;27964,011;   -1,474;    0,318
785,482;27675,547;    2,708;    2,591
786,049;28140,537;    1,071;   -0,591
786,615;28285,527;    1,708;   -0,955
787,182;28030,790;   -3,201;   -0,682
787,749;27677,507;   -2,201;    1,409
788,315;26936,225;    0,253;   -0,409
788,882;27299,215;    0,981;   -1,227
789,448;27976,296;    1,435;   -0,955
790,015;28016,287;    1,799;    3,227
790,581;27494,459;    0,708;    0,227
791,148;27381,176;    1,344;    1,045
791,714;27643,621;   -1,019;    3,136
792,280;27303,066;    3,708;    1,591
792,847;26805,783;   -0,928;    2,500
793,413;27479,046;   -0,110;   -0,318
793,979;26933,946;    1,526;   -1,318
794,545;26984,208;    2,981;    2,682
795,111;26351,471;    2,435;    1,318
795,678;26511,280;    3,526;   -1,682
796,244;26149,452;    2,799;    0,136
796,810;26790,169;    0,799;    0,773
797,375;26468,251;   -0,292;   -2,136
797,941;26483,423;   -1,110;    0,591
798,507;26636,686;    0,254;   -0,955
799,073;26169,767;    2,708;    0,591
799,639;26224,121;    1,435;    3,136
800,205;26273,838;   -1,565;    2,682
800,770;25714,374;    1,345;    1,773
801,336;25800,819;    2,981;   -0,955
801,901;25487,718;    6,072;    3,136
802,467;26066,981;    0,526;    2,045
803,033;25410,335;   -0,019;    0,864
803,598;25583,870;    1,072;   -1,045
804,163;25644,315;    0,708;   -0,318
804,729;25543,942;   -0,110;    1,136
805,294;25973,114;    1,072;    2,227
805,859;25794,195;    0,890;   -0,409
806,425;25200,549;    3,890;    2,682
806,990;24856,175;    1,890;    4,318
807,555;25434,529;   -0,110;    2,591
808,120;25284,065;   -1,292;   -0,409
808,685;25315,237;    1,072;   -2,500
809,250;24753,955;    2,072;   -0,500
809,815;25118,399;   -0,201;    0,682
810,380;25643,026;    0,981;    1,591
810,945;26250,562;    2,890;    2,045
811,510;25431,552;   -0,200;    1,591
812,075;25041,178;    2,800;   -1,409
812,640;25073,623;    3,709;    1,409
813,204;25107,795;    2,163;   -0,227
813,769;25618,967;    0,254;   -0,045
814,334;24995,685;    0,527;    0,864
814,898;25023,221;    1,981;    0,591
815,463;24861,938;    0,981;   -0,773
816,027;24821,746;    1,345;   -2,318
816,592;24949,464;    2,163;   -2,045
817,156;24441,818;   -2,200;    1,136
817,721;24206,444;    0,982;    2,318
818,285;24203,889;    0,618;    1,500
818,849;24873,425;   -0,018;    1,682
819,414;24757,597;    0,073;    2,955
819,978;24312,587;   -0,291;    1,773
820,542;24919,668;    2,891;    0,500
821,106;24631,022;    2,800;    0,682
821,670;24659,558;    2,709;    2,591
822,234;24357,184;    1,073;    1,409
822,798;23681,538;   -0,836;    0,500
823,362;23690,074;    1,527;    4,227
823,926;22957,701;   -0,018;    1,136
824,490;23159,964;    3,527;   -0,682
825,054;23619,772;    2,527;   -1,136
825,618;23182,580;   -1,200;   -1,500
826,181;23146,025;    0,982;   -1,318
826,745;23061,197;   -0,745;   -1,045
827,309;23385,278;    2,255;    1,318
827,872;22764,269;    0,527;    0,955
828,436;23827,168;    1,982;   -0,773
828,999;23880,976;    2,436;    1,227
829,563;22615,694;   -0,654;    1,136
830,126;22416,866;   -0,018;   -0,591
830,690;22424,129;    0,709;    2,864
831,253;21944,755;   -0,473;    2,227
831,816;22069,655;   -0,018;    0,500
832,380;21962,827;    1,164;    0,864
832,943;22135,363;    3,073;   -0,500
833,506;21640,080;    0,255;   -1,227
834,069;22489,798;    2,164;   -0,955
834,632;22534,242;   -2,200;    1,318
835,195;22408,960;    1,346;    0,955
835,758;21583,223;    0,709;    1,955
836,321;21368,395;    1,073;   -1,045
836,884;21460,749;   -1,291;   -0,955
837,447;21549,830;    0,528;    1,773
838,010;21763,275;    1,800;    3,227
838,573;22127,538;    0,528;    0,773
839,135;22036,346;   -0,109;   -0,955
839,698;21464,245;    2,528;    0,409
840,261;20957,963;    0,255;   -0,227
840,823;20824,317;   -0,927;    0,864
841,386;21117,852;   -0,018;   -2,409
841,948;20940,752;    0,255;    1,773
842,511;20660,924;    0,255;    1,682
843,073;20842,732;    2,982;    0,227
843,636;20620,177;    0,619;   -0,227
844,198;20535,440;    1,255;    0,591
844,760;20668,612;    0,619;    1,955
845,322;20288,148;    0,164;    1,136
845,885;20752,502;   -0,290;    0,591
846,447;21189,765;    0,710;    0,227
847,009;20703,118;    3,983;   -0,682
847,571;21058,381;    1,346;   -2,045
848,133;21172,281;   -0,199;   -1,864
848,695;21013,635;    2,346;    1,409
849,257;20536,079;    1,346;   -1,682
849,819;20692,706;    2,983;   -0,409
850,381;20776,514;    1,801;   -0,864
850,942;21189,959;    1,892;   -0,591
851,504;21075,222;    0,983;    0,227
852,066;21153,394;    1,619;   -1,591
852,628;20633,930;    0,165;    1,955
853,189;20188,829;    0,256;    2,682
853,751;20320,910;   -0,654;    1,409
854,312;20149,264;    1,256;   -1,682
854,874;20686,527;   -0,108;   -0,773
855,435;21207,245;    0,528;   -1,682
855,997;21337,235;    3,983;   -0,136
856,558;20552,589;    0,801;    1,773
857,119;20659,579;   -0,744;    2,864
857,681;20338,842;   -0,108;    0,318
858,242;20341,832;    1,347;   -2,136
858,803;20820,368;    1,074;   -0,773
859,364;21407,813;    0,892;   -4,773
859,925;20686,712;   -0,290;   -0,955
860,486;20654,793;    0,529;   -0,955
861,047;20375,056;    0,165;   -1,227
861,608;20185,955;    0,165;   -0,773
862,169;20311,127;   -0,562;   -0,045
862,730;20056,663;   -0,290;    1,409
863,291;20276,017;    0,438;   -0,500
863,852;20623,007;   -0,926;    1,955
864,412;20094,907;   -1,835;   -0,864
864,973;18600,533;    1,892;    0,500
865,534;18482,978;    2,074;    0,227
866,094;20015,968;    2,620;    0,227
866,655;19623,867;    4,711;    3,318
867,215;19922,403;    0,074;    0,136
867,776;19775,030;   -1,199;   -0,136
868,336;19871,565;    1,529;    0,136
868,897;19275,738;    3,438;    1,682
869,457;19007,637;    3,256;    0,318
870,017;19260,536;    2,438;   -1,227
870,578;19827,163;    1,893;    0,773
871,138;19463,971;    2,620;   -0,955
871,698;18968,598;   -0,562;   -1,318
872,258;18830,861;    0,711;   -2,864
872,818;19191,669;    2,347;    0,045
873,378;19144,750;   -2,198;    1,045
873,938;18697,104;    4,984;    0,500
874,498;19017,822;    1,256;   -1,955
875,058;18876,812;    4,347;    1,773
875,618;18764,984;    1,438;   -2,682
876,177;18742,065;   -0,471;    0,136
876,737;18285,601;   -0,289;    1,955
877,297;18299,136;    2,711;    1,955
877,856;18317,399;    2,529;    0,318
878,416;18235,753;    2,438;   -0,136
878,976;18480,016;    3,438;    0,409
879,535;18659,279;    4,529;    3,136
880,095;18356,451;    1,347;    0,045
880,654;18489,896;    0,347;    1,318
881,213;18573,977;    2,347;    1,500
881,773;18231,695;    1,984;    2,682
882,332;18548,594;    6,075;    5,136
882,891;18413,584;    0,711;    2,136
883,451;18919,847;   -2,016;    1,682
884,010;18359,383;   -1,107;   -0,409
884,569;18450,555;   -2,289;   -0,045
885,128;18596,818;   -0,743;   -1,864
885,687;18622,899;   -0,743;    0,682
886,246;18292,798;    2,620;    2,136
886,805;18031,970;    1,620;    2,045
887,364;18402,324;    1,166;   -0,500
887,922;18763,496;   -0,016;    0,045
888,481;18211,578;    1,530;    0,591
889,040;18544,113;    3,711;    2,136
889,599;19264,831;    2,166;    1,409
890,157;19322,912;    2,166;    2,409
890,716;19030,538;    2,166;    0,227
891,274;18810,256;    0,075;   -1,136
891,833;19186,610;    1,166;    0,864
892,391;19069,691;    1,802;    0,500
892,950;19204,227;    0,166;   -0,773
893,508;19548,308;    0,984;   -0,409
894,067;18876,480;   -0,379;    0,136
894,625;18765,834;   -1,016;   -1,500
895,183;18958,279;   -0,198;   -0,682
895,741;18895,360;    2,257;   -1,773
896,299;18712,532;    1,621;   -2,409
896,858;18929,340;    1,530;   -1,591
897,416;19015,785;    0,166;   -1,318
897,974;18790,139;   -2,197;    0,318
898,532;18900,856;    6,530;    2,682
899,089;18776,301;    0,621;   -0,682
899,647;18888,655;    0,530;    1,318
900,205;18551,918;    0,257;    1,045
900,763;18766,999;    2,166;    0,227
901,321;18755,535;    3,530;   -1,409
901,878;18213,161;    3,257;   -0,773
902,436;18052,061;    0,257;    1,318
902,994;18452,960;    6,712;    3,682
903,551;17853,768;    1,439;    0,409
904,109;18267,486;    1,530;   -1,409
904,666;17796,840;    1,439;    1,045
905,224;17597,194;    3,894;   -0,409
905,781;17322,093;   -0,470;   -0,318
906,338;17439,083;    0,167;    1,045
906,895;17371,619;    1,894;    2,045
907,453;17279,336;    2,348;    1,136
908,010;17283,781;    3,348;    0,409
908,567;16919,044;   -0,561;    0,591
909,124;16430,671;    2,439;   -1,500
909,681;16477,934;   -1,288;    0,682
910,238;16639,560;   -0,106;   -1,318
910,795;16933,369;   -1,561;   -1,136
911,352;16568,551;   -0,379;   -2,682
911,909;15893,096;    2,803;   -0,864
912,466;16428,096;    1,985;    1,500
913,022;15934,914;   -0,924;    0,500
913,579;16338,005;   -0,470;    2,045
914,136;16032,460;   -2,561;    0,955
914,692;16379,823;    1,530;   -1,227
915,249;15889,187;    0,530;    0,409
915,806;16117,187;    1,803;    1,955
916,362;15842,641;    0,894;    1,864
916,918;15351,732;    2,439;    1,045
917,475;15362,914;    1,621;    0,955
918,031;15477,823;    0,076;   -0,045
918,587;14909,460;    0,621;   -0,318
919,144;15116,005;   -0,379;    0,227
919,700;15447,823;    0,167;    0,773
920,256;14998,732;    0,439;    0,045
920,812;14628,005;    1,439;   -1,045
921,368;14556,551;    1,348;   -1,045
921,924;14175,369;    0,439;   -0,136
922,480;13736,278;    0,076;    1,227
923,036;14369,096;   -0,652;    1,955
923,592;14341,641;    0,621;    0,318
924,148;14190,096;    1,894;   -0,955
924,704;13500,641;    0,258;   -0,409
925,259;13780,187;   -0,561;    0,591
925,815;13472,823;    3,803;    0,500
926,371;13026,641;    3,530;    1,409
926,926;12910,551;    1,621;    0,591
927,482;12480,641;    1,621;    0,773
928,037;12355,096;   -0,833;    2,045
928,593;12645,278;    0,258;    1,045
929,148;12435,005;    1,167;   -1,500
929,704;11925,187;    2,439;   -0,500
930,259;12116,278;    0,894;   -0,136
930,814;11149,005;    1,803;    1,955
931,369;10824,460;    0,258;   -0,773
931,925;10704,187;   -1,924;    0,136
932,480;10551,369;    3,076;   -2,591
933,035;10413,732;    3,985;   -0,318
933,590;10173,641;   -1,742;   -1,773
934,145; 9808,278;   -1,288;   -0,318
934,700;10183,732;    0,348;   -0,591
935,255; 9920,732;    4,803;    0,045
935,809; 9125,096;    6,258;    0,864
936,364; 8232,551;    2,167;   -0,136
936,919; 8168,187;    2,348;   -1,773
937,474; 8058,914;    1,348;    0,136
938,028; 7810,187;    3,076;    1,136
938,583; 7225,369;    6,348;    4,682
939,138; 7535,187;    0,167;    2,136
939,692; 6951,641;   -1,015;   -1,136
940,247; 6584,732;    1,167;   -1,045
940,801; 6102,096;    0,621;    0,227
941,355; 5983,278;    0,439;    2,591
941,910; 5634,914;    0,712;   -2,136
942,464; 5722,369;    2,712;   -0,318
943,018; 5490,005;    3,258;   -0,227
943,572; 5416,460;    2,803;   -0,682
944,126; 4790,823;   -0,924;   -0,409
944,681; 4677,914;    0,712;    0,227
945,235; 4663,551;    2,167;   -0,591
945,789; 4587,732;    1,258;   -1,864
946,342; 4630,096;   -0,561;   -0,591
946,896; 4458,460;    0,348;    0,955
947,450; 4220,369;   -0,561;   -0,227
948,004; 4394,914;    1,076;   -0,045
948,558; 4419,005;    1,258;   -0,864
949,111; 4324,641;   -1,197;   -0,318
949,665; 4342,641;   -0,106;   -0,682
950,219; 4213,005;    0,621;   -1,045
950,772; 4304,732;    0,258;    1,864
951,326; 4206,823;   -1,106;   -0,955
951,879; 4304,369;    1,076;   -2,318
952,433; 4317,369;    1,348;    2,227
952,986; 4156,278;    0,348;    0,682
953,539; 4094,096;    1,530;    0,591
954,093; 4049,551;    0,985;   -1,318
954,646; 4166,278;   -0,288;    1,318
955,199; 3959,460;    1,258;   -0,500
955,752; 3837,187;    1,985;    1,773
956,305; 3801,187;    0,894;    2,955
956,858; 3985,551;    0,621;   -0,318
957,411; 4172,823;    3,621;    2,136
957,964; 3985,460;    2,076;    2,136
958,517; 3973,187;    0,985;    3,136
959,070; 3798,551;   -1,197;    1,955
959,623; 3836,278;    1,076;    1,500
960,176; 3592,096;    0,712;    2,045
960,728; 3584,005;    1,712;    0,773
961,281; 3655,096;    2,258;    0,500
961,834; 3694,096;   -0,833;    0,864
962,386; 3599,278;    1,258;    1,045
962,939; 3520,732;    3,439;   -0,318
963,491; 3682,641;    2,621;    1,136
964,043; 3547,914;    0,076;    2,409
964,596; 3671,005;    1,712;    2,227
965,148; 3475,823;   -0,379;    1,773
965,700; 3437,005;   -0,015;   -0,227
966,253; 3573,914;   -0,833;    0,318
966,805; 3400,187;    1,894;    0,773
967,357; 3455,005;    0,439;   -1,500
967,909; 3376,187;    1,167;   -1,227
968,461; 3539,187;    0,894;    3,136
969,013; 3453,460;   -1,561;   -0,864
969,565; 3524,823;    1,803;   -1,136
970,117; 3549,187;    3,803;    1,045
970,669; 3389,005;    3,258;   -0,136
971,220; 3292,278;    2,167;   -1,500
971,772; 3201,551;    1,348;   -0,318
972,324; 3296,823;   -1,197;   -0,500
972,876; 3237,551;    0,167;   -0,045
973,427; 3380,732;   -1,197;   -1,045
973,979; 3369,278;    0,076;   -2,500
974,530; 3411,732;    0,803;    1,318
975,082; 3436,096;    2,167;    1,682
975,633; 3319,096;    2,894;    1,682
976,184; 3478,460;    2,076;    0,773
976,736; 3251,823;    0,348;    0,227
977,287; 2999,005;    0,258;   -0,500
977,838; 3203,823;   -0,924;   -0,318
978,389; 3259,187;    0,803;   -0,500
978,940; 3162,369;    1,258;   -0,409
979,491; 3177,732;    2,258;   -0,500
980,042; 3112,460;   -0,652;    3,045
980,593; 3201,823;    1,894;    0,227
981,144; 3227,732;    3,530;   -0,500
981,695; 3171,005;   -0,470;    1,500
982,246; 3149,278;   -1,833;    1,045
982,797; 3337,732;   -0,561;    0,682
983,347; 3445,369;    2,167;    0,591
983,898; 3585,460;    4,167;    0,409
984,449; 3401,823;    2,530;    0,773
984,999; 3343,005;    1,894;   -1,136
985,550; 3077,823;    3,167;   -0,318
986,100; 3141,187;    0,712;   -0,318
986,651; 3184,187;    0,258;    0,045
987,201; 3168,551;    0,894;   -0,591
987,751; 3257,005;   -0,288;    2,864
988,302; 3221,732;   -0,379;    1,500
988,852; 3258,187;    1,985;   -1,136
989,402; 3277,914;    0,985;    0,682
989,952; 3185,460;    1,621;    0,864
990,502; 3296,005;    1,076;    0,682
991,052; 3274,914;   -0,106;    0,045
991,602; 3120,187;    1,167;    1,318
992,152; 3120,187;    2,803;    0,682
992,702; 3098,278;    1,167;   -0,045
993,252; 3007,278;    0,076;   -0,500
993,802; 3086,551;    1,167;    1,318
994,352; 3377,005;   -0,742;    1,136
994,901; 3490,914;    1,076;    3,227
995,451; 3374,369;   -1,197;    0,318
996,000; 3461,278;    1,076;    0,318
996,550; 3148,005;    2,894;    0,227
997,100; 3174,732;   -0,561;   -0,045
997,649; 3461,823;   -0,197;    0,955
998,198; 3080,096;   -0,288;   -1,500
998,748; 3242,914;    0,348;   -2,318
999,297; 3165,460;    0,985;   -0,409
999,846; 3231,096;    1,894;   -0,773
1000,395; 3283,369;    1,530;    0,500
1000,945; 3221,187;    1,076;   -0,773
1001,494; 3304,369;    0,167;    0,682
1002,043; 3287,369;    0,712;    0,864
1002,592; 3143,914;    3,439;    1,955
1003,141; 3303,732;    2,439;   -0,682
1003,690; 3121,551;    1,258;    0,500
1004,238; 3228,914;   -0,106;   -0,045
1004,787; 2831,369;   -1,288;    1,227
1005,336; 3065,005;    1,621;    0,682
1005,885; 3238,914;   -0,197;   -2,773
1006,433; 3413,460;   -0,470;    0,955
1006,982; 3432,278;    2,167;    1,682
1007,531; 3363,823;    2,712;   -0,227
1008,079; 3346,914;    0,258;    0,500
1008,627; 3486,369;    1,621;    0,409
1009,176; 3199,096;    0,076;   -1,955
1009,724; 3262,005;   -2,742;    0,864
1010,273; 3286,641;    1,076;    0,500
1010,821; 3427,823;    1,076;    1,409
1011,369; 3152,460;    0,076;    1,318
1011,917; 3120,369;   -0,833;   -0,591
1012,465; 3406,460;    2,530;   -1,591
1013,013; 3550,096;    0,439;   -1,682
1013,561; 3382,005;   -1,288;   -0,773
1014,109; 3420,732;   -0,833;    1,682
1014,657; 3296,187;    1,348;    0,591
1015,205; 3439,732;    0,894;   -0,955
1015,753; 3469,823;    0,258;   -1,409
1016,301; 3515,641;    2,621;    3,045
1016,848; 3524,732;    2,167;    0,409
1017,396; 3536,551;    1,621;    0,045
1017,944; 3675,278;    2,621;    1,864
1018,491; 3458,641;   -0,197;    1,409
1019,039; 3576,369;   -0,652;    0,591
1019,586; 3505,096;    0,076;    1,682
1020,134; 3646,278;    0,712;    1,500
1020,681; 3634,096;    2,894;   -1,136
1021,228; 3688,460;   -0,561;   -2,227
1021,776; 3506,914;   -0,833;   -1,136
1022,323; 3691,005;    0,803;    0,773
1022,870; 3640,732;   -0,470;   -0,045
1023,417; 3536,460;    2,076;    1,864
1023,964; 3705,369;    0,621;    1,227
1024,511; 3502,914;   -0,652;    0,773
1025,058; 3287,096;    0,439;   -0,045
1025,605; 3354,914;   -1,742;    3,136
1026,152; 3547,823;   -0,106;   -0,591
1026,699; 3287,914;    0,167;    1,318
1027,245; 3471,641;    2,439;    0,318
1027,792; 3740,005;    0,712;    1,409
1028,339; 3573,732;    4,076;   -0,045
1028,885; 3397,732;    3,621;   -0,227
1029,432; 3347,005;   -0,106;    0,227
1029,978; 3413,641;    1,348;   -1,591
1030,525; 3290,551;    1,621;    0,409
1031,071; 3568,823;    0,348;    1,136
1031,618; 3635,278;    1,258;    1,682
1032,164; 3452,641;    2,076;    3,045
1032,710; 3511,005;    0,076;   -1,500
1033,256; 3433,005;    0,712;   -0,136
1033,803; 3432,551;   -0,288;    1,500
1034,349; 3154,551;    1,803;    0,136
1034,895; 3284,551;    2,621;   -0,318
1035,441; 3252,914;    0,439;    0,318
1035,987; 3268,187;   -2,288;   -0,682
1036,533; 3249,369;   -0,197;   -0,955
1037,078; 3442,369;    4,712;    1,682
1037,624; 3262,641;    2,439;   -0,955
1038,170; 3314,551;    1,712;   -0,318
1038,716; 3187,369;    2,167;   -0,409
1039,261; 3108,641;    2,167;   -0,773
1039,807; 3037,460;   -0,015;    3,409
1040,352; 3092,005;   -1,288;   -0,318
1040,898; 3141,187;    0,167;   -0,682
1041,443; 3062,005;    0,803;   -2,591
1041,989; 3037,551;    3,621;    1,591
1042,534; 2949,551;    0,985;    2,591
1043,079; 3114,096;    1,985;    0,955
1043,625; 2840,005;    0,258;    0,500
1044,170; 2878,914;    2,439;    1,045
1044,715; 3146,278;    0,167;    0,955
1045,260; 2962,096;   -0,833;   -0,955
1045,805; 3024,914;    0,258;   -0,591
1046,350; 2976,732;    0,530;   -0,409
1046,895; 2909,641;    0,803;    1,591
1047,440; 2835,369;    1,530;    0,409
1047,985; 2750,460;   -1,197;   -0,955
1048,530; 2665,732;    1,348;    1,227
1049,074; 2723,641;    2,803;    0,318
1049,619; 2703,460;   -0,924;    1,955
1050,164; 2490,732;    1,076;    0,227
1050,708; 2551,278;    2,621;    0,045
1051,253; 2897,369;    3,258;   -2,227
1051,797; 2619,914;   -0,197;   -1,318
1052,342; 2664,460;    1,348;    1,045
1052,886; 2630,641;    1,803;   -1,409
1053,430; 2516,641;    2,167;    0,136
1053,975; 2527,096;    0,894;   -0,318
1054,519; 2505,187;    1,803;    3,227
1055,063; 2499,369;    3,621;    1,318
1055,607; 2377,369;    1,348;    0,227
1056,151; 2404,005;    0,530;    1,682
1056,695; 2350,460;   -1,833;   -1,136
1057,239; 2396,551;   -1,197;   -0,682
1057,783; 2402,187;    2,258;   -1,500
1058,327; 2327,369;    3,076;    1,409
1058,871; 2549,914;    3,985;    1,318
1059,415; 2254,551;   -0,561;   -0,045
1059,958; 2498,369;    2,985;    2,591
1060,502; 2235,732;    1,348;   -0,773
1061,046; 2145,005;    1,712;   -0,955
1061,589; 2137,278;    2,803;   -1,136
1062,133; 1994,551;    0,985;    1,864
1062,676; 1920,641;    1,439;    0,864
1063,220; 1924,641;    0,985;    0,500
1063,763; 1947,551;    2,985;    1,136
1064,306; 2020,551;    0,985;    1,864
1064,849; 1904,460;    2,076;    0,591
1065,393; 1903,278;    2,894;   -1,500
1065,936; 2040,005;    2,530;   -0,409
1066,479; 1945,551;    2,621;    1,318
1067,022; 1949,096;    1,894;   -0,227
1067,565; 1834,096;   -1,197;   -1,318
1068,108; 1876,732;    1,258;   -0,591
1068,651; 1849,005;   -2,470;    1,409
1069,194; 1789,096;   -1,106;   -1,682
1069,736; 1762,005;    3,803;    0,955
1070,279; 1749,369;   -1,652;   -0,500
1070,822; 1778,278;    1,530;   -0,318
1071,364; 1837,732;    0,530;    1,318
1071,907; 1682,551;    0,348;    3,227
1072,450; 1609,914;    0,258;   -0,045
1072,992; 1595,551;   -0,561;    3,136
1073,535; 1716,005;    0,167;    2,136
1074,077; 1528,823;    2,985;    2,045
1074,619; 1477,369;    0,985;    0,591
1075,161; 1493,278;   -0,561;    1,500
1075,704; 1671,096;    0,258;    1,227
1076,246; 1486,369;    1,530;    0,682
1076,788; 1427,096;   -1,015;    1,773
1077,330; 1520,278;   -2,106;    2,136
1077,872; 1452,005;   -1,924;    0,955
1078,414; 1663,460;    3,712;    0,773
1078,956; 1401,460;    0,167;   -0,227
1079,498; 1644,278;    0,439;    0,318
1080,040; 1345,005;    0,985;   -1,318
1080,581; 1296,369;    0,621;   -0,318
1081,123; 1248,732;   -0,106;   -0,773
1081,665; 1296,005;    3,803;   -0,955
1082,206; 1560,551;    3,258;   -0,500
1082,748; 1438,460;    3,258;    2,045
1083,289; 1322,369;    0,167;    1,318
1083,831; 1213,732;    0,258;    0,227
1084,372; 1234,187;    0,894;    0,591
1084,913; 1230,914;    3,348;    0,864
1085,455; 1229,369;    1,530;   -2,045
1085,996; 1187,460;    0,530;    0,136
1086,537; 1203,369;    0,985;    0,864
1087,078; 1238,732;    0,439;   -2,136
1087,619; 1268,278;   -1,652;    0,227
1088,160; 1188,732;    1,439;    1,318
1088,701; 1187,187;   -0,742;    0,682
1089,242; 1116,369;   -0,561;   -2,227
1089,783; 1195,914;   -0,561;    1,409
1090,324; 1177,005;   -0,833;    0,682
1090,865; 1068,460;   -1,924;   -0,409
1091,405; 1038,005;   -0,561;    2,227
1091,946; 1070,823;   -0,197;   -0,955
1092,487; 1011,187;   -1,288;   -1,409
1093,027; 1157,641;    1,803;   -1,500
1093,568;  994,732;    2,258;    1,227
1094,108; 1078,278;    0,621;    1,773
1094,649; 1021,278;   -0,470;    0,136
1095,189;  975,460;    1,167;   -0,682
1095,729;  913,369;    0,712;    0,955
1096,269;  937,551;    1,258;   -0,955
1096,810; 1234,369;   -0,197;    0,500
1097,350; 1057,551;   -0,561;   -0,773
1097,890;  951,641;    2,985;    1,227
1098,430; 1194,369;    4,985;    2,864
1098,970; 1071,641;    1,894;    1,682
1099,510;  949,005;   -0,833;   -2,318
1100,050;  875,187;    0,258;   -1,591
1100,589;  836,460;    0,076;   -0,318
1101,129;  955,641;    0,894;   -0,955
1101,669; 1084,460;    2,803;    2,136
1102,209;  912,096;    1,530;    2,227
1102,748;  877,823;    3,439;    0,955
1103,288;  865,096;    0,712;   -1,227
1103,827;  896,096;    3,530;   -2,227
1104,367;  787,732;    1,712;   -2,409
1104,906;  749,096;   -1,015;   -1,136
1105,445;  811,187;    0,985;   -1,136
1105,985;  746,278;   -0,652;    1,500
1106,524;  791,641;    1,530;   -0,682
1107,063;  766,369;    1,167;    1,409
1107,602;  752,096;    1,894;   -1,500
1108,141;  673,551;    1,621;    1,500
1108,680;  752,914;    3,985;   -0,591
1109,219;  697,823;    0,167;   -0,500
1109,758;  711,551;    4,167;    0,682
1110,297;  676,096;   -1,106;   -0,682
1110,836;  631,005;    1,439;    0,955
1111,375;  775,641;    0,348;    0,409
1111,913;  786,732;    0,985;    0,773
1112,452;  741,551;    0,894;    0,136
1112,991;  633,369;    1,076;    1,955
1113,529;  583,732;    0,167;   -0,045
1114,068;  635,641;    0,439;    2,955
1114,606;  546,187;   -0,561;   -0,955
1115,144;  701,641;    1,530;    1,045
1115,683;  628,278;    1,985;    0,318
1116,221;  688,551;    2,076;   -0,864
1116,759;  600,096;    1,621;   -0,864
1117,297;  785,096;    1,621;    1,864
1117,836;  585,641;    1,985;   -1,227
1118,374;  596,823;    0,258;   -0,682
1118,912;  545,732;    0,439;    2,682
1119,450;  531,278;    0,985;    0,864
1119,988;  586,460;    3,348;    2,136
1120,525; 1028,096;    7,258;    3,318
1121,063;  727,914;    0,530;    1,864
1121,601;  551,187;    1,076;   -1,227
1122,139;  499,732;    1,076;   -2,045
1122,676;  686,914;   -1,652;    2,773
1123,214;  620,096;    0,712;    4,409
1123,751;  442,187;    0,621;    2,227
1124,289;  568,823;    0,894;   -0,409
1124,826;  427,914;   -0,379;    0,227
1125,364;  366,732;    0,712;   -0,955
1125,901;  553,732;    6,258;    1,227
1126,438;  645,551;    3,530;    0,955
1126,975;  386,551;    2,985;   -0,773
1127,513;  456,278;    2,621;    2,136
1128,050;  369,005;   -0,561;   -0,682
1128,587;  461,278;    1,348;   -0,227
1129,124;  493,641;   -0,015;    1,318
1129,661;  373,641;   -1,924;    0,227
1130,198;  530,641;    2,439;    0,773
1130,734;  473,369;   -0,379;    1,409
1131,271;  346,278;   -1,197;    0,864
1131,808;  513,460;    1,621;    3,045
1132,345;  378,005;    4,530;    0,318
1132,881;  262,005;   -0,561;   -1,864
1133,418;  400,369;    0,348;   -1,136
1133,954;  340,551;    0,712;   -2,682
1134,491;  403,278;    1,712;   -0,773
1135,027;  303,005;    2,167;    0,864
1135,564;  388,187;    1,439;    2,955
1136,100;  366,551;   -0,742;    2,136
1136,636;  272,369;   -1,015;   -1,045
1137,172;  358,005;    0,894;   -1,045
1137,708;  283,096;   -1,561;   -1,045
1138,245;  282,278;    0,803;   -1,227
1138,781;  252,278;    1,803;   -3,318
1139,317;  308,823;    1,894;   -1,409
1139,852;  291,914;    3,076;    0,136
1140,388;  409,369;    2,076;   -0,409
1140,924;  293,823;    1,076;   -2,227
1141,460;  232,732;   -0,288;    0,136
1141,996;  178,278;   -0,652;    2,682
1142,531;  212,187;    1,076;    3,318
1143,067;  420,641;    1,167;    1,045
1143,602;  467,914;    3,439;   -0,318
1144,138;  317,823;    0,803;    1,045
1144,673;  200,005;    1,621;    1,409
1145,209;  264,460;    2,894;   -0,318
1145,744;  186,005;    0,803;    0,864
1146,279;  314,278;    1,530;   -0,136
1146,815;  240,187;    1,530;   -2,682
1147,350;  269,096;   -0,924;    0,045
1147,885;  187,823;   -1,924;   -1,318
1148,420;  191,823;    2,439;    0,773
1148,955;  174,187;   -1,470;    1,864
1149,490;  199,641;   -1,106;   -1,591
1150,025;  179,096;   -1,106;   -1,773
1150,560;  289,460;   -0,288;   -0,955
1151,094;  249,278;    0,258;   -0,591
1151,629;  251,187;   -3,742;    0,864
1152,164;  185,823;   -1,288;    1,318
1152,698;  157,914;    1,258;   -0,136
1153,233;  109,369;   -1,379;   -0,682
1153,767;  157,096;   -0,288;   -2,318
1154,302;  197,096;   -0,379;    1,773
1154,836;  203,005;    0,803;   -2,136
1155,371;  256,823;    2,258;    3,682
1155,905;  213,005;    1,985;    1,682
1156,439;  174,914;    0,530;   -0,500
1156,973;  196,732;    0,439;    0,318
1157,507;  135,823;   -1,742;    0,682
1158,042;  162,823;   -0,652;    1,045
1158,576;  203,278;   -0,561;    1,773
1159,110;  201,005;    0,076;    2,409
1159,643;  179,005;   -2,470;   -0,045
1160,177;  112,641;   -2,015;    1,500

