
Integration time [ms]:   0,050
Averaging Nr. [scans]: 11
Smoothing Nr. [pixels]: 0
Data measured with spectrometer [name]: 7318044SP
Wave   ;Sample   ;Dark     ;Reference
[nm]   ;[counts] ;[counts] ;[counts] 

186,757;  -19,018;   38,161;    1,318
187,357;    3,535;   26,706;    0,955
187,958;   -5,533;   17,252;   -1,591
188,558;   33,862;   12,979;   -1,227
189,159;    5,124;   10,070;   -4,500
189,759;  -13,107;    5,797;   -3,591
190,360;  -17,219;    6,797;   -2,136
190,960;    6,767;    5,706;   -4,136
191,560;   10,658;    2,614;   -6,591
192,161;  225,925;    5,885;   -3,500
192,761;   81,966;    5,520;   -3,227
193,361;   37,454;    3,065;   -3,773
193,962;   69,716;    1,612;   -2,682
194,562;    6,726;   -0,114;   -3,955
195,162;   23,926;   -0,567;   -2,227
195,762;  143,178;    2,433;   -0,045
196,362;   91,261;    1,706;   -2,500
196,963;    0,087;    1,706;   -0,864
197,563;   45,240;    1,252;   -0,955
198,163;    4,599;   -0,111;   -0,682
198,763;   19,843;   -0,020;   -0,500
199,363;   75,033;    3,616;   -0,500
199,963;   43,042;    2,162;    0,409
200,563;   26,537;    6,344;   -1,409
201,163;   11,258;    5,435;   -0,227
201,763;   45,186;    1,435;    0,318
202,363;   16,008;    0,980;    1,500
202,963;   56,401;    1,526;    1,045
203,563;  115,095;    0,344;    0,500
204,162;   37,608;    1,889;   -1,864
204,762;   31,775;    2,071;    0,591
205,362;    6,403;    0,708;    1,955
205,962;   52,608;    3,435;    1,955
206,562;   43,399;    1,889;    2,318
207,161;   23,990;    1,708;    0,318
207,761;  124,070;    4,435;    2,409
208,361;   45,364;    1,889;    1,409
208,960;   77,306;    2,889;    1,500
209,560;   87,636;    0,435;    1,591
210,160;  100,070;    5,071;    1,864
210,759;   75,779;    0,708;    1,227
211,359;   60,035;   -0,474;    1,045
211,958;  206,205;    3,526;    2,045
212,558;  224,391;    0,799;    1,864
213,157;  137,579;   -0,929;    1,500
213,757;  369,031;    5,617;   -0,227
214,356;  196,835;    1,708;   -0,409
214,956;  362,108;    3,526;    0,409
215,555;  163,194;    0,617;    2,136
216,154;  126,593;   -0,292;   -0,591
216,754;  129,928;    1,253;    0,773
217,353;  161,953;   -0,383;   -1,045
217,952;   74,645;    2,072;    0,318
218,552;  210,023;    0,254;   -0,773
219,151;  149,140;   -1,110;    0,955
219,750;  140,758;    0,890;   -0,227
220,349;  125,060;   -2,292;    1,045
220,948;  238,171;    1,163;    1,136
221,548;  157,209;    0,617;    1,227
222,147;  213,990;   -1,292;   -0,409
222,746;  379,128;    1,254;   -0,955
223,345;  261,746;   -1,019;    0,500
223,944;  266,709;    1,163;    0,773
224,543;  299,975;    4,072;   -1,409
225,142;  323,727;    1,345;    0,136
225,741;  278,138;    1,163;    1,045
226,340;  257,791;    1,254;   -0,955
226,939;  417,779;    2,708;   -0,136
227,538;  263,585;    1,163;   -0,773
228,137;  406,719;    0,435;    0,864
228,735;  342,432;    0,435;    1,227
229,334;  201,039;   -0,474;   -0,227
229,933;  430,411;    0,799;    0,591
230,532;  440,783;   -1,201;   -0,409
231,131;  499,703;    1,253;    0,318
231,729;  368,066;    1,163;   -2,318
232,328;  281,442;    0,435;   -1,500
232,927;  286,672;    4,526;   -0,500
233,525;  264,405;    0,981;    0,045
234,124;  307,203;    1,890;   -1,591
234,723;  226,045;    1,617;   -1,045
235,321;  218,333;    1,163;    0,136
235,920;  263,172;    2,526;   -1,227
236,518;  426,913;    1,072;    0,318
237,117;  264,915;    2,890;   -0,227
237,715;  273,746;    1,163;   -0,500
238,314;  331,008;    1,708;   -2,318
238,912;  473,498;    0,526;   -1,409
239,510;  362,986;    1,162;   -1,227
240,109;  485,136;   -0,474;    3,773
240,707;  467,446;   -0,474;    1,227
241,305;  327,855;   -0,383;    0,136
241,904;  463,765;   -0,292;   -2,045
242,502;  591,990;    3,253;   -0,227
243,100;  496,444;    3,344;   -0,955
243,698;  475,729;    2,799;    1,682
244,297;  552,145;   -0,656;    0,682
244,895;  583,849;   -0,474;   -2,318
245,493;  865,140;    2,981;   -0,591
246,091;  884,684;    5,163;   -1,318
246,689;  856,215;    2,163;    0,591
247,287;  856,256;   -0,019;   -1,136
247,885;  908,273;   -1,019;    1,227
248,483;  918,843;   -0,201;   -0,500
249,081; 1083,058;    0,981;    1,591
249,679; 1214,035;   -1,019;    1,682
250,277; 1176,081;   -2,292;    0,864
250,875; 1351,550;    0,617;   -1,045
251,473; 1337,874;   -0,019;    0,500
252,071; 1473,570;   -0,383;    1,045
252,669; 1523,709;   -1,565;    0,318
253,267; 1601,473;    1,618;    0,773
253,864; 1600,983;    0,617;    0,682
254,462; 1823,138;    1,526;    1,591
255,060; 1685,157;    0,072;    1,318
255,658; 1781,890;   -3,292;   -0,136
256,255; 2063,333;   -0,201;   -2,045
256,853; 2094,727;    2,345;    1,409
257,451; 2102,475;    1,981;    1,864
258,048; 2649,039;    2,072;    1,864
258,646; 2260,942;    0,436;   -1,045
259,243; 2425,364;    2,981;    2,227
259,841; 2420,506;    1,799;    0,318
260,438; 2342,161;    0,254;    0,864
261,036; 2706,467;    0,617;    1,409
261,633; 2747,192;    1,526;    2,227
262,231; 2692,700;   -0,110;   -0,045
262,828; 2785,729;   -0,383;    1,136
263,425; 2851,010;   -1,928;   -0,591
264,023; 3035,793;    1,436;    0,045
264,620; 2909,277;    1,526;   -0,318
265,217; 3164,269;    2,890;    3,136
265,815; 3172,756;    2,527;    2,136
266,412; 3224,570;    0,072;    0,136
267,009; 3267,643;    0,526;    0,773
267,606; 3378,397;    0,345;   -0,955
268,203; 3264,287;   -0,383;   -0,591
268,801; 3432,820;   -0,474;    0,591
269,398; 3591,806;   -0,564;    2,500
269,995; 3658,275;    0,890;    1,591
270,592; 3518,529;    0,799;   -0,500
271,189; 3640,205;    1,981;    0,409
271,786; 3741,514;    2,072;    1,227
272,383; 3814,678;   -0,383;    0,227
272,980; 3795,273;    1,617;    0,318
273,577; 4044,083;    2,162;    1,227
274,174; 3715,721;    1,435;    2,591
274,771; 3718,890;    1,890;   -0,773
275,367; 4011,977;    3,253;    1,409
275,964; 3932,494;   -0,565;   -0,500
276,561; 3933,843;   -2,474;   -1,045
277,158; 3981,853;    1,799;   -1,773
277,755; 4158,149;   -0,110;    0,409
278,351; 3669,837;    0,436;   -1,500
278,948; 3898,190;   -0,201;    0,045
279,545; 3837,052;    0,527;    2,318
280,141; 4377,417;    1,254;   -2,045
280,738; 4140,771;    2,435;   -0,136
281,334; 4145,533;   -0,383;    0,591
281,931; 3840,884;    2,890;   -1,318
282,528; 3976,120;    4,072;   -0,500
283,124; 4469,866;    3,345;   -0,500
283,721; 4370,554;    0,709;    1,409
284,317; 4248,060;    0,163;    2,500
284,913; 4690,366;   -0,110;    0,591
285,510; 4966,184;    2,890;   -0,318
286,106; 4957,506;    2,345;   -0,955
286,703; 4529,930;    0,072;    1,955
287,299; 4744,233;    1,254;   -0,591
287,895; 4988,585;    0,890;   -1,045
288,491; 5448,624;    0,163;    2,136
289,088; 5358,173;    0,163;    2,409
289,684; 5485,709;    2,890;    1,500
290,280; 5630,192;    1,890;    0,682
290,876; 5781,500;    0,163;    5,500
291,472; 5839,252;    2,163;    2,227
292,068; 6003,808;    1,254;    0,227
292,665; 5860,506;   -0,564;    0,773
293,261; 5791,961;   -1,292;    2,136
293,857; 6201,163;    4,072;    2,136
294,453; 6303,124;   -0,928;    0,955
295,049; 6367,581;    0,253;    1,955
295,644; 6545,860;   -1,292;    0,136
296,240; 6615,397;    0,162;   -0,136
296,836; 6840,260;   -0,747;    0,318
297,432; 7180,035;    2,980;   -0,500
298,028; 7398,015;    0,435;    0,773
298,624; 7795,486;    0,889;    1,864
299,220; 8136,684;    0,435;    0,591
299,815; 7937,473;    0,526;   -0,409
300,411; 7896,581;    0,435;    1,773
301,007; 8040,971;    1,889;    0,227
301,602; 8185,800;    2,071;   -2,318
302,198; 8413,645;    1,435;   -0,773
302,794; 8797,242;    1,526;   -0,500
303,389; 8990,922;    1,071;    1,045
303,985; 9062,294;    1,253;    1,409
304,580; 9143,591;    0,889;    1,591
305,176; 9200,909;    0,344;    0,136
305,771; 9165,620;   -0,929;   -1,227
306,367; 9097,868;    3,071;    0,136
306,962; 9435,254;    2,889;    1,500
307,558; 9137,275;    2,435;    0,136
308,153; 9118,560;   -0,383;   -1,136
308,748; 9278,256;    0,162;    1,682
309,344; 9270,539;    0,253;   -1,318
309,939; 9379,626;    2,071;   -1,318
310,534; 9610,174;   -2,020;   -1,682
311,130; 9458,796;   -0,656;   -2,500
311,725; 9159,275;    0,526;   -0,500
312,320; 9391,703;    1,253;    0,045
312,915; 9275,915;    2,890;   -1,045
313,510; 9272,324;    0,526;   -0,500
314,105; 9636,938;   -3,565;    1,409
314,700; 9016,690;   -1,656;   -1,045
315,295; 8670,591;   -0,020;    0,045
315,890; 8227,862;   -0,292;    0,864
316,485; 8403,031;    0,253;   -0,318
317,080; 8453,647;   -0,929;    1,591
317,675; 8844,172;    3,071;   -0,682
318,270; 8289,444;    6,889;    3,318
318,865; 8245,339;    2,435;    3,045
319,460; 8025,583;   -1,565;    0,591
320,055; 8179,174;   -2,565;   -1,227
320,650; 7815,339;   -1,838;   -0,591
321,244; 7798,519;    0,889;   -1,409
321,839; 8567,734;    0,980;   -0,227
322,434; 8377,066;   -0,111;   -1,591
323,029; 8131,279;   -0,474;    1,591
323,623; 7985,074;    0,798;    0,773
324,218; 7833,814;    2,707;    1,409
324,812; 7772,802;    0,889;    1,591
325,407; 7606,219;   -0,929;    2,045
326,002; 7603,395;    0,526;   -0,409
326,596; 7925,283;   -0,656;    1,318
327,191; 8120,868;   -0,383;   -1,045
327,785; 7826,920;   -0,747;   -0,227
328,379; 8127,176;   -0,383;    0,136
328,974; 7975,211;    1,798;   -3,955
329,568; 8301,306;    2,889;   -2,409
330,163; 8242,616;    2,435;    1,045
330,757; 8635,948;    0,253;    1,591
331,351; 8152,734;   -0,292;    0,682
331,945; 8530,409;   -0,383;    1,409
332,540; 8310,293;    1,617;   -0,591
333,134; 8530,033;    3,344;    0,773
333,728; 8825,440;    2,799;    0,318
334,322; 9302,909;    0,889;   -0,864
334,916; 8750,066;    0,344;    0,955
335,510; 9214,558;   -0,111;   -0,136
336,105; 9559,686;   -0,929;    1,591
336,699; 9378,610;   -1,292;    0,591
337,293; 9433,093;    1,071;    0,318
337,887; 9663,465;    0,071;    1,955
338,481; 9901,223;    2,980;    0,591
339,074;10199,961;    2,071;    2,682
339,668;10178,853;   -0,110;    1,227
340,262;10579,355;    7,708;    3,227
340,856;10206,085;    1,708;   -0,682
341,450; 9694,634;    0,708;    1,864
342,044;10697,184;    1,799;    0,136
342,637;10569,227;    1,162;   -2,136
343,231;10552,636;   -1,474;    0,682
343,825;10574,050;   -0,747;   -0,591
344,419;10663,132;   -0,474;    0,500
345,012;10542,219;    2,889;    4,045
345,606;10641,006;   -0,656;    1,591
346,199;10593,126;   -0,111;   -0,227
346,793;10215,019;    2,525;    2,045
347,386;10519,934;    0,889;   -1,136
347,980;10536,789;   -0,838;   -0,045
348,573;10419,159;   -1,748;    0,409
349,167;10133,773;    6,161;    4,773
349,760;10560,564;    2,252;    2,682
350,354;10566,374;    1,616;    1,136
350,947;10315,168;    2,798;    1,682
351,540;10051,719;    0,616;   -1,409
352,134;10005,236;   -1,111;    1,136
352,727;10110,354;   -0,657;    1,136
353,320; 9961,343;    2,343;    0,591
353,913; 9846,829;   -1,929;    1,864
354,507; 9994,174;    0,434;   -1,227
355,100;10020,269;    0,071;    0,864
355,693; 9227,552;    4,798;    2,409
356,286; 9295,130;    0,980;    2,773
356,879; 9680,957;   -0,475;    1,227
357,472; 9240,217;    0,980;    1,500
358,065; 9432,496;    3,161;    2,500
358,658; 9413,942;    0,798;    2,318
359,251; 9023,062;    0,252;   -0,591
359,844; 8453,998;    0,343;   -1,136
360,437; 8606,263;    0,252;    0,045
361,030; 8896,663;    0,525;   -0,682
361,623; 8434,581;    0,434;    0,318
362,215; 8482,033;    0,979;    2,045
362,808; 8327,211;   -2,293;   -1,682
363,401; 8457,430;    0,798;    0,136
363,994; 8182,901;    3,252;   -1,500
364,586; 8096,062;    0,888;   -1,500
365,179; 8296,201;   -0,203;   -1,136
365,772; 7741,240;   -0,930;    2,045
366,364; 8016,471;    1,524;   -3,227
366,957; 8257,806;    1,342;   -0,045
367,549; 8224,304;   -0,203;   -0,864
368,142; 7831,670;    0,978;   -1,500
368,734; 8014,982;    2,523;   -2,136
369,327; 7967,707;    2,341;   -0,500
369,919; 7886,286;   -1,659;    0,409
370,512; 7656,172;   -1,023;   -0,500
371,104; 7353,075;    2,704;    1,591
371,696; 7524,454;    1,703;   -0,955
372,289; 7592,235;    0,157;    1,136
372,881; 7747,111;    1,156;    1,318
373,473; 7639,857;    4,064;    1,136
374,066; 7419,068;    1,336;    0,500
374,658; 7275,862;    0,879;    1,136
375,250; 7623,269;   -1,668;   -1,409
375,842; 7448,621;   -0,124;   -0,045
376,434; 7294,416;   -2,762;   -0,409
377,026; 7914,115;   -1,855;   -2,500
377,618; 7777,554;    0,779;   -0,682
378,210; 7591,502;    3,141;   -1,955
378,802; 7390,895;    3,412;   -0,591
379,394; 7333,127;    3,411;    0,682
379,986; 7948,584;    1,138;   -0,955
380,578; 8025,053;    1,410;    0,773
381,170; 7331,945;    0,320;    0,045
381,762; 7290,992;   -0,224;    1,409
382,354; 7511,624;   -0,223;   -1,318
382,945; 7587,426;    0,870;    0,318
383,537; 7746,754;    1,144;   -1,955
384,129; 7788,460;    0,963;   -1,136
384,721; 7949,704;    0,418;    0,955
385,312; 7871,757;   -1,399;   -0,955
385,904; 7956,470;   -0,945;    1,591
386,496; 7289,251;    0,691;    1,045
387,087; 7447,642;    0,418;    2,500
387,679; 7490,404;   -0,401;    0,045
388,270; 7625,526;   -2,401;    2,045
388,862; 7755,338;   -0,401;   -0,318
389,453; 7599,739;    1,054;    1,045
390,045; 7866,249;    3,236;   -2,682
390,636; 7861,915;    0,144;   -0,591
391,227; 7706,588;    2,054;   -0,045
391,819; 7775,107;    0,781;    0,773
392,410; 7867,419;    0,600;    0,045
393,001; 7781,662;    1,600;   -1,591
393,593; 8045,551;    0,600;   -0,045
394,184; 7900,601;    0,873;   -0,409
394,775; 7785,741;    1,146;    2,136
395,366; 8006,367;    1,782;    0,773
395,957; 7993,210;   -2,400;    0,136
396,548; 8350,677;    1,054;    2,682
397,139; 8631,371;    2,236;    0,591
397,730; 8318,303;    0,873;    0,955
398,321; 8377,650;    0,509;    0,955
398,912; 8373,983;   -0,764;    0,136
399,503; 8491,262;   -1,945;   -1,409
400,094; 7950,801;   -1,582;    1,682
400,685; 7785,991;    3,600;    0,045
401,276; 7847,148;   -0,400;   -0,955
401,867; 8141,150;   -1,127;    0,773
402,458; 8237,993;    1,509;   -2,318
403,048; 8203,797;    0,146;    0,591
403,639; 7794,167;    1,509;    0,864
404,230; 8043,588;    0,691;    0,318
404,821; 7958,625;   -0,127;    0,045
405,411; 8059,739;   -0,763;   -2,591
406,002; 7605,315;    3,237;   -1,136
406,592; 7450,222;    2,691;    0,045
407,183; 7697,098;    0,328;   -1,500
407,774; 7572,330;    1,419;   -0,136
408,364; 7914,892;    2,600;    0,409
408,954; 7482,652;   -0,036;    1,227
409,545; 7485,700;    1,873;    1,045
410,135; 6926,014;   -1,581;    0,500
410,726; 7073,499;    0,783;    0,318
411,316; 7408,307;    2,237;    0,773
411,906; 7071,206;    0,146;   -0,409
412,497; 6512,160;   -0,490;   -0,045
413,087; 7002,805;    0,783;   -0,227
413,677; 7328,080;   -2,490;    3,864
414,267; 7117,623;   -1,035;    1,409
414,857; 7030,892;    0,419;    4,227
415,448; 7208,094;   -0,763;    0,500
416,038; 6881,747;   -2,945;   -0,591
416,628; 6748,582;    0,965;    0,409
417,218; 6268,840;   -1,762;    3,318
417,808; 6410,836;    0,965;   -0,409
418,398; 6692,613;   -1,035;    2,682
418,988; 6605,377;   -2,217;    0,591
419,578; 6709,677;    3,601;    1,409
420,168; 6974,326;    0,692;   -0,955
420,757; 6506,311;    0,964;   -1,500
421,347; 6097,241;    1,601;   -0,227
421,937; 6116,051;    3,329;    1,409
422,527; 6021,966;    2,602;   -0,773
423,116; 5778,452;    2,692;   -0,045
423,706; 5988,423;    2,965;    0,318
424,296; 5816,030;    1,601;    0,682
424,885; 6123,394;    1,510;   -3,045
425,475; 6256,792;    1,147;   -2,864
426,065; 6067,799;   -1,489;   -0,318
426,654; 5703,644;    0,329;   -0,318
427,244; 5746,794;    1,147;    1,409
427,833; 5184,693;    1,056;   -0,500
428,423; 5393,449;    0,147;    1,136
429,012; 5892,113;    2,420;   -1,136
429,601; 5394,168;    2,057;    0,136
430,191; 5425,827;    2,511;    4,318
430,780; 5004,261;   -1,671;   -0,409
431,369; 4966,274;    1,329;   -0,045
431,959; 5315,927;    1,693;    0,500
432,548; 5017,369;   -1,398;   -0,045
433,137; 4973,633;    0,329;   -1,318
433,726; 5272,048;    0,148;    0,500
434,315; 4780,689;    0,148;    2,409
434,905; 4763,939;    0,693;    1,409
435,494; 4655,776;    3,148;    0,955
436,083; 4772,449;    1,420;   -0,955
436,672; 4530,168;    1,148;    0,500
437,261; 4235,724;    0,512;   -1,955
437,850; 4319,544;   -1,125;    0,682
438,439; 4162,590;    2,239;    1,955
439,027; 3997,433;    3,421;    1,773
439,616; 4081,030;    2,239;    1,227
440,205; 3768,629;    0,057;   -2,136
440,794; 3574,375;   -0,306;   -0,045
441,383; 3523,338;    1,603;   -0,591
441,971; 3299,462;   -0,306;    0,591
442,560; 3086,298;    0,603;   -1,773
443,149; 2831,593;    3,060;   -1,318
443,737; 2858,342;    0,968;   -2,318
444,326; 2845,887;    0,331;    0,318
444,915; 2737,577;   -1,851;    0,864
445,503; 2759,691;    0,058;   -0,318
446,092; 2671,079;    7,876;    2,136
446,680; 2706,478;    1,876;    0,318
447,269; 2613,482;   -1,487;   -0,318
447,857; 2370,953;    2,240;   -1,773
448,445; 2289,726;    2,149;    1,318
449,034; 2263,583;    0,876;   -1,136
449,622; 2144,507;    1,240;    3,500
450,210; 2304,583;    3,149;    2,227
450,799; 2220,230;    2,604;   -0,591
451,387; 1939,108;    1,786;   -0,591
451,975; 1820,767;   -1,305;    0,864
452,563; 1935,017;    0,422;    2,318
453,151; 1609,164;   -1,032;   -1,227
453,739; 1572,722;   -1,577;    0,136
454,328; 1708,408;    0,604;   -2,136
454,916; 1476,765;    1,150;   -0,136
455,504; 1423,583;    3,513;    1,227
456,092; 1296,248;    2,150;   -1,591
456,679; 1143,257;    0,604;    0,682
457,267; 1778,728;    3,604;    1,045
457,855; 1234,321;    3,241;    1,409
458,443;  919,304;   -0,304;    1,682
459,031; 1237,087;    1,332;    2,409
459,619; 1161,046;   -3,577;    2,864
460,206;  943,211;   -0,759;    2,045
460,794;  932,631;   -0,668;   -0,227
461,382; 1015,281;    0,878;   -0,864
461,970;  896,029;    0,605;    1,864
462,557;  793,036;    0,878;   -0,682
463,145; 1014,387;   -0,304;   -1,682
463,732; 1314,304;    2,514;   -1,045
464,320;  936,595;    1,514;   -3,045
464,907; 1119,248;    0,423;   -0,773
465,495;  965,362;    2,696;   -1,227
466,082;  800,133;    2,060;   -0,045
466,670;  775,554;    2,605;    1,227
467,257;  632,608;    0,060;    2,045
467,844;  797,955;    1,514;    0,045
468,432;  757,684;   -0,031;    3,500
469,019;  620,690;    1,606;   -1,773
469,606;  718,242;    0,969;    3,682
470,193;  755,727;    2,151;    0,227
470,780;  672,909;    0,333;    0,864
471,368;  547,114;   -1,212;   -0,773
471,955;  670,075;    1,060;   -0,682
472,542;  567,486;   -0,303;   -1,136
473,129;  362,308;   -0,485;    0,136
473,716;  351,354;    0,060;    0,591
474,303;  389,564;    1,333;   -0,864
474,890;  391,370;    2,333;   -0,500
475,477;  508,250;   -0,576;    0,409
476,064;  341,306;    0,697;   -1,591
476,650;  472,839;    2,152;    0,318
477,237;  348,112;    1,879;    0,955
477,824;  292,234;    3,879;    0,864
478,411;  153,812;    0,606;   -0,318
478,997;  131,872;    0,606;   -0,773
479,584;   31,816;   -0,666;   -0,409
480,171;  289,461;    1,243;   -0,773
480,757;  352,977;   -0,848;    0,773
481,344;  190,000;    0,334;    0,409
481,931;   45,136;   -0,393;    1,045
482,517;  205,917;    0,425;    0,318
483,104;  301,872;    1,334;    2,864
483,690;  128,188;    0,243;    0,045
484,276;   87,269;    0,698;    0,227
484,863;  348,081;    2,152;    1,136
485,449;  144,711;    0,152;    0,318
486,035;   80,986;   -0,666;   -0,136
486,622;  200,500;   -2,393;    0,045
487,208;   92,667;    1,334;    1,500
487,794;  -11,750;    0,971;    0,318
488,380;   -7,453;    0,698;   -1,409
488,967;   -4,070;   -1,120;   -0,409
489,553;    6,824;   -1,029;   -1,409
490,139;  102,909;    0,971;    0,773
490,725;   15,981;    0,789;   -0,227
491,311;   71,419;    1,516;    3,045
491,897;   39,554;   -0,665;    1,500
492,483;   49,795;    0,426;    1,227
493,069;  566,940;    5,426;    0,864
493,655;  239,250;    1,789;    0,682
494,241;   86,506;    1,517;   -0,955
494,826;  112,901;    0,335;   -1,045
495,412;  198,390;    0,335;   -0,682
495,998;  100,855;    0,971;   -0,318
496,584;  190,793;    2,244;    1,045
497,169;  217,008;    2,335;   -0,682
497,755;  148,221;    1,244;    1,227
498,341;  381,903;    2,153;    0,318
498,926;  580,281;    2,881;    1,955
499,512;  268,913;   -0,028;    2,955
500,097;  295,785;   -0,574;   -0,318
500,683;  359,066;   -0,028;    2,136
501,268;  333,130;    1,881;   -0,955
501,854;  431,632;   -0,119;    1,227
502,439;  461,310;   -0,573;   -1,773
503,024;  650,076;    1,608;    0,500
503,610;  796,977;    1,335;   -0,682
504,195;  737,535;    1,245;    1,955
504,780; 1039,824;    2,335;    1,227
505,366; 1341,192;    4,063;    2,864
505,951; 1334,909;   -1,119;    1,045
506,536; 1481,312;    1,427;   -3,682
507,121; 1716,628;    1,699;   -0,318
507,706; 2073,944;   -0,392;    1,045
508,291; 2356,923;   -2,937;    1,136
508,876; 2531,299;   -0,482;    2,591
509,461; 2736,995;    1,427;   -0,773
510,046; 3316,700;   -0,391;    0,318
510,631; 3809,636;   -0,119;   -0,773
511,216; 4080,167;   -0,664;   -0,500
511,801; 4850,138;   -0,755;    2,591
512,386; 5400,353;    0,972;    0,500
512,971; 5863,394;    0,427;    0,955
513,555; 6087,903;    1,154;   -1,500
514,140; 7169,766;    1,336;   -3,136
514,725; 7652,648;    1,791;   -1,136
515,309; 8232,380;    1,064;    0,318
515,894; 8328,603;   -0,300;   -2,227
516,479; 9187,475;    1,973;   -0,955
517,063; 9480,526;    0,882;    1,227
517,648;10116,130;    0,155;   -1,136
518,232;10165,146;   -1,300;   -1,409
518,817;10910,685;    1,337;    1,682
519,401;11492,291;    0,700;    0,591
519,985;11370,811;    2,700;    1,136
520,570;11650,107;   -0,118;   -1,955
521,154;12245,456;    0,064;    0,591
521,738;12723,225;    1,064;    2,409
522,323;13649,187;   -0,390;    1,682
522,907;13634,964;    2,428;   -0,136
523,491;13604,099;    1,155;    0,955
524,075;13780,183;    0,428;    0,591
524,659;14095,336;    0,973;    0,591
525,243;13727,793;    0,883;    0,409
525,827;14162,617;    0,883;   -0,045
526,411;15207,063;    1,155;   -0,136
526,995;15584,446;    0,337;    1,409
527,579;15310,163;    1,974;   -1,045
528,163;15742,702;    0,428;   -1,500
528,747;15787,175;    1,065;   -0,773
529,331;16203,956;    0,883;   -1,409
529,915;16557,129;    2,338;    0,955
530,499;16580,276;    0,247;    1,227
531,082;16298,134;    1,065;    1,591
531,666;15817,386;    0,520;    0,773
532,250;16587,441;    0,428;    2,682
532,833;17008,551;    0,610;    2,773
533,417;16947,888;    1,247;    0,864
534,001;16982,561;    0,429;   -0,318
534,584;17761,536;    1,974;    0,500
535,168;17634,689;    3,247;    1,409
535,751;17738,890;    4,520;    0,045
536,334;17181,929;    4,520;   -0,409
536,918;17872,284;    1,974;    1,591
537,501;18079,396;    1,520;    1,318
538,085;18056,406;    1,702;    1,045
538,668;18278,218;    0,883;    2,409
539,251;18594,303;    3,156;    3,773
539,834;18641,336;    0,156;    0,773
540,418;18560,231;    3,247;    4,318
541,001;18771,443;    2,702;    1,773
541,584;18804,088;    1,429;    2,227
542,167;18431,414;    0,702;    2,955
542,750;18665,671;    0,793;   -0,773
543,333;18226,658;    1,429;    2,136
543,916;19093,648;   -0,298;    2,500
544,499;19759,576;    2,520;    0,227
545,082;19819,220;    0,248;    3,591
545,665;19990,321;   -0,207;    1,500
546,248;20369,749;    0,520;   -0,318
546,830;20041,278;   -1,752;    1,955
547,413;20479,394;    0,157;   -0,773
547,996;21070,819;    0,157;    0,500
548,579;20817,485;   -0,843;    0,955
549,161;20652,856;    0,884;    2,682
549,744;20423,158;    0,612;    0,409
550,326;20967,460;    0,885;   -1,136
550,909;20695,445;    2,339;    0,591
551,492;21178,555;    0,521;    0,227
552,074;20926,778;   -0,024;   -1,318
552,657;21556,030;    2,430;    0,045
553,239;21297,284;   -3,024;   -0,773
553,821;21223,086;   -1,570;    1,045
554,404;20652,708;   -0,024;    1,136
554,986;21048,518;    2,248;    1,045
555,568;21712,408;    0,430;   -0,955
556,151;20857,402;    4,067;   -0,227
556,733;21097,627;   -1,388;   -0,864
557,315;21631,726;    4,703;    0,500
557,897;21462,997;    0,521;   -0,500
558,479;21564,697;    1,703;    1,318
559,061;21719,222;    1,067;   -0,864
559,643;22049,894;   -0,297;    0,045
560,225;22484,780;   -0,388;    2,864
560,807;22520,348;    0,340;    0,318
561,389;21985,491;   -1,206;    2,318
561,971;22780,040;   -0,660;    2,136
562,553;22590,090;    0,613;    1,591
563,135;22789,627;    1,249;    1,136
563,717;22360,941;    3,158;    1,136
564,298;23146,303;    3,976;   -0,045
564,880;22883,798;    0,340;   -1,409
565,462;23044,435;    1,977;    1,318
566,043;24301,174;   -0,933;    2,318
566,625;23841,069;    4,067;    1,227
567,207;23771,875;    0,704;    1,682
567,788;25081,402;   -0,114;    1,500
568,370;26009,637;   -1,841;   -0,500
568,951;25794,831;   -0,569;    0,227
569,533;26834,567;    0,977;   -0,500
570,114;27422,249;   -0,296;    0,682
570,695;27993,176;   -0,478;   -1,318
571,277;28641,986;   -0,205;   -1,682
571,858;29457,604;    2,704;   -1,136
572,439;30561,017;    0,795;   -1,045
573,021;30834,001;    0,432;   -2,773
573,602;31369,813;    1,795;    0,318
574,183;32443,875;   -0,114;    2,227
574,764;32732,523;    2,068;    0,409
575,345;33482,410;    0,250;   -0,136
575,926;34157,776;    2,704;    0,136
576,507;34149,616;    2,704;   -0,227
577,088;35363,854;    1,704;    1,682
577,669;35336,457;    1,704;    1,955
578,250;36211,511;   -0,750;   -1,045
578,831;37022,240;   -0,841;   -2,227
579,412;37367,542;   -1,205;    0,955
579,993;38387,005;    1,432;    0,227
580,573;38719,418;   -0,023;   -0,955
581,154;37684,416;    1,613;   -0,591
581,735;38618,499;    0,341;    0,773
582,315;38020,499;    0,523;    2,136
582,896;38342,978;   -1,750;    1,227
583,477;37836,780;    0,614;    1,227
584,057;37995,879;    1,159;    0,955
584,638;38310,278;   -2,750;    2,318
585,218;38257,032;    2,886;    2,682
585,799;38447,497;    1,977;   -0,227
586,379;38394,672;    1,250;    1,591
586,959;37060,763;    2,613;    0,318
587,540;36210,819;    0,432;    2,227
588,120;35546,895;   -1,113;   -0,045
588,700;34401,689;    2,977;    2,136
589,281;34733,348;    1,250;   -0,955
589,861;34613,561;   -0,296;   -1,682
590,441;34406,104;   -1,477;   -2,682
591,021;33260,809;    1,432;   -2,591
591,601;33495,606;    0,431;    0,500
592,181;33442,765;   -1,296;   -0,773
592,761;32690,426;    2,250;    1,409
593,341;32519,259;    1,522;    0,045
593,921;32474,819;   -0,569;    1,591
594,501;32311,616;    1,250;    1,318
595,081;32136,916;    0,522;   -0,318
595,661;32518,313;    1,068;    0,955
596,240;33092,096;   -1,023;    0,136
596,820;32690,402;    2,613;    1,955
597,400;32974,123;    1,977;    0,773
597,980;33192,561;   -0,750;    1,045
598,559;33193,716;    0,341;   -0,227
599,139;32849,621;   -0,750;   -1,227
599,718;32777,439;    0,795;   -0,409
600,298;33021,569;   -2,387;    0,682
600,877;33234,786;    4,795;    1,409
601,457;33532,819;    0,340;    1,136
602,036;33451,319;    1,795;    2,045
602,616;33707,183;    2,250;    1,682
603,195;34033,259;    0,431;    3,500
603,774;33554,674;   -0,296;    2,045
604,354;33449,486;    2,522;   -0,500
604,933;32864,290;    0,250;    1,864
605,512;32986,131;    2,340;    0,591
606,091;32999,032;    1,886;    3,773
606,671;33848,798;    0,249;    0,773
607,250;32832,918;    1,431;    3,136
607,829;33165,767;    1,158;    3,227
608,408;33007,059;    4,613;    2,591
608,987;31901,974;    2,704;    3,409
609,566;32259,600;    0,341;   -2,500
610,145;32285,633;    2,885;    0,682
610,723;32726,726;    1,613;    6,864
611,302;31912,389;    1,067;    1,682
611,881;31386,596;    5,158;   11,227
612,460;32260,241;    0,795;    3,955
613,039;32673,714;    1,703;    2,045
613,617;31360,588;    0,886;    4,773
614,196;31556,821;    1,613;    1,227
614,775;31844,741;    1,249;    2,409
615,353;31786,910;   -1,660;    0,864
615,932;31405,100;    0,249;    2,409
616,510;32082,090;    0,158;    0,591
617,089;31493,927;    8,794;   17,591
617,667;31217,933;    4,885;    6,136
618,246;31026,340;   -1,115;    1,318
618,824;31185,544;    1,612;   -0,955
619,402;30697,468;    0,431;   -1,773
619,981;31255,825;    1,067;   -1,045
620,559;31107,569;    0,794;    1,682
621,137;30618,348;    3,067;    1,864
621,715;30560,805;    3,703;   -0,682
622,293;30435,480;    1,885;   -0,773
622,871;30888,272;    0,340;    0,500
623,450;30480,666;    0,430;   -0,864
624,028;30309,863;   -0,388;   -0,955
624,606;29897,375;    2,339;    1,682
625,183;30285,956;   -0,661;   -1,136
625,761;29866,668;    1,885;    1,136
626,339;30135,776;    2,339;    2,591
626,917;30532,728;    0,339;   -0,045
627,495;30628,898;    2,794;    1,318
628,073;30005,625;    5,248;    2,864
628,650;29706,210;    3,067;    2,136
629,228;30172,644;    1,248;    4,409
629,806;29482,057;   -0,024;    1,136
630,383;29748,412;    0,066;   -0,318
630,961;29507,456;   -2,206;   -0,955
631,539;29245,439;   -2,479;    0,227
632,116;28379,365;   12,703;   15,409
632,694;28992,168;    4,885;    6,500
633,271;29374,377;    1,975;    2,682
633,848;29288,943;    1,430;    2,045
634,426;29347,197;    1,521;    1,773
635,003;28426,005;   -0,207;   -0,409
635,580;28754,766;    1,884;    3,682
636,158;29344,954;    3,793;    1,227
636,735;29259,776;    3,339;   -0,500
637,312;29425,617;    0,521;   -0,682
637,889;29509,726;    2,248;   -0,682
638,466;28963,133;    0,066;   -0,409
639,043;28952,386;    1,702;   -1,136
639,620;29303,518;    0,611;   -0,955
640,197;29593,058;    1,612;    1,682
640,774;29724,776;    1,430;    1,136
641,351;30152,766;    0,612;    1,136
641,928;29518,757;    2,794;    1,409
642,505;29141,566;    0,794;   -0,500
643,082;29256,465;    1,885;    1,227
643,658;28274,183;    1,157;    1,500
644,235;29090,810;   -2,479;    2,500
644,812;29339,345;    1,794;    0,773
645,388;29094,518;    1,612;    1,409
645,965;29171,599;    1,521;    1,682
646,542;29219,953;    3,430;   -0,227
647,118;29229,216;    3,703;   -0,955
647,695;29612,207;    0,339;    1,136
648,271;29464,470;   -2,115;    0,500
648,848;29788,278;    0,248;    2,227
649,424;29652,087;    0,976;    1,318
650,000;29397,896;   -0,388;   -1,045
650,577;29207,068;    0,158;   -0,955
651,153;29674,604;   -1,115;    0,955
651,729;30684,140;    0,521;    0,864
652,305;30997,130;    1,339;    2,773
652,881;36307,030;   -1,297;    1,136
653,458;44532,111;    0,249;    0,227
654,034;49273,011;    0,703;    1,591
654,610;51124,819;    0,339;    0,773
655,186;52682,355;    1,612;    3,045
655,762;52361,164;   -1,842;    0,409
656,338;52365,336;    0,703;    0,136
656,913;53415,508;   -0,297;    0,409
657,489;52748,771;    0,249;   -0,318
658,065;52678,125;    0,794;   -1,591
658,641;53106,479;    2,158;   -0,864
659,217;52423,470;    2,067;    0,409
659,792;51866,733;   -1,751;   -0,409
660,368;52166,905;   -0,388;   -0,682
660,944;51663,623;    1,794;    1,227
661,519;46291,523;    0,522;    0,409
662,095;38997,331;   -0,206;    0,591
662,670;33367,776;   -0,206;   -0,136
663,246;31814,403;   -0,660;   -0,409
663,821;30956,212;    0,431;    1,682
664,396;30464,929;    0,613;    1,864
664,972;30721,465;   -0,660;   -0,500
665,547;31072,274;    3,794;    0,136
666,122;31060,901;    1,340;    0,318
666,698;31364,800;    2,431;    0,318
667,273;30645,972;    0,885;    0,136
667,848;31477,326;    0,340;    1,500
668,423;31274,044;    1,795;    2,318
668,998;31970,853;    0,976;   -0,682
669,573;32562,752;    2,067;   -1,500
670,148;32327,924;    1,885;   -0,682
670,723;32165,006;   -0,024;    0,318
671,298;32619,814;   -1,296;    1,045
671,873;32744,714;   -0,296;   -0,136
672,448;32656,523;    1,704;    0,136
673,023;32956,786;    0,249;   -0,227
673,597;33268,685;    2,704;    2,318
674,172;33059,221;    2,431;    0,318
674,747;32603,303;   -0,205;   -1,045
675,321;32484,566;   -0,933;    3,318
675,896;31973,465;    2,158;    1,045
676,471;33003,183;    2,522;    1,591
677,045;32789,810;   -0,296;    0,682
677,620;32817,346;    2,158;    1,136
678,194;33136,427;    0,249;    1,136
678,769;32648,599;    0,886;   -0,318
679,343;32900,590;   -0,023;    1,773
679,917;32808,126;    0,340;    1,955
680,492;32928,752;    0,249;    3,227
681,066;33102,561;    0,613;    0,409
681,640;33109,279;    1,795;   -0,318
682,214;33941,996;    2,340;    0,500
682,788;33366,350;    0,613;   -0,773
683,363;33297,341;    1,977;    1,682
683,937;33023,786;    0,886;   -0,318
684,511;33869,594;   -1,023;   -0,591
685,085;33626,767;   -1,478;    0,318
685,659;33349,212;    1,431;    0,864
686,232;33551,929;    1,159;   -0,318
686,806;33321,829;    2,159;    0,409
687,380;34011,274;   -1,932;    0,591
687,954;34291,537;    2,432;    1,136
688,528;33960,255;    2,613;    1,955
689,101;34752,972;    0,432;    1,045
689,675;34326,417;    0,886;   -0,136
690,249;33632,135;    3,432;    0,409
690,822;33916,035;    1,159;    0,318
691,396;34042,389;    2,068;    1,227
691,969;33407,834;    2,523;    0,136
692,543;33884,642;   -0,568;   -1,955
693,116;33565,996;   -0,659;   -1,409
693,690;33366,532;   -0,296;    0,500
694,263;33971,886;    2,341;    2,955
694,836;33955,422;    2,795;    3,591
695,410;32556,776;    1,159;    1,773
695,983;33057,949;    1,614;    0,591
696,556;33009,666;   -0,750;   -1,045
697,129;33417,475;   -1,114;    1,409
697,703;33022,374;    1,341;    1,955
698,276;33028,638;    1,705;   -0,773
698,849;32799,264;   -1,023;    1,409
699,422;33157,982;    1,250;    0,591
699,995;32782,972;   -0,659;    0,136
700,568;33331,963;   -0,204;    3,045
701,140;33384,226;   -1,841;    1,682
701,713;33101,944;    0,341;    2,409
702,286;32846,571;    0,796;    0,864
702,859;32764,743;    0,614;   -0,591
703,432;31800,188;   -0,841;    0,682
704,004;32341,906;    1,978;    0,318
704,577;32259,350;    1,068;    0,136
705,150;32802,705;    0,887;    2,500
705,722;32584,786;    1,523;   -3,227
706,295;32337,504;    1,432;   -0,591
706,867;32170,494;    0,250;    1,955
707,440;32410,030;   -0,113;   -0,409
708,012;32718,111;   -0,022;    0,591
708,584;32577,920;    2,705;    0,227
709,157;32902,638;    1,160;   -0,591
709,729;32565,264;    1,069;    2,045
710,301;33408,346;   -1,204;    0,045
710,874;33432,336;    0,341;   -0,227
711,446;32275,872;   -0,295;    0,864
712,018;32170,408;   -3,022;    0,500
712,590;31829,126;   -0,204;    1,682
713,162;32402,571;   -0,477;    1,318
713,734;32703,561;    1,796;   -2,045
714,306;32557,733;    0,342;   -0,409
714,878;31149,724;   -0,295;    0,864
715,450;31958,169;   -0,113;    0,864
716,022;32271,886;    2,433;    1,318
716,593;32415,513;    0,978;    0,591
717,165;32342,504;    1,796;   -1,227
717,737;32031,585;    0,796;    0,409
718,309;31660,212;    1,160;   -0,045
718,880;31663,839;   -1,295;   -1,409
719,452;31856,011;    0,887;   -1,591
720,024;31355,001;    1,705;   -0,591
720,595;31925,264;    2,978;    0,955
721,167;31432,891;    1,160;   -2,045
721,738;30926,063;    2,069;   -1,045
722,309;30827,327;    1,251;   -1,227
722,881;30639,044;    2,705;    0,773
723,452;31383,308;    1,251;    2,864
724,023;31561,752;    1,524;    2,682
724,595;31304,834;    2,342;    0,682
725,166;31035,915;    1,524;   -0,409
725,737;30669,360;    1,887;    0,227
726,308;30752,351;    0,797;    0,318
726,879;31190,523;    1,069;    1,227
727,450;31083,422;   -2,022;   -0,045
728,021;31043,049;    1,069;    0,682
728,592;30901,858;    1,160;    0,500
729,163;31227,939;    1,433;   -0,136
729,734;31174,930;    2,160;   -0,227
730,305;31560,647;    0,615;    0,136
730,876;31893,092;    0,888;    2,955
731,447;31539,810;    0,797;    2,682
732,017;31681,073;   -0,840;    1,864
732,588;31236,336;   -0,021;    1,227
733,159;31437,236;    3,615;   -1,045
733,729;31273,135;    1,251;    0,409
734,300;30514,853;    0,160;    0,864
734,870;30928,753;   -1,385;    0,591
735,441;31490,925;    0,888;   -0,591
736,011;31232,461;    1,070;   -1,591
736,582;31191,542;    1,251;    0,045
737,152;30546,078;    0,979;   -2,045
737,722;31016,432;    1,070;   -0,682
738,293;30806,877;   -2,021;    1,318
738,863;30688,231;    1,797;    2,318
739,433;30442,131;    4,524;    0,318
740,003;31125,576;    1,524;   -0,682
740,573;30428,021;    2,252;   -1,591
741,143;30397,375;    3,615;    0,318
741,713;31199,638;    0,252;   -0,500
742,283;30838,992;    1,706;    1,591
742,853;30564,619;    0,524;    1,591
743,423;29955,973;    0,161;    0,045
743,993;30106,872;    1,070;    1,500
744,563;29481,044;    2,524;   -0,864
745,133;29398,399;   -0,112;   -0,864
745,702;30124,389;    2,797;    1,773
746,272;29272,834;    0,434;    0,591
746,842;29008,279;   -0,748;   -0,591
747,411;29515,360;   -0,839;   -0,318
747,981;29668,896;   -0,930;    0,500
748,551;29721,341;   -0,021;   -1,045
749,120;29624,422;   -0,112;   -0,227
749,690;29994,231;    2,161;    2,409
750,259;30298,312;    0,979;    2,955
750,828;30170,666;    4,070;   -1,955
751,398;30495,384;   -0,112;   -0,045
751,967;29950,011;    2,888;    0,409
752,536;30167,638;    1,161;   -0,227
753,105;30620,719;   -1,384;    0,227
753,675;30433,710;   -0,112;    1,773
754,244;30390,882;    0,888;    3,591
754,813;30431,963;    0,979;    1,227
755,382;30108,044;    0,798;    0,955
755,951;30613,489;   -0,112;    3,682
756,520;30055,934;    2,525;    1,864
757,089;30613,561;    1,888;    0,500
757,658;30850,552;    2,434;    1,227
758,227;30843,360;   -1,111;    0,318
758,795;31252,987;   -1,021;    1,136
759,364;31477,796;    0,525;   -0,591
759,933;30419,968;    1,343;   -0,045
760,501;29934,322;    0,252;   -1,318
761,070;30381,222;   -0,293;   -1,409
761,639;31160,848;    1,434;    1,318
762,207;30413,293;    0,889;   -0,955
762,776;30396,466;    2,889;    0,864
763,344;30290,456;    0,071;    0,591
763,913;29417,992;    1,616;    1,409
764,481;30163,164;    1,980;   -0,136
765,049;29877,427;    0,616;    1,409
765,618;29749,327;    1,434;    0,318
766,186;29800,135;    2,434;    0,136
766,754;29970,490;    1,798;    1,864
767,322;28931,934;    1,162;    0,409
767,890;28983,289;    0,525;   -1,773
768,459;29380,915;    2,616;   -0,318
769,027;29543,088;    2,525;    3,409
769,595;28523,805;    2,616;    2,591
770,163;28913,341;    3,344;    2,955
770,730;28602,877;    2,525;   -0,136
771,298;28480,231;    1,162;   -1,409
771,866;28503,676;    0,253;    4,955
772,434;28879,939;    1,162;   -1,864
773,002;29072,748;    2,616;    0,682
773,569;28636,829;    1,071;    1,682
774,137;28460,002;    0,889;   -0,045
774,705;29290,265;   -0,747;   -0,136
775,272;28754,619;    0,253;    0,682
775,840;28485,882;   -0,111;    2,682
776,407;27965,872;   -0,293;    1,955
776,975;27575,135;    1,162;    0,318
777,542;28630,580;    2,162;   -0,045
778,110;28471,298;    0,707;   -0,045
778,677;28082,289;    1,071;   -0,864
779,244;27781,734;   -1,020;    1,045
779,812;27955,269;    0,980;    0,864
780,379;27828,805;    2,435;    1,136
780,946;28041,978;    2,617;   -0,773
781,513;28383,514;   -0,565;    0,318
782,080;27659,140;    1,253;    2,864
782,647;28498,040;    1,708;    3,045
783,214;28061,303;   -0,201;    3,864
783,781;27601,930;    1,708;   -0,682
784,348;27510,557;    0,253;    1,500
784,915;28023,365;   -1,474;    0,318
785,482;27712,992;    2,708;    2,591
786,049;28187,073;    1,071;   -0,591
786,615;28258,973;    1,708;   -0,955
787,182;28036,781;   -3,201;   -0,682
787,749;27707,863;   -2,201;    1,409
788,315;26965,217;    0,253;   -0,409
788,882;27318,662;    0,981;   -1,227
789,448;28031,561;    1,435;   -0,955
790,015;27955,097;    1,799;    3,227
790,581;27514,815;    0,708;    0,227
791,148;27405,715;    1,344;    1,045
791,714;27643,069;   -1,019;    3,136
792,280;27318,332;    3,708;    1,591
792,847;26849,959;   -0,928;    2,500
793,413;27463,767;   -0,110;   -0,318
793,979;26940,394;    1,526;   -1,318
794,545;26963,475;    2,981;    2,682
795,111;26360,648;    2,435;    1,318
795,678;26566,729;    3,526;   -1,682
796,244;26181,265;    2,799;    0,136
796,810;26752,164;    0,799;    0,773
797,375;26472,609;   -0,292;   -2,136
797,941;26539,963;   -1,110;    0,591
798,507;26642,136;    0,254;   -0,955
799,073;26164,944;    2,708;    0,591
799,639;26255,116;    1,435;    3,136
800,205;26268,652;   -1,565;    2,682
800,770;25730,734;    1,345;    1,773
801,336;25837,542;    2,981;   -0,955
801,901;25491,987;    6,072;    3,136
802,467;26075,523;    0,526;    2,045
803,033;25318,150;   -0,019;    0,864
803,598;25571,686;    1,072;   -1,045
804,163;25621,585;    0,708;   -0,318
804,729;25536,758;   -0,110;    1,136
805,294;25993,930;    1,072;    2,227
805,859;25789,193;    0,890;   -0,409
806,425;25223,547;    3,890;    2,682
806,990;24876,992;    1,890;    4,318
807,555;25473,710;   -0,110;    2,591
808,120;25250,973;   -1,292;   -0,409
808,685;25238,872;    1,072;   -2,500
809,250;24816,317;    2,072;   -0,500
809,815;25146,399;   -0,201;    0,682
810,380;25653,571;    0,981;    1,591
810,945;26161,925;    2,890;    2,045
811,510;25370,643;   -0,200;    1,591
812,075;25091,270;    2,800;   -1,409
812,640;25092,351;    3,709;    1,409
813,204;25131,796;    2,163;   -0,227
813,769;25640,241;    0,254;   -0,045
814,334;25031,050;    0,527;    0,864
814,898;25036,404;    1,981;    0,591
815,463;24852,667;    0,981;   -0,773
816,027;24833,475;    1,345;   -2,318
816,592;24930,466;    2,163;   -2,045
817,156;24355,729;   -2,200;    1,136
817,721;24199,901;    0,982;    2,318
818,285;24169,346;    0,618;    1,500
818,849;24920,700;   -0,018;    1,682
819,414;24793,054;    0,073;    2,955
819,978;24295,499;   -0,291;    1,773
820,542;24911,126;    2,891;    0,500
821,106;24580,207;    2,800;    0,682
821,670;24677,652;    2,709;    2,591
822,234;24351,188;    1,073;    1,409
822,798;23724,724;   -0,836;    0,500
823,362;23708,533;    1,527;    4,227
823,926;22967,251;   -0,018;    1,136
824,490;23172,514;    3,527;   -0,682
825,054;23699,777;    2,527;   -1,136
825,618;23278,495;   -1,200;   -1,500
826,181;23226,394;    0,982;   -1,318
826,745;23071,021;   -0,745;   -1,045
827,309;23388,466;    2,255;    1,318
827,872;22779,456;    0,527;    0,955
828,436;23829,356;    1,982;   -0,773
828,999;23884,619;    2,436;    1,227
829,563;22664,428;   -0,654;    1,136
830,126;22466,600;   -0,018;   -0,591
830,690;22461,590;    0,709;    2,864
831,253;21934,672;   -0,473;    2,227
831,816;22079,662;   -0,018;    0,500
832,380;22020,289;    1,164;    0,864
832,943;22192,188;    3,073;   -0,500
833,506;21694,088;    0,255;   -1,227
834,069;22531,260;    2,164;   -0,955
834,632;22573,614;   -2,200;    1,318
835,195;22470,877;    1,346;    0,955
835,758;21633,050;    0,709;    1,955
836,321;21482,858;    1,073;   -1,045
836,884;21543,212;   -1,291;   -0,955
837,447;21588,203;    0,528;    1,773
838,010;21804,011;    1,800;    3,227
838,573;22180,547;    0,528;    0,773
839,135;22046,992;   -0,109;   -0,955
839,698;21477,710;    2,528;    0,409
840,261;20955,064;    0,255;   -0,227
840,823;20840,691;   -0,927;    0,864
841,386;21147,772;   -0,018;   -2,409
841,948;20954,853;    0,255;    1,773
842,511;20690,026;    0,255;    1,682
843,073;20880,653;    2,982;    0,227
843,636;20678,825;    0,619;   -0,227
844,198;20528,452;    1,255;    0,591
844,760;20652,897;    0,619;    1,955
845,322;20351,705;    0,164;    1,136
845,885;20829,150;   -0,290;    0,591
846,447;21240,504;    0,710;    0,227
847,009;20765,313;    3,983;   -0,682
847,571;21167,303;    1,346;   -2,045
848,133;21236,021;   -0,199;   -1,864
848,695;21052,284;    2,346;    1,409
849,257;20575,275;    1,346;   -1,682
849,819;20734,174;    2,983;   -0,409
850,381;20756,074;    1,801;   -0,864
850,942;21133,519;    1,892;   -0,591
851,504;21059,509;    0,983;    0,227
852,066;21117,136;    1,619;   -1,591
852,628;20658,217;    0,165;    1,955
853,189;20226,662;    0,256;    2,682
853,751;20327,198;   -0,654;    1,409
854,312;20153,734;    1,256;   -1,682
854,874;20695,633;   -0,108;   -0,773
855,435;21173,351;    0,528;   -1,682
855,997;21352,614;    3,983;   -0,136
856,558;20576,696;    0,801;    1,773
857,119;20733,141;   -0,744;    2,864
857,681;20366,495;   -0,108;    0,318
858,242;20404,758;    1,347;   -2,136
858,803;20836,930;    1,074;   -0,773
859,364;21450,648;    0,892;   -4,773
859,925;20797,547;   -0,290;   -0,955
860,486;20663,992;    0,529;   -0,955
861,047;20357,983;    0,165;   -1,227
861,608;20188,791;    0,165;   -0,773
862,169;20344,600;   -0,562;   -0,045
862,730;20062,772;   -0,290;    1,409
863,291;20308,126;    0,438;   -0,500
863,852;20643,208;   -0,926;    1,955
864,412;20079,925;   -1,835;   -0,864
864,973;18562,189;    1,892;    0,500
865,534;18447,270;    2,074;    0,227
866,094;20044,442;    2,620;    0,227
866,655;19639,978;    4,711;    3,318
867,215;19922,514;    0,074;    0,136
867,776;19774,777;   -1,199;   -0,136
868,336;19892,040;    1,529;    0,136
868,897;19285,576;    3,438;    1,682
869,457;19047,385;    3,256;    0,318
870,017;19270,921;    2,438;   -1,227
870,578;19820,093;    1,893;    0,773
871,138;19463,174;    2,620;   -0,955
871,698;19000,528;   -0,562;   -1,318
872,258;18837,155;    0,711;   -2,864
872,818;19228,236;    2,347;    0,045
873,378;19197,318;   -2,198;    1,045
873,938;18738,854;    4,984;    0,500
874,498;19058,299;    1,256;   -1,955
875,058;18951,653;    4,347;    1,773
875,618;18767,643;    1,438;   -2,682
876,177;18754,634;   -0,471;    0,136
876,737;18297,624;   -0,289;    1,955
877,297;18283,433;    2,711;    1,955
877,856;18323,059;    2,529;    0,318
878,416;18234,504;    2,438;   -0,136
878,976;18484,858;    3,438;    0,409
879,535;18732,303;    4,529;    3,136
880,095;18377,476;    1,347;    0,045
880,654;18495,557;    0,347;    1,318
881,213;18568,729;    2,347;    1,500
881,773;18239,356;    1,984;    2,682
882,332;18573,437;    6,075;    5,136
882,891;18429,246;    0,711;    2,136
883,451;18890,146;   -2,016;    1,682
884,010;18368,045;   -1,107;   -0,409
884,569;18484,126;   -2,289;   -0,045
885,128;18586,571;   -0,743;   -1,864
885,687;18629,107;   -0,743;    0,682
886,246;18315,098;    2,620;    2,136
886,805;18010,997;    1,620;    2,045
887,364;18391,079;    1,166;   -0,500
887,922;18781,251;   -0,016;    0,045
888,481;18264,969;    1,530;    0,591
889,040;18552,868;    3,711;    2,136
889,599;19256,040;    2,166;    1,409
890,157;19323,031;    2,166;    2,409
890,716;18972,021;    2,166;    0,227
891,274;18731,284;    0,075;   -1,136
891,833;19203,093;    1,166;    0,864
892,391;19059,447;    1,802;    0,500
892,950;19198,983;    0,166;   -0,773
893,508;19515,337;    0,984;   -0,409
894,067;18851,327;   -0,379;    0,136
894,625;18751,227;   -1,016;   -1,500
895,183;19003,126;   -0,198;   -0,682
895,741;18898,481;    2,257;   -1,773
896,299;18741,471;    1,621;   -2,409
896,858;18937,007;    1,530;   -1,591
897,416;19049,452;    0,166;   -1,318
897,974;18773,442;   -2,197;    0,318
898,532;18913,524;    6,530;    2,682
899,089;18821,059;    0,621;   -0,682
899,647;18858,323;    0,530;    1,318
900,205;18589,949;    0,257;    1,045
900,763;18819,849;    2,166;    0,227
901,321;18766,203;    3,530;   -1,409
901,878;18190,012;    3,257;   -0,773
902,436;18056,457;    0,257;    1,318
902,994;18409,447;    6,712;    3,682
903,551;17845,983;    1,439;    0,409
904,109;18267,064;    1,530;   -1,409
904,666;17849,418;    1,439;    1,045
905,224;17690,500;    3,894;   -0,409
905,781;17371,036;   -0,470;   -0,318
906,338;17446,299;    0,167;    1,045
906,895;17394,471;    1,894;    2,045
907,453;17289,461;    2,348;    1,136
908,010;17310,361;    3,348;    0,409
908,567;16920,442;   -0,561;    0,591
909,124;16464,069;    2,439;   -1,500
909,681;16541,241;   -1,288;    0,682
910,238;16656,050;   -0,106;   -1,318
910,795;16963,222;   -1,561;   -1,136
911,352;16573,222;   -0,379;   -2,682
911,909;15913,859;    2,803;   -0,864
912,466;16441,677;    1,985;    1,500
913,022;15966,313;   -0,924;    0,500
913,579;16317,495;   -0,470;    2,045
914,136;15983,495;   -2,561;    0,955
914,692;16367,768;    1,530;   -1,227
915,249;15896,131;    0,530;    0,409
915,806;16114,768;    1,803;    1,955
916,362;15789,313;    0,894;    1,864
916,918;15354,313;    2,439;    1,045
917,475;15331,677;    1,621;    0,955
918,031;15470,768;    0,076;   -0,045
918,587;14879,040;    0,621;   -0,318
919,144;15125,404;   -0,379;    0,227
919,700;15477,859;    0,167;    0,773
920,256;15036,586;    0,439;    0,045
920,812;14629,495;    1,439;   -1,045
921,368;14586,949;    1,348;   -1,045
921,924;14234,404;    0,439;   -0,136
922,480;13785,768;    0,076;    1,227
923,036;14394,222;   -0,652;    1,955
923,592;14339,859;    0,621;    0,318
924,148;14234,586;    1,894;   -0,955
924,704;13530,404;    0,258;   -0,409
925,259;13778,949;   -0,561;    0,591
925,815;13525,677;    3,803;    0,500
926,371;13046,586;    3,530;    1,409
926,926;12907,040;    1,621;    0,591
927,482;12547,404;    1,621;    0,773
928,037;12404,222;   -0,833;    2,045
928,593;12684,586;    0,258;    1,045
929,148;12469,949;    1,167;   -1,500
929,704;11952,859;    2,439;   -0,500
930,259;12129,859;    0,894;   -0,136
930,814;11157,222;    1,803;    1,955
931,369;10847,677;    0,258;   -0,773
931,925;10722,131;   -1,924;    0,136
932,480;10606,859;    3,076;   -2,591
933,035;10449,131;    3,985;   -0,318
933,590;10193,859;   -1,742;   -1,773
934,145; 9848,949;   -1,288;   -0,318
934,700;10213,131;    0,348;   -0,591
935,255; 9966,495;    4,803;    0,045
935,809; 9162,131;    6,258;    0,864
936,364; 8239,313;    2,167;   -0,136
936,919; 8223,768;    2,348;   -1,773
937,474; 8093,313;    1,348;    0,136
938,028; 7843,586;    3,076;    1,136
938,583; 7217,859;    6,348;    4,682
939,138; 7519,313;    0,167;    2,136
939,692; 6973,222;   -1,015;   -1,136
940,247; 6565,586;    1,167;   -1,045
940,801; 6083,222;    0,621;    0,227
941,355; 6009,313;    0,439;    2,591
941,910; 5646,222;    0,712;   -2,136
942,464; 5724,040;    2,712;   -0,318
943,018; 5487,313;    3,258;   -0,227
943,572; 5437,586;    2,803;   -0,682
944,126; 4801,859;   -0,924;   -0,409
944,681; 4682,404;    0,712;    0,227
945,235; 4652,768;    2,167;   -0,591
945,789; 4589,949;    1,258;   -1,864
946,342; 4661,040;   -0,561;   -0,591
946,896; 4483,313;    0,348;    0,955
947,450; 4233,859;   -0,561;   -0,227
948,004; 4399,222;    1,076;   -0,045
948,558; 4441,586;    1,258;   -0,864
949,111; 4360,222;   -1,197;   -0,318
949,665; 4355,404;   -0,106;   -0,682
950,219; 4230,677;    0,621;   -1,045
950,772; 4328,131;    0,258;    1,864
951,326; 4222,313;   -1,106;   -0,955
951,879; 4343,222;    1,076;   -2,318
952,433; 4364,768;    1,348;    2,227
952,986; 4164,768;    0,348;    0,682
953,539; 4097,768;    1,530;    0,591
954,093; 4045,313;    0,985;   -1,318
954,646; 4174,495;   -0,288;    1,318
955,199; 3976,677;    1,258;   -0,500
955,752; 3821,677;    1,985;    1,773
956,305; 3808,404;    0,894;    2,955
956,858; 3991,404;    0,621;   -0,318
957,411; 4175,404;    3,621;    2,136
957,964; 3983,222;    2,076;    2,136
958,517; 3993,131;    0,985;    3,136
959,070; 3796,404;   -1,197;    1,955
959,623; 3853,768;    1,076;    1,500
960,176; 3616,495;    0,712;    2,045
960,728; 3602,040;    1,712;    0,773
961,281; 3660,586;    2,258;    0,500
961,834; 3696,586;   -0,833;    0,864
962,386; 3630,949;    1,258;    1,045
962,939; 3550,222;    3,439;   -0,318
963,491; 3706,586;    2,621;    1,136
964,043; 3561,495;    0,076;    2,409
964,596; 3685,131;    1,712;    2,227
965,148; 3522,495;   -0,379;    1,773
965,700; 3441,859;   -0,015;   -0,227
966,253; 3599,586;   -0,833;    0,318
966,805; 3408,949;    1,894;    0,773
967,357; 3467,404;    0,439;   -1,500
967,909; 3382,495;    1,167;   -1,227
968,461; 3537,404;    0,894;    3,136
969,013; 3479,495;   -1,561;   -0,864
969,565; 3531,586;    1,803;   -1,136
970,117; 3568,131;    3,803;    1,045
970,669; 3437,222;    3,258;   -0,136
971,220; 3305,859;    2,167;   -1,500
971,772; 3212,131;    1,348;   -0,318
972,324; 3317,222;   -1,197;   -0,500
972,876; 3287,768;    0,167;   -0,045
973,427; 3409,040;   -1,197;   -1,045
973,979; 3369,949;    0,076;   -2,500
974,530; 3434,313;    0,803;    1,318
975,082; 3437,677;    2,167;    1,682
975,633; 3313,040;    2,894;    1,682
976,184; 3475,768;    2,076;    0,773
976,736; 3256,949;    0,348;    0,227
977,287; 3016,949;    0,258;   -0,500
977,838; 3206,040;   -0,924;   -0,318
978,389; 3271,131;    0,803;   -0,500
978,940; 3154,222;    1,258;   -0,409
979,491; 3183,131;    2,258;   -0,500
980,042; 3135,586;   -0,652;    3,045
980,593; 3200,404;    1,894;    0,227
981,144; 3247,768;    3,530;   -0,500
981,695; 3179,495;   -0,470;    1,500
982,246; 3157,859;   -1,833;    1,045
982,797; 3330,495;   -0,561;    0,682
983,347; 3448,859;    2,167;    0,591
983,898; 3589,586;    4,167;    0,409
984,449; 3381,859;    2,530;    0,773
984,999; 3328,222;    1,894;   -1,136
985,550; 3088,040;    3,167;   -0,318
986,100; 3154,949;    0,712;   -0,318
986,651; 3170,040;    0,258;    0,045
987,201; 3161,677;    0,894;   -0,591
987,751; 3248,495;   -0,288;    2,864
988,302; 3221,313;   -0,379;    1,500
988,852; 3238,313;    1,985;   -1,136
989,402; 3263,768;    0,985;    0,682
989,952; 3168,677;    1,621;    0,864
990,502; 3294,131;    1,076;    0,682
991,052; 3294,586;   -0,106;    0,045
991,602; 3143,404;    1,167;    1,318
992,152; 3112,222;    2,803;    0,682
992,702; 3095,313;    1,167;   -0,045
993,252; 3016,586;    0,076;   -0,500
993,802; 3102,040;    1,167;    1,318
994,352; 3361,404;   -0,742;    1,136
994,901; 3503,313;    1,076;    3,227
995,451; 3392,859;   -1,197;    0,318
996,000; 3466,677;    1,076;    0,318
996,550; 3144,404;    2,894;    0,227
997,100; 3164,768;   -0,561;   -0,045
997,649; 3456,677;   -0,197;    0,955
998,198; 3071,495;   -0,288;   -1,500
998,748; 3239,677;    0,348;   -2,318
999,297; 3177,495;    0,985;   -0,409
999,846; 3240,768;    1,894;   -0,773
1000,395; 3296,495;    1,530;    0,500
1000,945; 3210,949;    1,076;   -0,773
1001,494; 3307,040;    0,167;    0,682
1002,043; 3298,222;    0,712;    0,864
1002,592; 3147,404;    3,439;    1,955
1003,141; 3307,495;    2,439;   -0,682
1003,690; 3129,768;    1,258;    0,500
1004,238; 3225,404;   -0,106;   -0,045
1004,787; 2817,404;   -1,288;    1,227
1005,336; 3066,949;    1,621;    0,682
1005,885; 3248,949;   -0,197;   -2,773
1006,433; 3385,949;   -0,470;    0,955
1006,982; 3425,222;    2,167;    1,682
1007,531; 3365,859;    2,712;   -0,227
1008,079; 3338,222;    0,258;    0,500
1008,627; 3482,222;    1,621;    0,409
1009,176; 3188,222;    0,076;   -1,955
1009,724; 3220,768;   -2,742;    0,864
1010,273; 3265,677;    1,076;    0,500
1010,821; 3429,677;    1,076;    1,409
1011,369; 3140,313;    0,076;    1,318
1011,917; 3119,949;   -0,833;   -0,591
1012,465; 3419,040;    2,530;   -1,591
1013,013; 3545,495;    0,439;   -1,682
1013,561; 3388,404;   -1,288;   -0,773
1014,109; 3441,404;   -0,833;    1,682
1014,657; 3301,586;    1,348;    0,591
1015,205; 3435,040;    0,894;   -0,955
1015,753; 3494,040;    0,258;   -1,409
1016,301; 3522,313;    2,621;    3,045
1016,848; 3533,677;    2,167;    0,409
1017,396; 3554,222;    1,621;    0,045
1017,944; 3689,495;    2,621;    1,864
1018,491; 3446,222;   -0,197;    1,409
1019,039; 3571,313;   -0,652;    0,591
1019,586; 3527,495;    0,076;    1,682
1020,134; 3647,131;    0,712;    1,500
1020,681; 3624,404;    2,894;   -1,136
1021,228; 3665,131;   -0,561;   -2,227
1021,776; 3510,949;   -0,833;   -1,136
1022,323; 3708,768;    0,803;    0,773
1022,870; 3630,404;   -0,470;   -0,045
1023,417; 3511,131;    2,076;    1,864
1023,964; 3684,677;    0,621;    1,227
1024,511; 3496,859;   -0,652;    0,773
1025,058; 3281,040;    0,439;   -0,045
1025,605; 3338,768;   -1,742;    3,136
1026,152; 3545,313;   -0,106;   -0,591
1026,699; 3281,222;    0,167;    1,318
1027,245; 3473,313;    2,439;    0,318
1027,792; 3705,040;    0,712;    1,409
1028,339; 3552,949;    4,076;   -0,045
1028,885; 3426,768;    3,621;   -0,227
1029,432; 3358,586;   -0,106;    0,227
1029,978; 3399,131;    1,348;   -1,591
1030,525; 3297,404;    1,621;    0,409
1031,071; 3565,313;    0,348;    1,136
1031,618; 3650,222;    1,258;    1,682
1032,164; 3441,131;    2,076;    3,045
1032,710; 3496,586;    0,076;   -1,500
1033,256; 3424,404;    0,712;   -0,136
1033,803; 3414,131;   -0,288;    1,500
1034,349; 3147,222;    1,803;    0,136
1034,895; 3287,859;    2,621;   -0,318
1035,441; 3270,313;    0,439;    0,318
1035,987; 3267,040;   -2,288;   -0,682
1036,533; 3234,404;   -0,197;   -0,955
1037,078; 3435,131;    4,712;    1,682
1037,624; 3264,040;    2,439;   -0,955
1038,170; 3301,859;    1,712;   -0,318
1038,716; 3180,949;    2,167;   -0,409
1039,261; 3118,495;    2,167;   -0,773
1039,807; 3058,313;   -0,015;    3,409
1040,352; 3113,859;   -1,288;   -0,318
1040,898; 3174,768;    0,167;   -0,682
1041,443; 3057,404;    0,803;   -2,591
1041,989; 3051,859;    3,621;    1,591
1042,534; 2950,677;    0,985;    2,591
1043,079; 3098,131;    1,985;    0,955
1043,625; 2848,222;    0,258;    0,500
1044,170; 2883,040;    2,439;    1,045
1044,715; 3140,404;    0,167;    0,955
1045,260; 2941,949;   -0,833;   -0,955
1045,805; 3019,131;    0,258;   -0,591
1046,350; 2974,586;    0,530;   -0,409
1046,895; 2917,313;    0,803;    1,591
1047,440; 2824,768;    1,530;    0,409
1047,985; 2753,131;   -1,197;   -0,955
1048,530; 2662,768;    1,348;    1,227
1049,074; 2734,586;    2,803;    0,318
1049,619; 2705,859;   -0,924;    1,955
1050,164; 2498,677;    1,076;    0,227
1050,708; 2547,859;    2,621;    0,045
1051,253; 2902,768;    3,258;   -2,227
1051,797; 2618,040;   -0,197;   -1,318
1052,342; 2673,404;    1,348;    1,045
1052,886; 2633,859;    1,803;   -1,409
1053,430; 2522,677;    2,167;    0,136
1053,975; 2528,768;    0,894;   -0,318
1054,519; 2486,313;    1,803;    3,227
1055,063; 2483,586;    3,621;    1,318
1055,607; 2363,040;    1,348;    0,227
1056,151; 2390,586;    0,530;    1,682
1056,695; 2333,222;   -1,833;   -1,136
1057,239; 2394,222;   -1,197;   -0,682
1057,783; 2386,495;    2,258;   -1,500
1058,327; 2334,949;    3,076;    1,409
1058,871; 2549,495;    3,985;    1,318
1059,415; 2255,222;   -0,561;   -0,045
1059,958; 2489,495;    2,985;    2,591
1060,502; 2230,768;    1,348;   -0,773
1061,046; 2144,404;    1,712;   -0,955
1061,589; 2131,404;    2,803;   -1,136
1062,133; 2008,313;    0,985;    1,864
1062,676; 1943,859;    1,439;    0,864
1063,220; 1915,768;    0,985;    0,500
1063,763; 1936,404;    2,985;    1,136
1064,306; 2018,040;    0,985;    1,864
1064,849; 1899,404;    2,076;    0,591
1065,393; 1920,586;    2,894;   -1,500
1065,936; 2048,768;    2,530;   -0,409
1066,479; 1934,586;    2,621;    1,318
1067,022; 1940,404;    1,894;   -0,227
1067,565; 1835,768;   -1,197;   -1,318
1068,108; 1885,495;    1,258;   -0,591
1068,651; 1859,859;   -2,470;    1,409
1069,194; 1777,586;   -1,106;   -1,682
1069,736; 1751,131;    3,803;    0,955
1070,279; 1755,677;   -1,652;   -0,500
1070,822; 1791,131;    1,530;   -0,318
1071,364; 1842,859;    0,530;    1,318
1071,907; 1682,040;    0,348;    3,227
1072,450; 1602,495;    0,258;   -0,045
1072,992; 1580,677;   -0,561;    3,136
1073,535; 1707,404;    0,167;    2,136
1074,077; 1510,768;    2,985;    2,045
1074,619; 1474,768;    0,985;    0,591
1075,161; 1491,677;   -0,561;    1,500
1075,704; 1678,768;    0,258;    1,227
1076,246; 1493,586;    1,530;    0,682
1076,788; 1427,131;   -1,015;    1,773
1077,330; 1517,859;   -2,106;    2,136
1077,872; 1453,404;   -1,924;    0,955
1078,414; 1667,677;    3,712;    0,773
1078,956; 1387,495;    0,167;   -0,227
1079,498; 1635,404;    0,439;    0,318
1080,040; 1326,949;    0,985;   -1,318
1080,581; 1292,677;    0,621;   -0,318
1081,123; 1244,313;   -0,106;   -0,773
1081,665; 1293,313;    3,803;   -0,955
1082,206; 1557,222;    3,258;   -0,500
1082,748; 1416,040;    3,258;    2,045
1083,289; 1323,768;    0,167;    1,318
1083,831; 1226,859;    0,258;    0,227
1084,372; 1240,859;    0,894;    0,591
1084,913; 1240,495;    3,348;    0,864
1085,455; 1228,677;    1,530;   -2,045
1085,996; 1198,949;    0,530;    0,136
1086,537; 1197,131;    0,985;    0,864
1087,078; 1239,677;    0,439;   -2,136
1087,619; 1275,859;   -1,652;    0,227
1088,160; 1186,859;    1,439;    1,318
1088,701; 1181,222;   -0,742;    0,682
1089,242; 1113,949;   -0,561;   -2,227
1089,783; 1211,586;   -0,561;    1,409
1090,324; 1167,404;   -0,833;    0,682
1090,865; 1061,404;   -1,924;   -0,409
1091,405; 1055,495;   -0,561;    2,227
1091,946; 1079,768;   -0,197;   -0,955
1092,487;  996,495;   -1,288;   -1,409
1093,027; 1144,404;    1,803;   -1,500
1093,568;  996,040;    2,258;    1,227
1094,108; 1076,949;    0,621;    1,773
1094,649; 1028,768;   -0,470;    0,136
1095,189;  971,768;    1,167;   -0,682
1095,729;  905,586;    0,712;    0,955
1096,269;  922,222;    1,258;   -0,955
1096,810; 1237,131;   -0,197;    0,500
1097,350; 1054,222;   -0,561;   -0,773
1097,890;  956,040;    2,985;    1,227
1098,430; 1184,677;    4,985;    2,864
1098,970; 1065,131;    1,894;    1,682
1099,510;  960,040;   -0,833;   -2,318
1100,050;  882,586;    0,258;   -1,591
1100,589;  834,222;    0,076;   -0,318
1101,129;  958,222;    0,894;   -0,955
1101,669; 1083,586;    2,803;    2,136
1102,209;  926,586;    1,530;    2,227
1102,748;  879,222;    3,439;    0,955
1103,288;  874,040;    0,712;   -1,227
1103,827;  885,495;    3,530;   -2,227
1104,367;  769,313;    1,712;   -2,409
1104,906;  737,040;   -1,015;   -1,136
1105,445;  811,040;    0,985;   -1,136
1105,985;  742,677;   -0,652;    1,500
1106,524;  782,040;    1,530;   -0,682
1107,063;  760,313;    1,167;    1,409
1107,602;  746,495;    1,894;   -1,500
1108,141;  658,677;    1,621;    1,500
1108,680;  755,404;    3,985;   -0,591
1109,219;  704,677;    0,167;   -0,500
1109,758;  710,131;    4,167;    0,682
1110,297;  682,495;   -1,106;   -0,682
1110,836;  626,495;    1,439;    0,955
1111,375;  772,677;    0,348;    0,409
1111,913;  793,677;    0,985;    0,773
1112,452;  726,586;    0,894;    0,136
1112,991;  622,495;    1,076;    1,955
1113,529;  576,768;    0,167;   -0,045
1114,068;  641,222;    0,439;    2,955
1114,606;  543,677;   -0,561;   -0,955
1115,144;  693,949;    1,530;    1,045
1115,683;  626,768;    1,985;    0,318
1116,221;  686,859;    2,076;   -0,864
1116,759;  608,495;    1,621;   -0,864
1117,297;  783,768;    1,621;    1,864
1117,836;  596,677;    1,985;   -1,227
1118,374;  593,131;    0,258;   -0,682
1118,912;  549,404;    0,439;    2,682
1119,450;  535,859;    0,985;    0,864
1119,988;  582,949;    3,348;    2,136
1120,525; 1029,768;    7,258;    3,318
1121,063;  729,040;    0,530;    1,864
1121,601;  546,495;    1,076;   -1,227
1122,139;  503,222;    1,076;   -2,045
1122,676;  684,859;   -1,652;    2,773
1123,214;  627,222;    0,712;    4,409
1123,751;  443,222;    0,621;    2,227
1124,289;  572,313;    0,894;   -0,409
1124,826;  437,404;   -0,379;    0,227
1125,364;  371,586;    0,712;   -0,955
1125,901;  551,495;    6,258;    1,227
1126,438;  640,677;    3,530;    0,955
1126,975;  391,495;    2,985;   -0,773
1127,513;  455,495;    2,621;    2,136
1128,050;  368,768;   -0,561;   -0,682
1128,587;  460,949;    1,348;   -0,227
1129,124;  501,586;   -0,015;    1,318
1129,661;  381,859;   -1,924;    0,227
1130,198;  539,313;    2,439;    0,773
1130,734;  475,313;   -0,379;    1,409
1131,271;  338,768;   -1,197;    0,864
1131,808;  502,859;    1,621;    3,045
1132,345;  370,586;    4,530;    0,318
1132,881;  260,859;   -0,561;   -1,864
1133,418;  389,404;    0,348;   -1,136
1133,954;  334,313;    0,712;   -2,682
1134,491;  395,949;    1,712;   -0,773
1135,027;  305,131;    2,167;    0,864
1135,564;  376,040;    1,439;    2,955
1136,100;  366,768;   -0,742;    2,136
1136,636;  278,949;   -1,015;   -1,045
1137,172;  358,859;    0,894;   -1,045
1137,708;  284,040;   -1,561;   -1,045
1138,245;  281,222;    0,803;   -1,227
1138,781;  244,131;    1,803;   -3,318
1139,317;  302,040;    1,894;   -1,409
1139,852;  295,586;    3,076;    0,136
1140,388;  395,313;    2,076;   -0,409
1140,924;  291,313;    1,076;   -2,227
1141,460;  234,859;   -0,288;    0,136
1141,996;  167,768;   -0,652;    2,682
1142,531;  210,677;    1,076;    3,318
1143,067;  425,859;    1,167;    1,045
1143,602;  476,040;    3,439;   -0,318
1144,138;  318,586;    0,803;    1,045
1144,673;  201,586;    1,621;    1,409
1145,209;  266,040;    2,894;   -0,318
1145,744;  185,131;    0,803;    0,864
1146,279;  308,313;    1,530;   -0,136
1146,815;  226,677;    1,530;   -2,682
1147,350;  264,586;   -0,924;    0,045
1147,885;  182,313;   -1,924;   -1,318
1148,420;  187,313;    2,439;    0,773
1148,955;  172,495;   -1,470;    1,864
1149,490;  197,131;   -1,106;   -1,591
1150,025;  185,131;   -1,106;   -1,773
1150,560;  285,768;   -0,288;   -0,955
1151,094;  252,859;    0,258;   -0,591
1151,629;  250,859;   -3,742;    0,864
1152,164;  176,040;   -1,288;    1,318
1152,698;  140,131;    1,258;   -0,136
1153,233;  101,040;   -1,379;   -0,682
1153,767;  149,859;   -0,288;   -2,318
1154,302;  204,404;   -0,379;    1,773
1154,836;  197,586;    0,803;   -2,136
1155,371;  252,131;    2,258;    3,682
1155,905;  205,768;    1,985;    1,682
1156,439;  171,677;    0,530;   -0,500
1156,973;  200,404;    0,439;    0,318
1157,507;  144,586;   -1,742;    0,682
1158,042;  167,768;   -0,652;    1,045
1158,576;  206,495;   -0,561;    1,773
1159,110;  191,313;    0,076;    2,409
1159,643;  173,222;   -2,470;   -0,045
1160,177;  117,677;   -2,015;    1,500

