
Integration time [ms]:   0,050
Averaging Nr. [scans]: 11
Smoothing Nr. [pixels]: 0
Data measured with spectrometer [name]: 7318044SP
Wave   ;Sample   ;Dark     ;Reference
[nm]   ;[counts] ;[counts] ;[counts] 

186,757;   -8,590;   38,161;    1,318
187,357;   22,239;   26,706;    0,955
187,958;    4,079;   17,252;   -1,591
188,558;   54,745;   12,979;   -1,227
189,159;   34,646;   10,070;   -4,500
189,759;    7,960;    5,797;   -3,591
190,360;    9,852;    6,797;   -2,136
190,960;   46,205;    5,706;   -4,136
191,560;   56,923;    2,614;   -6,591
192,161;  299,662;    5,885;   -3,500
192,761;  142,720;    5,520;   -3,227
193,361;   92,210;    3,065;   -3,773
193,962;  139,462;    1,612;   -2,682
194,562;   69,086;   -0,114;   -3,955
195,162;  103,730;   -0,567;   -2,227
195,762;  278,067;    2,433;   -0,045
196,362;  224,603;    1,706;   -2,500
196,963;   86,701;    1,706;   -0,864
197,563;  158,850;    1,252;   -0,955
198,163;  106,025;   -0,111;   -0,682
198,763;  129,634;   -0,020;   -0,500
199,363;  232,642;    3,616;   -0,500
199,963;  198,374;    2,162;    0,409
200,563;  173,869;    6,344;   -1,409
201,163;  161,679;    5,435;   -0,227
201,763;  258,608;    1,435;    0,318
202,363;  188,793;    0,980;    1,500
202,963;  306,184;    1,526;    1,045
203,563;  417,788;    0,344;    0,500
204,162;  269,755;    1,889;   -1,864
204,762;  253,373;    2,071;    0,591
205,362;  225,548;    0,708;    1,955
205,962;  320,483;    3,435;    1,955
206,562;  335,454;    1,889;    2,318
207,161;  303,405;    1,708;    0,318
207,761;  455,216;    4,435;    2,409
208,361;  340,511;    1,889;    1,409
208,960;  429,906;    2,889;    1,500
209,560;  515,961;    0,435;    1,591
210,160;  494,942;    5,071;    1,864
210,759;  469,742;    0,708;    1,227
211,359;  473,359;   -0,474;    1,045
211,958;  747,440;    3,526;    2,045
212,558;  834,172;    0,799;    1,864
213,157;  673,177;   -0,929;    1,500
213,757; 1130,172;    5,617;   -0,227
214,356;  826,705;    1,708;   -0,409
214,956; 1166,435;    3,526;    0,409
215,555;  806,699;    0,617;    2,136
216,154;  733,188;   -0,292;   -0,591
216,754;  755,887;    1,253;    0,773
217,353;  908,095;   -0,383;   -1,045
217,952;  779,965;    2,072;    0,318
218,552; 1004,616;    0,254;   -0,773
219,151;  913,551;   -1,110;    0,955
219,750;  922,985;    0,890;   -0,227
220,349; 1105,744;   -2,292;    1,045
220,948; 1138,945;    1,163;    1,136
221,548; 1222,257;    0,617;    1,227
222,147; 1339,311;   -1,292;   -0,409
222,746; 1620,538;    1,254;   -0,955
223,345; 1512,974;   -1,019;    0,500
223,944; 1552,575;    1,163;    0,773
224,543; 1774,842;    4,072;   -1,409
225,142; 1880,499;    1,345;    0,136
225,741; 1807,095;    1,163;    1,045
226,340; 1848,565;    1,254;   -0,955
226,939; 2343,464;    2,708;   -0,136
227,538; 2400,178;    1,163;   -0,773
228,137; 2535,951;    0,435;    0,864
228,735; 2793,754;    0,435;    1,227
229,334; 2498,453;   -0,474;   -0,227
229,933; 2879,097;    0,799;    0,591
230,532; 3018,379;   -1,201;   -0,409
231,131; 3088,754;    1,253;    0,318
231,729; 3308,207;    1,163;   -2,318
232,328; 3532,038;    0,435;   -1,500
232,927; 3670,724;    4,526;   -0,500
233,525; 3834,090;    0,981;    0,045
234,124; 4079,435;    1,890;   -1,591
234,723; 4177,187;    1,617;   -1,045
235,321; 4381,382;    1,163;    0,136
235,920; 4647,222;    2,526;   -1,227
236,518; 4959,144;    1,072;    0,318
237,117; 5265,236;    2,890;   -0,227
237,715; 5477,432;    1,163;   -0,500
238,314; 5510,332;    1,708;   -2,318
238,912; 5594,367;    0,526;   -1,409
239,510; 5709,855;    1,162;   -1,227
240,109; 5907,189;   -0,474;    3,773
240,707; 5993,135;   -0,474;    1,227
241,305; 6516,089;   -0,383;    0,136
241,904; 6763,544;   -0,292;   -2,045
242,502; 6698,678;    3,253;   -0,227
243,100; 6711,949;    3,344;   -0,955
243,698; 7002,145;    2,799;    1,682
244,297; 7206,286;   -0,656;    0,682
244,895; 7012,989;   -0,474;   -2,318
245,493; 7413,916;    2,981;   -0,591
246,091; 7545,460;    5,163;   -1,318
246,689; 7541,809;    2,163;    0,591
247,287; 7728,760;   -0,019;   -1,136
247,885; 8095,956;   -1,019;    1,227
248,483; 8229,165;   -0,201;   -0,500
249,081; 8372,376;    0,981;    1,591
249,679; 8607,263;   -1,019;    1,682
250,277; 8919,310;   -2,292;    0,864
250,875; 8919,054;    0,617;   -1,045
251,473; 9013,013;   -0,019;    0,500
252,071; 9211,074;   -0,383;    1,045
252,669; 9369,757;   -1,565;    0,318
253,267; 9718,245;    1,618;    0,773
253,864; 9716,305;    0,617;    0,682
254,462; 9515,458;    1,526;    1,591
255,060; 9553,568;    0,072;    1,318
255,658; 9953,757;   -3,292;   -0,136
256,255;10439,472;   -0,201;   -2,045
256,853;10295,229;    2,345;    1,409
257,451;10330,796;    1,981;    1,864
258,048;10575,179;    2,072;    1,864
258,646;10372,990;    0,436;   -1,045
259,243;10596,138;    2,981;    2,227
259,841;10680,827;    1,799;    0,318
260,438;10526,844;    0,254;    0,864
261,036;11404,153;    0,617;    1,409
261,633;11331,785;    1,526;    2,227
262,231;11071,839;   -0,110;   -0,045
262,828;11188,234;   -0,383;    1,136
263,425;11232,241;   -1,928;   -0,591
264,023;11496,023;    1,436;    0,045
264,620;11020,597;    1,526;   -0,318
265,217;11420,225;    2,890;    3,136
265,815;11575,620;    2,527;    2,136
266,412;11300,254;    0,072;    0,136
267,009;11368,327;    0,526;    0,773
267,606;11215,899;    0,345;   -0,955
268,203;11242,428;   -0,383;   -0,591
268,801;11582,505;   -0,474;    0,591
269,398;11946,034;   -0,564;    2,500
269,995;11957,871;    0,890;    1,591
270,592;11682,852;    0,799;   -0,500
271,189;11963,342;    1,981;    0,409
271,786;12090,018;    2,072;    1,227
272,383;11854,364;   -0,383;    0,227
272,980;12134,594;    1,617;    0,318
273,577;12703,225;    2,162;    1,227
274,174;12213,408;    1,435;    2,591
274,771;12219,666;    1,890;   -0,773
275,367;12361,210;    3,253;    1,409
275,964;12313,817;   -0,565;   -0,500
276,561;12509,527;   -2,474;   -1,045
277,158;12803,354;    1,799;   -1,773
277,755;12883,103;   -0,110;    0,409
278,351;12232,612;    0,436;   -1,500
278,948;12591,690;   -0,201;    0,045
279,545;12622,280;    0,527;    2,318
280,141;13297,921;    1,254;   -2,045
280,738;13185,001;    2,435;   -0,136
281,334;13501,671;   -0,383;    0,591
281,931;12791,383;    2,890;   -1,318
282,528;12929,619;    4,072;   -0,500
283,124;13756,186;    3,345;   -0,500
283,721;13681,416;    0,709;    1,409
284,317;13500,376;    0,163;    2,500
284,913;14080,319;   -0,110;    0,591
285,510;14317,046;    2,890;   -0,318
286,106;14391,824;    2,345;   -0,955
286,703;13929,976;    0,072;    1,955
287,299;14175,645;    1,254;   -0,591
287,895;14470,905;    0,890;   -1,045
288,491;15157,580;    0,163;    2,136
289,088;14808,310;    0,163;    2,409
289,684;14854,666;    2,890;    1,500
290,280;14877,150;    1,890;    0,682
290,876;14968,548;    0,163;    5,500
291,472;14845,570;    2,163;    2,227
292,068;14974,126;    1,254;    0,227
292,665;14664,645;   -0,564;    0,773
293,261;14189,553;   -1,292;    2,136
293,857;14620,758;    4,072;    2,136
294,453;14606,901;   -0,928;    0,955
295,049;14442,272;    0,253;    1,955
295,644;14413,912;   -1,292;    0,136
296,240;14370,451;    0,162;   -0,136
296,836;14418,134;   -0,747;    0,318
297,432;14738,547;    2,980;   -0,500
298,028;14753,435;    0,435;    0,773
298,624;15252,723;    0,889;    1,864
299,220;15598,559;    0,435;    0,591
299,815;15206,256;    0,526;   -0,409
300,411;14976,090;    0,435;    1,773
301,007;15025,483;    1,889;    0,227
301,602;15091,128;    2,071;   -2,318
302,198;15285,067;    1,435;   -0,773
302,794;15639,844;    1,526;   -0,500
303,389;15847,160;    1,071;    1,045
303,985;15907,804;    1,253;    1,409
304,580;15872,102;    0,889;    1,591
305,176;15842,782;    0,344;    0,136
305,771;15840,947;   -0,929;   -1,227
306,367;15568,467;    3,071;    0,136
306,962;16008,946;    2,889;    1,500
307,558;15744,331;    2,435;    0,136
308,153;15734,342;   -0,383;   -1,136
308,748;15945,402;    0,162;    1,682
309,344;15926,684;    0,253;   -1,318
309,939;16019,044;    2,071;   -1,318
310,534;16387,136;   -2,020;   -1,682
311,130;16358,487;   -0,656;   -2,500
311,725;16033,875;    0,526;   -0,500
312,320;16380,576;    1,253;    0,045
312,915;16201,878;    2,890;   -1,045
313,510;16242,106;    0,526;   -0,500
314,105;16869,632;   -3,565;    1,409
314,700;16213,110;   -1,656;   -1,045
315,295;15798,375;   -0,020;    0,045
315,890;15291,554;   -0,292;    0,864
316,485;15662,085;    0,253;   -0,318
317,080;15803,339;   -0,929;    1,591
317,675;16387,409;    3,071;   -0,682
318,270;15654,775;    6,889;    3,318
318,865;15702,306;    2,435;    3,045
319,460;15566,275;   -1,565;    0,591
320,055;15829,687;   -2,565;   -1,227
320,650;15415,126;   -1,838;   -0,591
321,244;15461,577;    0,889;   -1,409
321,839;16547,244;    0,980;   -0,227
322,434;16451,485;   -0,111;   -1,591
323,029;16013,427;   -0,474;    1,591
323,623;15837,221;    0,798;    0,773
324,218;15558,236;    2,707;    1,409
324,812;15505,222;    0,889;    1,591
325,407;15261,638;   -0,929;    2,045
326,002;15154,905;    0,526;   -0,409
326,596;15504,158;   -0,656;    1,318
327,191;15768,651;   -0,383;   -1,045
327,785;15245,431;   -0,747;   -0,227
328,379;15506,232;   -0,383;    0,136
328,974;15316,267;    1,798;   -3,955
329,568;15528,181;    2,889;   -2,409
330,163;15330,400;    2,435;    1,045
330,757;15744,184;    0,253;    1,591
331,351;14984,061;   -0,292;    0,682
331,945;15325,739;   -0,383;    1,409
332,540;14830,894;    1,617;   -0,591
333,134;14953,360;    3,344;    0,773
333,728;15228,313;    2,799;    0,318
334,322;15615,238;    0,889;   -0,864
334,916;14830,483;    0,344;    0,955
335,510;15189,249;   -0,111;   -0,136
336,105;15497,560;   -0,929;    1,591
336,699;15148,301;   -1,292;    0,591
337,293;15063,873;    1,071;    0,318
337,887;15197,702;    0,071;    1,955
338,481;15298,642;    2,980;    0,591
339,074;15432,287;    2,071;    2,682
339,668;15203,543;   -0,110;    1,227
340,262;15494,136;    7,708;    3,227
340,856;14984,682;    1,708;   -0,682
341,450;14258,322;    0,708;    1,864
342,044;15249,964;    1,799;    0,136
342,637;14988,644;    1,162;   -2,136
343,231;14782,048;   -1,474;    0,682
343,825;14743,650;   -0,747;   -0,591
344,419;14695,643;   -0,474;    0,500
345,012;14392,458;    2,889;    4,045
345,606;14400,973;   -0,656;    1,591
346,199;14248,276;   -0,111;   -0,227
346,793;13652,987;    2,525;    2,045
347,386;13859,718;    0,889;   -1,136
347,980;13853,122;   -0,838;   -0,045
348,573;13604,221;   -1,748;    0,409
349,167;13175,291;    6,161;    4,773
349,760;13561,536;    2,252;    2,682
350,354;13556,987;    1,616;    1,136
350,947;13214,324;    2,798;    1,682
351,540;12837,057;    0,616;   -1,409
352,134;12796,844;   -1,111;    1,136
352,727;12840,414;   -0,657;    1,136
353,320;12609,769;    2,343;    0,591
353,913;12457,527;   -1,929;    1,864
354,507;12647,872;    0,434;   -1,227
355,100;12653,513;    0,071;    0,864
355,693;11684,254;    4,798;    2,409
356,286;11716,466;    0,980;    2,773
356,879;12172,292;   -0,475;    1,227
357,472;11733,643;    0,980;    1,500
358,065;11934,560;    3,161;    2,500
358,658;11847,278;    0,798;    2,318
359,251;11444,761;    0,252;   -0,591
359,844;10793,699;    0,343;   -1,136
360,437;10934,234;    0,252;    0,045
361,030;11252,272;    0,525;   -0,682
361,623;10772,100;    0,434;    0,318
362,215;10810,916;    0,979;    2,045
362,808;10667,456;   -2,293;   -1,682
363,401;10877,041;    0,798;    0,136
363,994;10500,877;    3,252;   -1,500
364,586;10430,586;    0,888;   -1,500
365,179;10682,271;   -0,203;   -1,136
365,772;10105,123;   -0,930;    2,045
366,364;10450,178;    1,524;   -3,227
366,957;10642,971;    1,342;   -0,045
367,549;10656,106;   -0,203;   -0,864
368,142;10264,656;    0,978;   -1,500
368,734;10487,700;    2,523;   -2,136
369,327;10431,608;    2,341;   -0,500
369,919;10345,190;   -1,659;    0,409
370,512;10051,535;   -1,023;   -0,500
371,104; 9724,809;    2,704;    1,591
371,696; 9913,560;    1,703;   -0,955
372,289;10058,347;    0,157;    1,136
372,881;10226,688;    1,156;    1,318
373,473;10171,805;    4,064;    1,136
374,066; 9947,577;    1,336;    0,500
374,658; 9722,118;    0,879;    1,136
375,250;10159,454;   -1,668;   -1,409
375,842; 9977,463;   -0,124;   -0,045
376,434; 9835,458;   -2,762;   -0,409
377,026;10522,635;   -1,855;   -2,500
377,618;10357,277;    0,779;   -0,682
378,210;10173,700;    3,141;   -1,955
378,802;10019,925;    3,412;   -0,591
379,394; 9934,532;    3,411;    0,682
379,986;10669,179;    1,138;   -0,955
380,578;10830,742;    1,410;    0,773
381,170; 9993,080;    0,320;    0,045
381,762; 9965,207;   -0,224;    1,409
382,354;10228,914;   -0,223;   -1,318
382,945;10356,608;    0,870;    0,318
383,537;10537,827;    1,144;   -1,955
384,129;10527,610;    0,963;   -1,136
384,721;10742,304;    0,418;    0,955
385,312;10672,536;   -1,399;   -0,955
385,904;10725,433;   -0,945;    1,591
386,496;10025,035;    0,691;    1,045
387,087;10197,158;    0,418;    2,500
387,679;10251,105;   -0,401;    0,045
388,270;10379,411;   -2,401;    2,045
388,862;10496,221;   -0,401;   -0,318
389,453;10381,169;    1,054;    1,045
390,045;10722,043;    3,236;   -2,682
390,636;10692,165;    0,144;   -0,591
391,227;10528,017;    2,054;   -0,045
391,819;10585,716;    0,781;    0,773
392,410;10693,208;    0,600;    0,045
393,001;10607,809;    1,600;   -1,591
393,593;10942,241;    0,600;   -0,045
394,184;10746,474;    0,873;   -0,409
394,775;10710,342;    1,146;    2,136
395,366;10925,516;    1,782;    0,773
395,957;10972,453;   -2,400;    0,136
396,548;11323,100;    1,054;    2,682
397,139;11637,707;    2,236;    0,591
397,730;11331,725;    0,873;    0,955
398,321;11408,616;    0,509;    0,955
398,912;11447,311;   -0,764;    0,136
399,503;11540,318;   -1,945;   -1,409
400,094;10899,310;   -1,582;    1,682
400,685;10766,866;    3,600;    0,045
401,276;10857,933;   -0,400;   -0,955
401,867;11196,206;   -1,127;    0,773
402,458;11336,051;    1,509;   -2,318
403,048;11318,216;    0,146;    0,591
403,639;10847,134;    1,509;    0,864
404,230;11049,007;    0,691;    0,318
404,821;10991,045;   -0,127;    0,045
405,411;11104,702;   -0,763;   -2,591
406,002;10654,825;    3,237;   -1,136
406,592;10424,093;    2,691;    0,045
407,183;10763,421;    0,328;   -1,500
407,774;10683,654;    1,419;   -0,136
408,364;11100,944;    2,600;    0,409
408,954;10650,067;   -0,036;    1,227
409,545;10677,387;    1,873;    1,045
410,135;10150,971;   -1,581;    0,500
410,726;10338,725;    0,783;    0,318
411,316;10762,627;    2,237;    0,773
411,906;10410,251;    0,146;   -0,409
412,497; 9782,664;   -0,490;   -0,045
413,087;10496,763;    0,783;   -0,227
413,677;10970,397;   -2,490;    3,864
414,267;10728,577;   -1,035;    1,409
414,857;10769,663;    0,419;    4,227
415,448;11102,779;   -0,763;    0,500
416,038;10749,795;   -2,945;   -0,591
416,628;10744,990;    0,965;    0,409
417,218;10073,065;   -1,762;    3,318
417,808;10371,879;    0,965;   -0,409
418,398;10991,019;   -1,035;    2,682
418,988;10986,965;   -2,217;    0,591
419,578;11272,993;    3,601;    1,409
420,168;11665,553;    0,692;   -0,955
420,757;11178,450;    0,964;   -1,500
421,347;10840,554;    1,601;   -0,227
421,937;11035,091;    3,329;    1,409
422,527;10907,096;    2,602;   -0,773
423,116;10750,585;    2,692;   -0,045
423,706;11244,555;    2,965;    0,318
424,296;11190,254;    1,601;    0,682
424,885;11611,163;    1,510;   -3,045
425,475;11944,924;    1,147;   -2,864
426,065;11890,021;   -1,489;   -0,318
426,654;11420,226;    0,329;   -0,318
427,244;11540,562;    1,147;    1,409
427,833;10921,825;    1,056;   -0,500
428,423;11467,669;    0,147;    1,136
429,012;12359,785;    2,420;   -1,136
429,601;11767,112;    2,057;    0,136
430,191;12061,500;    2,511;    4,318
430,780;11636,299;   -1,671;   -0,409
431,369;11532,399;    1,329;   -0,045
431,959;12268,142;    1,693;    0,500
432,548;12056,766;   -1,398;   -0,045
433,137;12221,393;    0,329;   -1,318
433,726;12783,991;    0,148;    0,500
434,315;12086,176;    0,148;    2,409
434,905;12178,877;    0,693;    1,409
435,494;12046,715;    3,148;    0,955
436,083;12576,664;    1,420;   -0,955
436,672;12400,473;    1,148;    0,500
437,261;11897,936;    0,512;   -1,955
437,850;12031,757;   -1,125;    0,682
438,439;11963,708;    2,239;    1,955
439,027;11761,187;    3,421;    1,773
439,616;12221,691;    2,239;    1,227
440,205;12126,019;    0,057;   -2,136
440,794;12206,308;   -0,306;   -0,045
441,383;12490,815;    1,603;   -0,591
441,971;12371,757;   -0,306;    0,591
442,560;12205,228;    0,603;   -1,773
443,149;12002,953;    3,060;   -1,318
443,737;12155,174;    0,968;   -2,318
444,326;12382,453;    0,331;    0,318
444,915;12497,962;   -1,851;    0,864
445,503;12931,258;    0,058;   -0,318
446,092;12089,009;    7,876;    2,136
446,680;12703,225;    1,876;    0,318
447,269;12947,865;   -1,487;   -0,318
447,857;12674,243;    2,240;   -1,773
448,445;12778,833;    2,149;    1,318
449,034;13010,510;    0,876;   -1,136
449,622;13192,524;    1,240;    3,500
450,210;12183,415;    3,149;    2,227
450,799;12801,879;    2,604;   -0,591
451,387;12762,120;    1,786;   -0,591
451,975;12361,053;   -1,305;    0,864
452,563;12462,395;    0,422;    2,318
453,151;12547,176;   -1,032;   -1,227
453,739;12451,548;   -1,577;    0,136
454,328;12258,781;    0,604;   -2,136
454,916;11924,319;    1,150;   -0,136
455,504;12102,865;    3,513;    1,227
456,092;12326,350;    2,150;   -1,591
456,679;12313,176;    0,604;    0,682
457,267;12134,009;    3,604;    1,045
457,855;12373,965;    3,241;    1,409
458,443;12167,673;   -0,304;    1,682
459,031;12252,639;    1,332;    2,409
459,619;12826,963;   -3,577;    2,864
460,206;12995,855;   -0,759;    2,045
460,794;13055,000;   -0,668;   -0,227
461,382;13326,012;    0,878;   -0,864
461,970;12851,033;    0,605;    1,864
462,557;12897,857;    0,878;   -0,682
463,145;13128,209;   -0,304;   -1,682
463,732;13294,215;    2,514;   -1,045
464,320;13236,140;    1,514;   -3,045
464,907;12810,612;    0,423;   -0,773
465,495;12685,449;    2,696;   -1,227
466,082;12856,314;    2,060;   -0,045
466,670;12762,372;    2,605;    1,227
467,257;13207,333;    0,060;    2,045
467,844;13393,498;    1,514;    0,045
468,432;13403,318;   -0,031;    3,500
469,019;12837,321;    1,606;   -1,773
469,606;13357,602;    0,969;    3,682
470,193;13135,993;    2,151;    0,227
470,780;12599,541;    0,333;    0,864
471,368;13006,472;   -1,212;   -0,773
471,955;12779,433;    1,060;   -0,682
472,542;12368,660;   -0,303;   -1,136
473,129;12620,848;   -0,485;    0,136
473,716;12303,712;    0,060;    0,591
474,303;12534,650;    1,333;   -0,864
474,890;12866,452;    2,333;   -0,500
475,477;12843,967;   -0,576;    0,409
476,064;12786,475;    0,697;   -1,591
476,650;12732,010;    2,152;    0,318
477,237;12583,646;    1,879;    0,955
477,824;12741,131;    3,879;    0,864
478,411;12816,438;    0,606;   -0,318
478,997;13052,586;    0,606;   -0,773
479,584;13104,801;   -0,666;   -0,409
480,171;13909,810;    1,243;   -0,773
480,757;13546,142;   -0,848;    0,773
481,344;13876,076;    0,334;    0,409
481,931;13378,115;   -0,393;    1,045
482,517;14473,626;    0,425;    0,318
483,104;15230,947;    1,334;    2,864
483,690;15653,445;    0,243;    0,045
484,276;16139,524;    0,698;    0,227
484,863;15887,519;    2,152;    1,136
485,449;16583,328;    0,152;    0,318
486,035;16579,693;   -0,666;   -0,136
486,622;17041,937;   -2,393;    0,045
487,208;16967,285;    1,334;    1,500
487,794;16808,684;    0,971;    0,318
488,380;16893,708;    0,698;   -1,409
488,967;17003,359;   -1,120;   -0,409
489,553;17074,346;   -1,029;   -1,409
490,139;17255,522;    0,971;    0,773
490,725;16626,139;    0,789;   -0,227
491,311;16093,214;    1,516;    3,045
491,897;15206,802;   -0,665;    1,500
492,483;14863,043;    0,426;    1,227
493,069;14486,461;    5,426;    0,864
493,655;14529,588;    1,789;    0,682
494,241;14477,481;    1,517;   -0,955
494,826;14921,786;    0,335;   -1,045
495,412;14349,367;    0,335;   -0,682
495,998;14499,191;    0,971;   -0,318
496,584;14679,857;    2,244;    1,045
497,169;14626,344;    2,335;   -0,682
497,755;14580,190;    1,244;    1,227
498,341;15144,421;    2,153;    0,318
498,926;14649,434;    2,881;    1,955
499,512;14935,331;   -0,028;    2,955
500,097;15095,297;   -0,574;   -0,318
500,683;15011,307;   -0,028;    2,136
501,268;15407,189;    1,881;   -0,955
501,854;15144,053;   -0,119;    1,227
502,439;15052,001;   -0,573;   -1,773
503,024;15248,497;    1,608;    0,500
503,610;15316,671;    1,335;   -0,682
504,195;15360,591;    1,245;    1,955
504,780;15454,246;    2,335;    1,227
505,366;15257,887;    4,063;    2,864
505,951;14964,235;   -1,119;    1,045
506,536;14970,729;    1,427;   -3,682
507,121;14950,410;    1,699;   -0,318
507,706;15522,998;   -0,392;    1,045
508,291;15945,613;   -2,937;    1,136
508,876;15426,256;   -0,482;    2,591
509,461;14766,864;    1,427;   -0,773
510,046;15247,659;   -0,391;    0,318
510,631;15504,506;   -0,119;   -0,773
511,216;15109,308;   -0,664;   -0,500
511,801;15516,101;   -0,755;    2,591
512,386;15840,950;    0,972;    0,500
512,971;15770,534;    0,427;    0,955
513,555;15279,589;    1,154;   -1,500
514,140;16179,816;    1,336;   -3,136
514,725;16182,513;    1,791;   -1,136
515,309;16303,700;    1,064;    0,318
515,894;15677,741;   -0,300;   -2,227
516,479;16153,703;    1,973;   -0,955
517,063;16040,301;    0,882;    1,227
517,648;16167,450;    0,155;   -1,136
518,232;15814,462;   -1,300;   -1,409
518,817;16127,910;    1,337;    1,682
519,401;16370,152;    0,700;    0,591
519,985;15829,128;    2,700;    1,136
520,570;15708,058;   -0,118;   -1,955
521,154;16048,134;    0,064;    0,591
521,738;16212,718;    1,064;    2,409
522,323;16836,229;   -0,390;    1,682
522,907;16571,730;    2,428;   -0,136
523,491;16265,410;    1,155;    0,955
524,075;16249,858;    0,428;    0,591
524,659;16307,558;    0,973;    0,591
525,243;15690,832;    0,883;    0,409
525,827;15982,201;    0,883;   -0,045
526,411;16909,740;    1,155;   -0,136
526,995;17190,667;    0,337;    1,409
527,579;16753,835;    1,974;   -1,045
528,163;17083,191;    0,428;   -1,500
528,747;17023,301;    1,065;   -0,773
529,331;17300,446;    0,883;   -1,409
529,915;17510,527;    2,338;    0,955
530,499;17487,674;    0,247;    1,227
531,082;17144,352;    1,065;    1,591
531,666;16553,872;    0,520;    0,773
532,250;17309,022;    0,428;    2,682
532,833;17679,947;    0,610;    2,773
533,417;17571,193;    1,247;    0,864
534,001;17547,683;    0,429;   -0,318
534,584;18309,020;    1,974;    0,500
535,168;18113,718;    3,247;    1,409
535,751;18185,740;    4,520;    0,045
536,334;17608,778;    4,520;   -0,409
536,918;18257,043;    1,974;    1,591
537,501;18345,608;    1,520;    1,318
538,085;18345,890;    1,702;    1,045
538,668;18552,157;    0,883;    2,409
539,251;18912,696;    3,156;    3,773
539,834;18931,275;    0,156;    0,773
540,418;18823,258;    3,247;    4,318
541,001;19006,108;    2,702;    1,773
541,584;18994,566;    1,429;    2,227
542,167;18671,805;    0,702;    2,955
542,750;18852,242;    0,793;   -0,773
543,333;18442,136;    1,429;    2,136
543,916;19283,491;   -0,298;    2,500
544,499;19936,509;    2,520;    0,227
545,082;19975,244;    0,248;    3,591
545,665;20138,164;   -0,207;    1,500
546,248;20530,227;    0,520;   -0,318
546,830;20168,120;   -1,752;    1,955
547,413;20612,597;    0,157;   -0,773
547,996;21207,476;    0,157;    0,500
548,579;20937,958;   -0,843;    0,955
549,161;20775,330;    0,884;    2,682
549,744;20536,721;    0,612;    0,409
550,326;21122,568;    0,885;   -1,136
550,909;20779,098;    2,339;    0,591
551,492;21273,209;    0,521;    0,227
552,074;21014,702;   -0,024;   -1,318
552,657;21607,863;    2,430;    0,045
553,239;21360,662;   -3,024;   -0,773
553,821;21300,739;   -1,570;    1,045
554,404;20733,814;   -0,024;    1,136
554,986;21168,259;    2,248;    1,045
555,568;21791,967;    0,430;   -0,955
556,151;20955,597;    4,067;   -0,227
556,733;21188,733;   -1,388;   -0,864
557,315;21697,647;    4,703;    0,500
557,897;21501,918;    0,521;   -0,500
558,479;21654,618;    1,703;    1,318
559,061;21786,141;    1,067;   -0,864
559,643;22160,177;   -0,297;    0,045
560,225;22528,612;   -0,388;    2,864
560,807;22637,450;    0,340;    0,318
561,389;22035,774;   -1,206;    2,318
561,971;22841,502;   -0,660;    2,136
562,553;22632,826;    0,613;    1,591
563,135;22788,727;    1,249;    1,136
563,717;22376,860;    3,158;    1,136
564,298;23191,675;    3,976;   -0,045
564,880;22881,076;    0,340;   -1,409
565,462;23131,167;    1,977;    1,318
566,043;24391,455;   -0,933;    2,318
566,625;23907,804;    4,067;    1,227
567,207;23773,336;    0,704;    1,682
567,788;25054,589;   -0,114;    1,500
568,370;26011,641;   -1,841;   -0,500
568,951;25889,928;   -0,569;    0,227
569,533;26820,933;    0,977;   -0,500
570,114;27384,620;   -0,296;    0,682
570,695;27981,998;   -0,478;   -1,318
571,277;28730,625;   -0,205;   -1,682
571,858;29554,880;    2,704;   -1,136
572,439;30613,295;    0,795;   -1,045
573,021;30865,455;    0,432;   -2,773
573,602;31456,814;    1,795;    0,318
574,183;32493,147;   -0,114;    2,227
574,764;32819,706;    2,068;    0,409
575,345;33437,591;    0,250;   -0,136
575,926;34167,959;    2,704;    0,136
576,507;34193,072;    2,704;   -0,227
577,088;35346,764;    1,704;    1,682
577,669;35424,730;    1,704;    1,955
578,250;36279,238;   -0,750;   -1,045
578,831;37104,874;   -0,841;   -2,227
579,412;37460,723;   -1,205;    0,955
579,993;38502,640;    1,432;    0,227
580,573;38821,326;   -0,023;   -0,955
581,154;37708,961;    1,613;   -0,591
581,735;38607,498;    0,341;    0,773
582,315;38138,771;    0,523;    2,136
582,896;38472,706;   -1,750;    1,227
583,477;37864,323;    0,614;    1,227
584,057;38035,242;    1,159;    0,955
584,638;38340,549;   -2,750;    2,318
585,218;38353,395;    2,886;    2,682
585,799;38501,042;    1,977;   -0,227
586,379;38401,219;    1,250;    1,591
586,959;37078,945;    2,613;    0,318
587,540;36253,725;    0,432;    2,227
588,120;35584,254;   -1,113;   -0,045
588,700;34415,686;    2,977;    2,136
589,281;34721,438;    1,250;   -0,955
589,861;34669,741;   -0,296;   -1,682
590,441;34454,467;   -1,477;   -2,682
591,021;33313,990;    1,432;   -2,591
591,601;33502,153;    0,431;    0,500
592,181;33481,404;   -1,296;   -0,773
592,761;32697,604;    2,250;    1,409
593,341;32524,168;    1,522;    0,045
593,921;32467,366;   -0,569;    1,591
594,501;32298,162;    1,250;    1,318
595,081;32129,190;    0,522;   -0,318
595,661;32502,404;    1,068;    0,955
596,240;33073,552;   -1,023;    0,136
596,820;32683,223;    2,613;    1,955
597,400;32945,851;    1,977;    0,773
597,980;33234,927;   -0,750;    1,045
598,559;33220,353;    0,341;   -0,227
599,139;32865,621;   -0,750;   -1,227
599,718;32747,894;    0,795;   -0,409
600,298;32997,206;   -2,387;    0,682
600,877;33244,243;    4,795;    1,409
601,457;33492,914;    0,340;    1,136
602,036;33419,412;    1,795;    2,045
602,616;33696,185;    2,250;    1,682
603,195;34000,263;    0,431;    3,500
603,774;33516,950;   -0,296;    2,045
604,354;33440,853;    2,522;   -0,500
604,933;32818,474;    0,250;    1,864
605,512;32989,316;    2,340;    0,591
606,091;33040,400;    1,886;    3,773
606,671;33812,438;    0,249;    0,773
607,250;32776,467;    1,431;    3,136
607,829;33092,955;    1,158;    3,227
608,408;32990,063;    4,613;    2,591
608,987;31951,163;    2,704;    3,409
609,566;32235,146;    0,341;   -2,500
610,145;32264,004;    2,885;    0,682
610,723;32711,006;    1,613;    6,864
611,302;31850,761;    1,067;    1,682
611,881;31356,149;    5,158;   11,227
612,460;32228,066;    0,795;    3,955
613,039;32658,177;    1,703;    2,045
613,617;31287,775;    0,886;    4,773
614,196;31487,374;    1,613;    1,227
614,775;31846,841;    1,249;    2,409
615,353;31773,920;   -1,660;    0,864
615,932;31379,928;    0,249;    2,409
616,510;32012,099;    0,158;    0,591
617,089;31457,664;    8,794;   17,591
617,667;31195,579;    4,885;    6,136
618,246;30962,442;   -1,115;    1,318
618,824;31128,373;    1,612;   -0,955
619,402;30691,024;    0,431;   -1,773
619,981;31239,382;    1,067;   -1,045
620,559;31078,763;    0,794;    1,682
621,137;30630,906;    3,067;    1,864
621,715;30511,362;    3,703;   -0,682
622,293;30427,674;    1,885;   -0,773
622,871;30906,920;    0,340;    0,500
623,450;30479,226;    0,430;   -0,864
624,028;30337,784;   -0,388;   -0,955
624,606;29937,298;    2,339;    1,682
625,183;30288,152;   -0,661;   -1,136
625,761;29857,138;    1,885;    1,136
626,339;30174,062;    2,339;    2,591
626,917;30561,290;    0,339;   -0,045
627,495;30603,278;    2,794;    1,318
628,073;30024,097;    5,248;    2,864
628,650;29689,953;    3,067;    2,136
629,228;30129,840;    1,248;    4,409
629,806;29423,163;   -0,024;    1,136
630,383;29701,065;    0,066;   -0,318
630,961;29449,562;   -2,206;   -0,955
631,539;29180,365;   -2,479;    0,227
632,116;28375,835;   12,703;   15,409
632,694;29039,276;    4,885;    6,500
633,271;29419,215;    1,975;    2,682
633,848;29297,416;    1,430;    2,045
634,426;29367,672;    1,521;    1,773
635,003;28457,120;   -0,207;   -0,409
635,580;28687,517;    1,884;    3,682
636,158;29276,339;    3,793;    1,227
636,735;29284,432;    3,339;   -0,500
637,312;29381,726;    0,521;   -0,682
637,889;29433,020;    2,248;   -0,682
638,466;28960,067;    0,066;   -0,409
639,043;28977,140;    1,702;   -1,136
639,620;29300,545;    0,611;   -0,955
640,197;29622,259;    1,612;    1,682
640,774;29763,613;    1,430;    1,136
641,351;30193,239;    0,612;    1,136
641,928;29550,866;    2,794;    1,409
642,505;29119,402;    0,794;   -0,500
643,082;29256,755;    1,885;    1,227
643,658;28214,018;    1,157;    1,500
644,235;29046,372;   -2,479;    2,500
644,812;29353,544;    1,794;    0,773
645,388;29070,444;    1,612;    1,409
645,965;29193,797;    1,521;    1,682
646,542;29239,242;    3,430;   -0,227
647,118;29216,051;    3,703;   -0,955
647,695;29544,404;    0,339;    1,136
648,271;29416,304;   -2,115;    0,500
648,848;29768,839;    0,248;    2,227
649,424;29619,739;    0,976;    1,318
650,000;29325,002;   -0,388;   -1,045
650,577;29136,810;    0,158;   -0,955
651,153;29650,437;   -1,115;    0,955
651,729;30681,609;    0,521;    0,864
652,305;31027,417;    1,339;    2,773
652,881;36270,862;   -1,297;    1,136
653,458;44433,034;    0,249;    0,227
654,034;49150,842;    0,703;    1,591
654,610;51062,469;    0,339;    0,773
655,186;52586,095;    1,612;    3,045
655,762;52374,540;   -1,842;    0,409
656,338;52407,985;    0,703;    0,136
656,913;53519,975;   -0,297;    0,409
657,489;52772,874;    0,249;   -0,318
658,065;52640,137;    0,794;   -1,591
658,641;53177,673;    2,158;   -0,864
659,217;52481,572;    2,067;    0,409
659,792;51859,744;   -1,751;   -0,409
660,368;52154,462;   -0,388;   -0,682
660,944;51610,907;    1,794;    1,227
661,519;46361,806;    0,522;    0,409
662,095;39004,342;   -0,206;    0,591
662,670;33324,241;   -0,206;   -0,136
663,246;31815,413;   -0,660;   -0,409
663,821;30989,130;    0,431;    1,682
664,396;30480,484;    0,613;    1,864
664,972;30692,929;   -0,660;   -0,500
665,547;31041,465;    3,794;    0,136
666,122;31056,909;    1,340;    0,318
666,698;31338,809;    2,431;    0,318
667,273;30639,344;    0,885;    0,136
667,848;31451,426;    0,340;    1,500
668,423;31269,598;    1,795;    2,318
668,998;31885,770;    0,976;   -0,682
669,573;32472,578;    2,067;   -1,500
670,148;32267,205;    1,885;   -0,682
670,723;32108,740;   -0,024;    0,318
671,298;32611,912;   -1,296;    1,045
671,873;32712,539;   -0,296;   -0,136
672,448;32695,165;    1,704;    0,136
673,023;33004,701;    0,249;   -0,227
673,597;33297,873;    2,704;    2,318
674,172;33037,136;    2,431;    0,318
674,747;32516,854;   -0,205;   -1,045
675,321;32456,116;   -0,933;    3,318
675,896;31928,652;    2,158;    1,045
676,471;33007,097;    2,522;    1,591
677,045;32789,814;   -0,296;    0,682
677,620;32819,896;    2,158;    1,136
678,194;33143,977;    0,249;    1,136
678,769;32650,149;    0,886;   -0,318
679,343;32837,593;   -0,023;    1,773
679,917;32752,129;    0,340;    1,955
680,492;32889,210;    0,249;    3,227
681,066;33042,928;    0,613;    0,409
681,640;33046,827;    1,795;   -0,318
682,214;33899,454;    2,340;    0,500
682,788;33410,262;    0,613;   -0,773
683,363;33409,252;    1,977;    1,682
683,937;33085,970;    0,886;   -0,318
684,511;33945,324;   -1,023;   -0,591
685,085;33559,586;   -1,478;    0,318
685,659;33323,940;    1,431;    0,864
686,232;33561,112;    1,159;   -0,318
686,806;33273,921;    2,159;    0,409
687,380;33986,729;   -1,932;    0,591
687,954;34253,992;    2,432;    1,136
688,528;33898,164;    2,613;    1,955
689,101;34721,063;    0,432;    1,045
689,675;34238,235;    0,886;   -0,136
690,249;33578,226;    3,432;    0,409
690,822;33852,943;    1,159;    0,318
691,396;33983,752;    2,068;    1,227
691,969;33369,014;    2,523;    0,136
692,543;33863,641;   -0,568;   -1,955
693,116;33489,722;   -0,659;   -1,409
693,690;33357,349;   -0,296;    0,500
694,263;33923,157;    2,341;    2,955
694,836;33960,238;    2,795;    3,591
695,410;32542,410;    1,159;    1,773
695,983;33033,673;    1,614;    0,591
696,556;32942,845;   -0,750;   -1,045
697,129;33390,563;   -1,114;    1,409
697,703;33001,189;    1,341;    1,955
698,276;32991,089;    1,705;   -0,773
698,849;32769,806;   -1,023;    1,409
699,422;33189,887;    1,250;    0,591
699,995;32848,605;   -0,659;    0,136
700,568;33370,050;   -0,204;    3,045
701,140;33367,403;   -1,841;    1,682
701,713;33045,757;    0,341;    2,409
702,286;32819,020;    0,796;    0,864
702,859;32705,919;    0,614;   -0,591
703,432;31752,091;   -0,841;    0,682
704,004;32300,809;    1,978;    0,318
704,577;32202,436;    1,068;    0,136
705,150;32732,971;    0,887;    2,500
705,722;32557,143;    1,523;   -3,227
706,295;32373,133;    1,432;   -0,591
706,867;32154,942;    0,250;    1,955
707,440;32376,296;   -0,113;   -0,409
708,012;32648,468;   -0,022;    0,591
708,584;32496,003;    2,705;    0,227
709,157;32866,539;    1,160;   -0,591
709,729;32507,347;    1,069;    2,045
710,301;33339,701;   -1,204;    0,045
710,874;33356,419;    0,341;   -0,227
711,446;32213,136;   -0,295;    0,864
712,018;32122,854;   -3,022;    0,500
712,590;31872,480;   -0,204;    1,682
713,162;32376,561;   -0,477;    1,318
713,734;32614,370;    1,796;   -2,045
714,306;32493,360;    0,342;   -0,409
714,878;31133,168;   -0,295;    0,864
715,450;31957,704;   -0,113;    0,864
716,022;32220,513;    2,433;    1,318
716,593;32338,230;    0,978;    0,591
717,165;32303,311;    1,796;   -1,227
717,737;32014,120;    0,796;    0,409
718,309;31699,473;    1,160;   -0,045
718,880;31594,918;   -1,295;   -1,409
719,452;31818,272;    0,887;   -1,591
720,024;31355,444;    1,705;   -0,591
720,595;31911,798;    2,978;    0,955
721,167;31449,424;    1,160;   -2,045
721,738;30957,142;    2,069;   -1,045
722,309;30861,132;    1,251;   -1,227
722,881;30650,941;    2,705;    0,773
723,452;31388,022;    1,251;    2,864
724,023;31558,376;    1,524;    2,682
724,595;31263,366;    2,342;    0,682
725,166;31042,538;    1,524;   -0,409
725,737;30632,619;    1,887;    0,227
726,308;30679,518;    0,797;    0,318
726,879;31169,508;    1,069;    1,227
727,450;31010,953;   -2,022;   -0,045
728,021;30985,671;    1,069;    0,682
728,592;30824,025;    1,160;    0,500
729,163;31126,378;    1,433;   -0,136
729,734;31136,278;    2,160;   -0,227
730,305;31528,541;    0,615;    0,136
730,876;31908,804;    0,888;    2,955
731,447;31550,067;    0,797;    2,682
732,017;31667,329;   -0,840;    1,864
732,588;31245,865;   -0,021;    1,227
733,159;31380,492;    3,615;   -1,045
733,729;31179,936;    1,251;    0,409
734,300;30421,199;    0,160;    0,864
734,870;30888,917;   -1,385;    0,591
735,441;31502,271;    0,888;   -0,591
736,011;31207,534;    1,070;   -1,591
736,582;31181,342;    1,251;    0,045
737,152;30559,060;    0,979;   -2,045
737,722;31073,413;    1,070;   -0,682
738,293;30834,495;   -2,021;    1,318
738,863;30656,212;    1,797;    2,318
739,433;30384,293;    4,524;    0,318
740,003;31002,738;    1,524;   -0,682
740,573;30404,001;    2,252;   -1,591
741,143;30322,537;    3,615;    0,318
741,713;31120,981;    0,252;   -0,500
742,283;30762,699;    1,706;    1,591
742,853;30466,234;    0,524;    1,591
743,423;29948,770;    0,161;    0,045
743,993;30090,397;    1,070;    1,500
744,563;29372,569;    2,524;   -0,864
745,133;29391,559;   -0,112;   -0,864
745,702;30138,367;    2,797;    1,773
746,272;29257,267;    0,434;    0,591
746,842;29031,257;   -0,748;   -0,591
747,411;29484,065;   -0,839;   -0,318
747,981;29657,692;   -0,930;    0,500
748,551;29709,591;   -0,021;   -1,045
749,120;29549,854;   -0,112;   -0,227
749,690;29955,299;    2,161;    2,409
750,259;30289,380;    0,979;    2,955
750,828;30159,916;    4,070;   -1,955
751,398;30444,360;   -0,112;   -0,045
751,967;29900,987;    2,888;    0,409
752,536;30154,523;    1,161;   -0,227
753,105;30621,149;   -1,384;    0,227
753,675;30416,594;   -0,112;    1,773
754,244;30378,766;    0,888;    3,591
754,813;30421,665;    0,979;    1,227
755,382;30068,292;    0,798;    0,955
755,951;30593,100;   -0,112;    3,682
756,520;30097,272;    2,525;    1,864
757,089;30678,353;    1,888;    0,500
757,658;30837,980;    2,434;    1,227
758,227;30825,243;   -1,111;    0,318
758,795;31177,870;   -1,021;    1,136
759,364;31426,132;    0,525;   -0,591
759,933;30335,032;    1,343;   -0,045
760,501;29867,022;    0,252;   -1,318
761,070;30388,739;   -0,293;   -1,409
761,639;31125,093;    1,434;    1,318
762,207;30368,356;    0,889;   -0,955
762,776;30283,074;    2,889;    0,864
763,344;30181,337;    0,071;    0,591
763,913;29361,691;    1,616;    1,409
764,481;30110,590;    1,980;   -0,136
765,049;29889,216;    0,616;    1,409
765,618;29741,661;    1,434;    0,318
766,186;29810,833;    2,434;    0,136
766,754;29990,278;    1,798;    1,864
767,322;28907,541;    1,162;    0,409
767,890;28928,531;    0,525;   -1,773
768,459;29361,249;    2,616;   -0,318
769,027;29560,057;    2,525;    3,409
769,595;28487,411;    2,616;    2,591
770,163;28885,583;    3,344;    2,955
770,730;28581,937;    2,525;   -0,136
771,298;28456,381;    1,162;   -1,409
771,866;28545,644;    0,253;    4,955
772,434;28851,635;    1,162;   -1,864
773,002;28996,716;    2,616;    0,682
773,569;28632,342;    1,071;    1,682
774,137;28425,242;    0,889;   -0,045
774,705;29305,505;   -0,747;   -0,136
775,272;28689,404;    0,253;    0,682
775,840;28398,303;   -0,111;    2,682
776,407;27904,475;   -0,293;    1,955
776,975;27515,920;    1,162;    0,318
777,542;28636,001;    2,162;   -0,045
778,110;28439,900;    0,707;   -0,045
778,677;28077,527;    1,071;   -0,864
779,244;27807,881;   -1,020;    1,045
779,812;27911,417;    0,980;    0,864
780,379;27750,861;    2,435;    1,136
780,946;27973,761;    2,617;   -0,773
781,513;28314,478;   -0,565;    0,318
782,080;27675,741;    1,253;    2,864
782,647;28423,368;    1,708;    3,045
783,214;28029,721;   -0,201;    3,864
783,781;27591,439;    1,708;   -0,682
784,348;27495,247;    0,253;    1,500
784,915;28016,783;   -1,474;    0,318
785,482;27646,500;    2,708;    2,591
786,049;28143,763;    1,071;   -0,591
786,615;28273,390;    1,708;   -0,955
787,182;28032,380;   -3,201;   -0,682
787,749;27711,370;   -2,201;    1,409
788,315;26980,997;    0,253;   -0,409
788,882;27239,805;    0,981;   -1,227
789,448;27914,250;    1,435;   -0,955
790,015;27961,331;    1,799;    3,227
790,581;27508,412;    0,708;    0,227
791,148;27351,039;    1,344;    1,045
791,714;27610,211;   -1,019;    3,136
792,280;27332,201;    3,708;    1,591
792,847;26849,737;   -0,928;    2,500
793,413;27438,091;   -0,110;   -0,318
793,979;26860,172;    1,526;   -1,318
794,545;26909,435;    2,981;    2,682
795,111;26311,698;    2,435;    1,318
795,678;26482,597;    3,526;   -1,682
796,244;26200,496;    2,799;    0,136
796,810;26767,123;    0,799;    0,773
797,375;26476,568;   -0,292;   -2,136
797,941;26558,467;   -1,110;    0,591
798,507;26692,184;    0,254;   -0,955
799,073;26183,538;    2,708;    0,591
799,639;26258,347;    1,435;    3,136
800,205;26234,064;   -1,565;    2,682
800,770;25723,873;    1,345;    1,773
801,336;25792,408;    2,981;   -0,955
801,901;25459,580;    6,072;    3,136
802,467;26062,752;    0,526;    2,045
803,033;25321,470;   -0,019;    0,864
803,598;25511,369;    1,072;   -1,045
804,163;25605,996;    0,708;   -0,318
804,729;25531,531;   -0,110;    1,136
805,294;25951,067;    1,072;    2,227
805,859;25783,694;    0,890;   -0,409
806,425;25158,138;    3,890;    2,682
806,990;24829,492;    1,890;    4,318
807,555;25390,937;   -0,110;    2,591
808,120;25242,109;   -1,292;   -0,409
808,685;25271,554;    1,072;   -2,500
809,250;24762,180;    2,072;   -0,500
809,815;25148,807;   -0,201;    0,682
810,380;25696,524;    0,981;    1,591
810,945;26210,878;    2,890;    2,045
811,510;25379,414;   -0,200;    1,591
812,075;25086,768;    2,800;   -1,409
812,640;25048,122;    3,709;    1,409
813,204;25092,385;    2,163;   -0,227
813,769;25596,557;    0,254;   -0,045
814,334;24973,092;    0,527;    0,864
814,898;24958,901;    1,981;    0,591
815,463;24848,891;    0,981;   -0,773
816,027;24820,608;    1,345;   -2,318
816,592;24921,326;    2,163;   -2,045
817,156;24397,952;   -2,200;    1,136
817,721;24199,124;    0,982;    2,318
818,285;24151,660;    0,618;    1,500
818,849;24904,650;   -0,018;    1,682
819,414;24795,550;    0,073;    2,955
819,978;24311,813;   -0,291;    1,773
820,542;24979,985;    2,891;    0,500
821,106;24656,157;    2,800;    0,682
821,670;24692,874;    2,709;    2,591
822,234;24370,955;    1,073;    1,409
822,798;23737,855;   -0,836;    0,500
823,362;23685,845;    1,527;    4,227
823,926;22912,108;   -0,018;    1,136
824,490;23178,007;    3,527;   -0,682
825,054;23666,815;    2,527;   -1,136
825,618;23248,260;   -1,200;   -1,500
826,181;23193,341;    0,982;   -1,318
826,745;23085,877;   -0,745;   -1,045
827,309;23464,231;    2,255;    1,318
827,872;22796,221;    0,527;    0,955
828,436;23814,666;    1,982;   -0,773
828,999;23874,292;    2,436;    1,227
829,563;22639,464;   -0,654;    1,136
830,126;22490,091;   -0,018;   -0,591
830,690;22452,990;    0,709;    2,864
831,253;21964,344;   -0,473;    2,227
831,816;22107,880;   -0,018;    0,500
832,380;22027,870;    1,164;    0,864
832,943;22257,315;    3,073;   -0,500
833,506;21721,850;    0,255;   -1,227
834,069;22504,023;    2,164;   -0,955
834,632;22531,376;   -2,200;    1,318
835,195;22409,548;    1,346;    0,955
835,758;21593,448;    0,709;    1,955
836,321;21409,802;    1,073;   -1,045
836,884;21495,610;   -1,291;   -0,955
837,447;21515,600;    0,528;    1,773
838,010;21769,772;    1,800;    3,227
838,573;22158,490;    0,528;    0,773
839,135;22024,025;   -0,109;   -0,955
839,698;21434,106;    2,528;    0,409
840,261;20964,551;    0,255;   -0,227
840,823;20806,723;   -0,927;    0,864
841,386;21075,259;   -0,018;   -2,409
841,948;20932,976;    0,255;    1,773
842,511;20682,967;    0,255;    1,682
843,073;20826,502;    2,982;    0,227
843,636;20620,856;    0,619;   -0,227
844,198;20500,665;    1,255;    0,591
844,760;20621,837;    0,619;    1,955
845,322;20263,009;    0,164;    1,136
845,885;20739,181;   -0,290;    0,591
846,447;21159,444;    0,710;    0,227
847,009;20706,070;    3,983;   -0,682
847,571;21068,151;    1,346;   -2,045
848,133;21173,414;   -0,199;   -1,864
848,695;21000,041;    2,346;    1,409
849,257;20510,758;    1,346;   -1,682
849,819;20705,749;    2,983;   -0,409
850,381;20722,557;    1,801;   -0,864
850,942;21179,547;    1,892;   -0,591
851,504;21044,265;    0,983;    0,227
852,066;21142,800;    1,619;   -1,591
852,628;20658,790;    0,165;    1,955
853,189;20168,235;    0,256;    2,682
853,751;20329,225;   -0,654;    1,409
854,312;20156,761;    1,256;   -1,682
854,874;20668,570;   -0,108;   -0,773
855,435;21157,105;    0,528;   -1,682
855,997;21301,914;    3,983;   -0,136
856,558;20559,086;    0,801;    1,773
857,119;20694,439;   -0,744;    2,864
857,681;20353,248;   -0,108;    0,318
858,242;20396,874;    1,347;   -2,136
858,803;20874,046;    1,074;   -0,773
859,364;21434,764;    0,892;   -4,773
859,925;20744,754;   -0,290;   -0,955
860,486;20664,744;    0,529;   -0,955
861,047;20356,098;    0,165;   -1,227
861,608;20150,907;    0,165;   -0,773
862,169;20298,988;   -0,562;   -0,045
862,730;20052,523;   -0,290;    1,409
863,291;20293,150;    0,438;   -0,500
863,852;20652,686;   -0,926;    1,955
864,412;20069,040;   -1,835;   -0,864
864,973;18585,302;    1,892;    0,500
865,534;18449,747;    2,074;    0,227
866,094;20044,465;    2,620;    0,227
866,655;19684,455;    4,711;    3,318
867,215;19919,809;    0,074;    0,136
867,776;19785,435;   -1,199;   -0,136
868,336;19911,516;    1,529;    0,136
868,897;19260,870;    3,438;    1,682
869,457;19007,951;    3,256;    0,318
870,017;19240,942;    2,438;   -1,227
870,578;19827,932;    1,893;    0,773
871,138;19452,468;    2,620;   -0,955
871,698;18982,821;   -0,562;   -1,318
872,258;18847,357;    0,711;   -2,864
872,818;19200,802;    2,347;    0,045
873,378;19159,792;   -2,198;    1,045
873,938;18698,328;    4,984;    0,500
874,498;19033,409;    1,256;   -1,955
875,058;18930,399;    4,347;    1,773
875,618;18763,026;    1,438;   -2,682
876,177;18736,925;   -0,471;    0,136
876,737;18275,279;   -0,289;    1,955
877,297;18285,269;    2,711;    1,955
877,856;18323,168;    2,529;    0,318
878,416;18243,795;    2,438;   -0,136
878,976;18502,694;    3,438;    0,409
879,535;18675,230;    4,529;    3,136
880,095;18363,038;    1,347;    0,045
880,654;18530,028;    0,347;    1,318
881,213;18584,837;    2,347;    1,500
881,773;18212,645;    1,984;    2,682
882,332;18528,363;    6,075;    5,136
882,891;18460,535;    0,711;    2,136
883,451;18933,161;   -2,016;    1,682
884,010;18348,242;   -1,107;   -0,409
884,569;18438,142;   -2,289;   -0,045
885,128;18532,132;   -0,743;   -1,864
885,687;18645,213;   -0,743;    0,682
886,246;18298,749;    2,620;    2,136
886,805;18014,557;    1,620;    2,045
887,364;18343,093;    1,166;   -0,500
887,922;18695,719;   -0,016;    0,045
888,481;18193,891;    1,530;    0,591
889,040;18530,336;    3,711;    2,136
889,599;19236,054;    2,166;    1,409
890,157;19307,953;    2,166;    2,409
890,716;18936,489;    2,166;    0,227
891,274;18752,206;    0,075;   -1,136
891,833;19204,196;    1,166;    0,864
892,391;19087,096;    1,802;    0,500
892,950;19174,359;    0,166;   -0,773
893,508;19524,803;    0,984;   -0,409
894,067;18824,157;   -0,379;    0,136
894,625;18756,329;   -1,016;   -1,500
895,183;19008,501;   -0,198;   -0,682
895,741;18891,491;    2,257;   -1,773
896,299;18690,209;    1,621;   -2,409
896,858;18953,108;    1,530;   -1,591
897,416;19000,280;    0,166;   -1,318
897,974;18761,361;   -2,197;    0,318
898,532;18897,806;    6,530;    2,682
899,089;18779,069;    0,621;   -0,682
899,647;18855,787;    0,530;    1,318
900,205;18580,050;    0,257;    1,045
900,763;18782,585;    2,166;    0,227
901,321;18761,575;    3,530;   -1,409
901,878;18153,929;    3,257;   -0,773
902,436;18021,465;    0,257;    1,318
902,994;18427,910;    6,712;    3,682
903,551;17842,718;    1,439;    0,409
904,109;18288,072;    1,530;   -1,409
904,666;17844,517;    1,439;    1,045
905,224;17616,598;    3,894;   -0,409
905,781;17361,134;   -0,470;   -0,318
906,338;17457,760;    0,167;    1,045
906,895;17376,387;    1,894;    2,045
907,453;17233,559;    2,348;    1,136
908,010;17264,549;    3,348;    0,409
908,567;16897,994;   -0,561;    0,591
909,124;16404,711;    2,439;   -1,500
909,681;16465,338;   -1,288;    0,682
910,238;16610,055;   -0,106;   -1,318
910,795;16936,864;   -1,561;   -1,136
911,352;16546,955;   -0,379;   -2,682
911,909;15928,773;    2,803;   -0,864
912,466;16436,864;    1,985;    1,500
913,022;15952,500;   -0,924;    0,500
913,579;16294,136;   -0,470;    2,045
914,136;15963,045;   -2,561;    0,955
914,692;16357,500;    1,530;   -1,227
915,249;15920,864;    0,530;    0,409
915,806;16126,591;    1,803;    1,955
916,362;15802,227;    0,894;    1,864
916,918;15373,045;    2,439;    1,045
917,475;15380,227;    1,621;    0,955
918,031;15458,773;    0,076;   -0,045
918,587;14888,773;    0,621;   -0,318
919,144;15099,409;   -0,379;    0,227
919,700;15396,227;    0,167;    0,773
920,256;14988,955;    0,439;    0,045
920,812;14585,136;    1,439;   -1,045
921,368;14561,045;    1,348;   -1,045
921,924;14203,409;    0,439;   -0,136
922,480;13725,773;    0,076;    1,227
923,036;14362,136;   -0,652;    1,955
923,592;14304,682;    0,621;    0,318
924,148;14177,682;    1,894;   -0,955
924,704;13510,682;    0,258;   -0,409
925,259;13799,045;   -0,561;    0,591
925,815;13504,136;    3,803;    0,500
926,371;13033,591;    3,530;    1,409
926,926;12875,591;    1,621;    0,591
927,482;12456,045;    1,621;    0,773
928,037;12353,500;   -0,833;    2,045
928,593;12643,773;    0,258;    1,045
929,148;12468,864;    1,167;   -1,500
929,704;11960,500;    2,439;   -0,500
930,259;12108,227;    0,894;   -0,136
930,814;11155,864;    1,803;    1,955
931,369;10851,409;    0,258;   -0,773
931,925;10713,227;   -1,924;    0,136
932,480;10570,045;    3,076;   -2,591
933,035;10378,864;    3,985;   -0,318
933,590;10157,227;   -1,742;   -1,773
934,145; 9807,773;   -1,288;   -0,318
934,700;10192,136;    0,348;   -0,591
935,255; 9945,864;    4,803;    0,045
935,809; 9158,682;    6,258;    0,864
936,364; 8241,500;    2,167;   -0,136
936,919; 8207,227;    2,348;   -1,773
937,474; 8073,682;    1,348;    0,136
938,028; 7812,500;    3,076;    1,136
938,583; 7190,136;    6,348;    4,682
939,138; 7525,864;    0,167;    2,136
939,692; 6948,045;   -1,015;   -1,136
940,247; 6587,682;    1,167;   -1,045
940,801; 6108,682;    0,621;    0,227
941,355; 6003,318;    0,439;    2,591
941,910; 5656,682;    0,712;   -2,136
942,464; 5738,955;    2,712;   -0,318
943,018; 5470,955;    3,258;   -0,227
943,572; 5421,318;    2,803;   -0,682
944,126; 4771,136;   -0,924;   -0,409
944,681; 4649,227;    0,712;    0,227
945,235; 4666,500;    2,167;   -0,591
945,789; 4593,136;    1,258;   -1,864
946,342; 4678,409;   -0,561;   -0,591
946,896; 4466,955;    0,348;    0,955
947,450; 4219,682;   -0,561;   -0,227
948,004; 4400,136;    1,076;   -0,045
948,558; 4423,318;    1,258;   -0,864
949,111; 4335,409;   -1,197;   -0,318
949,665; 4326,409;   -0,106;   -0,682
950,219; 4196,227;    0,621;   -1,045
950,772; 4305,864;    0,258;    1,864
951,326; 4217,682;   -1,106;   -0,955
951,879; 4323,773;    1,076;   -2,318
952,433; 4336,227;    1,348;    2,227
952,986; 4163,500;    0,348;    0,682
953,539; 4103,682;    1,530;    0,591
954,093; 4039,227;    0,985;   -1,318
954,646; 4173,682;   -0,288;    1,318
955,199; 3965,955;    1,258;   -0,500
955,752; 3833,682;    1,985;    1,773
956,305; 3792,045;    0,894;    2,955
956,858; 3978,773;    0,621;   -0,318
957,411; 4182,318;    3,621;    2,136
957,964; 3966,136;    2,076;    2,136
958,517; 3961,682;    0,985;    3,136
959,070; 3811,773;   -1,197;    1,955
959,623; 3849,773;    1,076;    1,500
960,176; 3618,045;    0,712;    2,045
960,728; 3576,136;    1,712;    0,773
961,281; 3658,864;    2,258;    0,500
961,834; 3687,864;   -0,833;    0,864
962,386; 3613,500;    1,258;    1,045
962,939; 3523,500;    3,439;   -0,318
963,491; 3699,136;    2,621;    1,136
964,043; 3536,955;    0,076;    2,409
964,596; 3661,136;    1,712;    2,227
965,148; 3500,591;   -0,379;    1,773
965,700; 3430,773;   -0,015;   -0,227
966,253; 3573,227;   -0,833;    0,318
966,805; 3400,955;    1,894;    0,773
967,357; 3438,500;    0,439;   -1,500
967,909; 3377,682;    1,167;   -1,227
968,461; 3531,591;    0,894;    3,136
969,013; 3439,227;   -1,561;   -0,864
969,565; 3520,045;    1,803;   -1,136
970,117; 3550,500;    3,803;    1,045
970,669; 3399,591;    3,258;   -0,136
971,220; 3302,318;    2,167;   -1,500
971,772; 3196,864;    1,348;   -0,318
972,324; 3301,591;   -1,197;   -0,500
972,876; 3271,864;    0,167;   -0,045
973,427; 3391,136;   -1,197;   -1,045
973,979; 3376,045;    0,076;   -2,500
974,530; 3427,773;    0,803;    1,318
975,082; 3437,318;    2,167;    1,682
975,633; 3319,318;    2,894;    1,682
976,184; 3476,955;    2,076;    0,773
976,736; 3235,591;    0,348;    0,227
977,287; 3015,227;    0,258;   -0,500
977,838; 3207,227;   -0,924;   -0,318
978,389; 3250,773;    0,803;   -0,500
978,940; 3146,318;    1,258;   -0,409
979,491; 3164,591;    2,258;   -0,500
980,042; 3112,500;   -0,652;    3,045
980,593; 3189,318;    1,894;    0,227
981,144; 3222,864;    3,530;   -0,500
981,695; 3172,864;   -0,470;    1,500
982,246; 3138,409;   -1,833;    1,045
982,797; 3317,409;   -0,561;    0,682
983,347; 3455,409;    2,167;    0,591
983,898; 3577,409;    4,167;    0,409
984,449; 3407,045;    2,530;    0,773
984,999; 3365,773;    1,894;   -1,136
985,550; 3101,227;    3,167;   -0,318
986,100; 3146,500;    0,712;   -0,318
986,651; 3174,227;    0,258;    0,045
987,201; 3142,045;    0,894;   -0,591
987,751; 3236,227;   -0,288;    2,864
988,302; 3202,500;   -0,379;    1,500
988,852; 3236,318;    1,985;   -1,136
989,402; 3262,591;    0,985;    0,682
989,952; 3169,591;    1,621;    0,864
990,502; 3300,955;    1,076;    0,682
991,052; 3279,591;   -0,106;    0,045
991,602; 3129,591;    1,167;    1,318
992,152; 3120,864;    2,803;    0,682
992,702; 3095,500;    1,167;   -0,045
993,252; 3010,136;    0,076;   -0,500
993,802; 3095,591;    1,167;    1,318
994,352; 3356,409;   -0,742;    1,136
994,901; 3485,500;    1,076;    3,227
995,451; 3378,591;   -1,197;    0,318
996,000; 3471,136;    1,076;    0,318
996,550; 3152,773;    2,894;    0,227
997,100; 3164,227;   -0,561;   -0,045
997,649; 3445,227;   -0,197;    0,955
998,198; 3060,500;   -0,288;   -1,500
998,748; 3251,500;    0,348;   -2,318
999,297; 3179,318;    0,985;   -0,409
999,846; 3237,045;    1,894;   -0,773
1000,395; 3290,227;    1,530;    0,500
1000,945; 3223,227;    1,076;   -0,773
1001,494; 3282,045;    0,167;    0,682
1002,043; 3278,682;    0,712;    0,864
1002,592; 3152,136;    3,439;    1,955
1003,141; 3309,864;    2,439;   -0,682
1003,690; 3126,136;    1,258;    0,500
1004,238; 3207,591;   -0,106;   -0,045
1004,787; 2838,045;   -1,288;    1,227
1005,336; 3052,500;    1,621;    0,682
1005,885; 3229,955;   -0,197;   -2,773
1006,433; 3397,227;   -0,470;    0,955
1006,982; 3428,227;    2,167;    1,682
1007,531; 3353,318;    2,712;   -0,227
1008,079; 3315,318;    0,258;    0,500
1008,627; 3491,864;    1,621;    0,409
1009,176; 3201,136;    0,076;   -1,955
1009,724; 3247,773;   -2,742;    0,864
1010,273; 3293,318;    1,076;    0,500
1010,821; 3442,136;    1,076;    1,409
1011,369; 3147,864;    0,076;    1,318
1011,917; 3121,045;   -0,833;   -0,591
1012,465; 3404,591;    2,530;   -1,591
1013,013; 3537,773;    0,439;   -1,682
1013,561; 3397,136;   -1,288;   -0,773
1014,109; 3424,227;   -0,833;    1,682
1014,657; 3294,227;    1,348;    0,591
1015,205; 3461,045;    0,894;   -0,955
1015,753; 3508,591;    0,258;   -1,409
1016,301; 3521,409;    2,621;    3,045
1016,848; 3524,773;    2,167;    0,409
1017,396; 3561,318;    1,621;    0,045
1017,944; 3701,682;    2,621;    1,864
1018,491; 3467,136;   -0,197;    1,409
1019,039; 3584,136;   -0,652;    0,591
1019,586; 3526,864;    0,076;    1,682
1020,134; 3632,227;    0,712;    1,500
1020,681; 3626,773;    2,894;   -1,136
1021,228; 3666,500;   -0,561;   -2,227
1021,776; 3495,318;   -0,833;   -1,136
1022,323; 3700,591;    0,803;    0,773
1022,870; 3638,409;   -0,470;   -0,045
1023,417; 3523,955;    2,076;    1,864
1023,964; 3710,773;    0,621;    1,227
1024,511; 3498,318;   -0,652;    0,773
1025,058; 3272,045;    0,439;   -0,045
1025,605; 3347,864;   -1,742;    3,136
1026,152; 3551,227;   -0,106;   -0,591
1026,699; 3282,864;    0,167;    1,318
1027,245; 3475,409;    2,439;    0,318
1027,792; 3720,500;    0,712;    1,409
1028,339; 3565,409;    4,076;   -0,045
1028,885; 3412,136;    3,621;   -0,227
1029,432; 3336,682;   -0,106;    0,227
1029,978; 3392,682;    1,348;   -1,591
1030,525; 3286,045;    1,621;    0,409
1031,071; 3586,773;    0,348;    1,136
1031,618; 3651,318;    1,258;    1,682
1032,164; 3464,773;    2,076;    3,045
1032,710; 3510,045;    0,076;   -1,500
1033,256; 3427,955;    0,712;   -0,136
1033,803; 3417,864;   -0,288;    1,500
1034,349; 3144,682;    1,803;    0,136
1034,895; 3285,409;    2,621;   -0,318
1035,441; 3265,136;    0,439;    0,318
1035,987; 3275,409;   -2,288;   -0,682
1036,533; 3260,318;   -0,197;   -0,955
1037,078; 3450,227;    4,712;    1,682
1037,624; 3271,136;    2,439;   -0,955
1038,170; 3316,682;    1,712;   -0,318
1038,716; 3181,955;    2,167;   -0,409
1039,261; 3117,682;    2,167;   -0,773
1039,807; 3046,682;   -0,015;    3,409
1040,352; 3092,318;   -1,288;   -0,318
1040,898; 3156,045;    0,167;   -0,682
1041,443; 3057,045;    0,803;   -2,591
1041,989; 3044,864;    3,621;    1,591
1042,534; 2928,591;    0,985;    2,591
1043,079; 3092,409;    1,985;    0,955
1043,625; 2856,773;    0,258;    0,500
1044,170; 2881,227;    2,439;    1,045
1044,715; 3149,227;    0,167;    0,955
1045,260; 2979,591;   -0,833;   -0,955
1045,805; 3047,773;    0,258;   -0,591
1046,350; 2980,864;    0,530;   -0,409
1046,895; 2911,682;    0,803;    1,591
1047,440; 2847,318;    1,530;    0,409
1047,985; 2753,409;   -1,197;   -0,955
1048,530; 2658,409;    1,348;    1,227
1049,074; 2721,773;    2,803;    0,318
1049,619; 2698,318;   -0,924;    1,955
1050,164; 2494,500;    1,076;    0,227
1050,708; 2541,136;    2,621;    0,045
1051,253; 2887,500;    3,258;   -2,227
1051,797; 2624,682;   -0,197;   -1,318
1052,342; 2660,318;    1,348;    1,045
1052,886; 2627,591;    1,803;   -1,409
1053,430; 2535,591;    2,167;    0,136
1053,975; 2538,500;    0,894;   -0,318
1054,519; 2501,591;    1,803;    3,227
1055,063; 2478,045;    3,621;    1,318
1055,607; 2366,045;    1,348;    0,227
1056,151; 2392,227;    0,530;    1,682
1056,695; 2334,591;   -1,833;   -1,136
1057,239; 2395,227;   -1,197;   -0,682
1057,783; 2388,773;    2,258;   -1,500
1058,327; 2340,500;    3,076;    1,409
1058,871; 2549,864;    3,985;    1,318
1059,415; 2246,409;   -0,561;   -0,045
1059,958; 2484,227;    2,985;    2,591
1060,502; 2225,409;    1,348;   -0,773
1061,046; 2146,773;    1,712;   -0,955
1061,589; 2125,864;    2,803;   -1,136
1062,133; 1998,500;    0,985;    1,864
1062,676; 1930,227;    1,439;    0,864
1063,220; 1933,773;    0,985;    0,500
1063,763; 1950,500;    2,985;    1,136
1064,306; 2011,136;    0,985;    1,864
1064,849; 1894,136;    2,076;    0,591
1065,393; 1916,682;    2,894;   -1,500
1065,936; 2040,227;    2,530;   -0,409
1066,479; 1931,500;    2,621;    1,318
1067,022; 1946,955;    1,894;   -0,227
1067,565; 1837,409;   -1,197;   -1,318
1068,108; 1871,864;    1,258;   -0,591
1068,651; 1858,227;   -2,470;    1,409
1069,194; 1780,045;   -1,106;   -1,682
1069,736; 1762,500;    3,803;    0,955
1070,279; 1751,045;   -1,652;   -0,500
1070,822; 1787,500;    1,530;   -0,318
1071,364; 1844,409;    0,530;    1,318
1071,907; 1693,409;    0,348;    3,227
1072,450; 1613,591;    0,258;   -0,045
1072,992; 1604,591;   -0,561;    3,136
1073,535; 1711,773;    0,167;    2,136
1074,077; 1509,318;    2,985;    2,045
1074,619; 1480,136;    0,985;    0,591
1075,161; 1495,864;   -0,561;    1,500
1075,704; 1677,591;    0,258;    1,227
1076,246; 1499,136;    1,530;    0,682
1076,788; 1422,591;   -1,015;    1,773
1077,330; 1525,227;   -2,106;    2,136
1077,872; 1461,955;   -1,924;    0,955
1078,414; 1664,500;    3,712;    0,773
1078,956; 1394,591;    0,167;   -0,227
1079,498; 1649,500;    0,439;    0,318
1080,040; 1344,955;    0,985;   -1,318
1080,581; 1295,955;    0,621;   -0,318
1081,123; 1239,955;   -0,106;   -0,773
1081,665; 1294,045;    3,803;   -0,955
1082,206; 1571,682;    3,258;   -0,500
1082,748; 1444,409;    3,258;    2,045
1083,289; 1316,864;    0,167;    1,318
1083,831; 1224,136;    0,258;    0,227
1084,372; 1240,227;    0,894;    0,591
1084,913; 1244,045;    3,348;    0,864
1085,455; 1223,591;    1,530;   -2,045
1085,996; 1185,955;    0,530;    0,136
1086,537; 1208,955;    0,985;    0,864
1087,078; 1240,409;    0,439;   -2,136
1087,619; 1290,227;   -1,652;    0,227
1088,160; 1199,955;    1,439;    1,318
1088,701; 1183,955;   -0,742;    0,682
1089,242; 1121,955;   -0,561;   -2,227
1089,783; 1199,227;   -0,561;    1,409
1090,324; 1165,864;   -0,833;    0,682
1090,865; 1048,045;   -1,924;   -0,409
1091,405; 1054,500;   -0,561;    2,227
1091,946; 1075,500;   -0,197;   -0,955
1092,487; 1000,318;   -1,288;   -1,409
1093,027; 1140,773;    1,803;   -1,500
1093,568;  998,409;    2,258;    1,227
1094,108; 1074,682;    0,621;    1,773
1094,649; 1025,682;   -0,470;    0,136
1095,189;  966,318;    1,167;   -0,682
1095,729;  907,591;    0,712;    0,955
1096,269;  929,682;    1,258;   -0,955
1096,810; 1225,955;   -0,197;    0,500
1097,350; 1054,773;   -0,561;   -0,773
1097,890;  956,500;    2,985;    1,227
1098,430; 1196,045;    4,985;    2,864
1098,970; 1073,682;    1,894;    1,682
1099,510;  952,318;   -0,833;   -2,318
1100,050;  876,682;    0,258;   -1,591
1100,589;  836,864;    0,076;   -0,318
1101,129;  952,682;    0,894;   -0,955
1101,669; 1085,136;    2,803;    2,136
1102,209;  920,682;    1,530;    2,227
1102,748;  882,773;    3,439;    0,955
1103,288;  864,318;    0,712;   -1,227
1103,827;  894,409;    3,530;   -2,227
1104,367;  778,864;    1,712;   -2,409
1104,906;  742,864;   -1,015;   -1,136
1105,445;  811,045;    0,985;   -1,136
1105,985;  753,409;   -0,652;    1,500
1106,524;  785,955;    1,530;   -0,682
1107,063;  761,500;    1,167;    1,409
1107,602;  753,318;    1,894;   -1,500
1108,141;  671,136;    1,621;    1,500
1108,680;  747,682;    3,985;   -0,591
1109,219;  701,500;    0,167;   -0,500
1109,758;  709,500;    4,167;    0,682
1110,297;  673,045;   -1,106;   -0,682
1110,836;  617,318;    1,439;    0,955
1111,375;  779,227;    0,348;    0,409
1111,913;  797,864;    0,985;    0,773
1112,452;  734,318;    0,894;    0,136
1112,991;  628,591;    1,076;    1,955
1113,529;  581,227;    0,167;   -0,045
1114,068;  639,500;    0,439;    2,955
1114,606;  537,773;   -0,561;   -0,955
1115,144;  694,136;    1,530;    1,045
1115,683;  638,773;    1,985;    0,318
1116,221;  694,500;    2,076;   -0,864
1116,759;  606,227;    1,621;   -0,864
1117,297;  788,318;    1,621;    1,864
1117,836;  597,591;    1,985;   -1,227
1118,374;  602,773;    0,258;   -0,682
1118,912;  549,227;    0,439;    2,682
1119,450;  537,591;    0,985;    0,864
1119,988;  580,864;    3,348;    2,136
1120,525; 1022,045;    7,258;    3,318
1121,063;  724,591;    0,530;    1,864
1121,601;  526,773;    1,076;   -1,227
1122,139;  494,409;    1,076;   -2,045
1122,676;  688,591;   -1,652;    2,773
1123,214;  627,500;    0,712;    4,409
1123,751;  442,409;    0,621;    2,227
1124,289;  559,409;    0,894;   -0,409
1124,826;  438,045;   -0,379;    0,227
1125,364;  376,409;    0,712;   -0,955
1125,901;  550,591;    6,258;    1,227
1126,438;  639,409;    3,530;    0,955
1126,975;  384,864;    2,985;   -0,773
1127,513;  444,773;    2,621;    2,136
1128,050;  367,864;   -0,561;   -0,682
1128,587;  455,864;    1,348;   -0,227
1129,124;  490,591;   -0,015;    1,318
1129,661;  368,682;   -1,924;    0,227
1130,198;  535,045;    2,439;    0,773
1130,734;  475,318;   -0,379;    1,409
1131,271;  344,045;   -1,197;    0,864
1131,808;  506,227;    1,621;    3,045
1132,345;  376,318;    4,530;    0,318
1132,881;  268,045;   -0,561;   -1,864
1133,418;  397,227;    0,348;   -1,136
1133,954;  337,500;    0,712;   -2,682
1134,491;  398,864;    1,712;   -0,773
1135,027;  306,591;    2,167;    0,864
1135,564;  386,227;    1,439;    2,955
1136,100;  361,773;   -0,742;    2,136
1136,636;  262,500;   -1,015;   -1,045
1137,172;  358,500;    0,894;   -1,045
1137,708;  280,500;   -1,561;   -1,045
1138,245;  284,591;    0,803;   -1,227
1138,781;  246,955;    1,803;   -3,318
1139,317;  309,136;    1,894;   -1,409
1139,852;  292,864;    3,076;    0,136
1140,388;  406,500;    2,076;   -0,409
1140,924;  289,955;    1,076;   -2,227
1141,460;  235,136;   -0,288;    0,136
1141,996;  172,682;   -0,652;    2,682
1142,531;  211,045;    1,076;    3,318
1143,067;  421,136;    1,167;    1,045
1143,602;  475,227;    3,439;   -0,318
1144,138;  322,045;    0,803;    1,045
1144,673;  203,409;    1,621;    1,409
1145,209;  255,591;    2,894;   -0,318
1145,744;  188,955;    0,803;    0,864
1146,279;  308,682;    1,530;   -0,136
1146,815;  229,409;    1,530;   -2,682
1147,350;  265,227;   -0,924;    0,045
1147,885;  192,864;   -1,924;   -1,318
1148,420;  194,955;    2,439;    0,773
1148,955;  173,318;   -1,470;    1,864
1149,490;  197,682;   -1,106;   -1,591
1150,025;  182,409;   -1,106;   -1,773
1150,560;  286,318;   -0,288;   -0,955
1151,094;  251,864;    0,258;   -0,591
1151,629;  255,773;   -3,742;    0,864
1152,164;  185,773;   -1,288;    1,318
1152,698;  151,318;    1,258;   -0,136
1153,233;  110,591;   -1,379;   -0,682
1153,767;  153,500;   -0,288;   -2,318
1154,302;  200,682;   -0,379;    1,773
1154,836;  198,955;    0,803;   -2,136
1155,371;  249,591;    2,258;    3,682
1155,905;  199,682;    1,985;    1,682
1156,439;  172,136;    0,530;   -0,500
1156,973;  210,045;    0,439;    0,318
1157,507;  134,682;   -1,742;    0,682
1158,042;  165,227;   -0,652;    1,045
1158,576;  207,318;   -0,561;    1,773
1159,110;  201,409;    0,076;    2,409
1159,643;  173,591;   -2,470;   -0,045
1160,177;  117,591;   -2,015;    1,500

