
Integration time [ms]:   0,050
Averaging Nr. [scans]: 11
Smoothing Nr. [pixels]: 0
Data measured with spectrometer [name]: 7318044SP
Wave   ;Sample   ;Dark     ;Reference
[nm]   ;[counts] ;[counts] ;[counts] 

186,757;    0,810;   38,161;    1,318
187,357;    5,434;   26,706;    0,955
187,958;   -1,241;   17,252;   -1,591
188,558;   18,782;   12,979;   -1,227
189,159;    2,568;   10,070;   -4,500
189,759;   -2,451;    5,797;   -3,591
190,360;   -0,243;    6,797;   -2,136
190,960;   12,669;    5,706;   -4,136
191,560;   12,294;    2,614;   -6,591
192,161;  101,882;    5,885;   -3,500
192,761;   52,724;    5,520;   -3,227
193,361;   34,007;    3,065;   -3,773
193,962;   48,015;    1,612;   -2,682
194,562;   11,714;   -0,114;   -3,955
195,162;    8,593;   -0,567;   -2,227
195,762;   56,701;    2,433;   -0,045
196,362;   33,688;    1,706;   -2,500
196,963;    5,841;    1,706;   -0,864
197,563;   21,614;    1,252;   -0,955
198,163;    7,202;   -0,111;   -0,682
198,763;   11,058;   -0,020;   -0,500
199,363;   27,823;    3,616;   -0,500
199,963;   12,456;    2,162;    0,409
200,563;   11,734;    6,344;   -1,409
201,163;    2,328;    5,435;   -0,227
201,763;   15,348;    1,435;    0,318
202,363;    2,288;    0,980;    1,500
202,963;   10,250;    1,526;    1,045
203,563;   31,191;    0,344;    0,500
204,162;   13,520;    1,889;   -1,864
204,762;    9,853;    2,071;    0,591
205,362;    5,518;    0,708;    1,955
205,962;   11,495;    3,435;    1,955
206,562;   11,214;    1,889;    2,318
207,161;    4,366;    1,708;    0,318
207,761;   33,491;    4,435;    2,409
208,361;   11,730;    1,889;    1,409
208,960;   12,244;    2,889;    1,500
209,560;    6,622;    0,435;    1,591
210,160;   18,061;    5,071;    1,864
210,759;    8,653;    0,708;    1,227
211,359;    3,379;   -0,474;    1,045
211,958;   45,013;    3,526;    2,045
212,558;   42,201;    0,799;    1,864
213,157;   16,020;   -0,929;    1,500
213,757;   72,736;    5,617;   -0,227
214,356;   29,152;    1,708;   -0,409
214,956;   62,193;    3,526;    0,409
215,555;   20,352;    0,617;    2,136
216,154;    6,357;   -0,292;   -0,591
216,754;    7,056;    1,253;    0,773
217,353;    9,937;   -0,383;   -1,045
217,952;   -0,539;    2,072;    0,318
218,552;   19,111;    0,254;   -0,773
219,151;   11,740;   -1,110;    0,955
219,750;    4,653;    0,890;   -0,227
220,349;    0,359;   -2,292;    1,045
220,948;   21,738;    1,163;    1,136
221,548;    6,118;    0,617;    1,227
222,147;    2,143;   -1,292;   -0,409
222,746;   27,332;    1,254;   -0,955
223,345;   11,220;   -1,019;    0,500
223,944;   13,403;    1,163;    0,773
224,543;   13,947;    4,072;   -1,409
225,142;    2,316;    1,345;    0,136
225,741;    7,588;    1,163;    1,045
226,340;    8,935;    1,254;   -0,955
226,939;   22,115;    2,708;   -0,136
227,538;    8,186;    1,163;   -0,773
228,137;   30,907;    0,435;    0,864
228,735;   19,438;    0,435;    1,227
229,334;   -0,499;   -0,474;   -0,227
229,933;   28,447;    0,799;    0,591
230,532;   22,006;   -1,201;   -0,409
231,131;   35,443;    1,253;    0,318
231,729;   16,922;    1,163;   -2,318
232,328;    5,966;    0,435;   -1,500
232,927;    5,445;    4,526;   -0,500
233,525;    7,041;    0,981;    0,045
234,124;   15,183;    1,890;   -1,591
234,723;    5,659;    1,617;   -1,045
235,321;    4,062;    1,163;    0,136
235,920;    2,755;    2,526;   -1,227
236,518;   27,339;    1,072;    0,318
237,117;    9,945;    2,890;   -0,227
237,715;   10,237;    1,163;   -0,500
238,314;   10,230;    1,708;   -2,318
238,912;   26,962;    0,526;   -1,409
239,510;   17,360;    1,162;   -1,227
240,109;   33,792;   -0,474;    3,773
240,707;   25,130;   -0,474;    1,227
241,305;    5,052;   -0,383;    0,136
241,904;   13,052;   -0,292;   -2,045
242,502;   40,548;    3,253;   -0,227
243,100;   19,573;    3,344;   -0,955
243,698;    5,501;    2,799;    1,682
244,297;   12,788;   -0,656;    0,682
244,895;    8,670;   -0,474;   -2,318
245,493;   27,079;    2,981;   -0,591
246,091;   33,018;    5,163;   -1,318
246,689;   15,003;    2,163;    0,591
247,287;   16,894;   -0,019;   -1,136
247,885;    8,812;   -1,019;    1,227
248,483;    5,420;   -0,201;   -0,500
249,081;   17,074;    0,981;    1,591
249,679;   19,841;   -1,019;    1,682
250,277;    5,531;   -2,292;    0,864
250,875;   18,678;    0,617;   -1,045
251,473;    8,419;   -0,019;    0,500
252,071;   23,875;   -0,383;    1,045
252,669;   14,948;   -1,565;    0,318
253,267;    8,245;    1,618;    0,773
253,864;    9,166;    0,617;    0,682
254,462;   16,951;    1,526;    1,591
255,060;    5,154;    0,072;    1,318
255,658;    2,312;   -3,292;   -0,136
256,255;    5,971;   -0,201;   -2,045
256,853;   16,175;    2,345;    1,409
257,451;    3,778;    1,981;    1,864
258,048;   65,071;    2,072;    1,864
258,646;   24,755;    0,436;   -1,045
259,243;   37,175;    2,981;    2,227
259,841;   19,230;    1,799;    0,318
260,438;    6,639;    0,254;    0,864
261,036;   18,988;    0,617;    1,409
261,633;    4,976;    1,526;    2,227
262,231;    0,365;   -0,110;   -0,045
262,828;    2,890;   -0,383;    1,136
263,425;    2,315;   -1,928;   -0,591
264,023;    5,608;    1,436;    0,045
264,620;   16,727;    1,526;   -0,318
265,217;   28,690;    2,890;    3,136
265,815;    9,319;    2,527;    2,136
266,412;   16,991;    0,072;    0,136
267,009;    8,945;    0,526;    0,773
267,606;   23,846;    0,345;   -0,955
268,203;    7,140;   -0,383;   -0,591
268,801;    6,939;   -0,474;    0,591
269,398;    1,950;   -0,564;    2,500
269,995;   14,071;    0,890;    1,591
270,592;   10,051;    0,799;   -0,500
271,189;    2,954;    1,981;    0,409
271,786;    0,971;    2,072;    1,227
272,383;   13,562;   -0,383;    0,227
272,980;    8,151;    1,617;    0,318
273,577;    4,518;    2,162;    1,227
274,174;    0,943;    1,435;    2,591
274,771;   13,948;    1,890;   -0,773
275,367;   74,232;    3,253;    1,409
275,964;   30,592;   -0,565;   -0,500
276,561;    6,081;   -2,474;   -1,045
277,158;   -2,523;    1,799;   -1,773
277,755;   25,984;   -0,110;    0,409
278,351;   14,650;    0,436;   -1,500
278,948;   16,965;   -0,201;    0,045
279,545;   12,164;    0,527;    2,318
280,141;   27,903;    1,254;   -2,045
280,738;   29,647;    2,435;   -0,136
281,334;    4,495;   -0,383;    0,591
281,931;   -0,682;    2,890;   -1,318
282,528;   17,525;    4,072;   -0,500
283,124;   23,133;    3,345;   -0,500
283,721;   17,626;    0,709;    1,409
284,317;    6,887;    0,163;    2,500
284,913;   23,377;   -0,110;    0,591
285,510;   36,104;    2,890;   -0,318
286,106;   29,189;    2,345;   -0,955
286,703;   15,009;    0,072;    1,955
287,299;    8,685;    1,254;   -0,591
287,895;    3,732;    0,890;   -1,045
288,491;    3,677;    0,163;    2,136
289,088;   11,799;    0,163;    2,409
289,684;   11,585;    2,890;    1,500
290,280;   32,134;    1,890;    0,682
290,876;   21,708;    0,163;    5,500
291,472;   19,391;    2,163;    2,227
292,068;   22,035;    1,254;    0,227
292,665;   10,867;   -0,564;    0,773
293,261;    3,982;   -1,292;    2,136
293,857;   18,105;    4,072;    2,136
294,453;   14,070;   -0,928;    0,955
295,049;   38,214;    0,253;    1,955
295,644;   17,422;   -1,292;    0,136
296,240;    2,269;    0,162;   -0,136
296,836;   11,504;   -0,747;    0,318
297,432;   18,892;    2,980;   -0,500
298,028;   19,901;    0,435;    0,773
298,624;   11,637;    0,889;    1,864
299,220;   17,506;    0,435;    0,591
299,815;    7,684;    0,526;   -0,409
300,411;   18,578;    0,435;    1,773
301,007;   20,132;    1,889;    0,227
301,602;    9,891;    2,071;   -2,318
302,198;   31,173;    1,435;   -0,773
302,794;   14,823;    1,526;   -0,500
303,389;    4,956;    1,071;    1,045
303,985;    3,630;    1,253;    1,409
304,580;   29,445;    0,889;    1,591
305,176;   13,573;    0,344;    0,136
305,771;   -2,114;   -0,929;   -1,227
306,367;   59,616;    3,071;    0,136
306,962;   21,619;    2,889;    1,500
307,558;   26,973;    2,435;    0,136
308,153;   12,405;   -0,383;   -1,136
308,748;    0,861;    0,162;    1,682
309,344;   35,348;    0,253;   -1,318
309,939;   34,863;    2,071;   -1,318
310,534;   10,105;   -2,020;   -1,682
311,130;    7,521;   -0,656;   -2,500
311,725;    0,907;    0,526;   -0,500
312,320;    8,097;    1,253;    0,045
312,915;   14,665;    2,890;   -1,045
313,510;   43,107;    0,526;   -0,500
314,105;   16,097;   -3,565;    1,409
314,700;    5,664;   -1,656;   -1,045
315,295;    6,172;   -0,020;    0,045
315,890;    3,136;   -0,292;    0,864
316,485;   12,935;    0,253;   -0,318
317,080;    3,738;   -0,929;    1,591
317,675;   43,929;    3,071;   -0,682
318,270;   94,971;    6,889;    3,318
318,865;   52,411;    2,435;    3,045
319,460;   26,887;   -1,565;    0,591
320,055;    7,280;   -2,565;   -1,227
320,650;    7,023;   -1,838;   -0,591
321,244;    7,259;    0,889;   -1,409
321,839;    5,707;    0,980;   -0,227
322,434;    6,642;   -0,111;   -1,591
323,029;    7,773;   -0,474;    1,591
323,623;    8,680;    0,798;    0,773
324,218;   37,765;    2,707;    1,409
324,812;   21,473;    0,889;    1,591
325,407;   15,068;   -0,929;    2,045
326,002;   46,183;    0,526;   -0,409
326,596;   26,895;   -0,656;    1,318
327,191;    7,658;   -0,383;   -1,045
327,785;    9,895;   -0,747;   -0,227
328,379;    2,754;   -0,383;    0,136
328,974;    3,667;    1,798;   -3,955
329,568;   10,765;    2,889;   -2,409
330,163;   26,715;    2,435;    1,045
330,757;    9,154;    0,253;    1,591
331,351;    3,095;   -0,292;    0,682
331,945;    2,900;   -0,383;    1,409
332,540;   11,564;    1,617;   -0,591
333,134;    9,905;    3,344;    0,773
333,728;   17,104;    2,799;    0,318
334,322;    4,457;    0,889;   -0,864
334,916;    2,055;    0,344;    0,955
335,510;   18,435;   -0,111;   -0,136
336,105;   11,749;   -0,929;    1,591
336,699;    1,424;   -1,292;    0,591
337,293;   10,386;    1,071;    0,318
337,887;    3,101;    0,071;    1,955
338,481;   14,554;    2,980;    0,591
339,074;   34,495;    2,071;    2,682
339,668;   24,511;   -0,110;    1,227
340,262;  132,560;    7,708;    3,227
340,856;   51,191;    1,708;   -0,682
341,450;    6,949;    0,708;    1,864
342,044;   18,659;    1,799;    0,136
342,637;   30,155;    1,162;   -2,136
343,231;   10,423;   -1,474;    0,682
343,825;    8,683;   -0,747;   -0,591
344,419;   12,257;   -0,474;    0,500
345,012;  114,589;    2,889;    4,045
345,606;   67,591;   -0,656;    1,591
346,199;   15,867;   -0,111;   -0,227
346,793;   30,701;    2,525;    2,045
347,386;   14,545;    0,889;   -1,136
347,980;    2,446;   -0,838;   -0,045
348,573;   11,125;   -1,748;    0,409
349,167;   99,413;    6,161;    4,773
349,760;   42,446;    2,252;    2,682
350,354;   40,152;    1,616;    1,136
350,947;   43,271;    2,798;    1,682
351,540;   32,702;    0,616;   -1,409
352,134;   10,905;   -1,111;    1,136
352,727;   12,194;   -0,657;    1,136
353,320;   13,616;    2,343;    0,591
353,913;   -0,022;   -1,929;    1,864
354,507;   34,958;    0,434;   -1,227
355,100;   16,328;    0,071;    0,864
355,693;  138,170;    4,798;    2,409
356,286;   59,436;    0,980;    2,773
356,879;   25,110;   -0,475;    1,227
357,472;   30,521;    0,980;    1,500
358,065;   34,473;    3,161;    2,500
358,658;    8,096;    0,798;    2,318
359,251;    6,397;    0,252;   -0,591
359,844;   38,885;    0,343;   -1,136
360,437;   50,078;    0,252;    0,045
361,030;   22,483;    0,525;   -0,682
361,623;   28,562;    0,434;    0,318
362,215;   77,890;    0,979;    2,045
362,808;   25,247;   -2,293;   -1,682
363,401;   16,445;    0,798;    0,136
363,994;   69,859;    3,252;   -1,500
364,586;   27,001;    0,888;   -1,500
365,179;   18,479;   -0,203;   -1,136
365,772;   -0,841;   -0,930;    2,045
366,364;   14,170;    1,524;   -3,227
366,957;   23,796;    1,342;   -0,045
367,549;   12,359;   -0,203;   -0,864
368,142;   18,461;    0,978;   -1,500
368,734;   13,035;    2,523;   -2,136
369,327;    4,676;    2,341;   -0,500
369,919;    9,480;   -1,659;    0,409
370,512;   15,627;   -1,023;   -0,500
371,104;   90,503;    2,704;    1,591
371,696;   86,617;    1,703;   -0,955
372,289;   42,271;    0,157;    1,136
372,881;   28,221;    1,156;    1,318
373,473;    4,912;    4,064;    1,136
374,066;   17,099;    1,336;    0,500
374,658;   17,889;    0,879;    1,136
375,250;    8,471;   -1,668;   -1,409
375,842;   13,190;   -0,124;   -0,045
376,434;    0,272;   -2,762;   -0,409
377,026;   -2,563;   -1,855;   -2,500
377,618;   18,397;    0,779;   -0,682
378,210;    6,039;    3,141;   -1,955
378,802;    9,887;    3,412;   -0,591
379,394;  161,138;    3,411;    0,682
379,986;   61,390;    1,138;   -0,955
380,578;   19,810;    1,410;    0,773
381,170;  118,544;    0,320;    0,045
381,762;   74,905;   -0,224;    1,409
382,354;   47,558;   -0,223;   -1,318
382,945;   24,985;    0,870;    0,318
383,537;   12,598;    1,144;   -1,955
384,129;   11,060;    0,963;   -1,136
384,721;   42,040;    0,418;    0,955
385,312;   21,775;   -1,399;   -0,955
385,904;   46,985;   -0,945;    1,591
386,496;   29,233;    0,691;    1,045
387,087;   86,375;    0,418;    2,500
387,679;   50,330;   -0,401;    0,045
388,270;   30,370;   -2,401;    2,045
388,862;   30,236;   -0,401;   -0,318
389,453;   32,914;    1,054;    1,045
390,045;   26,818;    3,236;   -2,682
390,636;   -8,930;    0,144;   -0,591
391,227;   11,276;    2,054;   -0,045
391,819;   10,969;    0,781;    0,773
392,410;  109,484;    0,600;    0,045
393,001;   30,398;    1,600;   -1,591
393,593;   39,523;    0,600;   -0,045
394,184;   50,971;    0,873;   -0,409
394,775;   22,172;    1,146;    2,136
395,366;    3,569;    1,782;    0,773
395,957;   41,335;   -2,400;    0,136
396,548;   14,429;    1,054;    2,682
397,139;   46,047;    2,236;    0,591
397,730;   25,809;    0,873;    0,955
398,321;   26,329;    0,509;    0,955
398,912;   12,810;   -0,764;    0,136
399,503;    7,877;   -1,945;   -1,409
400,094;   17,380;   -1,582;    1,682
400,685;   14,641;    3,600;    0,045
401,276;   11,801;   -0,400;   -0,955
401,867;    4,978;   -1,127;    0,773
402,458;   -7,141;    1,509;   -2,318
403,048;   24,894;    0,146;    0,591
403,639;   15,185;    1,509;    0,864
404,230;   45,382;    0,691;    0,318
404,821;   63,696;   -0,127;    0,045
405,411;   38,226;   -0,763;   -2,591
406,002;   10,018;    3,237;   -1,136
406,592;   94,643;    2,691;    0,045
407,183;   38,748;    0,328;   -1,500
407,774;   35,015;    1,419;   -0,136
408,364;   17,338;    2,600;    0,409
408,954;   55,943;   -0,036;    1,227
409,545;   50,083;    1,873;    1,045
410,135;   34,841;   -1,581;    0,500
410,726;   12,549;    0,783;    0,318
411,316;   84,674;    2,237;    0,773
411,906;   36,079;    0,146;   -0,409
412,497;   36,472;   -0,490;   -0,045
413,087;   13,419;    0,783;   -0,227
413,677;   -0,446;   -2,490;    3,864
414,267;   -1,053;   -1,035;    1,409
414,857;   -8,059;    0,419;    4,227
415,448;   -4,779;   -0,763;    0,500
416,038;    6,296;   -2,945;   -0,591
416,628;   16,421;    0,965;    0,409
417,218;   28,613;   -1,762;    3,318
417,808;   84,334;    0,965;   -0,409
418,398;   41,807;   -1,035;    2,682
418,988;    5,055;   -2,217;    0,591
419,578;   42,906;    3,601;    1,409
420,168;   18,835;    0,692;   -0,955
420,757;   55,862;    0,964;   -1,500
421,347;   12,092;    1,601;   -0,227
421,937;    7,781;    3,329;    1,409
422,527;   56,692;    2,602;   -0,773
423,116;  117,980;    2,692;   -0,045
423,706;   22,703;    2,965;    0,318
424,296;    6,312;    1,601;    0,682
424,885;   43,584;    1,510;   -3,045
425,475;   28,705;    1,147;   -2,864
426,065;    0,772;   -1,489;   -0,318
426,654;   -6,369;    0,329;   -0,318
427,244;   83,129;    1,147;    1,409
427,833;   57,940;    1,056;   -0,500
428,423;   21,290;    0,147;    1,136
429,012;   23,034;    2,420;   -1,136
429,601;   63,417;    2,057;    0,136
430,191;   23,329;    2,511;    4,318
430,780;   -3,232;   -1,671;   -0,409
431,369;   52,249;    1,329;   -0,045
431,959;   19,506;    1,693;    0,500
432,548;    2,281;   -1,398;   -0,045
433,137;  -12,278;    0,329;   -1,318
433,726;   10,232;    0,148;    0,500
434,315;   16,445;    0,148;    2,409
434,905;   57,467;    0,693;    1,409
435,494;   40,554;    3,148;    0,955
436,083;    6,934;    1,420;   -0,955
436,672;   40,557;    1,148;    0,500
437,261;   23,044;    0,512;   -1,955
437,850;   88,899;   -1,125;    0,682
438,439;  119,688;    2,239;    1,955
439,027;  180,618;    3,421;    1,773
439,616;  125,268;    2,239;    1,227
440,205;   39,633;    0,057;   -2,136
440,794;   25,157;   -0,306;   -0,045
441,383;   12,868;    1,603;   -0,591
441,971;    6,993;   -0,306;    0,591
442,560;    8,063;    0,603;   -1,773
443,149;  -13,690;    3,060;   -1,318
443,737;   -7,681;    0,968;   -2,318
444,326;    3,923;    0,331;    0,318
444,915;   10,585;   -1,851;    0,864
445,503;   18,339;    0,058;   -0,318
446,092;  140,634;    7,876;    2,136
446,680;  101,390;    1,876;    0,318
447,269;   45,331;   -1,487;   -0,318
447,857;   39,067;    2,240;   -1,773
448,445;   27,988;    2,149;    1,318
449,034;   10,181;    0,876;   -1,136
449,622;   17,741;    1,240;    3,500
450,210;  102,800;    3,149;    2,227
450,799;   69,899;    2,604;   -0,591
451,387;   64,198;    1,786;   -0,591
451,975;   54,316;   -1,305;    0,864
452,563;   79,785;    0,422;    2,318
453,151;   24,466;   -1,032;   -1,227
453,739;   27,675;   -1,577;    0,136
454,328;   61,124;    0,604;   -2,136
454,916;   40,444;    1,150;   -0,136
455,504;   56,238;    3,513;    1,227
456,092;   19,787;    2,150;   -1,591
456,679;    6,734;    0,604;    0,682
457,267;  185,924;    3,604;    1,045
457,855;   51,816;    3,241;    1,409
458,443;   -5,574;   -0,304;    1,682
459,031;   31,306;    1,332;    2,409
459,619;   24,664;   -3,577;    2,864
460,206;    1,432;   -0,759;    2,045
460,794;   -1,367;   -0,668;   -0,227
461,382;   13,060;    0,878;   -0,864
461,970;   20,324;    0,605;    1,864
462,557;    2,846;    0,878;   -0,682
463,145;   20,959;   -0,304;   -1,682
463,732;  123,318;    2,514;   -1,045
464,320;   40,661;    1,514;   -3,045
464,907;   81,620;    0,423;   -0,773
465,495;   41,837;    2,696;   -1,227
466,082;   23,805;    2,060;   -0,045
466,670;   35,680;    2,605;    1,227
467,257;    0,639;    0,060;    2,045
467,844;   27,134;    1,514;    0,045
468,432;   14,740;   -0,031;    3,500
469,019;   13,311;    1,606;   -1,773
469,606;   49,354;    0,969;    3,682
470,193;   49,038;    2,151;    0,227
470,780;   30,625;    0,333;    0,864
471,368;    7,611;   -1,212;   -0,773
471,955;   42,575;    1,060;   -0,682
472,542;   28,673;   -0,303;   -1,136
473,129;    3,200;   -0,485;    0,136
473,716;    5,551;    0,060;    0,591
474,303;    9,034;    1,333;   -0,864
474,890;    9,337;    2,333;   -0,500
475,477;   50,151;   -0,576;    0,409
476,064;   17,560;    0,697;   -1,591
476,650;   62,466;    2,152;    0,318
477,237;   18,648;    1,879;    0,955
477,824;   13,828;    3,879;    0,864
478,411;   -2,319;    0,606;   -0,318
478,997;   -9,086;    0,606;   -0,773
479,584;  -18,214;   -0,666;   -0,409
480,171;   29,344;    1,243;   -0,773
480,757;   41,911;   -0,848;    0,773
481,344;   11,913;    0,334;    0,409
481,931;  -14,315;   -0,393;    1,045
482,517;   23,388;    0,425;    0,318
483,104;   50,781;    1,334;    2,864
483,690;   12,096;    0,243;    0,045
484,276;    1,502;    0,698;    0,227
484,863;   80,773;    2,152;    1,136
485,449;   25,755;    0,152;    0,318
486,035;    9,725;   -0,666;   -0,136
486,622;   31,248;   -2,393;    0,045
487,208;   10,804;    1,334;    1,500
487,794;  -13,379;    0,971;    0,318
488,380;   -4,448;    0,698;   -1,409
488,967;   -8,535;   -1,120;   -0,409
489,553;   -7,574;   -1,029;   -1,409
490,139;   15,995;    0,971;    0,773
490,725;   -1,662;    0,789;   -0,227
491,311;    6,717;    1,516;    3,045
491,897;    0,851;   -0,665;    1,500
492,483;    7,059;    0,426;    1,227
493,069;  177,993;    5,426;    0,864
493,655;   59,720;    1,789;    0,682
494,241;   12,827;    1,517;   -0,955
494,826;   14,230;    0,335;   -1,045
495,412;   33,326;    0,335;   -0,682
495,998;    8,771;    0,971;   -0,318
496,584;   22,956;    2,244;    1,045
497,169;   31,924;    2,335;   -0,682
497,755;    8,790;    1,244;    1,227
498,341;   45,729;    2,153;    0,318
498,926;   97,767;    2,881;    1,955
499,512;   11,430;   -0,028;    2,955
500,097;    2,496;   -0,574;   -0,318
500,683;   14,237;   -0,028;    2,136
501,268;    2,997;    1,881;   -0,955
501,854;   12,706;   -0,119;    1,227
502,439;    8,101;   -0,573;   -1,773
503,024;    2,996;    1,608;    0,500
503,610;   14,777;    1,335;   -0,682
504,195;    6,936;    1,245;    1,955
504,780;   37,508;    2,335;    1,227
505,366;   71,059;    4,063;    2,864
505,951;   34,720;   -1,119;    1,045
506,536;   11,368;    1,427;   -3,682
507,121;   27,476;    1,699;   -0,318
507,706;   18,155;   -0,392;    1,045
508,291;   -0,084;   -2,937;    1,136
508,876;   -8,032;   -0,482;    2,591
509,461;    7,400;    1,427;   -0,773
510,046;   20,894;   -0,391;    0,318
510,631;   27,109;   -0,119;   -0,773
511,216;    4,119;   -0,664;   -0,500
511,801;   20,678;   -0,755;    2,591
512,386;   27,580;    0,972;    0,500
512,971;   25,884;    0,427;    0,955
513,555;   29,521;    1,154;   -1,500
514,140;   21,806;    1,336;   -3,136
514,725;   68,433;    1,791;   -1,136
515,309;   32,440;    1,064;    0,318
515,894;    5,966;   -0,300;   -2,227
516,479;   15,471;    1,973;   -0,955
517,063;   20,253;    0,882;    1,227
517,648;    8,764;    0,155;   -1,136
518,232;   -3,087;   -1,300;   -1,409
518,817;   26,664;    1,337;    1,682
519,401;   60,575;    0,700;    0,591
519,985;   55,189;    2,700;    1,136
520,570;   18,447;   -0,118;   -1,955
521,154;   51,821;    0,064;    0,591
521,738;  116,307;    1,064;    2,409
522,323;   62,464;   -0,390;    1,682
522,907;   75,441;    2,428;   -0,136
523,491;   60,484;    1,155;    0,955
524,075;   72,416;    0,428;    0,591
524,659;  200,091;    0,973;    0,591
525,243;  188,697;    0,883;    0,409
525,827;  172,062;    0,883;   -0,045
526,411;  207,909;    1,155;   -0,136
526,995;  317,409;    0,337;    1,409
527,579;  403,475;    1,974;   -1,045
528,163;  391,432;    0,428;   -1,500
528,747;  529,089;    1,065;   -0,773
529,331;  519,478;    0,883;   -1,409
529,915;  401,374;    2,338;    0,955
530,499;  559,097;    0,247;    1,227
531,082;  773,538;    1,065;    1,591
531,666;  901,803;    0,520;    0,773
532,250;  846,840;    0,428;    2,682
532,833; 1038,455;    0,610;    2,773
533,417;  884,124;    1,247;    0,864
534,001; 1075,033;    0,429;   -0,318
534,584; 1057,424;    1,974;    0,500
535,168;  913,487;    3,247;    1,409
535,751; 1390,003;    4,520;    0,045
536,334; 1069,039;    4,520;   -0,409
536,918; 1084,093;    1,974;    1,591
537,501; 1120,562;    1,520;    1,318
538,085; 1216,115;    1,702;    1,045
538,668; 1281,593;    0,883;    2,409
539,251; 1714,617;    3,156;    3,773
539,834; 1515,924;    0,156;    0,773
540,418; 1642,959;    3,247;    4,318
541,001; 1848,751;    2,702;    1,773
541,584; 1652,863;    1,429;    2,227
542,167; 1726,384;    0,702;    2,955
542,750; 1640,152;    0,793;   -0,773
543,333; 1436,339;    1,429;    2,136
543,916; 1818,943;   -0,298;    2,500
544,499; 1762,625;    2,520;    0,227
545,082; 1865,480;    0,248;    3,591
545,665; 1840,463;   -0,207;    1,500
546,248; 2004,703;    0,520;   -0,318
546,830; 1956,537;   -1,752;    1,955
547,413; 2052,674;    0,157;   -0,773
547,996; 2202,125;    0,157;    0,500
548,579; 1985,087;   -0,843;    0,955
549,161; 2209,397;    0,884;    2,682
549,744; 2114,813;    0,612;    0,409
550,326; 2153,660;    0,885;   -1,136
550,909; 2529,761;    2,339;    0,591
551,492; 2332,484;    0,521;    0,227
552,074; 2345,970;   -0,024;   -1,318
552,657; 2487,797;    2,430;    0,045
553,239; 2325,049;   -3,024;   -0,773
553,821; 2290,131;   -1,570;    1,045
554,404; 2377,324;   -0,024;    1,136
554,986; 2523,493;    2,248;    1,045
555,568; 2521,381;    0,430;   -0,955
556,151; 2609,496;    4,067;   -0,227
556,733; 2403,331;   -1,388;   -0,864
557,315; 2436,055;    4,703;    0,500
557,897; 2213,175;    0,521;   -0,500
558,479; 2272,117;    1,703;    1,318
559,061; 2420,721;    1,067;   -0,864
559,643; 2566,065;   -0,297;    0,045
560,225; 2585,964;   -0,388;    2,864
560,807; 2530,065;    0,340;    0,318
561,389; 2423,872;   -1,206;    2,318
561,971; 2507,134;   -0,660;    2,136
562,553; 2550,649;    0,613;    1,591
563,135; 2631,157;    1,249;    1,136
563,717; 2831,229;    3,158;    1,136
564,298; 2803,284;    3,976;   -0,045
564,880; 2523,612;    0,340;   -1,409
565,462; 2484,248;    1,977;    1,318
566,043; 2928,970;   -0,933;    2,318
566,625; 2892,320;    4,067;    1,227
567,207; 2681,664;    0,704;    1,682
567,788; 2830,916;   -0,114;    1,500
568,370; 3039,173;   -1,841;   -0,500
568,951; 2811,192;   -0,569;    0,227
569,533; 3069,824;    0,977;   -0,500
570,114; 3226,920;   -0,296;    0,682
570,695; 3271,105;   -0,478;   -1,318
571,277; 3228,456;   -0,205;   -1,682
571,858; 3477,138;    2,704;   -1,136
572,439; 3602,041;    0,795;   -1,045
573,021; 3528,792;    0,432;   -2,773
573,602; 3662,882;    1,795;    0,318
574,183; 3777,333;   -0,114;    2,227
574,764; 3798,740;    2,068;    0,409
575,345; 3858,350;    0,250;   -0,136
575,926; 3941,361;    2,704;    0,136
576,507; 4005,322;    2,704;   -0,227
577,088; 4235,227;    1,704;    1,682
577,669; 4306,853;    1,704;    1,955
578,250; 4568,696;   -0,750;   -1,045
578,831; 4469,625;   -0,841;   -2,227
579,412; 4343,331;   -1,205;    0,955
579,993; 4788,914;    1,432;    0,227
580,573; 4847,842;   -0,023;   -0,955
581,154; 4343,599;    1,613;   -0,591
581,735; 4653,289;    0,341;    0,773
582,315; 4389,198;    0,523;    2,136
582,896; 4687,195;   -1,750;    1,227
583,477; 4499,805;    0,614;    1,227
584,057; 4587,546;    1,159;    0,955
584,638; 4640,823;   -2,750;    2,318
585,218; 4813,608;    2,886;    2,682
585,799; 4748,773;    1,977;   -0,227
586,379; 4713,317;    1,250;    1,591
586,959; 4514,888;    2,613;    0,318
587,540; 4359,296;    0,432;    2,227
588,120; 4223,876;   -1,113;   -0,045
588,700; 4029,466;    2,977;    2,136
589,281; 4317,196;    1,250;   -0,955
589,861; 4186,831;   -0,296;   -1,682
590,441; 4123,679;   -1,477;   -2,682
591,021; 3785,900;    1,432;   -2,591
591,601; 4002,405;    0,431;    0,500
592,181; 4106,990;   -1,296;   -0,773
592,761; 3749,201;    2,250;    1,409
593,341; 3905,960;    1,522;    0,045
593,921; 3875,313;   -0,569;    1,591
594,501; 3768,892;    1,250;    1,318
595,081; 3740,653;    0,522;   -0,318
595,661; 4005,258;    1,068;    0,955
596,240; 4161,046;   -1,023;    0,136
596,820; 4049,875;    2,613;    1,955
597,400; 3858,766;    1,977;    0,773
597,980; 3971,939;   -0,750;    1,045
598,559; 4002,269;    0,341;   -0,227
599,139; 3949,990;   -0,750;   -1,227
599,718; 3927,353;    0,795;   -0,409
600,298; 4059,546;   -2,387;    0,682
600,877; 4318,617;    4,795;    1,409
601,457; 4363,627;    0,340;    1,136
602,036; 4223,300;    1,795;    2,045
602,616; 4158,015;    2,250;    1,682
603,195; 4293,613;    0,431;    3,500
603,774; 4115,329;   -0,296;    2,045
604,354; 4054,171;    2,522;   -0,500
604,933; 3961,000;    0,250;    1,864
605,512; 4112,572;    2,340;    0,591
606,091; 4174,601;    1,886;    3,773
606,671; 4351,000;    0,249;    0,773
607,250; 4165,301;    1,431;    3,136
607,829; 4246,704;    1,158;    3,227
608,408; 4151,750;    4,613;    2,591
608,987; 3963,586;    2,704;    3,409
609,566; 3891,817;    0,341;   -2,500
610,145; 4013,001;    2,885;    0,682
610,723; 4239,153;    1,613;    6,864
611,302; 3881,277;    1,067;    1,682
611,881; 3824,663;    5,158;   11,227
612,460; 3948,791;    0,795;    3,955
613,039; 4115,878;    1,703;    2,045
613,617; 3691,038;    0,886;    4,773
614,196; 3740,614;    1,613;    1,227
614,775; 3935,209;    1,249;    2,409
615,353; 3920,867;   -1,660;    0,864
615,932; 3823,996;    0,249;    2,409
616,510; 4093,831;    0,158;    0,591
617,089; 4244,488;    8,794;   17,591
617,667; 4052,465;    4,885;    6,136
618,246; 3708,664;   -1,115;    1,318
618,824; 3861,897;    1,612;   -0,955
619,402; 3731,002;    0,431;   -1,773
619,981; 3958,001;    1,067;   -1,045
620,559; 3983,597;    0,794;    1,682
621,137; 3927,131;    3,067;    1,864
621,715; 3587,374;    3,703;   -0,682
622,293; 3619,385;    1,885;   -0,773
622,871; 4024,236;    0,340;    0,500
623,450; 3823,640;    0,430;   -0,864
624,028; 3888,133;   -0,388;   -0,955
624,606; 3720,256;    2,339;    1,682
625,183; 3741,145;   -0,661;   -1,136
625,761; 3695,222;    1,885;    1,136
626,339; 4022,049;    2,339;    2,591
626,917; 3945,926;    0,339;   -0,045
627,495; 3992,246;    2,794;    1,318
628,073; 3809,312;    5,248;    2,864
628,650; 3721,100;    3,067;    2,136
629,228; 3878,861;    1,248;    4,409
629,806; 3554,855;   -0,024;    1,136
630,383; 3696,429;    0,066;   -0,318
630,961; 3661,405;   -2,206;   -0,955
631,539; 3543,669;   -2,479;    0,227
632,116; 3935,587;   12,703;   15,409
632,694; 3787,730;    4,885;    6,500
633,271; 3638,921;    1,975;    2,682
633,848; 3732,936;    1,430;    2,045
634,426; 3660,230;    1,521;    1,773
635,003; 3442,537;   -0,207;   -0,409
635,580; 3653,662;    1,884;    3,682
636,158; 3624,870;    3,793;    1,227
636,735; 3576,471;    3,339;   -0,500
637,312; 3573,820;    0,521;   -0,682
637,889; 3610,064;    2,248;   -0,682
638,466; 3560,578;    0,066;   -0,409
639,043; 3503,629;    1,702;   -1,136
639,620; 3546,610;    0,611;   -0,955
640,197; 3714,866;    1,612;    1,682
640,774; 3829,083;    1,430;    1,136
641,351; 3916,209;    0,612;    1,136
641,928; 3805,245;    2,794;    1,409
642,505; 3816,371;    0,794;   -0,500
643,082; 3802,769;    1,885;    1,227
643,658; 3382,805;    1,157;    1,500
644,235; 3612,113;   -2,479;    2,500
644,812; 3693,329;    1,794;    0,773
645,388; 3654,183;    1,612;    1,409
645,965; 3489,582;    1,521;    1,682
646,542; 3541,617;    3,430;   -0,227
647,118; 3897,288;    3,703;   -0,955
647,695; 3826,960;    0,339;    1,136
648,271; 3677,904;   -2,115;    0,500
648,848; 3763,576;    0,248;    2,227
649,424; 3787,883;    0,976;    1,318
650,000; 3501,010;   -0,388;   -1,045
650,577; 3601,863;    0,158;   -0,955
651,153; 3751,898;   -1,115;    0,955
651,729; 3859,388;    0,521;    0,864
652,305; 3952,332;    1,339;    2,773
652,881; 4536,731;   -1,297;    1,136
653,458; 5674,311;    0,249;    0,227
654,034; 6370,165;    0,703;    1,591
654,610; 6443,109;    0,339;    0,773
655,186; 6904,508;    1,612;    3,045
655,762; 6662,088;   -1,842;    0,409
656,338; 6679,487;    0,703;    0,136
656,913; 7115,522;   -0,297;    0,409
657,489; 6792,285;    0,249;   -0,318
658,065; 6906,320;    0,794;   -1,591
658,641; 7247,810;    2,158;   -0,864
659,217; 6918,754;    2,067;    0,409
659,792; 6569,062;   -1,751;   -0,409
660,368; 6783,461;   -0,388;   -0,682
660,944; 7053,950;    1,794;    1,227
661,519; 6252,894;    0,522;    0,409
662,095; 5174,293;   -0,206;    0,591
662,670; 4248,056;   -0,206;   -0,136
663,246; 4196,091;   -0,660;   -0,409
663,821; 4102,399;    0,431;    1,682
664,396; 3786,616;    0,613;    1,864
664,972; 3905,560;   -0,660;   -0,500
665,547; 4075,322;    3,794;    0,136
666,122; 3997,903;    1,340;    0,318
666,698; 4148,120;    2,431;    0,318
667,273; 3719,155;    0,885;    0,136
667,848; 4036,372;    0,340;    1,500
668,423; 3997,953;    1,795;    2,318
668,998; 4049,988;    0,976;   -0,682
669,573; 4228,659;    2,067;   -1,500
670,148; 4246,876;    1,885;   -0,682
670,723; 3953,821;   -0,024;    0,318
671,298; 4306,492;   -1,296;    1,045
671,873; 4207,346;   -0,296;   -0,136
672,448; 4211,653;    1,704;    0,136
673,023; 4282,325;    0,249;   -0,227
673,597; 4463,360;    2,704;    2,318
674,172; 4388,668;    2,431;    0,318
674,747; 4218,158;   -0,205;   -1,045
675,321; 4079,556;   -0,933;    3,318
675,896; 3900,864;    2,158;    1,045
676,471; 4184,172;    2,522;    1,591
677,045; 4065,116;   -0,296;    0,682
677,620; 4032,061;    2,158;    1,136
678,194; 4203,550;    0,249;    1,136
678,769; 4136,404;    0,886;   -0,318
679,343; 4230,348;   -0,023;    1,773
679,917; 4177,565;    0,340;    1,955
680,492; 4105,418;    0,249;    3,227
681,066; 4130,908;    0,613;    0,409
681,640; 4164,398;    1,795;   -0,318
682,214; 4414,069;    2,340;    0,500
682,788; 4232,923;    0,613;   -0,773
683,363; 4162,230;    1,977;    1,682
683,937; 4013,811;    0,886;   -0,318
684,511; 4369,755;   -1,023;   -0,591
685,085; 4284,700;   -1,478;    0,318
685,659; 4109,371;    1,431;    0,864
686,232; 4287,952;    1,159;   -0,318
686,806; 4197,350;    2,159;    0,409
687,380; 4400,931;   -1,932;    0,591
687,954; 4500,512;    2,432;    1,136
688,528; 4419,820;    2,613;    1,955
689,101; 4699,582;    0,432;    1,045
689,675; 4406,254;    0,886;   -0,136
690,249; 4248,016;    3,432;    0,409
690,822; 4393,960;    1,159;    0,318
691,396; 4345,177;    2,068;    1,227
691,969; 4190,121;    2,523;    0,136
692,543; 4404,884;   -0,568;   -1,955
693,116; 4163,101;   -0,659;   -1,409
693,690; 4199,772;   -0,296;    0,500
694,263; 4429,626;    2,341;    2,955
694,836; 4553,025;    2,795;    3,591
695,410; 4046,605;    1,159;    1,773
695,983; 4162,731;    1,614;    0,591
696,556; 4140,766;   -0,750;   -1,045
697,129; 4310,892;   -1,114;    1,409
697,703; 4114,018;    1,341;    1,955
698,276; 4227,417;    1,705;   -0,773
698,849; 4169,452;   -1,023;    1,409
699,422; 4187,851;    1,250;    0,591
699,995; 4052,250;   -0,659;    0,136
700,568; 4279,376;   -0,204;    3,045
701,140; 4259,684;   -1,841;    1,682
701,713; 4313,901;    0,341;    2,409
702,286; 4220,754;    0,796;    0,864
702,859; 4118,426;    0,614;   -0,591
703,432; 3941,188;   -0,841;    0,682
704,004; 4023,223;    1,978;    0,318
704,577; 3849,440;    1,068;    0,136
705,150; 4063,748;    0,887;    2,500
705,722; 4105,238;    1,523;   -3,227
706,295; 4060,364;    1,432;   -0,591
706,867; 3914,945;    0,250;    1,955
707,440; 4131,980;   -0,113;   -0,409
708,012; 4209,742;   -0,022;    0,591
708,584; 4059,505;    2,705;    0,227
709,157; 4200,358;    1,160;   -0,591
709,729; 4202,030;    1,069;    2,045
710,301; 4505,792;   -1,204;    0,045
710,874; 4460,373;    0,341;   -0,227
711,446; 3918,317;   -0,295;    0,864
712,018; 3997,897;   -3,022;    0,500
712,590; 3846,114;   -0,204;    1,682
713,162; 4146,059;   -0,477;    1,318
713,734; 4144,912;    1,796;   -2,045
714,306; 4134,038;    0,342;   -0,409
714,878; 3751,982;   -0,295;    0,864
715,450; 4065,290;   -0,113;    0,864
716,022; 4163,780;    2,433;    1,318
716,593; 4236,179;    0,978;    0,591
717,165; 4237,850;    1,796;   -1,227
717,737; 4217,340;    0,796;    0,409
718,309; 4091,102;    1,160;   -0,045
718,880; 4036,319;   -1,295;   -1,409
719,452; 4184,991;    0,887;   -1,591
720,024; 4057,299;    1,705;   -0,591
720,595; 4187,879;    2,978;    0,955
721,167; 4002,096;    1,160;   -2,045
721,738; 3863,495;    2,069;   -1,045
722,309; 3851,712;    1,251;   -1,227
722,881; 3766,020;    2,705;    0,773
723,452; 4052,328;    1,251;    2,864
724,023; 4157,908;    1,524;    2,682
724,595; 4128,307;    2,342;    0,682
725,166; 3943,433;    1,524;   -0,409
725,737; 3934,650;    1,887;    0,227
726,308; 3958,231;    0,797;    0,318
726,879; 3936,811;    1,069;    1,227
727,450; 4009,938;   -2,022;   -0,045
728,021; 3910,609;    1,069;    0,682
728,592; 3954,826;    1,160;    0,500
729,163; 4149,770;    1,433;   -0,136
729,734; 4105,351;    2,160;   -0,227
730,305; 4114,113;    0,615;    0,136
730,876; 4142,603;    0,888;    2,955
731,447; 4304,911;    0,797;    2,682
732,017; 4240,219;   -0,840;    1,864
732,588; 4117,709;   -0,021;    1,227
733,159; 4178,835;    3,615;   -1,045
733,729; 3969,052;    1,251;    0,409
734,300; 3876,905;    0,160;    0,864
734,870; 3936,486;   -1,385;    0,591
735,441; 4068,521;    0,888;   -0,591
736,011; 3904,829;    1,070;   -1,591
736,582; 3910,227;    1,251;    0,045
737,152; 3699,353;    0,979;   -2,045
737,722; 3925,752;    1,070;   -0,682
738,293; 3762,787;   -2,021;    1,318
738,863; 3897,186;    1,797;    2,318
739,433; 4020,585;    4,524;    0,318
740,003; 4132,893;    1,524;   -0,682
740,573; 3987,473;    2,252;   -1,591
741,143; 4028,327;    3,615;    0,318
741,713; 4126,907;    0,252;   -0,500
742,283; 4025,761;    1,706;    1,591
742,853; 3920,250;    0,524;    1,591
743,423; 3753,649;    0,161;    0,045
743,993; 3806,321;    1,070;    1,500
744,563; 3543,083;    2,524;   -0,864
745,133; 3594,118;   -0,112;   -0,864
745,702; 3890,881;    2,797;    1,773
746,272; 3682,007;    0,434;    0,591
746,842; 3689,224;   -0,748;   -0,591
747,411; 3719,259;   -0,839;   -0,318
747,981; 3687,385;   -0,930;    0,500
748,551; 3763,420;   -0,021;   -1,045
749,120; 3770,637;   -0,112;   -0,227
749,690; 3890,672;    2,161;    2,409
750,259; 3997,889;    0,979;    2,955
750,828; 3952,561;    4,070;   -1,955
751,398; 3936,323;   -0,112;   -0,045
751,967; 3988,813;    2,888;    0,409
752,536; 3934,212;    1,161;   -0,227
753,105; 4121,611;   -1,384;    0,227
753,675; 3912,282;   -0,112;    1,773
754,244; 3890,954;    0,888;    3,591
754,813; 3919,352;    0,979;    1,227
755,382; 3759,660;    0,798;    0,955
755,951; 3876,968;   -0,112;    3,682
756,520; 3884,367;    2,525;    1,864
757,089; 4175,766;    1,888;    0,500
757,658; 3960,255;    2,434;    1,227
758,227; 3922,109;   -1,111;    0,318
758,795; 3995,144;   -1,021;    1,136
759,364; 4211,725;    0,525;   -0,591
759,933; 3759,305;    1,343;   -0,045
760,501; 3698,068;    0,252;   -1,318
761,070; 3836,557;   -0,293;   -1,409
761,639; 4204,502;    1,434;    1,318
762,207; 3837,082;    0,889;   -0,955
762,776; 3910,935;    2,889;    0,864
763,344; 3823,698;    0,071;    0,591
763,913; 3394,824;    1,616;    1,409
764,481; 3997,405;    1,980;   -0,136
765,049; 3930,349;    0,616;    1,409
765,618; 3820,202;    1,434;    0,318
766,186; 3860,874;    2,434;    0,136
766,754; 3907,182;    1,798;    1,864
767,322; 3476,308;    1,162;    0,409
767,890; 3449,434;    0,525;   -1,773
768,459; 3715,469;    2,616;   -0,318
769,027; 3888,231;    2,525;    3,409
769,595; 3532,630;    2,616;    2,591
770,163; 3612,665;    3,344;    2,955
770,730; 3566,973;    2,525;   -0,136
771,298; 3552,463;    1,162;   -1,409
771,866; 3616,407;    0,253;    4,955
772,434; 3669,988;    1,162;   -1,864
773,002; 3905,841;    2,616;    0,682
773,569; 3746,149;    1,071;    1,682
774,137; 3718,366;    0,889;   -0,045
774,705; 3919,674;   -0,747;   -0,136
775,272; 3671,800;    0,253;    0,682
775,840; 3797,562;   -0,111;    2,682
776,407; 3621,870;   -0,293;    1,955
776,975; 3314,087;    1,162;    0,318
777,542; 3695,668;    2,162;   -0,045
778,110; 3700,703;    0,707;   -0,045
778,677; 3524,102;    1,071;   -0,864
779,244; 3507,137;   -1,020;    1,045
779,812; 3613,263;    0,980;    0,864
780,379; 3586,298;    2,435;    1,136
780,946; 3576,333;    2,617;   -0,773
781,513; 3665,187;   -0,565;    0,318
782,080; 3397,949;    1,253;    2,864
782,647; 3635,802;    1,708;    3,045
783,214; 3511,565;   -0,201;    3,864
783,781; 3478,418;    1,708;   -0,682
784,348; 3517,544;    0,253;    1,500
784,915; 3512,761;   -1,474;    0,318
785,482; 3555,615;    2,708;    2,591
786,049; 3763,559;    1,071;   -0,591
786,615; 3737,867;    1,708;   -0,955
787,182; 3632,265;   -3,201;   -0,682
787,749; 3566,482;   -2,201;    1,409
788,315; 3354,699;    0,253;   -0,409
788,882; 3493,007;    0,981;   -1,227
789,448; 3765,679;    1,435;   -0,955
790,015; 3666,350;    1,799;    3,227
790,581; 3644,567;    0,708;    0,227
791,148; 3482,330;    1,344;    1,045
791,714; 3569,183;   -1,019;    3,136
792,280; 3500,127;    3,708;    1,591
792,847; 3397,617;   -0,928;    2,500
793,413; 3534,470;   -0,110;   -0,318
793,979; 3445,324;    1,526;   -1,318
794,545; 3703,904;    2,981;    2,682
795,111; 3435,394;    2,435;    1,318
795,678; 3383,793;    3,526;   -1,682
796,244; 3508,282;    2,799;    0,136
796,810; 3592,499;    0,799;    0,773
797,375; 3519,444;   -0,292;   -2,136
797,941; 3258,661;   -1,110;    0,591
798,507; 3223,878;    0,254;   -0,955
799,073; 3174,731;    2,708;    0,591
799,639; 3292,584;    1,435;    3,136
800,205; 3250,256;   -1,565;    2,682
800,770; 3110,473;    1,345;    1,773
801,336; 3052,690;    2,981;   -0,955
801,901; 3484,634;    6,072;    3,136
802,467; 3458,669;    0,526;    2,045
803,033; 3072,068;   -0,019;    0,864
803,598; 3070,649;    1,072;   -1,045
804,163; 3182,411;    0,708;   -0,318
804,729; 3228,264;   -0,110;    1,136
805,294; 3225,663;    1,072;    2,227
805,859; 3123,607;    0,890;   -0,409
806,425; 3330,552;    3,890;    2,682
806,990; 3216,678;    1,890;    4,318
807,555; 3204,258;   -0,110;    2,591
808,120; 3279,748;   -1,292;   -0,409
808,685; 3081,692;    1,072;   -2,500
809,250; 2886,364;    2,072;   -0,500
809,815; 3049,672;   -0,201;    0,682
810,380; 3279,980;    0,981;    1,591
810,945; 3423,378;    2,890;    2,045
811,510; 3241,504;   -0,200;    1,591
812,075; 3054,267;    2,800;   -1,409
812,640; 3270,302;    3,709;    1,409
813,204; 3178,701;    2,163;   -0,227
813,769; 3450,463;    0,254;   -0,045
814,334; 3299,771;    0,527;    0,864
814,898; 3191,534;    1,981;    0,591
815,463; 3110,841;    0,981;   -0,773
816,027; 3058,422;    1,345;   -2,318
816,592; 3160,457;    2,163;   -2,045
817,156; 3012,401;   -2,200;    1,136
817,721; 3010,346;    0,982;    2,318
818,285; 2932,381;    0,618;    1,500
818,849; 3161,962;   -0,018;    1,682
819,414; 3032,724;    0,073;    2,955
819,978; 2920,759;   -0,291;    1,773
820,542; 3343,976;    2,891;    0,500
821,106; 3212,829;    2,800;    0,682
821,670; 3272,774;    2,709;    2,591
822,234; 3049,082;    1,073;    1,409
822,798; 2901,299;   -0,836;    0,500
823,362; 3184,334;    1,527;    4,227
823,926; 2844,914;   -0,018;    1,136
824,490; 2981,859;    3,527;   -0,682
825,054; 3013,439;    2,527;   -1,136
825,618; 2854,202;   -1,200;   -1,500
826,181; 2856,782;    0,982;   -1,318
826,745; 2843,908;   -0,745;   -1,045
827,309; 3143,671;    2,255;    1,318
827,872; 2955,524;    0,527;    0,955
828,436; 3139,014;    1,982;   -0,773
828,999; 3180,958;    2,436;    1,227
829,563; 2925,266;   -0,654;    1,136
830,126; 2866,665;   -0,018;   -0,591
830,690; 2828,518;    0,709;    2,864
831,253; 2636,462;   -0,473;    2,227
831,816; 2726,770;   -0,018;    0,500
832,380; 2646,805;    1,164;    0,864
832,943; 2729,022;    3,073;   -0,500
833,506; 2684,694;    0,255;   -1,227
834,069; 2981,729;    2,164;   -0,955
834,632; 2963,491;   -2,200;    1,318
835,195; 2901,072;    1,346;    0,955
835,758; 2730,016;    0,709;    1,955
836,321; 2625,142;    1,073;   -1,045
836,884; 2682,814;   -1,291;   -0,955
837,447; 2725,394;    0,528;    1,773
838,010; 2804,884;    1,800;    3,227
838,573; 2950,556;    0,528;    0,773
839,135; 2913,864;   -0,109;   -0,955
839,698; 2704,535;    2,528;    0,409
840,261; 2611,661;    0,255;   -0,227
840,823; 2598,424;   -0,927;    0,864
841,386; 2629,368;   -0,018;   -2,409
841,948; 2866,676;    0,255;    1,773
842,511; 2573,802;    0,255;    1,682
843,073; 2795,564;    2,982;    0,227
843,636; 2618,327;    0,619;   -0,227
844,198; 2730,725;    1,255;    0,591
844,760; 2756,397;    0,619;    1,955
845,322; 2520,159;    0,164;    1,136
845,885; 2671,649;   -0,290;    0,591
846,447; 2767,139;    0,710;    0,227
847,009; 2916,265;    3,983;   -0,682
847,571; 2747,845;    1,346;   -2,045
848,133; 2729,881;   -0,199;   -1,864
848,695; 2624,279;    2,346;    1,409
849,257; 2592,951;    1,346;   -1,682
849,819; 2753,441;    2,983;   -0,409
850,381; 2644,839;    1,801;   -0,864
850,942; 2726,056;    1,892;   -0,591
851,504; 2677,637;    0,983;    0,227
852,066; 2696,218;    1,619;   -1,591
852,628; 2639,435;    0,165;    1,955
853,189; 2415,379;    0,256;    2,682
853,751; 2546,232;   -0,654;    1,409
854,312; 2614,722;    1,256;   -1,682
854,874; 2790,939;   -0,108;   -0,773
855,435; 2734,429;    0,528;   -1,682
855,997; 2863,100;    3,983;   -0,136
856,558; 2706,681;    0,801;    1,773
857,119; 2587,352;   -0,744;    2,864
857,681; 2470,115;   -0,108;    0,318
858,242; 2590,423;    1,347;   -2,136
858,803; 2784,730;    1,074;   -0,773
859,364; 2871,584;    0,892;   -4,773
859,925; 2780,892;   -0,290;   -0,955
860,486; 2719,472;    0,529;   -0,955
861,047; 2559,780;    0,165;   -1,227
861,608; 2539,997;    0,165;   -0,773
862,169; 2592,396;   -0,562;   -0,045
862,730; 2523,522;   -0,290;    1,409
863,291; 2631,103;    0,438;   -0,500
863,852; 2631,501;   -0,926;    1,955
864,412; 2516,355;   -1,835;   -0,864
864,973; 2418,208;    1,892;    0,500
865,534; 2544,243;    2,074;    0,227
866,094; 2617,006;    2,620;    0,227
866,655; 2605,586;    4,711;    3,318
867,215; 2589,167;    0,074;    0,136
867,776; 2540,020;   -1,199;   -0,136
868,336; 2553,601;    1,529;    0,136
868,897; 2771,636;    3,438;    1,682
869,457; 2581,944;    3,256;    0,318
870,017; 2545,979;    2,438;   -1,227
870,578; 2626,923;    1,893;    0,773
871,138; 2439,867;    2,620;   -0,955
871,698; 2307,903;   -0,562;   -1,318
872,258; 2359,756;    0,711;   -2,864
872,818; 2629,337;    2,347;    0,045
873,378; 2494,463;   -2,198;    1,045
873,938; 2387,771;    4,984;    0,500
874,498; 2377,078;    1,256;   -1,955
875,058; 2373,932;    4,347;    1,773
875,618; 2346,058;    1,438;   -2,682
876,177; 2368,638;   -0,471;    0,136
876,737; 2140,765;   -0,289;    1,955
877,297; 2506,254;    2,711;    1,955
877,856; 2444,289;    2,529;    0,318
878,416; 2234,506;    2,438;   -0,136
878,976; 2284,814;    3,438;    0,409
879,535; 2385,758;    4,529;    3,136
880,095; 2356,157;    1,347;    0,045
880,654; 2243,920;    0,347;    1,318
881,213; 2521,682;    2,347;    1,500
881,773; 2305,899;    1,984;    2,682
882,332; 2918,571;    6,075;    5,136
882,891; 2453,969;    0,711;    2,136
883,451; 2471,914;   -2,016;    1,682
884,010; 2289,949;   -1,107;   -0,409
884,569; 2307,439;   -2,289;   -0,045
885,128; 2477,837;   -0,743;   -1,864
885,687; 2730,236;   -0,743;    0,682
886,246; 2824,544;    2,620;    2,136
886,805; 2494,306;    1,620;    2,045
887,364; 2318,432;    1,166;   -0,500
887,922; 2293,377;   -0,016;    0,045
888,481; 2288,048;    1,530;    0,591
889,040; 2478,265;    3,711;    2,136
889,599; 2478,391;    2,166;    1,409
890,157; 2497,426;    2,166;    2,409
890,716; 2342,189;    2,166;    0,227
891,274; 2352,679;    0,075;   -1,136
891,833; 2484,077;    1,166;    0,864
892,391; 2262,113;    1,802;    0,500
892,950; 2488,966;    0,166;   -0,773
893,508; 2410,910;    0,984;   -0,409
894,067; 2207,763;   -0,379;    0,136
894,625; 2274,071;   -1,016;   -1,500
895,183; 2290,107;   -0,198;   -0,682
895,741; 2544,596;    2,257;   -1,773
896,299; 2335,540;    1,621;   -2,409
896,858; 2289,212;    1,530;   -1,591
897,416; 2378,520;    0,166;   -1,318
897,974; 2335,100;   -2,197;    0,318
898,532; 2783,863;    6,530;    2,682
899,089; 2432,716;    0,621;   -0,682
899,647; 2347,479;    0,530;    1,318
900,205; 2388,605;    0,257;    1,045
900,763; 2428,185;    2,166;    0,227
901,321; 2433,493;    3,530;   -1,409
901,878; 2193,256;    3,257;   -0,773
902,436; 2204,927;    0,257;    1,318
902,994; 2979,781;    6,712;    3,682
903,551; 2429,361;    1,439;    0,409
904,109; 2431,033;    1,530;   -1,409
904,666; 2341,795;    1,439;    1,045
905,224; 2208,285;    3,894;   -0,409
905,781; 2276,774;   -0,470;   -0,318
906,338; 2239,628;    0,167;    1,045
906,895; 2142,663;    1,894;    2,045
907,453; 2355,425;    2,348;    1,136
908,010; 2241,188;    3,348;    0,409
908,567; 2138,950;   -0,561;    0,591
909,124; 1924,440;    2,439;   -1,500
909,681; 1953,930;   -1,288;    0,682
910,238; 2099,601;   -0,106;   -1,318
910,795; 2202,636;   -1,561;   -1,136
911,352; 2128,636;   -0,379;   -2,682
911,909; 2006,455;    2,803;   -0,864
912,466; 2141,455;    1,985;    1,500
913,022; 2007,545;   -0,924;    0,500
913,579; 2206,455;   -0,470;    2,045
914,136; 2047,818;   -2,561;    0,955
914,692; 2176,636;    1,530;   -1,227
915,249; 2017,091;    0,530;    0,409
915,806; 2111,818;    1,803;    1,955
916,362; 2033,364;    0,894;    1,864
916,918; 1865,000;    2,439;    1,045
917,475; 2084,273;    1,621;    0,955
918,031; 1932,273;    0,076;   -0,045
918,587; 1940,455;    0,621;   -0,318
919,144; 1942,364;   -0,379;    0,227
919,700; 1944,818;    0,167;    0,773
920,256; 1843,909;    0,439;    0,045
920,812; 1805,000;    1,439;   -1,045
921,368; 1801,909;    1,348;   -1,045
921,924; 1730,455;    0,439;   -0,136
922,480; 1760,000;    0,076;    1,227
923,036; 1881,636;   -0,652;    1,955
923,592; 1830,818;    0,621;    0,318
924,148; 1830,455;    1,894;   -0,955
924,704; 1883,455;    0,258;   -0,409
925,259; 1848,091;   -0,561;    0,591
925,815; 1732,455;    3,803;    0,500
926,371; 1645,455;    3,530;    1,409
926,926; 1769,091;    1,621;    0,591
927,482; 1698,000;    1,621;    0,773
928,037; 1643,818;   -0,833;    2,045
928,593; 1884,182;    0,258;    1,045
929,148; 1664,727;    1,167;   -1,500
929,704; 1637,909;    2,439;   -0,500
930,259; 1540,636;    0,894;   -0,136
930,814; 1639,273;    1,803;    1,955
931,369; 1557,364;    0,258;   -0,773
931,925; 1363,909;   -1,924;    0,136
932,480; 1430,364;    3,076;   -2,591
933,035; 1819,364;    3,985;   -0,318
933,590; 1670,727;   -1,742;   -1,773
934,145; 1279,364;   -1,288;   -0,318
934,700; 1276,182;    0,348;   -0,591
935,255; 1317,182;    4,803;    0,045
935,809; 1553,091;    6,258;    0,864
936,364; 1102,727;    2,167;   -0,136
936,919; 1137,818;    2,348;   -1,773
937,474; 1073,273;    1,348;    0,136
938,028; 1083,182;    3,076;    1,136
938,583; 1418,455;    6,348;    4,682
939,138; 1112,636;    0,167;    2,136
939,692;  929,364;   -1,015;   -1,136
940,247;  921,818;    1,167;   -1,045
940,801;  989,455;    0,621;    0,227
941,355;  892,818;    0,439;    2,591
941,910;  745,818;    0,712;   -2,136
942,464;  807,091;    2,712;   -0,318
943,018; 1065,727;    3,258;   -0,227
943,572;  879,909;    2,803;   -0,682
944,126;  879,000;   -0,924;   -0,409
944,681;  744,182;    0,712;    0,227
945,235;  687,818;    2,167;   -0,591
945,789;  649,545;    1,258;   -1,864
946,342;  970,636;   -0,561;   -0,591
946,896;  690,364;    0,348;    0,955
947,450;  651,636;   -0,561;   -0,227
948,004;  924,182;    1,076;   -0,045
948,558;  720,364;    1,258;   -0,864
949,111;  707,455;   -1,197;   -0,318
949,665;  927,364;   -0,106;   -0,682
950,219;  867,727;    0,621;   -1,045
950,772;  792,182;    0,258;    1,864
951,326;  789,182;   -1,106;   -0,955
951,879;  703,364;    1,076;   -2,318
952,433;  856,727;    1,348;    2,227
952,986;  670,000;    0,348;    0,682
953,539;  613,545;    1,530;    0,591
954,093;  560,727;    0,985;   -1,318
954,646;  724,545;   -0,288;    1,318
955,199;  624,000;    1,258;   -0,500
955,752;  833,091;    1,985;    1,773
956,305;  668,818;    0,894;    2,955
956,858;  738,182;    0,621;   -0,318
957,411;  813,818;    3,621;    2,136
957,964;  676,727;    2,076;    2,136
958,517;  601,364;    0,985;    3,136
959,070;  557,364;   -1,197;    1,955
959,623;  872,182;    1,076;    1,500
960,176;  793,727;    0,712;    2,045
960,728;  751,182;    1,712;    0,773
961,281;  703,545;    2,258;    0,500
961,834;  617,455;   -0,833;    0,864
962,386;  617,182;    1,258;    1,045
962,939;  571,000;    3,439;   -0,318
963,491;  635,545;    2,621;    1,136
964,043;  559,000;    0,076;    2,409
964,596;  754,455;    1,712;    2,227
965,148;  638,545;   -0,379;    1,773
965,700;  551,000;   -0,015;   -0,227
966,253;  725,455;   -0,833;    0,318
966,805;  670,818;    1,894;    0,773
967,357;  594,636;    0,439;   -1,500
967,909;  704,182;    1,167;   -1,227
968,461;  588,727;    0,894;    3,136
969,013;  540,182;   -1,561;   -0,864
969,565;  712,273;    1,803;   -1,136
970,117;  972,727;    3,803;    1,045
970,669;  698,091;    3,258;   -0,136
971,220;  480,455;    2,167;   -1,500
971,772;  574,000;    1,348;   -0,318
972,324;  678,364;   -1,197;   -0,500
972,876;  580,091;    0,167;   -0,045
973,427;  715,727;   -1,197;   -1,045
973,979;  788,818;    0,076;   -2,500
974,530;  566,545;    0,803;    1,318
975,082;  634,455;    2,167;    1,682
975,633;  571,091;    2,894;    1,682
976,184;  662,818;    2,076;    0,773
976,736;  639,000;    0,348;    0,227
977,287;  633,909;    0,258;   -0,500
977,838;  615,182;   -0,924;   -0,318
978,389;  622,818;    0,803;   -0,500
978,940;  472,091;    1,258;   -0,409
979,491;  473,545;    2,258;   -0,500
980,042;  570,182;   -0,652;    3,045
980,593;  577,273;    1,894;    0,227
981,144;  691,273;    3,530;   -0,500
981,695;  743,182;   -0,470;    1,500
982,246;  679,364;   -1,833;    1,045
982,797;  534,182;   -0,561;    0,682
983,347;  705,909;    2,167;    0,591
983,898;  927,545;    4,167;    0,409
984,449;  870,091;    2,530;    0,773
984,999;  682,364;    1,894;   -1,136
985,550;  621,000;    3,167;   -0,318
986,100;  478,545;    0,712;   -0,318
986,651;  479,636;    0,258;    0,045
987,201;  522,364;    0,894;   -0,591
987,751;  541,364;   -0,288;    2,864
988,302;  590,091;   -0,379;    1,500
988,852;  627,636;    1,985;   -1,136
989,402;  700,455;    0,985;    0,682
989,952;  717,091;    1,621;    0,864
990,502;  569,545;    1,076;    0,682
991,052;  468,000;   -0,106;    0,045
991,602;  497,455;    1,167;    1,318
992,152;  553,727;    2,803;    0,682
992,702;  583,091;    1,167;   -0,045
993,252;  526,636;    0,076;   -0,500
993,802;  634,091;    1,167;    1,318
994,352;  609,545;   -0,742;    1,136
994,901;  523,182;    1,076;    3,227
995,451;  511,545;   -1,197;    0,318
996,000;  554,182;    1,076;    0,318
996,550;  527,455;    2,894;    0,227
997,100;  570,818;   -0,561;   -0,045
997,649;  739,818;   -0,197;    0,955
998,198;  529,727;   -0,288;   -1,500
998,748;  659,727;    0,348;   -2,318
999,297;  579,091;    0,985;   -0,409
999,846;  734,000;    1,894;   -0,773
1000,395;  640,727;    1,530;    0,500
1000,945;  759,636;    1,076;   -0,773
1001,494;  757,273;    0,167;    0,682
1002,043;  731,636;    0,712;    0,864
1002,592;  523,818;    3,439;    1,955
1003,141;  534,818;    2,439;   -0,682
1003,690;  679,273;    1,258;    0,500
1004,238;  555,727;   -0,106;   -0,045
1004,787;  444,364;   -1,288;    1,227
1005,336;  660,455;    1,621;    0,682
1005,885;  620,091;   -0,197;   -2,773
1006,433;  616,182;   -0,470;    0,955
1006,982;  832,818;    2,167;    1,682
1007,531;  660,182;    2,712;   -0,227
1008,079;  598,727;    0,258;    0,500
1008,627;  560,091;    1,621;    0,409
1009,176;  560,182;    0,076;   -1,955
1009,724;  513,636;   -2,742;    0,864
1010,273;  675,545;    1,076;    0,500
1010,821;  572,455;    1,076;    1,409
1011,369;  502,000;    0,076;    1,318
1011,917;  517,545;   -0,833;   -0,591
1012,465;  627,000;    2,530;   -1,591
1013,013;  620,000;    0,439;   -1,682
1013,561;  715,545;   -1,288;   -0,773
1014,109;  825,455;   -0,833;    1,682
1014,657;  680,455;    1,348;    0,591
1015,205;  567,455;    0,894;   -0,955
1015,753;  521,455;    0,258;   -1,409
1016,301;  604,273;    2,621;    3,045
1016,848;  682,818;    2,167;    0,409
1017,396;  686,909;    1,621;    0,045
1017,944;  696,455;    2,621;    1,864
1018,491;  574,364;   -0,197;    1,409
1019,039;  932,091;   -0,652;    0,591
1019,586;  662,091;    0,076;    1,682
1020,134;  641,545;    0,712;    1,500
1020,681;  710,818;    2,894;   -1,136
1021,228;  619,636;   -0,561;   -2,227
1021,776;  598,000;   -0,833;   -1,136
1022,323;  844,455;    0,803;    0,773
1022,870;  742,091;   -0,470;   -0,045
1023,417;  798,273;    2,076;    1,864
1023,964;  618,909;    0,621;    1,227
1024,511;  592,455;   -0,652;    0,773
1025,058;  601,273;    0,439;   -0,045
1025,605;  563,091;   -1,742;    3,136
1026,152;  796,000;   -0,106;   -0,591
1026,699;  633,909;    0,167;    1,318
1027,245;  632,545;    2,439;    0,318
1027,792;  590,091;    0,712;    1,409
1028,339;  805,273;    4,076;   -0,045
1028,885;  653,182;    3,621;   -0,227
1029,432;  583,818;   -0,106;    0,227
1029,978;  706,909;    1,348;   -1,591
1030,525;  682,636;    1,621;    0,409
1031,071;  569,818;    0,348;    1,136
1031,618;  877,000;    1,258;    1,682
1032,164;  691,727;    2,076;    3,045
1032,710;  733,455;    0,076;   -1,500
1033,256;  692,000;    0,712;   -0,136
1033,803;  536,909;   -0,288;    1,500
1034,349;  397,273;    1,803;    0,136
1034,895;  460,818;    2,621;   -0,318
1035,441;  527,455;    0,439;    0,318
1035,987;  573,909;   -2,288;   -0,682
1036,533;  664,455;   -0,197;   -0,955
1037,078;  870,909;    4,712;    1,682
1037,624;  705,091;    2,439;   -0,955
1038,170;  568,909;    1,712;   -0,318
1038,716;  643,818;    2,167;   -0,409
1039,261;  509,455;    2,167;   -0,773
1039,807;  529,727;   -0,015;    3,409
1040,352;  575,909;   -1,288;   -0,318
1040,898;  564,273;    0,167;   -0,682
1041,443;  477,000;    0,803;   -2,591
1041,989;  784,091;    3,621;    1,591
1042,534;  567,909;    0,985;    2,591
1043,079;  469,000;    1,985;    0,955
1043,625;  560,273;    0,258;    0,500
1044,170;  585,909;    2,439;    1,045
1044,715;  810,091;    0,167;    0,955
1045,260;  680,727;   -0,833;   -0,955
1045,805;  537,545;    0,258;   -0,591
1046,350;  497,909;    0,530;   -0,409
1046,895;  691,000;    0,803;    1,591
1047,440;  679,545;    1,530;    0,409
1047,985;  538,364;   -1,197;   -0,955
1048,530;  493,091;    1,348;    1,227
1049,074;  558,000;    2,803;    0,318
1049,619;  497,636;   -0,924;    1,955
1050,164;  468,909;    1,076;    0,227
1050,708;  550,273;    2,621;    0,045
1051,253;  842,000;    3,258;   -2,227
1051,797;  616,273;   -0,197;   -1,318
1052,342;  443,818;    1,348;    1,045
1052,886;  537,818;    1,803;   -1,409
1053,430;  409,727;    2,167;    0,136
1053,975;  513,818;    0,894;   -0,318
1054,519;  525,000;    1,803;    3,227
1055,063;  590,000;    3,621;    1,318
1055,607;  565,000;    1,348;    0,227
1056,151;  565,182;    0,530;    1,682
1056,695;  466,364;   -1,833;   -1,136
1057,239;  469,636;   -1,197;   -0,682
1057,783;  518,364;    2,258;   -1,500
1058,327;  580,091;    3,076;    1,409
1058,871;  745,273;    3,985;    1,318
1059,415;  588,909;   -0,561;   -0,045
1059,958;  764,818;    2,985;    2,591
1060,502;  518,818;    1,348;   -0,773
1061,046;  408,455;    1,712;   -0,955
1061,589;  384,545;    2,803;   -1,136
1062,133;  347,727;    0,985;    1,864
1062,676;  385,909;    1,439;    0,864
1063,220;  426,636;    0,985;    0,500
1063,763;  453,182;    2,985;    1,136
1064,306;  487,000;    0,985;    1,864
1064,849;  471,818;    2,076;    0,591
1065,393;  453,818;    2,894;   -1,500
1065,936;  467,636;    2,530;   -0,409
1066,479;  375,182;    2,621;    1,318
1067,022;  404,909;    1,894;   -0,227
1067,565;  375,091;   -1,197;   -1,318
1068,108;  348,000;    1,258;   -0,591
1068,651;  314,727;   -2,470;    1,409
1069,194;  317,182;   -1,106;   -1,682
1069,736;  345,273;    3,803;    0,955
1070,279;  312,273;   -1,652;   -0,500
1070,822;  409,545;    1,530;   -0,318
1071,364;  534,818;    0,530;    1,318
1071,907;  384,273;    0,348;    3,227
1072,450;  234,545;    0,258;   -0,045
1072,992;  316,091;   -0,561;    3,136
1073,535;  399,545;    0,167;    2,136
1074,077;  293,727;    2,985;    2,045
1074,619;  294,636;    0,985;    0,591
1075,161;  324,818;   -0,561;    1,500
1075,704;  460,455;    0,258;    1,227
1076,246;  310,455;    1,530;    0,682
1076,788;  244,727;   -1,015;    1,773
1077,330;  255,545;   -2,106;    2,136
1077,872;  295,727;   -1,924;    0,955
1078,414;  484,182;    3,712;    0,773
1078,956;  325,091;    0,167;   -0,227
1079,498;  481,455;    0,439;    0,318
1080,040;  320,182;    0,985;   -1,318
1080,581;  275,364;    0,621;   -0,318
1081,123;  215,545;   -0,106;   -0,773
1081,665;  229,545;    3,803;   -0,955
1082,206;  442,000;    3,258;   -0,500
1082,748;  348,273;    3,258;    2,045
1083,289;  248,545;    0,167;    1,318
1083,831;  230,455;    0,258;    0,227
1084,372;  286,455;    0,894;    0,591
1084,913;  279,091;    3,348;    0,864
1085,455;  228,182;    1,530;   -2,045
1085,996;  227,818;    0,530;    0,136
1086,537;  265,273;    0,985;    0,864
1087,078;  275,000;    0,439;   -2,136
1087,619;  330,182;   -1,652;    0,227
1088,160;  278,545;    1,439;    1,318
1088,701;  257,727;   -0,742;    0,682
1089,242;  231,636;   -0,561;   -2,227
1089,783;  298,182;   -0,561;    1,409
1090,324;  265,091;   -0,833;    0,682
1090,865;  203,727;   -1,924;   -0,409
1091,405;  184,727;   -0,561;    2,227
1091,946;  228,455;   -0,197;   -0,955
1092,487;  167,818;   -1,288;   -1,409
1093,027;  289,182;    1,803;   -1,500
1093,568;  216,000;    2,258;    1,227
1094,108;  260,909;    0,621;    1,773
1094,649;  224,545;   -0,470;    0,136
1095,189;  184,091;    1,167;   -0,682
1095,729;  182,182;    0,712;    0,955
1096,269;  173,000;    1,258;   -0,955
1096,810;  341,273;   -0,197;    0,500
1097,350;  271,727;   -0,561;   -0,773
1097,890;  209,818;    2,985;    1,227
1098,430;  384,545;    4,985;    2,864
1098,970;  313,364;    1,894;    1,682
1099,510;  202,364;   -0,833;   -2,318
1100,050;  174,364;    0,258;   -1,591
1100,589;  187,364;    0,076;   -0,318
1101,129;  243,727;    0,894;   -0,955
1101,669;  335,364;    2,803;    2,136
1102,209;  249,545;    1,530;    2,227
1102,748;  209,364;    3,439;    0,955
1103,288;  211,000;    0,712;   -1,227
1103,827;  203,636;    3,530;   -2,227
1104,367;  162,909;    1,712;   -2,409
1104,906;  161,182;   -1,015;   -1,136
1105,445;  209,364;    0,985;   -1,136
1105,985;  174,818;   -0,652;    1,500
1106,524;  198,000;    1,530;   -0,682
1107,063;  183,273;    1,167;    1,409
1107,602;  156,182;    1,894;   -1,500
1108,141;  132,455;    1,621;    1,500
1108,680;  202,182;    3,985;   -0,591
1109,219;  170,364;    0,167;   -0,500
1109,758;  162,182;    4,167;    0,682
1110,297;  157,909;   -1,106;   -0,682
1110,836;  128,636;    1,439;    0,955
1111,375;  175,273;    0,348;    0,409
1111,913;  212,818;    0,985;    0,773
1112,452;  182,364;    0,894;    0,136
1112,991;  124,909;    1,076;    1,955
1113,529;  121,727;    0,167;   -0,045
1114,068;  151,909;    0,439;    2,955
1114,606;  111,364;   -0,561;   -0,955
1115,144;  185,364;    1,530;    1,045
1115,683;  156,818;    1,985;    0,318
1116,221;  188,364;    2,076;   -0,864
1116,759;  136,727;    1,621;   -0,864
1117,297;  221,364;    1,621;    1,864
1117,836;  137,909;    1,985;   -1,227
1118,374;  142,000;    0,258;   -0,682
1118,912;  137,455;    0,439;    2,682
1119,450;  132,545;    0,985;    0,864
1119,988;  136,091;    3,348;    2,136
1120,525;  431,364;    7,258;    3,318
1121,063;  240,273;    0,530;    1,864
1121,601;  131,545;    1,076;   -1,227
1122,139;  116,636;    1,076;   -2,045
1122,676;  226,727;   -1,652;    2,773
1123,214;  192,909;    0,712;    4,409
1123,751;  103,818;    0,621;    2,227
1124,289;  151,636;    0,894;   -0,409
1124,826;  109,909;   -0,379;    0,227
1125,364;   71,091;    0,712;   -0,955
1125,901;  180,091;    6,258;    1,227
1126,438;  198,818;    3,530;    0,955
1126,975;   69,727;    2,985;   -0,773
1127,513;   99,455;    2,621;    2,136
1128,050;   74,182;   -0,561;   -0,682
1128,587;  114,455;    1,348;   -0,227
1129,124;  140,727;   -0,015;    1,318
1129,661;   83,364;   -1,924;    0,227
1130,198;  166,091;    2,439;    0,773
1130,734;  121,636;   -0,379;    1,409
1131,271;   65,818;   -1,197;    0,864
1131,808;  149,909;    1,621;    3,045
1132,345;   92,818;    4,530;    0,318
1132,881;   41,545;   -0,561;   -1,864
1133,418;  102,545;    0,348;   -1,136
1133,954;   76,364;    0,712;   -2,682
1134,491;  106,545;    1,712;   -0,773
1135,027;   70,091;    2,167;    0,864
1135,564;  102,000;    1,439;    2,955
1136,100;   94,909;   -0,742;    2,136
1136,636;   53,909;   -1,015;   -1,045
1137,172;   85,091;    0,894;   -1,045
1137,708;   64,273;   -1,561;   -1,045
1138,245;   60,636;    0,803;   -1,227
1138,781;   43,545;    1,803;   -3,318
1139,317;   66,182;    1,894;   -1,409
1139,852;   79,182;    3,076;    0,136
1140,388;  112,273;    2,076;   -0,409
1140,924;   69,182;    1,076;   -2,227
1141,460;   40,455;   -0,288;    0,136
1141,996;   26,364;   -0,652;    2,682
1142,531;   43,273;    1,076;    3,318
1143,067;  125,909;    1,167;    1,045
1143,602;  159,636;    3,439;   -0,318
1144,138;   87,727;    0,803;    1,045
1144,673;   41,273;    1,621;    1,409
1145,209;   60,909;    2,894;   -0,318
1145,744;   31,273;    0,803;    0,864
1146,279;   74,455;    1,530;   -0,136
1146,815;   50,455;    1,530;   -2,682
1147,350;   75,818;   -0,924;    0,045
1147,885;   39,545;   -1,924;   -1,318
1148,420;   42,909;    2,439;    0,773
1148,955;   38,364;   -1,470;    1,864
1149,490;   41,636;   -1,106;   -1,591
1150,025;   29,000;   -1,106;   -1,773
1150,560;   77,000;   -0,288;   -0,955
1151,094;   60,636;    0,258;   -0,591
1151,629;   59,545;   -3,742;    0,864
1152,164;   39,273;   -1,288;    1,318
1152,698;   29,818;    1,258;   -0,136
1153,233;   14,818;   -1,379;   -0,682
1153,767;   29,091;   -0,288;   -2,318
1154,302;   47,182;   -0,379;    1,773
1154,836;   48,636;    0,803;   -2,136
1155,371;   54,818;    2,258;    3,682
1155,905;   40,909;    1,985;    1,682
1156,439;   35,364;    0,530;   -0,500
1156,973;   49,818;    0,439;    0,318
1157,507;   29,364;   -1,742;    0,682
1158,042;   36,909;   -0,652;    1,045
1158,576;   49,091;   -0,561;    1,773
1159,110;   49,455;    0,076;    2,409
1159,643;   38,545;   -2,470;   -0,045
1160,177;   22,727;   -2,015;    1,500

