
Integration time [ms]:   0,050
Averaging Nr. [scans]: 11
Smoothing Nr. [pixels]: 0
Data measured with spectrometer [name]: 7318044SP
Wave   ;Sample   ;Dark     ;Reference
[nm]   ;[counts] ;[counts] ;[counts] 

186,757;   -4,413;   38,161;    1,318
187,357;    4,921;   26,706;    0,955
187,958;   -4,025;   17,252;   -1,591
188,558;    9,830;   12,979;   -1,227
189,159;    2,784;   10,070;   -4,500
189,759;   -5,054;    5,797;   -3,591
190,360;   -1,875;    6,797;   -2,136
190,960;    5,916;    5,706;   -4,136
191,560;   11,475;    2,614;   -6,591
192,161;  105,472;    5,885;   -3,500
192,761;   49,095;    5,520;   -3,227
193,361;   23,365;    3,065;   -3,773
193,962;   44,992;    1,612;   -2,682
194,562;   12,682;   -0,114;   -3,955
195,162;   10,373;   -0,567;   -2,227
195,762;   59,611;    2,433;   -0,045
196,362;   36,697;    1,706;   -2,500
196,963;    6,498;    1,706;   -0,864
197,563;   19,481;    1,252;   -0,955
198,163;    2,912;   -0,111;   -0,682
198,763;    9,393;   -0,020;   -0,500
199,363;   24,705;    3,616;   -0,500
199,963;   13,541;    2,162;    0,409
200,563;   11,192;    6,344;   -1,409
201,163;    8,160;    5,435;   -0,227
201,763;   13,905;    1,435;    0,318
202,363;    5,305;    0,980;    1,500
202,963;   15,278;    1,526;    1,045
203,563;   34,939;    0,344;    0,500
204,162;   12,453;    1,889;   -1,864
204,762;   10,268;    2,071;    0,591
205,362;    1,467;    0,708;    1,955
205,962;    8,418;    3,435;    1,955
206,562;    6,612;    1,889;    2,318
207,161;    7,153;    1,708;    0,318
207,761;   32,799;    4,435;    2,409
208,361;   10,664;    1,889;    1,409
208,960;   14,185;    2,889;    1,500
209,560;    6,404;    0,435;    1,591
210,160;   15,924;    5,071;    1,864
210,759;    8,509;    0,708;    1,227
211,359;    4,170;   -0,474;    1,045
211,958;   45,605;    3,526;    2,045
212,558;   46,062;    0,799;    1,864
213,157;   15,436;   -0,929;    1,500
213,757;   75,441;    5,617;   -0,227
214,356;   30,664;    1,708;   -0,409
214,956;   62,322;    3,526;    0,409
215,555;   22,423;    0,617;    2,136
216,154;    7,792;   -0,292;   -0,591
216,754;    6,672;    1,253;    0,773
217,353;    6,993;   -0,383;   -1,045
217,952;   -4,635;    2,072;    0,318
218,552;   17,288;    0,254;   -0,773
219,151;    6,834;   -1,110;    0,955
219,750;    2,306;    0,890;   -0,227
220,349;   -0,188;   -2,292;    1,045
220,948;   21,745;    1,163;    1,136
221,548;    8,836;    0,617;    1,227
222,147;    5,767;   -1,292;   -0,409
222,746;   24,883;    1,254;   -0,955
223,345;   13,048;   -1,019;    0,500
223,944;   15,217;    1,163;    0,773
224,543;   13,389;    4,072;   -1,409
225,142;    2,065;    1,345;    0,136
225,741;   11,134;    1,163;    1,045
226,340;    9,121;    1,254;   -0,955
226,939;   24,829;    2,708;   -0,136
227,538;    7,640;    1,163;   -0,773
228,137;   27,706;    0,435;    0,864
228,735;   14,509;    0,435;    1,227
229,334;   -2,884;   -0,474;   -0,227
229,933;   30,337;    0,799;    0,591
230,532;   23,797;   -1,201;   -0,409
231,131;   40,138;    1,253;    0,318
231,729;   20,809;    1,163;   -2,318
232,328;   10,396;    0,435;   -1,500
232,927;    5,863;    4,526;   -0,500
233,525;    6,487;    0,981;    0,045
234,124;   13,065;    1,890;   -1,591
234,723;    5,001;    1,617;   -1,045
235,321;    1,959;    1,163;    0,136
235,920;    4,642;    2,526;   -1,227
236,518;   26,873;    1,072;    0,318
237,117;    6,301;    2,890;   -0,227
237,715;    9,308;    1,163;   -0,500
238,314;    5,114;    1,708;   -2,318
238,912;   23,937;    0,526;   -1,409
239,510;    9,969;    1,162;   -1,227
240,109;   30,205;   -0,474;    3,773
240,707;   25,182;   -0,474;    1,227
241,305;    5,382;   -0,383;    0,136
241,904;   12,654;   -0,292;   -2,045
242,502;   39,971;    3,253;   -0,227
243,100;   18,278;    3,344;   -0,955
243,698;    2,104;    2,799;    1,682
244,297;    9,495;   -0,656;    0,682
244,895;    7,475;   -0,474;   -2,318
245,493;   29,527;    2,981;   -0,591
246,091;   32,554;    5,163;   -1,318
246,689;   17,448;    2,163;    0,591
247,287;   13,701;   -0,019;   -1,136
247,885;    8,542;   -1,019;    1,227
248,483;    2,954;   -0,201;   -0,500
249,081;   20,180;    0,981;    1,591
249,679;   19,763;   -1,019;    1,682
250,277;    0,620;   -2,292;    0,864
250,875;   13,566;    0,617;   -1,045
251,473;    5,775;   -0,019;    0,500
252,071;   22,045;   -0,383;    1,045
252,669;    9,308;   -1,565;    0,318
253,267;    2,446;    1,618;    0,773
253,864;    9,247;    0,617;    0,682
254,462;   21,134;    1,526;    1,591
255,060;    3,242;    0,072;    1,318
255,658;    7,581;   -3,292;   -0,136
256,255;    4,959;   -0,201;   -2,045
256,853;   11,632;    2,345;    1,409
257,451;    3,588;    1,981;    1,864
258,048;   67,514;    2,072;    1,864
258,646;   25,937;    0,436;   -1,045
259,243;   38,178;    2,981;    2,227
259,841;   20,500;    1,799;    0,318
260,438;    6,642;    0,254;    0,864
261,036;   14,787;    0,617;    1,409
261,633;    8,065;    1,526;    2,227
262,231;    4,723;   -0,110;   -0,045
262,828;    3,775;   -0,383;    1,136
263,425;    5,576;   -1,928;   -0,591
264,023;    0,696;    1,436;    0,045
264,620;   18,089;    1,526;   -0,318
265,217;   27,686;    2,890;    3,136
265,815;    5,969;    2,527;    2,136
266,412;   14,898;    0,072;    0,136
267,009;    9,482;    0,526;    0,773
267,606;   20,210;    0,345;   -0,955
268,203;    7,760;   -0,383;   -0,591
268,801;    7,844;   -0,474;    0,591
269,398;    5,045;   -0,564;    2,500
269,995;   12,684;    0,890;    1,591
270,592;    7,667;    0,799;   -0,500
271,189;    2,777;    1,981;    0,409
271,786;    1,595;    2,072;    1,227
272,383;   17,089;   -0,383;    0,227
272,980;    6,689;    1,617;    0,318
273,577;    6,035;    2,162;    1,227
274,174;    3,099;    1,435;    2,591
274,771;   14,490;    1,890;   -0,773
275,367;   73,475;    3,253;    1,409
275,964;   31,298;   -0,565;   -0,500
276,561;   13,443;   -2,474;   -1,045
277,158;   -0,965;    1,799;   -1,773
277,755;   26,180;   -0,110;    0,409
278,351;   14,104;    0,436;   -1,500
278,948;   18,979;   -0,201;    0,045
279,545;   12,807;    0,527;    2,318
280,141;   22,075;    1,254;   -2,045
280,738;   28,460;    2,435;   -0,136
281,334;    9,136;   -0,383;    0,591
281,931;    2,345;    2,890;   -1,318
282,528;   22,367;    4,072;   -0,500
283,124;   29,679;    3,345;   -0,500
283,721;   22,832;    0,709;    1,409
284,317;    8,915;    0,163;    2,500
284,913;   24,311;   -0,110;    0,591
285,510;   29,402;    2,890;   -0,318
286,106;   27,205;    2,345;   -0,955
286,703;   13,748;    0,072;    1,955
287,299;    7,136;    1,254;   -0,591
287,895;    9,640;    0,890;   -1,045
288,491;    2,227;    0,163;    2,136
289,088;   12,991;    0,163;    2,409
289,684;   11,217;    2,890;    1,500
290,280;   26,758;    1,890;    0,682
290,876;   21,888;    0,163;    5,500
291,472;   16,586;    2,163;    2,227
292,068;   21,507;    1,254;    0,227
292,665;   10,136;   -0,564;    0,773
293,261;   -0,284;   -1,292;    2,136
293,857;   11,455;    4,072;    2,136
294,453;    7,595;   -0,928;    0,955
295,049;   33,885;    0,253;    1,955
295,644;   16,566;   -1,292;    0,136
296,240;    5,583;    0,162;   -0,136
296,836;    9,804;   -0,747;    0,318
297,432;   19,543;    2,980;   -0,500
298,028;   14,644;    0,435;    0,773
298,624;   12,575;    0,889;    1,864
299,220;   10,892;    0,435;    0,591
299,815;    6,261;    0,526;   -0,409
300,411;   16,521;    0,435;    1,773
301,007;   17,236;    1,889;    0,227
301,602;    6,828;    2,071;   -2,318
302,198;   26,361;    1,435;   -0,773
302,794;   11,752;    1,526;   -0,500
303,389;   -2,931;    1,071;    1,045
303,985;    2,654;    1,253;    1,409
304,580;   32,101;    0,889;    1,591
305,176;   13,789;    0,344;    0,136
305,771;   -7,528;   -0,929;   -1,227
306,367;   61,298;    3,071;    0,136
306,962;   24,283;    2,889;    1,500
307,558;   29,455;    2,435;    0,136
308,153;   16,713;   -0,383;   -1,136
308,748;    3,801;    0,162;    1,682
309,344;   38,030;    0,253;   -1,318
309,939;   31,175;    2,071;   -1,318
310,534;   11,421;   -2,020;   -1,682
311,130;    9,281;   -0,656;   -2,500
311,725;    3,671;    0,526;   -0,500
312,320;    9,126;    1,253;    0,045
312,915;   17,526;    2,890;   -1,045
313,510;   43,873;    0,526;   -0,500
314,105;   12,659;   -3,565;    1,409
314,700;    3,868;   -1,656;   -1,045
315,295;    6,374;   -0,020;    0,045
315,890;    4,799;   -0,292;    0,864
316,485;   10,428;    0,253;   -0,318
317,080;    5,949;   -0,929;    1,591
317,675;   40,231;    3,071;   -0,682
318,270;   96,253;    6,889;    3,318
318,865;   50,602;    2,435;    3,045
319,460;   27,824;   -1,565;    0,591
320,055;   13,010;   -2,565;   -1,227
320,650;   10,022;   -1,838;   -0,591
321,244;    8,357;    0,889;   -1,409
321,839;   12,730;    0,980;   -0,227
322,434;   10,035;   -0,111;   -1,591
323,029;    7,150;   -0,474;    1,591
323,623;    1,711;    0,798;    0,773
324,218;   33,592;    2,707;    1,409
324,812;   18,403;    0,889;    1,591
325,407;   11,914;   -0,929;    2,045
326,002;   44,303;    0,526;   -0,409
326,596;   28,096;   -0,656;    1,318
327,191;   10,593;   -0,383;   -1,045
327,785;   10,914;   -0,747;   -0,227
328,379;    5,143;   -0,383;    0,136
328,974;    6,421;    1,798;   -3,955
329,568;   14,968;    2,889;   -2,409
330,163;   27,366;    2,435;    1,045
330,757;    5,467;    0,253;    1,591
331,351;    3,674;   -0,292;    0,682
331,945;    3,828;   -0,383;    1,409
332,540;   13,779;    1,617;   -0,591
333,134;    9,674;    3,344;    0,773
333,728;   15,684;    2,799;    0,318
334,322;    5,391;    0,889;   -0,864
334,916;    2,740;    0,344;    0,955
335,510;   23,286;   -0,111;   -0,136
336,105;   14,138;   -0,929;    1,591
336,699;   -0,085;   -1,292;    0,591
337,293;    8,160;    1,071;    0,318
337,887;    1,403;    0,071;    1,955
338,481;   19,497;    2,980;    0,591
339,074;   35,544;    2,071;    2,682
339,668;   27,101;   -0,110;    1,227
340,262;  132,057;    7,708;    3,227
340,856;   45,701;    1,708;   -0,682
341,450;    9,011;    0,708;    1,864
342,044;   14,797;    1,799;    0,136
342,637;   27,023;    1,162;   -2,136
343,231;    7,962;   -1,474;    0,682
343,825;    6,809;   -0,747;   -0,591
344,419;   11,553;   -0,474;    0,500
345,012;  101,335;    2,889;    4,045
345,606;   57,968;   -0,656;    1,591
346,199;   13,963;   -0,111;   -0,227
346,793;   17,794;    2,525;    2,045
347,386;    5,929;    0,889;   -1,136
347,980;    0,895;   -0,838;   -0,045
348,573;    8,381;   -1,748;    0,409
349,167;   82,565;    6,161;    4,773
349,760;   38,418;    2,252;    2,682
350,354;   30,729;    1,616;    1,136
350,947;   31,408;    2,798;    1,682
351,540;   16,747;    0,616;   -1,409
352,134;    6,423;   -1,111;    1,136
352,727;    6,366;   -0,657;    1,136
353,320;    2,319;    2,343;    0,591
353,913;   -4,587;   -1,929;    1,864
354,507;   21,668;    0,434;   -1,227
355,100;    9,034;    0,071;    0,864
355,693;  108,580;    4,798;    2,409
356,286;   41,862;    0,980;    2,773
356,879;   15,538;   -0,475;    1,227
357,472;   14,860;    0,980;    1,500
358,065;   16,437;    3,161;    2,500
358,658;    1,432;    0,798;    2,318
359,251;    3,826;    0,252;   -0,591
359,844;   21,757;    0,343;   -1,136
360,437;   27,968;    0,252;    0,045
361,030;   12,093;    0,525;   -0,682
361,623;   13,700;    0,434;    0,318
362,215;   51,125;    0,979;    2,045
362,808;   12,396;   -2,293;   -1,682
363,401;    7,759;    0,798;    0,136
363,994;   51,531;    3,252;   -1,500
364,586;   16,290;    0,888;   -1,500
365,179;   10,393;   -0,203;   -1,136
365,772;   -3,246;   -0,930;    2,045
366,364;    9,091;    1,524;   -3,227
366,957;   15,958;    1,342;   -0,045
367,549;    8,786;   -0,203;   -0,864
368,142;    9,508;    0,978;   -1,500
368,734;    7,412;    2,523;   -2,136
369,327;    4,131;    2,341;   -0,500
369,919;    6,458;   -1,659;    0,409
370,512;   10,391;   -1,023;   -0,500
371,104;   74,027;    2,704;    1,591
371,696;   78,710;    1,703;   -0,955
372,289;   39,503;    0,157;    1,136
372,881;   23,377;    1,156;    1,318
373,473;    1,733;    4,064;    1,136
374,066;   16,258;    1,336;    0,500
374,658;   16,623;    0,879;    1,136
375,250;    9,968;   -1,668;   -1,409
375,842;    7,977;   -0,124;   -0,045
376,434;   -3,980;   -2,762;   -0,409
377,026;    4,733;   -1,855;   -2,500
377,618;   16,432;    0,779;   -0,682
378,210;   -2,441;    3,141;   -1,955
378,802;    4,027;    3,412;   -0,591
379,394;  148,555;    3,411;    0,682
379,986;   52,559;    1,138;   -0,955
380,578;   12,414;    1,410;    0,773
381,170;  113,940;    0,320;    0,045
381,762;   73,479;   -0,224;    1,409
382,354;   43,890;   -0,223;   -1,318
382,945;   19,714;    0,870;    0,318
383,537;    8,010;    1,144;   -1,955
384,129;    5,763;    0,963;   -1,136
384,721;   35,508;    0,418;    0,955
385,312;   23,179;   -1,399;   -0,955
385,904;   39,368;   -0,945;    1,591
386,496;   26,594;    0,691;    1,045
387,087;   80,694;    0,418;    2,500
387,679;   45,630;   -0,401;    0,045
388,270;   30,927;   -2,401;    2,045
388,862;   26,077;   -0,401;   -0,318
389,453;   32,112;    1,054;    1,045
390,045;   30,834;    3,236;   -2,682
390,636;   -3,387;    0,144;   -0,591
391,227;   13,023;    2,054;   -0,045
391,819;    5,092;    0,781;    0,773
392,410;  100,077;    0,600;    0,045
393,001;   25,039;    1,600;   -1,591
393,593;   33,265;    0,600;   -0,045
394,184;   50,250;    0,873;   -0,409
394,775;   20,633;    1,146;    2,136
395,366;    0,461;    1,782;    0,773
395,957;   35,475;   -2,400;    0,136
396,548;    5,677;    1,054;    2,682
397,139;   39,633;    2,236;    0,591
397,730;   22,245;    0,873;    0,955
398,321;   24,508;    0,509;    0,955
398,912;    9,176;   -0,764;    0,136
399,503;    7,606;   -1,945;   -1,409
400,094;   12,574;   -1,582;    1,682
400,685;   13,272;    3,600;    0,045
401,276;    9,699;   -0,400;   -0,955
401,867;   -2,384;   -1,127;    0,773
402,458;  -11,971;    1,509;   -2,318
403,048;   27,355;    0,146;    0,591
403,639;   13,898;    1,509;    0,864
404,230;   44,935;    0,691;    0,318
404,821;   64,242;   -0,127;    0,045
405,411;   33,695;   -0,763;   -2,591
406,002;    6,208;    3,237;   -1,136
406,592;   95,395;    2,691;    0,045
407,183;   42,341;    0,328;   -1,500
407,774;   37,508;    1,419;   -0,136
408,364;   10,734;    2,600;    0,409
408,954;   49,619;   -0,036;    1,227
409,545;   47,938;    1,873;    1,045
410,135;   37,169;   -1,581;    0,500
410,726;   12,548;    0,783;    0,318
411,316;   83,739;    2,237;    0,773
411,906;   35,614;    0,146;   -0,409
412,497;   36,255;   -0,490;   -0,045
413,087;   15,840;    0,783;   -0,227
413,677;   -0,811;   -2,490;    3,864
414,267;   -0,057;   -1,035;    1,409
414,857;   -7,332;    0,419;    4,227
415,448;   -5,445;   -0,763;    0,500
416,038;    2,543;   -2,945;   -0,591
416,628;   16,963;    0,965;    0,409
417,218;   29,165;   -1,762;    3,318
417,808;   82,162;    0,965;   -0,409
418,398;   40,545;   -1,035;    2,682
418,988;    1,614;   -2,217;    0,591
419,578;   44,273;    3,601;    1,409
420,168;   16,098;    0,692;   -0,955
420,757;   55,833;    0,964;   -1,500
421,347;   11,484;    1,601;   -0,227
421,937;    9,718;    3,329;    1,409
422,527;   52,455;    2,602;   -0,773
423,116;  113,899;    2,692;   -0,045
423,706;   18,722;    2,965;    0,318
424,296;    4,147;    1,601;    0,682
424,885;   38,966;    1,510;   -3,045
425,475;   25,823;    1,147;   -2,864
426,065;    0,526;   -1,489;   -0,318
426,654;   -6,769;    0,329;   -0,318
427,244;   81,523;    1,147;    1,409
427,833;   59,602;    1,056;   -0,500
428,423;   21,701;    0,147;    1,136
429,012;   22,008;    2,420;   -1,136
429,601;   61,219;    2,057;    0,136
430,191;   29,204;    2,511;    4,318
430,780;   -0,093;   -1,671;   -0,409
431,369;   59,234;    1,329;   -0,045
431,959;   22,676;    1,693;    0,500
432,548;    1,907;   -1,398;   -0,045
433,137;   -8,825;    0,329;   -1,318
433,726;    9,224;    0,148;    0,500
434,315;   14,988;    0,148;    2,409
434,905;   57,674;    0,693;    1,409
435,494;   46,657;    3,148;    0,955
436,083;    8,293;    1,420;   -0,955
436,672;   43,015;    1,148;    0,500
437,261;   24,789;    0,512;   -1,955
437,850;   92,092;   -1,125;    0,682
438,439;  119,814;    2,239;    1,955
439,027;  181,750;    3,421;    1,773
439,616;  123,959;    2,239;    1,227
440,205;   35,947;    0,057;   -2,136
440,794;   24,578;   -0,306;   -0,045
441,383;   12,488;    1,603;   -0,591
441,971;    4,065;   -0,306;    0,591
442,560;    9,788;    0,603;   -1,773
443,149;  -18,867;    3,060;   -1,318
443,737;  -16,087;    0,968;   -2,318
444,326;   -4,259;    0,331;    0,318
444,915;    9,581;   -1,851;    0,864
445,503;   16,055;    0,058;   -0,318
446,092;  141,173;    7,876;    2,136
446,680;  100,667;    1,876;    0,318
447,269;   45,704;   -1,487;   -0,318
447,857;   41,454;    2,240;   -1,773
448,445;   24,016;    2,149;    1,318
449,034;    6,751;    0,876;   -1,136
449,622;   17,675;    1,240;    3,500
450,210;  111,763;    3,149;    2,227
450,799;   73,139;    2,604;   -0,591
451,387;   63,262;    1,786;   -0,591
451,975;   55,282;   -1,305;    0,864
452,563;   80,921;    0,422;    2,318
453,151;   23,894;   -1,032;   -1,227
453,739;   28,584;   -1,577;    0,136
454,328;   64,206;    0,604;   -2,136
454,916;   44,538;    1,150;   -0,136
455,504;   58,321;    3,513;    1,227
456,092;   19,589;    2,150;   -1,591
456,679;    6,174;    0,604;    0,682
457,267;  178,923;    3,604;    1,045
457,855;   49,641;    3,241;    1,409
458,443;   -4,641;   -0,304;    1,682
459,031;   33,410;    1,332;    2,409
459,619;   27,395;   -3,577;    2,864
460,206;    2,078;   -0,759;    2,045
460,794;    0,017;   -0,668;   -0,227
461,382;   11,373;    0,878;   -0,864
461,970;   15,636;    0,605;    1,864
462,557;   -0,206;    0,878;   -0,682
463,145;   26,172;   -0,304;   -1,682
463,732;  122,916;    2,514;   -1,045
464,320;   41,821;    1,514;   -3,045
464,907;   82,956;    0,423;   -0,773
465,495;   42,932;    2,696;   -1,227
466,082;   25,054;    2,060;   -0,045
466,670;   31,386;    2,605;    1,227
467,257;    2,988;    0,060;    2,045
467,844;   30,216;    1,514;    0,045
468,432;   18,735;   -0,031;    3,500
469,019;   15,234;    1,606;   -1,773
469,606;   47,629;    0,969;    3,682
470,193;   50,155;    2,151;    0,227
470,780;   24,177;    0,333;    0,864
471,368;   11,175;   -1,212;   -0,773
471,955;   43,315;    1,060;   -0,682
472,542;   24,703;   -0,303;   -1,136
473,129;    2,399;   -0,485;    0,136
473,716;    1,927;    0,060;    0,591
474,303;    8,047;    1,333;   -0,864
474,890;    6,109;    2,333;   -0,500
475,477;   45,205;   -0,576;    0,409
476,064;   13,905;    0,697;   -1,591
476,650;   65,522;    2,152;    0,318
477,237;   25,431;    1,879;    0,955
477,824;   21,251;    3,879;    0,864
478,411;   -1,171;    0,606;   -0,318
478,997;  -10,468;    0,606;   -0,773
479,584;  -16,213;   -0,666;   -0,409
480,171;   24,974;    1,243;   -0,773
480,757;   41,377;   -0,848;    0,773
481,344;   12,908;    0,334;    0,409
481,931;  -14,085;   -0,393;    1,045
482,517;   22,596;    0,425;    0,318
483,104;   50,691;    1,334;    2,864
483,690;   10,372;    0,243;    0,045
484,276;    4,792;    0,698;    0,227
484,863;   84,419;    2,152;    1,136
485,449;   23,785;    0,152;    0,318
486,035;    3,122;   -0,666;   -0,136
486,622;   26,267;   -2,393;    0,045
487,208;    7,104;    1,334;    1,500
487,794;  -12,701;    0,971;    0,318
488,380;   -9,947;    0,698;   -1,409
488,967;  -13,826;   -1,120;   -0,409
489,553;   -8,057;   -1,029;   -1,409
490,139;   12,785;    0,971;    0,773
490,725;   -2,414;    0,789;   -0,227
491,311;    4,690;    1,516;    3,045
491,897;    1,461;   -0,665;    1,500
492,483;    5,948;    0,426;    1,227
493,069;  184,879;    5,426;    0,864
493,655;   63,891;    1,789;    0,682
494,241;   13,267;    1,517;   -0,955
494,826;   11,201;    0,335;   -1,045
495,412;   29,024;    0,335;   -0,682
495,998;    4,049;    0,971;   -0,318
496,584;   20,407;    2,244;    1,045
497,169;   31,201;    2,335;   -0,682
497,755;   12,636;    1,244;    1,227
498,341;   54,641;    2,153;    0,318
498,926;  103,326;    2,881;    1,955
499,512;   13,223;   -0,028;    2,955
500,097;    3,995;   -0,574;   -0,318
500,683;   13,545;   -0,028;    2,136
501,268;    2,216;    1,881;   -0,955
501,854;    9,752;   -0,119;    1,227
502,439;   10,164;   -0,573;   -1,773
503,024;    2,865;    1,608;    0,500
503,610;   10,280;    1,335;   -0,682
504,195;    5,174;    1,245;    1,955
504,780;   35,002;    2,335;    1,227
505,366;   69,823;    4,063;    2,864
505,951;   31,983;   -1,119;    1,045
506,536;   13,536;    1,427;   -3,682
507,121;   27,818;    1,699;   -0,318
507,706;   16,135;   -0,392;    1,045
508,291;    0,088;   -2,937;    1,136
508,876;   -5,277;   -0,482;    2,591
509,461;    4,413;    1,427;   -0,773
510,046;   17,177;   -0,391;    0,318
510,631;   25,017;   -0,119;   -0,773
511,216;   -0,599;   -0,664;   -0,500
511,801;   20,484;   -0,755;    2,591
512,386;   24,130;    0,972;    0,500
512,971;   23,998;    0,427;    0,955
513,555;   24,713;    1,154;   -1,500
514,140;   17,912;    1,336;   -3,136
514,725;   72,106;    1,791;   -1,136
515,309;   30,927;    1,064;    0,318
515,894;    6,816;   -0,300;   -2,227
516,479;   15,327;    1,973;   -0,955
517,063;   12,467;    0,882;    1,227
517,648;    1,799;    0,155;   -1,136
518,232;  -11,474;   -1,300;   -1,409
518,817;   22,824;    1,337;    1,682
519,401;   55,367;    0,700;    0,591
519,985;   47,794;    2,700;    1,136
520,570;   10,065;   -0,118;   -1,955
521,154;   35,721;    0,064;    0,591
521,738;   77,134;    1,064;    2,409
522,323;   38,178;   -0,390;    1,682
522,907;   42,357;    2,428;   -0,136
523,491;   29,674;    1,155;    0,955
524,075;   28,335;    0,428;    0,591
524,659;  120,726;    0,973;    0,591
525,243;  116,426;    0,883;    0,409
525,827;  103,163;    0,883;   -0,045
526,411;  124,544;    1,155;   -0,136
526,995;  201,414;    0,337;    1,409
527,579;  266,596;    1,974;   -1,045
528,163;  259,109;    0,428;   -1,500
528,747;  372,399;    1,065;   -0,773
529,331;  356,694;    0,883;   -1,409
529,915;  267,235;    2,338;    0,955
530,499;  392,502;    0,247;    1,227
531,082;  596,021;    1,065;    1,591
531,666;  727,043;    0,520;    0,773
532,250;  670,696;    0,428;    2,682
532,833;  846,146;    0,610;    2,773
533,417;  705,635;    1,247;    0,864
534,001;  884,375;    0,429;   -0,318
534,584;  862,962;    1,974;    0,500
535,168;  722,387;    3,247;    1,409
535,751; 1186,790;    4,520;    0,045
536,334;  894,014;    4,520;   -0,409
536,918;  871,792;    1,974;    1,591
537,501;  907,181;    1,520;    1,318
538,085; 1017,648;    1,702;    1,045
538,668; 1103,581;    0,883;    2,409
539,251; 1534,060;    3,156;    3,773
539,834; 1321,183;    0,156;    0,773
540,418; 1472,601;    3,247;    4,318
541,001; 1702,478;    2,702;    1,773
541,584; 1494,894;    1,429;    2,227
542,167; 1584,483;    0,702;    2,955
542,750; 1506,075;    0,793;   -0,773
543,333; 1314,648;    1,429;    2,136
543,916; 1691,147;   -0,298;    2,500
544,499; 1622,289;    2,520;    0,227
545,082; 1743,510;    0,248;    3,591
545,665; 1720,943;   -0,207;    1,500
546,248; 1903,557;    0,520;   -0,318
546,830; 1849,297;   -1,752;    1,955
547,413; 1941,722;    0,157;   -0,773
547,996; 2080,000;    0,157;    0,500
548,579; 1882,154;   -0,843;    0,955
549,161; 2124,012;    0,884;    2,682
549,744; 2053,258;    0,612;    0,409
550,326; 2070,742;    0,885;   -1,136
550,909; 2457,398;    2,339;    0,591
551,492; 2272,744;    0,521;    0,227
552,074; 2292,975;   -0,024;   -1,318
552,657; 2422,621;    2,430;    0,045
553,239; 2280,059;   -3,024;   -0,773
553,821; 2241,582;   -1,570;    1,045
554,404; 2330,147;   -0,024;    1,136
554,986; 2475,142;    2,248;    1,045
555,568; 2482,671;    0,430;   -0,955
556,151; 2574,241;    4,067;   -0,227
556,733; 2379,069;   -1,388;   -0,864
557,315; 2406,359;    4,703;    0,500
557,897; 2178,386;    0,521;   -0,500
558,479; 2248,875;    1,703;    1,318
559,061; 2378,226;    1,067;   -0,864
559,643; 2541,197;   -0,297;    0,045
560,225; 2592,619;   -0,388;    2,864
560,807; 2522,742;    0,340;    0,318
561,389; 2414,008;   -1,206;    2,318
561,971; 2500,659;   -0,660;    2,136
562,553; 2548,428;    0,613;    1,591
563,135; 2641,388;    1,249;    1,136
563,717; 2837,551;    3,158;    1,136
564,298; 2820,430;    3,976;   -0,045
564,880; 2541,423;    0,340;   -1,409
565,462; 2494,969;    1,977;    1,318
566,043; 2938,214;   -0,933;    2,318
566,625; 2886,563;    4,067;    1,227
567,207; 2693,828;    0,704;    1,682
567,788; 2830,629;   -0,114;    1,500
568,370; 3065,448;   -1,841;   -0,500
568,951; 2845,273;   -0,569;    0,227
569,533; 3094,291;    0,977;   -0,500
570,114; 3258,170;   -0,296;    0,682
570,695; 3298,200;   -0,478;   -1,318
571,277; 3258,013;   -0,205;   -1,682
571,858; 3513,416;    2,704;   -1,136
572,439; 3655,128;    0,795;   -1,045
573,021; 3588,642;    0,432;   -2,773
573,602; 3721,450;    1,795;    0,318
574,183; 3848,819;   -0,114;    2,227
574,764; 3845,043;    2,068;    0,409
575,345; 3913,841;    0,250;   -0,136
575,926; 4009,563;    2,704;    0,136
576,507; 4073,890;    2,704;   -0,227
577,088; 4274,885;    1,704;    1,682
577,669; 4391,524;    1,704;    1,955
578,250; 4643,728;   -0,750;   -1,045
578,831; 4537,497;   -0,841;   -2,227
579,412; 4392,640;   -1,205;    0,955
579,993; 4848,224;    1,432;    0,227
580,573; 4912,699;   -0,023;   -0,955
581,154; 4407,453;    1,613;   -0,591
581,735; 4741,323;    0,341;    0,773
582,315; 4466,050;    0,523;    2,136
582,896; 4744,315;   -1,750;    1,227
583,477; 4590,396;    0,614;    1,227
584,057; 4673,492;    1,159;    0,955
584,638; 4736,133;   -2,750;    2,318
585,218; 4891,826;    2,886;    2,682
585,799; 4845,441;    1,977;   -0,227
586,379; 4841,067;    1,250;    1,591
586,959; 4590,011;    2,613;    0,318
587,540; 4446,620;    0,432;    2,227
588,120; 4305,220;   -1,113;   -0,045
588,700; 4118,158;    2,977;    2,136
589,281; 4421,052;    1,250;   -0,955
589,861; 4267,237;   -0,296;   -1,682
590,441; 4217,536;   -1,477;   -2,682
591,021; 3849,846;    1,432;   -2,591
591,601; 4097,332;    0,431;    0,500
592,181; 4221,551;   -1,296;   -0,773
592,761; 3857,625;    2,250;    1,409
593,341; 3984,718;    1,522;    0,045
593,921; 3956,971;   -0,569;    1,591
594,501; 3882,834;    1,250;    1,318
595,081; 3845,128;    0,522;   -0,318
595,661; 4115,740;    1,068;    0,955
596,240; 4265,974;   -1,023;    0,136
596,820; 4147,971;    2,613;    1,955
597,400; 3955,974;    1,977;    0,773
597,980; 4066,497;   -0,750;    1,045
598,559; 4103,929;    0,341;   -0,227
599,139; 4054,472;   -0,750;   -1,227
599,718; 4021,563;    0,795;   -0,409
600,298; 4157,389;   -2,387;    0,682
600,877; 4417,450;    4,795;    1,409
601,457; 4456,084;    0,340;    1,136
602,036; 4334,772;    1,795;    2,045
602,616; 4276,755;    2,250;    1,682
603,195; 4439,342;    0,431;    3,500
603,774; 4246,971;   -0,296;    2,045
604,354; 4198,541;    2,522;   -0,500
604,933; 4074,197;    0,250;    1,864
605,512; 4259,308;    2,340;    0,591
606,091; 4286,870;    1,886;    3,773
606,671; 4441,003;    0,249;    0,773
607,250; 4272,032;    1,431;    3,136
607,829; 4362,148;    1,158;    3,227
608,408; 4275,109;    4,613;    2,591
608,987; 4080,561;    2,704;    3,409
609,566; 4055,210;    0,341;   -2,500
610,145; 4147,978;    2,885;    0,682
610,723; 4422,497;    1,613;    6,864
611,302; 4018,701;    1,067;    1,682
611,881; 3960,818;    5,158;   11,227
612,460; 4072,312;    0,795;    3,955
613,039; 4272,568;    1,703;    2,045
613,617; 3822,484;    0,886;    4,773
614,196; 3852,863;    1,613;    1,227
614,775; 4050,715;    1,249;    2,409
615,353; 4045,548;   -1,660;    0,864
615,932; 3944,587;    0,249;    2,409
616,510; 4225,337;    0,158;    0,591
617,089; 4377,263;    8,794;   17,591
617,667; 4215,057;    4,885;    6,136
618,246; 3858,248;   -1,115;    1,318
618,824; 4001,484;    1,612;   -0,955
619,402; 3838,408;    0,431;   -1,773
619,981; 4102,216;    1,067;   -1,045
620,559; 4115,260;    0,794;    1,682
621,137; 4054,708;    3,067;    1,864
621,715; 3722,862;    3,703;   -0,682
622,293; 3758,324;    1,885;   -0,773
622,871; 4169,722;    0,340;    0,500
623,450; 3965,747;    0,430;   -0,864
624,028; 4018,342;   -0,388;   -0,955
624,606; 3855,821;    2,339;    1,682
625,183; 3894,973;   -0,661;   -1,136
625,761; 3830,685;    1,885;    1,136
626,339; 4162,526;    2,339;    2,591
626,917; 4080,285;    0,339;   -0,045
627,495; 4142,879;    2,794;    1,318
628,073; 3952,481;    5,248;    2,864
628,650; 3857,921;    3,067;    2,136
629,228; 4018,238;    1,248;    4,409
629,806; 3674,496;   -0,024;    1,136
630,383; 3832,422;    0,066;   -0,318
630,961; 3805,228;   -2,206;   -0,955
631,539; 3688,206;   -2,479;    0,227
632,116; 4060,865;   12,703;   15,409
632,694; 3929,088;    4,885;    6,500
633,271; 3768,167;    1,975;    2,682
633,848; 3895,828;    1,430;    2,045
634,426; 3830,287;    1,521;    1,773
635,003; 3581,842;   -0,207;   -0,409
635,580; 3789,419;    1,884;    3,682
636,158; 3768,373;    3,793;    1,227
636,735; 3704,172;    3,339;   -0,500
637,312; 3715,987;    0,521;   -0,682
637,889; 3758,027;    2,248;   -0,682
638,466; 3682,422;    0,066;   -0,409
639,043; 3646,726;    1,702;   -1,136
639,620; 3685,707;    0,611;   -0,955
640,197; 3878,118;    1,612;    1,682
640,774; 3980,610;    1,430;    1,136
641,351; 4042,465;    0,612;    1,136
641,928; 3927,047;    2,794;    1,409
642,505; 3933,902;    0,794;   -0,500
643,082; 3955,302;    1,885;    1,227
643,658; 3529,430;    1,157;    1,500
644,235; 3756,558;   -2,479;    2,500
644,812; 3831,322;    1,794;    0,773
645,388; 3773,359;    1,612;    1,409
645,965; 3649,759;    1,521;    1,682
646,542; 3718,433;    3,430;   -0,227
647,118; 4044,924;    3,703;   -0,955
647,695; 3986,506;    0,339;    1,136
648,271; 3836,089;   -2,115;    0,500
648,848; 3911,944;    0,248;    2,227
649,424; 3943,708;    0,976;    1,318
650,000; 3661,563;   -0,388;   -1,045
650,577; 3742,418;    0,158;   -0,955
651,153; 3895,636;   -1,115;    0,955
651,729; 4028,673;    0,521;    0,864
652,305; 4125,710;    1,339;    2,773
652,881; 4725,929;   -1,297;    1,136
653,458; 5880,147;    0,249;    0,227
654,034; 6578,548;    0,703;    1,591
654,610; 6687,130;    0,339;    0,773
655,186; 7170,440;    1,612;    3,045
655,762; 6920,204;   -1,842;    0,409
656,338; 6900,877;    0,703;    0,136
656,913; 7363,641;   -0,297;    0,409
657,489; 7057,769;    0,249;   -0,318
658,065; 7165,442;    0,794;   -1,591
658,641; 7521,479;    2,158;   -0,864
659,217; 7204,334;    2,067;    0,409
659,792; 6838,825;   -1,751;   -0,409
660,368; 7097,771;   -0,388;   -0,682
660,944; 7376,535;    1,794;    1,227
661,519; 6533,390;    0,522;    0,409
662,095; 5395,882;   -0,206;    0,591
662,670; 4441,827;   -0,206;   -0,136
663,246; 4381,773;   -0,660;   -0,409
663,821; 4274,538;    0,431;    1,682
664,396; 3960,483;    0,613;    1,864
664,972; 4082,157;   -0,660;   -0,500
665,547; 4238,739;    3,794;    0,136
666,122; 4175,594;    1,340;    0,318
666,698; 4322,813;    2,431;    0,318
667,273; 3906,849;    0,885;    0,136
667,848; 4228,704;    0,340;    1,500
668,423; 4167,741;    1,795;    2,318
668,998; 4203,687;    0,976;   -0,682
669,573; 4380,724;    2,067;   -1,500
670,148; 4416,034;    1,885;   -0,682
670,723; 4134,343;   -0,024;    0,318
671,298; 4499,289;   -1,296;    1,045
671,873; 4391,690;   -0,296;   -0,136
672,448; 4382,090;    1,704;    0,136
673,023; 4482,763;    0,249;   -0,227
673,597; 4677,164;    2,704;    2,318
674,172; 4591,655;    2,431;    0,318
674,747; 4393,692;   -0,205;   -1,045
675,321; 4257,820;   -0,933;    3,318
675,896; 4067,129;    2,158;    1,045
676,471; 4374,802;    2,522;    1,591
677,045; 4267,748;   -0,296;    0,682
677,620; 4231,876;    2,158;    1,136
678,194; 4423,913;    0,249;    1,136
678,769; 4310,677;    0,886;   -0,318
679,343; 4411,623;   -0,023;    1,773
679,917; 4358,296;    0,340;    1,955
680,492; 4267,697;    0,249;    3,227
681,066; 4328,188;    0,613;    0,409
681,640; 4371,225;    1,795;   -0,318
682,214; 4615,443;    2,340;    0,500
682,788; 4416,117;    0,613;   -0,773
683,363; 4356,699;    1,977;    1,682
683,937; 4215,008;    0,886;   -0,318
684,511; 4592,045;   -1,023;   -0,591
685,085; 4482,355;   -1,478;    0,318
685,659; 4318,301;    1,431;    0,864
686,232; 4500,519;    1,159;   -0,318
686,806; 4390,738;    2,159;    0,409
687,380; 4609,866;   -1,932;    0,591
687,954; 4715,721;    2,432;    1,136
688,528; 4608,394;    2,613;    1,955
689,101; 4921,704;    0,432;    1,045
689,675; 4608,286;    0,886;   -0,136
690,249; 4447,504;    3,432;    0,409
690,822; 4600,450;    1,159;    0,318
691,396; 4565,396;    2,068;    1,227
691,969; 4364,706;    2,523;    0,136
692,543; 4616,470;   -0,568;   -1,955
693,116; 4391,507;   -0,659;   -1,409
693,690; 4400,089;   -0,296;    0,500
694,263; 4645,126;    2,341;    2,955
694,836; 4768,526;    2,795;    3,591
695,410; 4258,745;    1,159;    1,773
695,983; 4395,236;    1,614;    0,591
696,556; 4343,364;   -0,750;   -1,045
697,129; 4527,310;   -1,114;    1,409
697,703; 4330,074;    1,341;    1,955
698,276; 4418,747;    1,705;   -0,773
698,849; 4345,330;   -1,023;    1,409
699,422; 4393,548;    1,250;    0,591
699,995; 4274,585;   -0,659;    0,136
700,568; 4478,349;   -0,204;    3,045
701,140; 4471,113;   -1,841;    1,682
701,713; 4504,059;    0,341;    2,409
702,286; 4414,460;    0,796;    0,864
702,859; 4326,497;    0,614;   -0,591
703,432; 4145,897;   -0,841;    0,682
704,004; 4227,934;    1,978;    0,318
704,577; 4068,062;    1,068;    0,136
705,150; 4249,280;    0,887;    2,500
705,722; 4287,226;    1,523;   -3,227
706,295; 4269,627;    1,432;   -0,591
706,867; 4089,936;    0,250;    1,955
707,440; 4325,519;   -0,113;   -0,409
708,012; 4393,737;   -0,022;    0,591
708,584; 4275,683;    2,705;    0,227
709,157; 4389,356;    1,160;   -0,591
709,729; 4376,848;    1,069;    2,045
710,301; 4714,157;   -1,204;    0,045
710,874; 4679,376;    0,341;   -0,227
711,446; 4121,413;   -0,295;    0,864
712,018; 4191,359;   -3,022;    0,500
712,590; 4039,123;   -0,204;    1,682
713,162; 4342,796;   -0,477;    1,318
713,734; 4362,560;    1,796;   -2,045
714,306; 4358,960;    0,342;   -0,409
714,878; 3955,088;   -0,295;    0,864
715,450; 4254,761;   -0,113;    0,864
716,022; 4350,071;    2,433;    1,318
716,593; 4423,653;    0,978;    0,591
717,165; 4434,145;    1,796;   -1,227
717,737; 4418,545;    0,796;    0,409
718,309; 4309,218;    1,160;   -0,045
718,880; 4250,437;   -1,295;   -1,409
719,452; 4403,565;    0,887;   -1,591
720,024; 4267,692;    1,705;   -0,591
720,595; 4407,729;    2,978;    0,955
721,167; 4240,493;    1,160;   -2,045
721,738; 4051,803;    2,069;   -1,045
722,309; 4042,840;    1,251;   -1,227
722,881; 3974,786;    2,705;    0,773
723,452; 4232,732;    1,251;    2,864
724,023; 4339,768;    1,524;    2,682
724,595; 4305,805;    2,342;    0,682
725,166; 4129,297;    1,524;   -0,409
725,737; 4109,243;    1,887;    0,227
726,308; 4150,643;    0,797;    0,318
726,879; 4145,225;    1,069;    1,227
727,450; 4193,080;   -2,022;   -0,045
728,021; 4101,754;    1,069;    0,682
728,592; 4157,972;    1,160;    0,500
729,163; 4340,100;    1,433;   -0,136
729,734; 4300,864;    2,160;   -0,227
730,305; 4305,992;    0,615;    0,136
730,876; 4362,120;    0,888;    2,955
731,447; 4488,247;    0,797;    2,682
732,017; 4428,557;   -0,840;    1,864
732,588; 4308,139;   -0,021;    1,227
733,159; 4375,540;    3,615;   -1,045
733,729; 4176,122;    1,251;    0,409
734,300; 4069,159;    0,160;    0,864
734,870; 4136,105;   -1,385;    0,591
735,441; 4281,869;    0,888;   -0,591
736,011; 4109,269;    1,070;   -1,591
736,582; 4093,579;    1,251;    0,045
737,152; 3878,343;    0,979;   -2,045
737,722; 4140,107;    1,070;   -0,682
738,293; 3983,962;   -2,021;    1,318
738,863; 4068,090;    1,797;    2,318
739,433; 4180,854;    4,524;    0,318
740,003; 4319,618;    1,524;   -0,682
740,573; 4193,200;    2,252;   -1,591
741,143; 4185,510;    3,615;    0,318
741,713; 4324,001;    0,252;   -0,500
742,283; 4230,038;    1,706;    1,591
742,853; 4123,984;    0,524;    1,591
743,423; 3924,657;    0,161;    0,045
743,993; 3976,148;    1,070;    1,500
744,563; 3737,913;    2,524;   -0,864
745,133; 3767,222;   -0,112;   -0,864
745,702; 4077,623;    2,797;    1,773
746,272; 3854,478;    0,434;    0,591
746,842; 3869,878;   -0,748;   -0,591
747,411; 3924,006;   -0,839;   -0,318
747,981; 3892,134;   -0,930;    0,500
748,551; 3946,170;   -0,021;   -1,045
749,120; 3936,389;   -0,112;   -0,227
749,690; 4067,062;    2,161;    2,409
750,259; 4203,826;    0,979;    2,955
750,828; 4137,590;    4,070;   -1,955
751,398; 4152,991;   -0,112;   -0,045
751,967; 4169,119;    2,888;    0,409
752,536; 4108,610;    1,161;   -0,227
753,105; 4322,283;   -1,384;    0,227
753,675; 4111,684;   -0,112;    1,773
754,244; 4081,175;    0,888;    3,591
754,813; 4090,485;    0,979;    1,227
755,382; 3959,158;    0,798;    0,955
755,951; 4076,104;   -0,112;    3,682
756,520; 4054,959;    2,525;    1,864
757,089; 4364,268;    1,888;    0,500
757,658; 4135,032;    2,434;    1,227
758,227; 4082,433;   -1,111;    0,318
758,795; 4187,470;   -1,021;    1,136
759,364; 4413,779;    0,525;   -0,591
759,933; 3961,907;    1,343;   -0,045
760,501; 3883,489;    0,252;   -1,318
761,070; 4010,617;   -0,293;   -1,409
761,639; 4404,108;    1,434;    1,318
762,207; 4032,145;    0,889;   -0,955
762,776; 4096,091;    2,889;    0,864
763,344; 4009,037;    0,071;    0,591
763,913; 3561,347;    1,616;    1,409
764,481; 4188,565;    1,980;   -0,136
765,049; 4122,238;    0,616;    1,409
765,618; 4011,366;    1,434;    0,318
766,186; 4038,585;    2,434;    0,136
766,754; 4113,622;    1,798;    1,864
767,322; 3650,204;    1,162;    0,409
767,890; 3636,059;    0,525;   -1,773
768,459; 3927,732;    2,616;   -0,318
769,027; 4066,860;    2,525;    3,409
769,595; 3691,169;    2,616;    2,591
770,163; 3806,206;    3,344;    2,955
770,730; 3740,789;    2,525;   -0,136
771,298; 3734,735;    1,162;   -1,409
771,866; 3802,499;    0,253;    4,955
772,434; 3865,263;    1,162;   -1,864
773,002; 4077,572;    2,616;    0,682
773,569; 3932,882;    1,071;    1,682
774,137; 3915,191;    0,889;   -0,045
774,705; 4142,046;   -0,747;   -0,136
775,272; 3889,538;    0,253;    0,682
775,840; 3988,302;   -0,111;    2,682
776,407; 3795,884;   -0,293;    1,955
776,975; 3494,103;    1,162;    0,318
777,542; 3889,321;    2,162;   -0,045
778,110; 3870,813;    0,707;   -0,045
778,677; 3701,486;    1,071;   -0,864
779,244; 3679,250;   -1,020;    1,045
779,812; 3768,832;    0,980;    0,864
780,379; 3763,233;    2,435;    1,136
780,946; 3749,088;    2,617;   -0,773
781,513; 3840,216;   -0,565;    0,318
782,080; 3583,071;    1,253;    2,864
782,647; 3818,926;    1,708;    3,045
783,214; 3703,781;   -0,201;    3,864
783,781; 3660,545;    1,708;   -0,682
784,348; 3692,582;    0,253;    1,500
784,915; 3693,618;   -1,474;    0,318
785,482; 3751,655;    2,708;    2,591
786,049; 3935,238;    1,071;   -0,591
786,615; 3913,093;    1,708;   -0,955
787,182; 3801,584;   -3,201;   -0,682
787,749; 3741,803;   -2,201;    1,409
788,315; 3500,112;    0,253;   -0,409
788,882; 3665,785;    0,981;   -1,227
789,448; 3963,186;    1,435;   -0,955
790,015; 3855,768;    1,799;    3,227
790,581; 3828,987;    0,708;    0,227
791,148; 3637,478;    1,344;    1,045
791,714; 3721,515;   -1,019;    3,136
792,280; 3676,279;    3,708;    1,591
792,847; 3564,316;   -0,928;    2,500
793,413; 3717,989;   -0,110;   -0,318
793,979; 3632,571;    1,526;   -1,318
794,545; 3879,517;    2,981;    2,682
795,111; 3597,463;    2,435;    1,318
795,678; 3551,773;    3,526;   -1,682
796,244; 3668,537;    2,799;    0,136
796,810; 3767,301;    0,799;    0,773
797,375; 3688,156;   -0,292;   -2,136
797,941; 3425,284;   -1,110;    0,591
798,507; 3404,866;    0,254;   -0,955
799,073; 3354,085;    2,708;    0,591
799,639; 3479,212;    1,435;    3,136
800,205; 3417,340;   -1,565;    2,682
800,770; 3283,104;    1,345;    1,773
801,336; 3223,959;    2,981;   -0,955
801,901; 3633,542;    6,072;    3,136
802,467; 3628,215;    0,526;    2,045
803,033; 3226,706;   -0,019;    0,864
803,598; 3232,561;    1,072;   -1,045
804,163; 3344,053;    0,708;   -0,318
804,729; 3374,908;   -0,110;    1,136
805,294; 3386,490;    1,072;    2,227
805,859; 3272,981;    0,890;   -0,409
806,425; 3470,291;    3,890;    2,682
806,990; 3351,055;    1,890;    4,318
807,555; 3340,274;   -0,110;    2,591
808,120; 3416,492;   -1,292;   -0,409
808,685; 3223,074;    1,072;   -2,500
809,250; 3050,657;    2,072;   -0,500
809,815; 3209,512;   -0,201;    0,682
810,380; 3447,730;    0,981;    1,591
810,945; 3574,585;    2,890;    2,045
811,510; 3385,895;   -0,200;    1,591
812,075; 3187,295;    2,800;   -1,409
812,640; 3414,969;    3,709;    1,409
813,204; 3353,005;    2,163;   -0,227
813,769; 3591,497;    0,254;   -0,045
814,334; 3447,625;    0,527;    0,864
814,898; 3338,571;    1,981;    0,591
815,463; 3256,153;    0,981;   -0,773
816,027; 3213,826;    1,345;   -2,318
816,592; 3333,226;    2,163;   -2,045
817,156; 3156,081;   -2,200;    1,136
817,721; 3171,573;    0,982;    2,318
818,285; 3105,519;    0,618;    1,500
818,849; 3317,010;   -0,018;    1,682
819,414; 3202,138;    0,073;    2,955
819,978; 3078,357;   -0,291;    1,773
820,542; 3507,121;    2,891;    0,500
821,106; 3366,703;    2,800;    0,682
821,670; 3444,013;    2,709;    2,591
822,234; 3205,686;    1,073;    1,409
822,798; 3049,086;   -0,836;    0,500
823,362; 3316,032;    1,527;    4,227
823,926; 2979,705;   -0,018;    1,136
824,490; 3122,288;    3,527;   -0,682
825,054; 3162,143;    2,527;   -1,136
825,618; 3011,543;   -1,200;   -1,500
826,181; 3010,944;    0,982;   -1,318
826,745; 2985,526;   -0,745;   -1,045
827,309; 3293,563;    2,255;    1,318
827,872; 3085,690;    0,527;    0,955
828,436; 3291,182;    1,982;   -0,773
828,999; 3348,400;    2,436;    1,227
829,563; 3098,437;   -0,654;    1,136
830,126; 3005,838;   -0,018;   -0,591
830,690; 2976,875;    0,709;    2,864
831,253; 2790,548;   -0,473;    2,227
831,816; 2884,130;   -0,018;    0,500
832,380; 2791,076;    1,164;    0,864
832,943; 2862,749;    3,073;   -0,500
833,506; 2814,422;    0,255;   -1,227
834,069; 3135,005;    2,164;   -0,955
834,632; 3117,769;   -2,200;    1,318
835,195; 3060,533;    1,346;    0,955
835,758; 2889,024;    0,709;    1,955
836,321; 2772,970;    1,073;   -1,045
836,884; 2849,098;   -1,291;   -0,955
837,447; 2884,135;    0,528;    1,773
838,010; 2944,262;    1,800;    3,227
838,573; 3100,572;    0,528;    0,773
839,135; 3063,791;   -0,109;   -0,955
839,698; 2839,918;    2,528;    0,409
840,261; 2719,501;    0,255;   -0,227
840,823; 2738,992;   -0,927;    0,864
841,386; 2773,938;   -0,018;   -2,409
841,948; 3004,611;    0,255;    1,773
842,511; 2721,193;    0,255;    1,682
843,073; 2930,230;    2,982;    0,227
843,636; 2752,722;    0,619;   -0,227
844,198; 2864,668;    1,255;    0,591
844,760; 2889,795;    0,619;    1,955
845,322; 2638,650;    0,164;    1,136
845,885; 2807,596;   -0,290;    0,591
846,447; 2918,360;    0,710;    0,227
847,009; 3047,579;    3,983;   -0,682
847,571; 2870,616;    1,346;   -2,045
848,133; 2868,653;   -0,199;   -1,864
848,695; 2767,235;    2,346;    1,409
849,257; 2730,999;    1,346;   -1,682
849,819; 2885,127;    2,983;   -0,409
850,381; 2789,618;    1,801;   -0,864
850,942; 2866,837;    1,892;   -0,591
851,504; 2811,692;    0,983;    0,227
852,066; 2844,456;    1,619;   -1,591
852,628; 2795,947;    0,165;    1,955
853,189; 2542,711;    0,256;    2,682
853,751; 2650,930;   -0,654;    1,409
854,312; 2733,421;    1,256;   -1,682
854,874; 2917,822;   -0,108;   -0,773
855,435; 2869,950;    0,528;   -1,682
855,997; 3004,986;    3,983;   -0,136
856,558; 2826,114;    0,801;    1,773
857,119; 2711,787;   -0,744;    2,864
857,681; 2599,370;   -0,108;    0,318
858,242; 2717,588;    1,347;   -2,136
858,803; 2923,352;    1,074;   -0,773
859,364; 2999,480;    0,892;   -4,773
859,925; 2907,699;   -0,290;   -0,955
860,486; 2855,190;    0,529;   -0,955
861,047; 2695,136;    0,165;   -1,227
861,608; 2681,355;    0,165;   -0,773
862,169; 2738,937;   -0,562;   -0,045
862,730; 2646,338;   -0,290;    1,409
863,291; 2768,829;    0,438;   -0,500
863,852; 2782,229;   -0,926;    1,955
864,412; 2651,266;   -1,835;   -0,864
864,973; 2540,939;    1,892;    0,500
865,534; 2640,067;    2,074;    0,227
866,094; 2739,559;    2,620;    0,227
866,655; 2727,232;    4,711;    3,318
867,215; 2718,359;    0,074;    0,136
867,776; 2685,033;   -1,199;   -0,136
868,336; 2688,342;    1,529;    0,136
868,897; 2892,652;    3,438;    1,682
869,457; 2710,598;    3,256;    0,318
870,017; 2667,544;    2,438;   -1,227
870,578; 2772,853;    1,893;    0,773
871,138; 2567,254;    2,620;   -0,955
871,698; 2427,381;   -0,562;   -1,318
872,258; 2471,600;    0,711;   -2,864
872,818; 2736,364;    2,347;    0,045
873,378; 2624,219;   -2,198;    1,045
873,938; 2506,983;    4,984;    0,500
874,498; 2501,566;    1,256;   -1,955
875,058; 2485,239;    4,347;    1,773
875,618; 2464,821;    1,438;   -2,682
876,177; 2495,131;   -0,471;    0,136
876,737; 2251,713;   -0,289;    1,955
877,297; 2594,113;    2,711;    1,955
877,856; 2541,605;    2,529;    0,318
878,416; 2335,369;    2,438;   -0,136
878,976; 2400,042;    3,438;    0,409
879,535; 2497,261;    4,529;    3,136
880,095; 2470,207;    1,347;    0,045
880,654; 2355,880;    0,347;    1,318
881,213; 2618,917;    2,347;    1,500
881,773; 2412,499;    1,984;    2,682
882,332; 3014,536;    6,075;    5,136
882,891; 2565,391;    0,711;    2,136
883,451; 2598,246;   -2,016;    1,682
884,010; 2384,737;   -1,107;   -0,409
884,569; 2419,592;   -2,289;   -0,045
885,128; 2610,993;   -0,743;   -1,864
885,687; 2861,393;   -0,743;    0,682
886,246; 2932,794;    2,620;    2,136
886,805; 2591,921;    1,620;    2,045
887,364; 2425,140;    1,166;   -0,500
887,922; 2435,631;   -0,016;    0,045
888,481; 2396,850;    1,530;    0,591
889,040; 2594,705;    3,711;    2,136
889,599; 2599,560;    2,166;    1,409
890,157; 2616,506;    2,166;    2,409
890,716; 2451,179;    2,166;    0,227
891,274; 2465,943;    0,075;   -1,136
891,833; 2602,707;    1,166;    0,864
892,391; 2368,381;    1,802;    0,500
892,950; 2609,781;    0,166;   -0,773
893,508; 2531,454;    0,984;   -0,409
894,067; 2306,491;   -0,379;    0,136
894,625; 2375,710;   -1,016;   -1,500
895,183; 2409,565;   -0,198;   -0,682
895,741; 2659,602;    2,257;   -1,773
896,299; 2472,366;    1,621;   -2,409
896,858; 2413,584;    1,530;   -1,591
897,416; 2504,439;    0,166;   -1,318
897,974; 2463,567;   -2,197;    0,318
898,532; 2896,786;    6,530;    2,682
899,089; 2554,368;    0,621;   -0,682
899,647; 2481,587;    0,530;    1,318
900,205; 2514,805;    0,257;    1,045
900,763; 2561,115;    2,166;    0,227
901,321; 2548,333;    3,530;   -1,409
901,878; 2308,916;    3,257;   -0,773
902,436; 2323,225;    0,257;    1,318
902,994; 3084,989;    6,712;    3,682
903,551; 2547,299;    1,439;    0,409
904,109; 2538,518;    1,530;   -1,409
904,666; 2461,100;    1,439;    1,045
905,224; 2340,773;    3,894;   -0,409
905,781; 2385,537;   -0,470;   -0,318
906,338; 2337,483;    0,167;    1,045
906,895; 2248,793;    1,894;    2,045
907,453; 2440,920;    2,348;    1,136
908,010; 2334,230;    3,348;    0,409
908,567; 2231,540;   -0,561;    0,591
909,124; 2018,031;    2,439;   -1,500
909,681; 2043,340;   -1,288;    0,682
910,238; 2212,377;   -0,106;   -1,318
910,795; 2314,869;   -1,561;   -1,136
911,352; 2239,232;   -0,379;   -2,682
911,909; 2097,505;    2,803;   -0,864
912,466; 2245,232;    1,985;    1,500
913,022; 2113,414;   -0,924;    0,500
913,579; 2307,778;   -0,470;    2,045
914,136; 2150,596;   -2,561;    0,955
914,692; 2301,051;    1,530;   -1,227
915,249; 2107,596;    0,530;    0,409
915,806; 2210,778;    1,803;    1,955
916,362; 2125,232;    0,894;    1,864
916,918; 1959,596;    2,439;    1,045
917,475; 2183,232;    1,621;    0,955
918,031; 2018,141;    0,076;   -0,045
918,587; 2015,232;    0,621;   -0,318
919,144; 2027,869;   -0,379;    0,227
919,700; 2054,687;    0,167;    0,773
920,256; 1951,414;    0,439;    0,045
920,812; 1908,141;    1,439;   -1,045
921,368; 1909,687;    1,348;   -1,045
921,924; 1822,232;    0,439;   -0,136
922,480; 1842,596;    0,076;    1,227
923,036; 1973,778;   -0,652;    1,955
923,592; 1923,869;    0,621;    0,318
924,148; 1921,505;    1,894;   -0,955
924,704; 1968,778;    0,258;   -0,409
925,259; 1943,869;   -0,561;    0,591
925,815; 1812,596;    3,803;    0,500
926,371; 1741,051;    3,530;    1,409
926,926; 1848,869;    1,621;    0,591
927,482; 1777,778;    1,621;    0,773
928,037; 1719,051;   -0,833;    2,045
928,593; 1951,596;    0,258;    1,045
929,148; 1761,141;    1,167;   -1,500
929,704; 1719,505;    2,439;   -0,500
930,259; 1634,687;    0,894;   -0,136
930,814; 1720,778;    1,803;    1,955
931,369; 1623,596;    0,258;   -0,773
931,925; 1432,596;   -1,924;    0,136
932,480; 1509,960;    3,076;   -2,591
933,035; 1886,051;    3,985;   -0,318
933,590; 1739,505;   -1,742;   -1,773
934,145; 1347,778;   -1,288;   -0,318
934,700; 1330,141;    0,348;   -0,591
935,255; 1382,141;    4,803;    0,045
935,809; 1604,141;    6,258;    0,864
936,364; 1148,232;    2,167;   -0,136
936,919; 1194,141;    2,348;   -1,773
937,474; 1124,051;    1,348;    0,136
938,028; 1129,141;    3,076;    1,136
938,583; 1465,687;    6,348;    4,682
939,138; 1161,141;    0,167;    2,136
939,692;  975,960;   -1,015;   -1,136
940,247;  966,778;    1,167;   -1,045
940,801; 1024,141;    0,621;    0,227
941,355;  941,869;    0,439;    2,591
941,910;  786,960;    0,712;   -2,136
942,464;  844,505;    2,712;   -0,318
943,018; 1094,232;    3,258;   -0,227
943,572;  911,505;    2,803;   -0,682
944,126;  907,051;   -0,924;   -0,409
944,681;  778,960;    0,712;    0,227
945,235;  721,596;    2,167;   -0,591
945,789;  668,960;    1,258;   -1,864
946,342;  998,414;   -0,561;   -0,591
946,896;  721,687;    0,348;    0,955
947,450;  677,414;   -0,561;   -0,227
948,004;  953,596;    1,076;   -0,045
948,558;  752,051;    1,258;   -0,864
949,111;  741,778;   -1,197;   -0,318
949,665;  967,687;   -0,106;   -0,682
950,219;  903,323;    0,621;   -1,045
950,772;  815,414;    0,258;    1,864
951,326;  821,778;   -1,106;   -0,955
951,879;  734,505;    1,076;   -2,318
952,433;  884,505;    1,348;    2,227
952,986;  694,323;    0,348;    0,682
953,539;  633,960;    1,530;    0,591
954,093;  590,505;    0,985;   -1,318
954,646;  751,414;   -0,288;    1,318
955,199;  653,323;    1,258;   -0,500
955,752;  856,687;    1,985;    1,773
956,305;  689,778;    0,894;    2,955
956,858;  762,505;    0,621;   -0,318
957,411;  848,414;    3,621;    2,136
957,964;  709,687;    2,076;    2,136
958,517;  627,687;    0,985;    3,136
959,070;  580,687;   -1,197;    1,955
959,623;  890,323;    1,076;    1,500
960,176;  820,869;    0,712;    2,045
960,728;  780,596;    1,712;    0,773
961,281;  734,869;    2,258;    0,500
961,834;  641,414;   -0,833;    0,864
962,386;  641,232;    1,258;    1,045
962,939;  582,687;    3,439;   -0,318
963,491;  655,232;    2,621;    1,136
964,043;  582,596;    0,076;    2,409
964,596;  781,414;    1,712;    2,227
965,148;  663,323;   -0,379;    1,773
965,700;  571,051;   -0,015;   -0,227
966,253;  759,960;   -0,833;    0,318
966,805;  698,869;    1,894;    0,773
967,357;  614,687;    0,439;   -1,500
967,909;  728,687;    1,167;   -1,227
968,461;  619,687;    0,894;    3,136
969,013;  560,141;   -1,561;   -0,864
969,565;  730,051;    1,803;   -1,136
970,117;  992,778;    3,803;    1,045
970,669;  723,323;    3,258;   -0,136
971,220;  507,687;    2,167;   -1,500
971,772;  597,505;    1,348;   -0,318
972,324;  703,778;   -1,197;   -0,500
972,876;  603,414;    0,167;   -0,045
973,427;  744,051;   -1,197;   -1,045
973,979;  810,778;    0,076;   -2,500
974,530;  594,141;    0,803;    1,318
975,082;  666,778;    2,167;    1,682
975,633;  599,596;    2,894;    1,682
976,184;  695,869;    2,076;    0,773
976,736;  665,505;    0,348;    0,227
977,287;  657,141;    0,258;   -0,500
977,838;  637,687;   -0,924;   -0,318
978,389;  655,051;    0,803;   -0,500
978,940;  490,778;    1,258;   -0,409
979,491;  495,141;    2,258;   -0,500
980,042;  593,778;   -0,652;    3,045
980,593;  599,323;    1,894;    0,227
981,144;  714,051;    3,530;   -0,500
981,695;  763,141;   -0,470;    1,500
982,246;  692,232;   -1,833;    1,045
982,797;  565,232;   -0,561;    0,682
983,347;  735,960;    2,167;    0,591
983,898;  945,505;    4,167;    0,409
984,449;  878,051;    2,530;    0,773
984,999;  698,141;    1,894;   -1,136
985,550;  638,051;    3,167;   -0,318
986,100;  500,323;    0,712;   -0,318
986,651;  493,687;    0,258;    0,045
987,201;  535,960;    0,894;   -0,591
987,751;  560,596;   -0,288;    2,864
988,302;  604,869;   -0,379;    1,500
988,852;  639,596;    1,985;   -1,136
989,402;  719,869;    0,985;    0,682
989,952;  731,051;    1,621;    0,864
990,502;  586,141;    1,076;    0,682
991,052;  485,960;   -0,106;    0,045
991,602;  513,778;    1,167;    1,318
992,152;  565,869;    2,803;    0,682
992,702;  608,505;    1,167;   -0,045
993,252;  542,414;    0,076;   -0,500
993,802;  654,778;    1,167;    1,318
994,352;  640,869;   -0,742;    1,136
994,901;  554,323;    1,076;    3,227
995,451;  535,869;   -1,197;    0,318
996,000;  574,141;    1,076;    0,318
996,550;  546,778;    2,894;    0,227
997,100;  601,596;   -0,561;   -0,045
997,649;  762,869;   -0,197;    0,955
998,198;  549,869;   -0,288;   -1,500
998,748;  681,414;    0,348;   -2,318
999,297;  599,869;    0,985;   -0,409
999,846;  743,051;    1,894;   -0,773
1000,395;  662,141;    1,530;    0,500
1000,945;  778,051;    1,076;   -0,773
1001,494;  782,051;    0,167;    0,682
1002,043;  748,505;    0,712;    0,864
1002,592;  550,505;    3,439;    1,955
1003,141;  565,232;    2,439;   -0,682
1003,690;  716,414;    1,258;    0,500
1004,238;  592,051;   -0,106;   -0,045
1004,787;  466,869;   -1,288;    1,227
1005,336;  689,141;    1,621;    0,682
1005,885;  640,687;   -0,197;   -2,773
1006,433;  643,414;   -0,470;    0,955
1006,982;  868,778;    2,167;    1,682
1007,531;  686,960;    2,712;   -0,227
1008,079;  617,051;    0,258;    0,500
1008,627;  577,414;    1,621;    0,409
1009,176;  577,323;    0,076;   -1,955
1009,724;  527,960;   -2,742;    0,864
1010,273;  699,051;    1,076;    0,500
1010,821;  585,869;    1,076;    1,409
1011,369;  519,596;    0,076;    1,318
1011,917;  542,778;   -0,833;   -0,591
1012,465;  655,869;    2,530;   -1,591
1013,013;  637,051;    0,439;   -1,682
1013,561;  746,323;   -1,288;   -0,773
1014,109;  843,596;   -0,833;    1,682
1014,657;  700,323;    1,348;    0,591
1015,205;  593,505;    0,894;   -0,955
1015,753;  533,051;    0,258;   -1,409
1016,301;  622,960;    2,621;    3,045
1016,848;  713,051;    2,167;    0,409
1017,396;  715,869;    1,621;    0,045
1017,944;  719,505;    2,621;    1,864
1018,491;  594,323;   -0,197;    1,409
1019,039;  963,414;   -0,652;    0,591
1019,586;  681,141;    0,076;    1,682
1020,134;  661,596;    0,712;    1,500
1020,681;  734,687;    2,894;   -1,136
1021,228;  639,869;   -0,561;   -2,227
1021,776;  611,960;   -0,833;   -1,136
1022,323;  871,687;    0,803;    0,773
1022,870;  772,232;   -0,470;   -0,045
1023,417;  827,596;    2,076;    1,864
1023,964;  644,596;    0,621;    1,227
1024,511;  618,778;   -0,652;    0,773
1025,058;  620,141;    0,439;   -0,045
1025,605;  585,414;   -1,742;    3,136
1026,152;  822,687;   -0,106;   -0,591
1026,699;  652,778;    0,167;    1,318
1027,245;  651,232;    2,439;    0,318
1027,792;  604,414;    0,712;    1,409
1028,339;  823,051;    4,076;   -0,045
1028,885;  666,141;    3,621;   -0,227
1029,432;  604,505;   -0,106;    0,227
1029,978;  733,596;    1,348;   -1,591
1030,525;  697,051;    1,621;    0,409
1031,071;  591,778;    0,348;    1,136
1031,618;  908,505;    1,258;    1,682
1032,164;  706,869;    2,076;    3,045
1032,710;  750,687;    0,076;   -1,500
1033,256;  710,505;    0,712;   -0,136
1033,803;  558,051;   -0,288;    1,500
1034,349;  412,505;    1,803;    0,136
1034,895;  472,051;    2,621;   -0,318
1035,441;  545,051;    0,439;    0,318
1035,987;  602,869;   -2,288;   -0,682
1036,533;  687,232;   -0,197;   -0,955
1037,078;  891,596;    4,712;    1,682
1037,624;  718,778;    2,439;   -0,955
1038,170;  587,323;    1,712;   -0,318
1038,716;  668,505;    2,167;   -0,409
1039,261;  532,414;    2,167;   -0,773
1039,807;  544,687;   -0,015;    3,409
1040,352;  596,323;   -1,288;   -0,318
1040,898;  586,778;    0,167;   -0,682
1041,443;  493,960;    0,803;   -2,591
1041,989;  807,505;    3,621;    1,591
1042,534;  582,960;    0,985;    2,591
1043,079;  485,141;    1,985;    0,955
1043,625;  586,232;    0,258;    0,500
1044,170;  606,778;    2,439;    1,045
1044,715;  837,687;    0,167;    0,955
1045,260;  701,141;   -0,833;   -0,955
1045,805;  556,323;    0,258;   -0,591
1046,350;  521,687;    0,530;   -0,409
1046,895;  707,687;    0,803;    1,591
1047,440;  692,687;    1,530;    0,409
1047,985;  541,505;   -1,197;   -0,955
1048,530;  507,141;    1,348;    1,227
1049,074;  579,687;    2,803;    0,318
1049,619;  511,960;   -0,924;    1,955
1050,164;  482,869;    1,076;    0,227
1050,708;  572,505;    2,621;    0,045
1051,253;  858,051;    3,258;   -2,227
1051,797;  636,323;   -0,197;   -1,318
1052,342;  463,869;    1,348;    1,045
1052,886;  568,687;    1,803;   -1,409
1053,430;  437,051;    2,167;    0,136
1053,975;  519,687;    0,894;   -0,318
1054,519;  536,869;    1,803;    3,227
1055,063;  609,323;    3,621;    1,318
1055,607;  584,051;    1,348;    0,227
1056,151;  581,141;    0,530;    1,682
1056,695;  482,596;   -1,833;   -1,136
1057,239;  480,687;   -1,197;   -0,682
1057,783;  532,596;    2,258;   -1,500
1058,327;  600,869;    3,076;    1,409
1058,871;  763,687;    3,985;    1,318
1059,415;  609,051;   -0,561;   -0,045
1059,958;  783,596;    2,985;    2,591
1060,502;  538,505;    1,348;   -0,773
1061,046;  414,596;    1,712;   -0,955
1061,589;  395,687;    2,803;   -1,136
1062,133;  359,232;    0,985;    1,864
1062,676;  405,505;    1,439;    0,864
1063,220;  439,051;    0,985;    0,500
1063,763;  463,323;    2,985;    1,136
1064,306;  505,232;    0,985;    1,864
1064,849;  491,414;    2,076;    0,591
1065,393;  473,232;    2,894;   -1,500
1065,936;  479,051;    2,530;   -0,409
1066,479;  387,869;    2,621;    1,318
1067,022;  415,778;    1,894;   -0,227
1067,565;  385,687;   -1,197;   -1,318
1068,108;  356,778;    1,258;   -0,591
1068,651;  331,141;   -2,470;    1,409
1069,194;  326,232;   -1,106;   -1,682
1069,736;  356,141;    3,803;    0,955
1070,279;  322,141;   -1,652;   -0,500
1070,822;  423,232;    1,530;   -0,318
1071,364;  554,687;    0,530;    1,318
1071,907;  399,051;    0,348;    3,227
1072,450;  248,687;    0,258;   -0,045
1072,992;  325,141;   -0,561;    3,136
1073,535;  417,141;    0,167;    2,136
1074,077;  312,778;    2,985;    2,045
1074,619;  312,505;    0,985;    0,591
1075,161;  342,596;   -0,561;    1,500
1075,704;  478,051;    0,258;    1,227
1076,246;  318,687;    1,530;    0,682
1076,788;  257,778;   -1,015;    1,773
1077,330;  269,960;   -2,106;    2,136
1077,872;  311,232;   -1,924;    0,955
1078,414;  495,869;    3,712;    0,773
1078,956;  333,323;    0,167;   -0,227
1079,498;  490,323;    0,439;    0,318
1080,040;  328,323;    0,985;   -1,318
1080,581;  282,596;    0,621;   -0,318
1081,123;  225,141;   -0,106;   -0,773
1081,665;  239,778;    3,803;   -0,955
1082,206;  446,778;    3,258;   -0,500
1082,748;  359,596;    3,258;    2,045
1083,289;  261,323;    0,167;    1,318
1083,831;  252,232;    0,258;    0,227
1084,372;  291,869;    0,894;    0,591
1084,913;  288,778;    3,348;    0,864
1085,455;  242,596;    1,530;   -2,045
1085,996;  238,687;    0,530;    0,136
1086,537;  276,505;    0,985;    0,864
1087,078;  282,414;    0,439;   -2,136
1087,619;  326,505;   -1,652;    0,227
1088,160;  285,596;    1,439;    1,318
1088,701;  266,141;   -0,742;    0,682
1089,242;  245,687;   -0,561;   -2,227
1089,783;  306,232;   -0,561;    1,409
1090,324;  281,960;   -0,833;    0,682
1090,865;  218,505;   -1,924;   -0,409
1091,405;  192,232;   -0,561;    2,227
1091,946;  238,505;   -0,197;   -0,955
1092,487;  178,687;   -1,288;   -1,409
1093,027;  303,505;    1,803;   -1,500
1093,568;  223,869;    2,258;    1,227
1094,108;  268,505;    0,621;    1,773
1094,649;  226,960;   -0,470;    0,136
1095,189;  200,596;    1,167;   -0,682
1095,729;  190,505;    0,712;    0,955
1096,269;  182,778;    1,258;   -0,955
1096,810;  361,051;   -0,197;    0,500
1097,350;  283,505;   -0,561;   -0,773
1097,890;  221,869;    2,985;    1,227
1098,430;  396,687;    4,985;    2,864
1098,970;  328,232;    1,894;    1,682
1099,510;  212,505;   -0,833;   -2,318
1100,050;  188,687;    0,258;   -1,591
1100,589;  196,687;    0,076;   -0,318
1101,129;  249,960;    0,894;   -0,955
1101,669;  346,323;    2,803;    2,136
1102,209;  255,778;    1,530;    2,227
1102,748;  219,778;    3,439;    0,955
1103,288;  224,505;    0,712;   -1,227
1103,827;  217,051;    3,530;   -2,227
1104,367;  168,051;    1,712;   -2,409
1104,906;  162,141;   -1,015;   -1,136
1105,445;  216,596;    0,985;   -1,136
1105,985;  187,141;   -0,652;    1,500
1106,524;  201,687;    1,530;   -0,682
1107,063;  189,051;    1,167;    1,409
1107,602;  165,687;    1,894;   -1,500
1108,141;  137,596;    1,621;    1,500
1108,680;  208,960;    3,985;   -0,591
1109,219;  180,869;    0,167;   -0,500
1109,758;  171,232;    4,167;    0,682
1110,297;  165,141;   -1,106;   -0,682
1110,836;  135,051;    1,439;    0,955
1111,375;  182,141;    0,348;    0,409
1111,913;  212,505;    0,985;    0,773
1112,452;  189,051;    0,894;    0,136
1112,991;  121,960;    1,076;    1,955
1113,529;  122,596;    0,167;   -0,045
1114,068;  159,323;    0,439;    2,955
1114,606;  115,414;   -0,561;   -0,955
1115,144;  202,596;    1,530;    1,045
1115,683;  162,869;    1,985;    0,318
1116,221;  194,869;    2,076;   -0,864
1116,759;  136,596;    1,621;   -0,864
1117,297;  232,596;    1,621;    1,864
1117,836;  143,323;    1,985;   -1,227
1118,374;  146,323;    0,258;   -0,682
1118,912;  146,051;    0,439;    2,682
1119,450;  144,232;    0,985;    0,864
1119,988;  148,051;    3,348;    2,136
1120,525;  441,869;    7,258;    3,318
1121,063;  245,232;    0,530;    1,864
1121,601;  134,232;    1,076;   -1,227
1122,139;  117,596;    1,076;   -2,045
1122,676;  232,051;   -1,652;    2,773
1123,214;  200,687;    0,712;    4,409
1123,751;  110,414;    0,621;    2,227
1124,289;  160,414;    0,894;   -0,409
1124,826;  113,869;   -0,379;    0,227
1125,364;   69,414;    0,712;   -0,955
1125,901;  188,323;    6,258;    1,227
1126,438;  204,414;    3,530;    0,955
1126,975;   73,687;    2,985;   -0,773
1127,513;  105,414;    2,621;    2,136
1128,050;   78,687;   -0,561;   -0,682
1128,587;  122,869;    1,348;   -0,227
1129,124;  147,051;   -0,015;    1,318
1129,661;   86,141;   -1,924;    0,227
1130,198;  171,232;    2,439;    0,773
1130,734;  128,869;   -0,379;    1,409
1131,271;   71,141;   -1,197;    0,864
1131,808;  152,596;    1,621;    3,045
1132,345;   96,505;    4,530;    0,318
1132,881;   39,414;   -0,561;   -1,864
1133,418;  104,505;    0,348;   -1,136
1133,954;   76,778;    0,712;   -2,682
1134,491;  108,778;    1,712;   -0,773
1135,027;   70,778;    2,167;    0,864
1135,564;  109,778;    1,439;    2,955
1136,100;   99,232;   -0,742;    2,136
1136,636;   59,051;   -1,015;   -1,045
1137,172;   88,596;    0,894;   -1,045
1137,708;   65,869;   -1,561;   -1,045
1138,245;   61,960;    0,803;   -1,227
1138,781;   53,323;    1,803;   -3,318
1139,317;   71,505;    1,894;   -1,409
1139,852;   80,141;    3,076;    0,136
1140,388;  111,596;    2,076;   -0,409
1140,924;   66,687;    1,076;   -2,227
1141,460;   45,869;   -0,288;    0,136
1141,996;   27,323;   -0,652;    2,682
1142,531;   37,960;    1,076;    3,318
1143,067;  129,051;    1,167;    1,045
1143,602;  162,141;    3,439;   -0,318
1144,138;   91,141;    0,803;    1,045
1144,673;   42,960;    1,621;    1,409
1145,209;   60,960;    2,894;   -0,318
1145,744;   32,414;    0,803;    0,864
1146,279;   82,687;    1,530;   -0,136
1146,815;   55,869;    1,530;   -2,682
1147,350;   73,141;   -0,924;    0,045
1147,885;   40,232;   -1,924;   -1,318
1148,420;   40,778;    2,439;    0,773
1148,955;   37,051;   -1,470;    1,864
1149,490;   42,596;   -1,106;   -1,591
1150,025;   32,051;   -1,106;   -1,773
1150,560;   76,778;   -0,288;   -0,955
1151,094;   68,141;    0,258;   -0,591
1151,629;   65,414;   -3,742;    0,864
1152,164;   41,869;   -1,288;    1,318
1152,698;   32,687;    1,258;   -0,136
1153,233;   16,414;   -1,379;   -0,682
1153,767;   33,505;   -0,288;   -2,318
1154,302;   48,323;   -0,379;    1,773
1154,836;   41,232;    0,803;   -2,136
1155,371;   60,596;    2,258;    3,682
1155,905;   43,687;    1,985;    1,682
1156,439;   40,232;    0,530;   -0,500
1156,973;   50,687;    0,439;    0,318
1157,507;   25,869;   -1,742;    0,682
1158,042;   37,141;   -0,652;    1,045
1158,576;   49,505;   -0,561;    1,773
1159,110;   48,596;    0,076;    2,409
1159,643;   38,051;   -2,470;   -0,045
1160,177;   24,414;   -2,015;    1,500

