
Integration time [ms]:   0,050
Averaging Nr. [scans]: 11
Smoothing Nr. [pixels]: 0
Data measured with spectrometer [name]: 7318044SP
Wave   ;Sample   ;Dark     ;Reference
[nm]   ;[counts] ;[counts] ;[counts] 

186,757;  -14,779;   38,161;    1,318
187,357;    4,509;   26,706;    0,955
187,958;   -8,197;   17,252;   -1,591
188,558;   26,101;   12,979;   -1,227
189,159;    3,187;   10,070;   -4,500
189,759;  -20,862;    5,797;   -3,591
190,360;  -27,508;    6,797;   -2,136
190,960;   14,853;    5,706;   -4,136
191,560;   13,950;    2,614;   -6,591
192,161;  221,178;    5,885;   -3,500
192,761;   81,360;    5,520;   -3,227
193,361;   33,580;    3,065;   -3,773
193,962;   72,450;    1,612;   -2,682
194,562;   11,667;   -0,114;   -3,955
195,162;   20,108;   -0,567;   -2,227
195,762;  138,163;    2,433;   -0,045
196,362;   86,151;    1,706;   -2,500
196,963;    1,155;    1,706;   -0,864
197,563;   43,843;    1,252;   -0,955
198,163;   -6,079;   -0,111;   -0,682
198,763;    8,169;   -0,020;   -0,500
199,363;   64,722;    3,616;   -0,500
199,963;   35,085;    2,162;    0,409
200,563;   15,850;    6,344;   -1,409
201,163;    3,567;    5,435;   -0,227
201,763;   36,587;    1,435;    0,318
202,363;   11,135;    0,980;    1,500
202,963;   50,977;    1,526;    1,045
203,563;  108,129;    0,344;    0,500
204,162;   32,277;    1,889;   -1,864
204,762;   20,342;    2,071;    0,591
205,362;    4,429;    0,708;    1,955
205,962;   35,553;    3,435;    1,955
206,562;   29,245;    1,889;    2,318
207,161;   11,191;    1,708;    0,318
207,761;   95,735;    4,435;    2,409
208,361;   24,396;    1,889;    1,409
208,960;   50,517;    2,889;    1,500
209,560;   56,930;    0,435;    1,591
210,160;   75,186;    5,071;    1,864
210,759;   49,806;    0,708;    1,227
211,359;   32,598;   -0,474;    1,045
211,958;  174,047;    3,526;    2,045
212,558;  181,143;    0,799;    1,864
213,157;  100,964;   -0,929;    1,500
213,757;  310,228;    5,617;   -0,227
214,356;  155,582;    1,708;   -0,409
214,956;  298,680;    3,526;    0,409
215,555;  125,390;    0,617;    2,136
216,154;   87,153;   -0,292;   -0,591
216,754;   89,033;    1,253;    0,773
217,353;  123,155;   -0,383;   -1,045
217,952;   43,835;    2,072;    0,318
218,552;  157,304;    0,254;   -0,773
219,151;   98,419;   -1,110;    0,955
219,750;   89,395;    0,890;   -0,227
220,349;   74,249;   -2,292;    1,045
220,948;  176,175;    1,163;    1,136
221,548;  110,492;    0,617;    1,227
222,147;  147,001;   -1,292;   -0,409
222,746;  294,951;    1,254;   -0,955
223,345;  192,568;   -1,019;    0,500
223,944;  191,353;    1,163;    0,773
224,543;  205,896;    4,072;   -1,409
225,142;  224,998;    1,345;    0,136
225,741;  204,418;    1,163;    1,045
226,340;  182,342;    1,254;   -0,955
226,939;  312,064;    2,708;   -0,136
227,538;  173,774;    1,163;   -0,773
228,137;  303,460;    0,435;    0,864
228,735;  251,083;    0,435;    1,227
229,334;  123,872;   -0,474;   -0,227
229,933;  320,698;    0,799;    0,591
230,532;  322,073;   -1,201;   -0,409
231,131;  379,085;    1,253;    0,318
231,729;  260,991;    1,163;   -2,318
232,328;  183,549;    0,435;   -1,500
232,927;  197,511;    4,526;   -0,500
233,525;  172,779;    0,981;    0,045
234,124;  205,674;    1,890;   -1,591
234,723;  144,788;    1,617;   -1,045
235,321;  136,708;    1,163;    0,136
235,920;  168,823;    2,526;   -1,227
236,518;  298,106;    1,072;    0,318
237,117;  163,925;    2,890;   -0,227
237,715;  178,397;    1,163;   -0,500
238,314;  215,752;    1,708;   -2,318
238,912;  338,242;    0,526;   -1,409
239,510;  235,458;    1,162;   -1,227
240,109;  350,250;   -0,474;    3,773
240,707;  313,286;   -0,474;    1,227
241,305;  193,148;   -0,383;    0,136
241,904;  303,693;   -0,292;   -2,045
242,502;  421,009;    3,253;   -0,227
243,100;  342,187;    3,344;   -0,955
243,698;  296,567;    2,799;    1,682
244,297;  355,068;   -0,656;    0,682
244,895;  386,043;   -0,474;   -2,318
245,493;  627,150;    2,981;   -0,591
246,091;  649,513;    5,163;   -1,318
246,689;  613,226;    2,163;    0,591
247,287;  603,813;   -0,019;   -1,136
247,885;  630,370;   -1,019;    1,227
248,483;  624,218;   -0,201;   -0,500
249,081;  776,514;    0,981;    1,591
249,679;  894,674;   -1,019;    1,682
250,277;  806,179;   -2,292;    0,864
250,875; 1002,110;    0,617;   -1,045
251,473;  931,884;   -0,019;    0,500
252,071; 1079,218;   -0,383;    1,045
252,669; 1073,626;   -1,565;    0,318
253,267; 1098,291;    1,618;    0,773
253,864; 1126,540;    0,617;    0,682
254,462; 1352,509;    1,526;    1,591
255,060; 1169,438;    0,072;    1,318
255,658; 1223,535;   -3,292;   -0,136
256,255; 1466,435;   -0,201;   -2,045
256,853; 1496,279;    2,345;    1,409
257,451; 1503,394;    1,981;    1,864
258,048; 2082,869;    2,072;    1,864
258,646; 1666,858;    0,436;   -1,045
259,243; 1836,551;    2,981;    2,227
259,841; 1797,514;    1,799;    0,318
260,438; 1690,712;    0,254;    0,864
261,036; 1980,209;    0,617;    1,409
261,633; 1995,291;    1,526;    2,227
262,231; 1936,164;   -0,110;   -0,045
262,828; 2034,200;   -0,383;    1,136
263,425; 2099,386;   -1,928;   -0,591
264,023; 2224,256;    1,436;    0,045
264,620; 2215,739;    1,526;   -0,318
265,217; 2427,368;    2,890;    3,136
265,815; 2360,212;    2,527;    2,136
266,412; 2450,760;    0,072;    0,136
267,009; 2480,471;    0,526;    0,773
267,606; 2616,676;    0,345;   -0,955
268,203; 2466,028;   -0,383;   -0,591
268,801; 2634,192;   -0,474;    0,591
269,398; 2723,175;   -0,564;    2,500
269,995; 2813,018;    0,890;    1,591
270,592; 2680,635;    0,799;   -0,500
271,189; 2771,482;    1,981;    0,409
271,786; 2885,253;    2,072;    1,227
272,383; 2971,510;   -0,383;    0,227
272,980; 2910,919;    1,617;    0,318
273,577; 3085,464;    2,162;    1,227
274,174; 2807,283;    1,435;    2,591
274,771; 2813,535;    1,890;   -0,773
275,367; 3196,541;    3,253;    1,409
275,964; 3076,963;   -0,565;   -0,500
276,561; 3022,942;   -2,474;   -1,045
277,158; 3046,310;    1,799;   -1,773
277,755; 3232,695;   -0,110;    0,409
278,351; 2809,480;    0,436;   -1,500
278,948; 3004,828;   -0,201;    0,045
279,545; 2920,147;    0,527;    2,318
280,141; 3444,428;    1,254;   -2,045
280,738; 3215,416;    2,435;   -0,136
281,334; 3148,811;   -0,383;    0,591
281,931; 2896,790;    2,890;   -1,318
282,528; 3052,027;    4,072;   -0,500
283,124; 3453,600;    3,345;   -0,500
283,721; 3376,461;    0,709;    1,409
284,317; 3243,965;    0,163;    2,500
284,913; 3641,636;   -0,110;    0,591
285,510; 3960,363;    2,890;   -0,318
286,106; 3905,689;    2,345;   -0,955
286,703; 3461,296;    0,072;    1,955
287,299; 3646,242;    1,254;   -0,591
287,895; 3862,319;    0,890;   -1,045
288,491; 4261,720;    0,163;    2,136
289,088; 4224,995;    0,163;    2,409
289,684; 4325,626;    2,890;    1,500
290,280; 4467,477;    1,890;    0,682
290,876; 4599,690;    0,163;    5,500
291,472; 4649,345;    2,163;    2,227
292,068; 4845,354;    1,254;    0,227
292,665; 4704,787;   -0,564;    0,773
293,261; 4673,783;   -1,292;    2,136
293,857; 5028,812;    4,072;    2,136
294,453; 5110,411;   -0,928;    0,955
295,049; 5213,155;    0,253;    1,955
295,644; 5366,245;   -1,292;    0,136
296,240; 5461,513;    0,162;   -0,136
296,836; 5681,110;   -0,747;    0,318
297,432; 6047,253;    2,980;   -0,500
298,028; 6242,687;    0,435;    0,773
298,624; 6635,698;    0,889;    1,864
299,220; 6938,990;    0,435;    0,591
299,815; 6758,867;    0,526;   -0,409
300,411; 6780,700;    0,435;    1,773
301,007; 6927,917;    1,889;    0,227
301,602; 7005,649;    2,071;   -2,318
302,198; 7256,593;    1,435;   -0,773
302,794; 7643,548;    1,526;   -0,500
303,389; 7816,500;    1,071;    1,045
303,985; 7917,780;    1,253;    1,409
304,580; 7973,261;    0,889;    1,591
305,176; 7987,483;    0,344;    0,136
305,771; 7961,555;   -0,929;   -1,227
306,367; 7969,074;    3,071;    0,136
306,962; 8254,376;    2,889;    1,500
307,558; 8001,851;    2,435;    0,136
308,153; 7943,952;   -0,383;   -1,136
308,748; 8111,650;    0,162;    1,682
309,344; 8142,836;    0,253;   -1,318
309,939; 8238,471;    2,071;   -1,318
310,534; 8386,290;   -2,020;   -1,682
311,130; 8245,552;   -0,656;   -2,500
311,725; 7961,757;    0,526;   -0,500
312,320; 8188,097;    1,253;    0,045
312,915; 8052,213;    2,890;   -1,045
313,510; 8070,806;    0,526;   -0,500
314,105; 8391,065;   -3,565;    1,409
314,700; 7799,815;   -1,656;   -1,045
315,295; 7485,534;   -0,020;    0,045
315,890; 7028,166;   -0,292;    0,864
316,485; 7209,149;    0,253;   -0,318
317,080; 7243,859;   -0,929;    1,591
317,675; 7566,293;    3,071;   -0,682
318,270; 7090,573;    6,889;    3,318
318,865; 7052,559;    2,435;    3,045
319,460; 6784,705;   -1,565;    0,591
320,055; 6900,669;   -2,565;   -1,227
320,650; 6577,108;   -1,838;   -0,591
321,244; 6553,194;    0,889;   -1,409
321,839; 7273,948;    0,980;   -0,227
322,434; 7124,460;   -0,111;   -1,591
323,029; 6839,952;   -0,474;    1,591
323,623; 6753,286;    0,798;    0,773
324,218; 6579,034;    2,707;    1,409
324,812; 6510,472;    0,889;    1,591
325,407; 6424,068;   -0,929;    2,045
326,002; 6398,334;    0,526;   -0,409
326,596; 6705,954;   -0,656;    1,318
327,191; 6880,536;   -0,383;   -1,045
327,785; 6600,499;   -0,747;   -0,227
328,379; 6905,117;   -0,383;    0,136
328,974; 6737,970;    1,798;   -3,955
329,568; 7083,430;    2,889;   -2,409
330,163; 7068,015;    2,435;    1,045
330,757; 7451,975;    0,253;    1,591
331,351; 7012,035;   -0,292;    0,682
331,945; 7362,534;   -0,383;    1,409
332,540; 7211,140;    1,617;   -0,591
333,134; 7428,513;    3,344;    0,773
333,728; 7697,287;    2,799;    0,318
334,322; 8135,032;    0,889;   -0,864
334,916; 7655,271;    0,344;    0,955
335,510; 8118,769;   -0,111;   -0,136
336,105; 8460,536;   -0,929;    1,591
336,699; 8288,819;   -1,292;    0,591
337,293; 8383,935;    1,071;    0,318
337,887; 8616,132;    0,071;    1,955
338,481; 8891,070;    2,980;    0,591
339,074; 9205,257;    2,071;    2,682
339,668; 9172,423;   -0,110;    1,227
340,262; 9606,835;    7,708;    3,227
340,856; 9262,651;    1,708;   -0,682
341,450; 8773,016;    0,708;    1,864
342,044; 9717,662;    1,799;    0,136
342,637; 9650,796;    1,162;   -2,136
343,231; 9681,192;   -1,474;    0,682
343,825; 9710,351;   -0,747;   -0,591
344,419; 9844,619;   -0,474;    0,500
345,012; 9754,981;    2,889;    4,045
345,606; 9880,406;   -0,656;    1,591
346,199; 9825,439;   -0,111;   -0,227
346,793; 9463,332;    2,525;    2,045
347,386; 9792,059;    0,889;   -1,136
347,980; 9825,652;   -0,838;   -0,045
348,573; 9745,844;   -1,748;    0,409
349,167; 9488,553;    6,161;    4,773
349,760; 9918,344;    2,252;    2,682
350,354; 9954,984;    1,616;    1,136
350,947; 9717,772;    2,798;    1,682
351,540; 9448,687;    0,616;   -1,409
352,134; 9433,742;   -1,111;    1,136
352,727; 9504,308;   -0,657;    1,136
353,320; 9369,849;    2,343;    0,591
353,913; 9271,332;   -1,929;    1,864
354,507; 9447,131;    0,434;   -1,227
355,100; 9472,136;    0,071;    0,864
355,693; 8667,156;    4,798;    2,409
356,286; 8765,183;    0,980;    2,773
356,879; 9138,736;   -0,475;    1,227
357,472; 8705,723;    0,980;    1,500
358,065; 8924,278;    3,161;    2,500
358,658; 8835,267;    0,798;    2,318
359,251; 8461,477;    0,252;   -0,591
359,844; 7964,963;    0,343;   -1,136
360,437; 8098,312;    0,252;    0,045
361,030; 8368,442;    0,525;   -0,682
361,623; 7942,821;    0,434;    0,318
362,215; 7933,816;    0,979;    2,045
362,808; 7806,447;   -2,293;   -1,682
363,401; 7974,127;    0,798;    0,136
363,994; 7727,782;    3,252;   -1,500
364,586; 7612,314;    0,888;   -1,500
365,179; 7773,912;   -0,203;   -1,136
365,772; 7255,116;   -0,930;    2,045
366,364; 7534,180;    1,524;   -3,227
366,957; 7725,254;    1,342;   -0,045
367,549; 7682,482;   -0,203;   -0,864
368,142; 7351,581;    0,978;   -1,500
368,734; 7516,088;    2,523;   -2,136
369,327; 7480,091;    2,341;   -0,500
369,919; 7356,223;   -1,659;    0,409
370,512; 7139,849;   -1,023;   -0,500
371,104; 6854,320;    2,704;    1,591
371,696; 7015,724;    1,703;   -0,955
372,289; 7100,521;    0,157;    1,136
372,881; 7228,063;    1,156;    1,318
373,473; 7118,287;    4,064;    1,136
374,066; 6917,451;    1,336;    0,500
374,658; 6771,031;    0,879;    1,136
375,250; 7111,221;   -1,668;   -1,409
375,842; 6948,726;   -0,124;   -0,045
376,434; 6773,481;   -2,762;   -0,409
377,026; 7330,611;   -1,855;   -2,500
377,618; 7219,114;    0,779;   -0,682
378,210; 7067,575;    3,141;   -1,955
378,802; 6861,918;    3,412;   -0,591
379,394; 6838,910;    3,411;    0,682
379,986; 7389,392;    1,138;   -0,955
380,578; 7473,050;    1,410;    0,773
381,170; 6820,827;    0,320;    0,045
381,762; 6775,478;   -0,224;    1,409
382,354; 6971,154;   -0,223;   -1,318
382,945; 7045,453;    0,870;    0,318
383,537; 7225,911;    1,144;   -1,955
384,129; 7216,031;    0,963;   -1,136
384,721; 7369,442;    0,418;    0,955
385,312; 7317,849;   -1,399;   -0,955
385,904; 7373,751;   -0,945;    1,591
386,496; 6751,723;    0,691;    1,045
387,087; 6905,584;    0,418;    2,500
387,679; 6935,535;   -0,401;    0,045
388,270; 7067,663;   -2,401;    2,045
388,862; 7173,562;   -0,401;   -0,318
389,453; 7030,420;    1,054;    1,045
390,045; 7312,294;    3,236;   -2,682
390,636; 7255,330;    0,144;   -0,591
391,227; 7117,540;    2,054;   -0,045
391,819; 7217,781;    0,781;    0,773
392,410; 7283,724;    0,600;    0,045
393,001; 7189,858;    1,600;   -1,591
393,593; 7447,652;    0,600;   -0,045
394,184; 7301,159;    0,873;   -0,409
394,775; 7195,027;    1,146;    2,136
395,366; 7460,117;    1,782;    0,773
395,957; 7421,696;   -2,400;    0,136
396,548; 7712,338;    1,054;    2,682
397,139; 7989,497;    2,236;    0,591
397,730; 7704,871;    0,873;    0,955
398,321; 7760,940;    0,509;    0,955
398,912; 7755,997;   -0,764;    0,136
399,503; 7883,095;   -1,945;   -1,409
400,094; 7350,175;   -1,582;    1,682
400,685; 7210,736;    3,600;    0,045
401,276; 7248,168;   -0,400;   -0,955
401,867; 7524,892;   -1,127;    0,773
402,458; 7608,832;    1,509;   -2,318
403,048; 7593,174;    0,146;    0,591
403,639; 7179,915;    1,509;    0,864
404,230; 7431,510;    0,691;    0,318
404,821; 7383,731;   -0,127;    0,045
405,411; 7462,931;   -0,763;   -2,591
406,002; 6994,055;    3,237;   -1,136
406,592; 6845,138;    2,691;    0,045
407,183; 7128,641;    0,328;   -1,500
407,774; 6952,694;    1,419;   -0,136
408,364; 7262,441;    2,600;    0,409
408,954; 6859,471;   -0,036;    1,227
409,545; 6839,519;    1,873;    1,045
410,135; 6324,372;   -1,581;    0,500
410,726; 6462,753;    0,783;    0,318
411,316; 6766,207;    2,237;    0,773
411,906; 6416,463;    0,146;   -0,409
412,497; 5911,791;   -0,490;   -0,045
413,087; 6412,435;    0,783;   -0,227
413,677; 6660,970;   -2,490;    3,864
414,267; 6426,151;   -1,035;    1,409
414,857; 6352,600;    0,419;    4,227
415,448; 6498,814;   -0,763;    0,500
416,038; 6163,465;   -2,945;   -0,591
416,628; 6045,018;    0,965;    0,409
417,218; 5564,637;   -1,762;    3,318
417,808; 5721,904;    0,965;   -0,409
418,398; 5984,953;   -1,035;    2,682
418,988; 5878,353;   -2,217;    0,591
419,578; 5941,657;    3,601;    1,409
420,168; 6139,583;    0,692;   -0,955
420,757; 5702,303;    0,964;   -1,500
421,347; 5299,665;    1,601;   -0,227
421,937; 5349,203;    3,329;    1,409
422,527; 5233,115;    2,602;   -0,773
423,116; 4987,156;    2,692;   -0,045
423,706; 5151,124;    2,965;    0,318
424,296; 4965,368;    1,601;    0,682
424,885; 5264,550;    1,510;   -3,045
425,475; 5362,126;    1,147;   -2,864
426,065; 5147,042;   -1,489;   -0,318
426,654; 4813,604;    0,329;   -0,318
427,244; 4890,309;    1,147;    1,409
427,833; 4364,210;    1,056;   -0,500
428,423; 4504,140;    0,147;    1,136
429,012; 4942,251;    2,420;   -1,136
429,601; 4507,030;    2,057;    0,136
430,191; 4548,877;    2,511;    4,318
430,780; 4102,315;   -1,671;   -0,409
431,369; 4094,771;    1,329;   -0,045
431,959; 4376,059;    1,693;    0,500
432,548; 4074,682;   -1,398;   -0,045
433,137; 3999,398;    0,329;   -1,318
433,726; 4289,725;    0,148;    0,500
434,315; 3843,636;    0,148;    2,409
434,905; 3831,603;    0,693;    1,409
435,494; 3778,445;    3,148;    0,955
436,083; 3810,670;    1,420;   -0,955
436,672; 3573,386;    1,148;    0,500
437,261; 3326,936;    0,512;   -1,955
437,850; 3459,396;   -1,125;    0,682
438,439; 3334,704;    2,239;    1,955
439,027; 3218,636;    3,421;    1,773
439,616; 3260,410;    2,239;    1,227
440,205; 2916,741;    0,057;   -2,136
440,794; 2698,299;   -0,306;   -0,045
441,383; 2641,619;    1,603;   -0,591
441,971; 2414,108;   -0,306;    0,591
442,560; 2273,575;    0,603;   -1,773
443,149; 2038,798;    3,060;   -1,318
443,737; 2076,962;    0,968;   -2,318
444,326; 2034,617;    0,331;    0,318
444,915; 1961,218;   -1,851;    0,864
445,503; 1966,516;    0,058;   -0,318
446,092; 2045,084;    7,876;    2,136
446,680; 2018,570;    1,876;    0,318
447,269; 1894,208;   -1,487;   -0,318
447,857; 1675,765;    2,240;   -1,773
448,445; 1596,627;    2,149;    1,318
449,034; 1547,122;    0,876;   -1,136
449,622; 1446,591;    1,240;    3,500
450,210; 1743,020;    3,149;    2,227
450,799; 1631,301;    2,604;   -0,591
451,387; 1390,268;    1,786;   -0,591
451,975; 1297,475;   -1,305;    0,864
452,563; 1410,821;    0,422;    2,318
453,151; 1062,324;   -1,032;   -1,227
453,739; 1080,871;   -1,577;    0,136
454,328; 1235,742;    0,604;   -2,136
454,916; 1034,550;    1,150;   -0,136
455,504;  996,190;    3,513;    1,227
456,092;  836,404;    2,150;   -1,591
456,679;  705,048;    0,604;    0,682
457,267; 1350,242;    3,604;    1,045
457,855;  815,013;    3,241;    1,409
458,443;  524,718;   -0,304;    1,682
459,031;  827,868;    1,332;    2,409
459,619;  751,376;   -3,577;    2,864
460,206;  566,539;   -0,759;    2,045
460,794;  556,773;   -0,668;   -0,227
461,382;  618,689;    0,878;   -0,864
461,970;  547,528;    0,605;    1,864
462,557;  443,534;    0,878;   -0,682
463,145;  646,343;   -0,304;   -1,682
463,732;  960,525;    2,514;   -1,045
464,320;  600,719;    1,514;   -3,045
464,907;  798,738;    0,423;   -0,773
465,495;  649,294;    2,696;   -1,227
466,082;  496,984;    2,060;   -0,045
466,670;  497,314;    2,605;    1,227
467,257;  350,910;    0,060;    2,045
467,844;  505,800;    1,514;    0,045
468,432;  456,801;   -0,031;    3,500
469,019;  369,891;    1,606;   -1,773
469,606;  460,174;    0,969;    3,682
470,193;  496,196;    2,151;    0,227
470,780;  424,295;    0,333;    0,864
471,368;  310,131;   -1,212;   -0,773
471,955;  429,185;    1,060;   -0,682
472,542;  363,498;   -0,303;   -1,136
473,129;  172,053;   -0,485;    0,136
473,716;  170,373;    0,060;    0,591
474,303;  212,765;    1,333;   -0,864
474,890;  218,195;    2,333;   -0,500
475,477;  328,072;   -0,576;    0,409
476,064;  182,757;    0,697;   -1,591
476,650;  308,569;    2,152;    0,318
477,237;  199,660;    1,879;    0,955
477,824;  150,144;    3,879;    0,864
478,411;   39,724;    0,606;   -0,318
478,997;   31,414;    0,606;   -0,773
479,584;  -41,104;   -0,666;   -0,409
480,171;  166,544;    1,243;   -0,773
480,757;  228,235;   -0,848;    0,773
481,344;   95,628;    0,334;    0,409
481,931;  -23,074;   -0,393;    1,045
482,517;  117,079;    0,425;    0,318
483,104;  204,861;    1,334;    2,864
483,690;   55,086;    0,243;    0,045
484,276;   26,070;    0,698;    0,227
484,863;  250,794;    2,152;    1,136
485,449;   77,234;    0,152;    0,318
486,035;   27,235;   -0,666;   -0,136
486,622;  131,028;   -2,393;    0,045
487,208;   33,283;    1,334;    1,500
487,794;  -50,140;    0,971;    0,318
488,380;  -47,208;    0,698;   -1,409
488,967;  -44,745;   -1,120;   -0,409
489,553;  -13,301;   -1,029;   -1,409
490,139;   54,056;    0,971;    0,773
490,725;  -25,963;    0,789;   -0,227
491,311;   24,385;    1,516;    3,045
491,897;    1,882;   -0,665;    1,500
492,483;   15,849;    0,426;    1,227
493,069;  484,813;    5,426;    0,864
493,655;  173,936;    1,789;    0,682
494,241;   36,285;    1,517;   -0,955
494,826;   67,322;    0,335;   -1,045
495,412;  142,629;    0,335;   -0,682
495,998;   41,990;    0,971;   -0,318
496,584;  109,113;    2,244;    1,045
497,169;  142,507;    2,335;   -0,682
497,755;   84,347;    1,244;    1,227
498,341;  257,129;    2,153;    0,318
498,926;  427,049;    2,881;    1,955
499,512;  122,661;   -0,028;    2,955
500,097;  154,178;   -0,574;   -0,318
500,683;  216,098;   -0,028;    2,136
501,268;  168,162;    1,881;   -0,955
501,854;  237,206;   -0,119;    1,227
502,439;  253,149;   -0,573;   -1,773
503,024;  400,285;    1,608;    0,500
503,610;  503,550;    1,335;   -0,682
504,195;  442,287;    1,245;    1,955
504,780;  683,037;    2,335;    1,227
505,366;  934,133;    4,063;    2,864
505,951;  909,379;   -1,119;    1,045
506,536;  944,056;    1,427;   -3,682
507,121; 1136,011;    1,699;   -0,318
507,706; 1353,145;   -0,392;    1,045
508,291; 1549,666;   -2,937;    1,136
508,876; 1701,755;   -0,482;    2,591
509,461; 1926,729;    1,427;   -0,773
510,046; 2404,980;   -0,391;    0,318
510,631; 2776,466;   -0,119;   -0,773
511,216; 3006,630;   -0,664;   -0,500
511,801; 3683,972;   -0,755;    2,591
512,386; 4161,726;    0,972;    0,500
512,971; 4605,851;    0,427;    0,955
513,555; 4887,819;    1,154;   -1,500
514,140; 5875,681;    1,336;   -3,136
514,725; 6365,555;    1,791;   -1,136
515,309; 6934,197;    1,064;    0,318
515,894; 7123,057;   -0,300;   -2,227
516,479; 7962,835;    1,973;   -0,955
517,063; 8281,707;    0,882;    1,227
517,648; 8943,764;    0,155;   -1,136
518,232; 9031,950;   -1,300;   -1,409
518,817; 9839,943;    1,337;    1,682
519,401;10491,823;    0,700;    0,591
519,985;10428,800;    2,700;    1,136
520,570;10734,091;   -0,118;   -1,955
521,154;11432,618;    0,064;    0,591
521,738;11965,834;    1,064;    2,409
522,323;12836,988;   -0,390;    1,682
522,907;12909,848;    2,428;   -0,136
523,491;12939,890;    1,155;    0,955
524,075;13198,247;    0,428;    0,591
524,659;13503,041;    0,973;    0,591
525,243;13179,496;    0,883;    0,409
525,827;13663,954;    0,883;   -0,045
526,411;14719,768;    1,155;   -0,136
526,995;15177,420;    0,337;    1,409
527,579;14890,764;    1,974;   -1,045
528,163;15371,481;    0,428;   -1,500
528,747;15445,592;    1,065;   -0,773
529,331;15879,920;    0,883;   -1,409
529,915;16233,999;    2,338;    0,955
530,499;16304,782;    0,247;    1,227
531,082;16050,099;    1,065;    1,591
531,666;15544,522;    0,520;    0,773
532,250;16391,767;    0,428;    2,682
532,833;16831,052;    0,610;    2,773
533,417;16781,297;    1,247;    0,864
534,001;16766,330;    0,429;   -0,318
534,584;17563,208;    1,974;    0,500
535,168;17459,635;    3,247;    1,409
535,751;17574,571;    4,520;    0,045
536,334;17004,063;    4,520;   -0,409
536,918;17705,328;    1,974;    1,591
537,501;17857,072;    1,520;    1,318
538,085;17855,626;    1,702;    1,045
538,668;18089,801;    0,883;    2,409
539,251;18483,795;    3,156;    3,773
539,834;18507,829;    0,156;    0,773
540,418;18441,625;    3,247;    4,318
541,001;18655,295;    2,702;    1,773
541,584;18687,109;    1,429;    2,227
542,167;18378,172;    0,702;    2,955
542,750;18591,698;    0,793;   -0,773
543,333;18143,041;    1,429;    2,136
543,916;18977,127;   -0,298;    2,500
544,499;19658,143;    2,520;    0,227
545,082;19685,969;    0,248;    3,591
545,665;19896,163;   -0,207;    1,500
546,248;20303,768;    0,520;   -0,318
546,830;19933,299;   -1,752;    1,955
547,413;20396,408;    0,157;   -0,773
547,996;20968,376;    0,157;    0,500
548,579;20726,492;   -0,843;    0,955
549,161;20571,499;    0,884;    2,682
549,744;20375,797;    0,612;    0,409
550,326;20924,825;    0,885;   -1,136
550,909;20591,898;    2,339;    0,591
551,492;21069,740;    0,521;    0,227
552,074;20839,138;   -0,024;   -1,318
552,657;21431,844;    2,430;    0,045
553,239;21238,461;   -3,024;   -0,773
553,821;21152,722;   -1,570;    1,045
554,404;20605,613;   -0,024;    1,136
554,986;21021,602;    2,248;    1,045
555,568;21624,127;    0,430;   -0,955
556,151;20737,393;    4,067;   -0,227
556,733;21004,531;   -1,388;   -0,864
557,315;21555,713;    4,703;    0,500
557,897;21320,348;    0,521;   -0,500
558,479;21490,230;    1,703;    1,318
559,061;21621,838;    1,067;   -0,864
559,643;21987,604;   -0,297;    0,045
560,225;22421,408;   -0,388;    2,864
560,807;22459,967;    0,340;    0,318
561,389;21965,290;   -1,206;    2,318
561,971;22748,466;   -0,660;    2,136
562,553;22543,341;    0,613;    1,591
563,135;22627,334;    1,249;    1,136
563,717;22262,648;    3,158;    1,136
564,298;23020,462;    3,976;   -0,045
564,880;22737,492;    0,340;   -1,409
565,462;22955,947;    1,977;    1,318
566,043;24261,604;   -0,933;    2,318
566,625;23785,135;    4,067;    1,227
567,207;23681,027;    0,704;    1,682
567,788;24914,734;   -0,114;    1,500
568,370;25864,418;   -1,841;   -0,500
568,951;25734,617;   -0,569;    0,227
569,533;26741,981;    0,977;   -0,500
570,114;27317,312;   -0,296;    0,682
570,695;27889,502;   -0,478;   -1,318
571,277;28541,764;   -0,205;   -1,682
571,858;29385,293;    2,704;   -1,136
572,439;30467,892;    0,795;   -1,045
573,021;30701,134;    0,432;   -2,773
573,602;31319,404;    1,795;    0,318
574,183;32348,554;   -0,114;    2,227
574,764;32642,840;    2,068;    0,409
575,345;33246,450;    0,250;   -0,136
575,926;33965,641;    2,704;    0,136
576,507;34004,481;    2,704;   -0,227
577,088;35188,809;    1,704;    1,682
577,669;35266,771;    1,704;    1,955
578,250;36060,008;   -0,750;   -1,045
578,831;36879,002;   -0,841;   -2,227
579,412;37198,583;   -1,205;    0,955
579,993;38250,954;    1,432;    0,227
580,573;38641,458;   -0,023;   -0,955
581,154;37557,730;    1,613;   -0,591
581,735;38418,359;    0,341;    0,773
582,315;37975,086;    0,523;    2,136
582,896;38302,840;   -1,750;    1,227
583,477;37692,999;    0,614;    1,227
584,057;37828,374;    1,159;    0,955
584,638;38099,681;   -2,750;    2,318
585,218;38199,618;    2,886;    2,682
585,799;38306,721;    1,977;   -0,227
586,379;38238,991;    1,250;    1,591
586,959;36874,896;    2,613;    0,318
587,540;36074,308;    0,432;    2,227
588,120;35508,468;   -1,113;   -0,045
588,700;34281,177;    2,977;    2,136
589,281;34592,388;    1,250;   -0,955
589,861;34506,145;   -0,296;   -1,682
590,441;34256,780;   -1,477;   -2,682
591,021;33161,940;    1,432;   -2,591
591,601;33374,654;    0,431;    0,500
592,181;33312,178;   -1,296;   -0,773
592,761;32541,458;    2,250;    1,409
593,341;32412,574;    1,522;    0,045
593,921;32373,865;   -0,569;    1,591
594,501;32232,659;    1,250;    1,318
595,081;32022,872;    0,522;   -0,318
595,661;32400,084;    1,068;    0,955
596,240;32974,144;   -1,023;    0,136
596,820;32543,272;    2,613;    1,955
597,400;32840,531;    1,977;    0,773
597,980;33132,247;   -0,750;    1,045
598,559;33104,034;    0,341;   -0,227
599,139;32728,755;   -0,750;   -1,227
599,718;32631,392;    0,795;   -0,409
600,298;32871,705;   -2,387;    0,682
600,877;33137,380;    4,795;    1,409
601,457;33430,873;    0,340;    1,136
602,036;33238,640;    1,795;    2,045
602,616;33534,233;    2,250;    1,682
603,195;33907,222;    0,431;    3,500
603,774;33440,909;   -0,296;    2,045
604,354;33340,175;    2,522;   -0,500
604,933;32785,430;    0,250;    1,864
605,512;32824,455;    2,340;    0,591
606,091;32865,724;    1,886;    3,773
606,671;33736,761;    0,249;    0,773
607,250;32736,426;    1,431;    3,136
607,829;33019,463;    1,158;    3,227
608,408;32845,842;    4,613;    2,591
608,987;31815,038;    2,704;    3,409
609,566;32081,734;    0,341;   -2,500
610,145;32148,424;    2,885;    0,682
610,723;32599,788;    1,613;    6,864
611,302;31814,365;    1,067;    1,682
611,881;31212,751;    5,158;   11,227
612,460;32111,850;    0,795;    3,955
613,039;32610,692;    1,703;    2,045
613,617;31227,009;    0,886;    4,773
614,196;31402,339;    1,613;    1,227
614,775;31750,537;    1,249;    2,409
615,353;31716,164;   -1,660;    0,864
615,932;31400,172;    0,249;    2,409
616,510;31979,705;    0,158;    0,591
617,089;31448,270;    8,794;   17,591
617,667;31143,277;    4,885;    6,136
618,246;30883,505;   -1,115;    1,318
618,824;31065,800;    1,612;   -0,955
619,402;30672,177;    0,431;   -1,773
619,981;31171,356;    1,067;   -1,045
620,559;30977,012;    0,794;    1,682
621,137;30498,153;    3,067;    1,864
621,715;30463,608;    3,703;   -0,682
622,293;30326,467;    1,885;   -0,773
622,871;30806,713;    0,340;    0,500
623,450;30410,022;    0,430;   -0,864
624,028;30238,578;   -0,388;   -0,955
624,606;29808,275;    2,339;    1,682
625,183;30209,314;   -0,661;   -1,136
625,761;29771,209;    1,885;    1,136
626,339;30072,402;    2,339;    2,591
626,917;30488,365;    0,339;   -0,045
627,495;30551,079;    2,794;    1,318
628,073;29972,719;    5,248;    2,864
628,650;29596,207;    3,067;    2,136
629,228;30063,273;    1,248;    4,409
629,806;29386,781;   -0,024;    1,136
630,383;29679,140;    0,066;   -0,318
630,961;29428,998;   -2,206;   -0,955
631,539;29129,804;   -2,479;    0,227
632,116;28332,907;   12,703;   15,409
632,694;28981,260;    4,885;    6,500
633,271;29357,749;    1,975;    2,682
633,848;29234,221;    1,430;    2,045
634,426;29285,754;    1,521;    1,773
635,003;28307,662;   -0,207;   -0,409
635,580;28671,060;    1,884;    3,682
636,158;29255,786;    3,793;    1,227
636,735;29223,966;    3,339;   -0,500
637,312;29342,530;    0,521;   -0,682
637,889;29427,648;    2,248;   -0,682
638,466;28893,066;    0,066;   -0,409
639,043;28898,416;    1,702;   -1,136
639,620;29228,458;    0,611;   -0,955
640,197;29516,701;    1,612;    1,682
640,774;29674,782;    1,430;    1,136
641,351;30155,590;    0,612;    1,136
641,928;29526,943;    2,794;    1,409
642,505;29149,751;    0,794;   -0,500
643,082;29231,559;    1,885;    1,227
643,658;28200,458;    1,157;    1,500
644,235;28946,811;   -2,479;    2,500
644,812;29280,801;    1,794;    0,773
645,388;29048,973;    1,612;    1,409
645,965;29135,781;    1,521;    1,682
646,542;29145,407;    3,430;   -0,227
647,118;29118,578;    3,703;   -0,955
647,695;29517,296;    0,339;    1,136
648,271;29404,649;   -2,115;    0,500
648,848;29721,639;    0,248;    2,227
649,424;29530,992;    0,976;    1,318
650,000;29270,437;   -0,388;   -1,045
650,577;29083,335;    0,158;   -0,955
651,153;29606,234;   -1,115;    0,955
651,729;30595,860;    0,521;    0,864
652,305;30878,487;    1,339;    2,773
652,881;36127,840;   -1,297;    1,136
653,458;44333,103;    0,249;    0,227
654,034;49025,638;    0,703;    1,591
654,610;50881,809;    0,339;    0,773
655,186;52365,527;    1,612;    3,045
655,762;52129,244;   -1,842;    0,409
656,338;52157,961;    0,703;    0,136
656,913;53279,223;   -0,297;    0,409
657,489;52511,849;    0,249;   -0,318
658,065;52415,930;    0,794;   -1,591
658,641;53019,556;    2,158;   -0,864
659,217;52307,001;    2,067;    0,409
659,792;51695,718;   -1,751;   -0,409
660,368;51902,617;   -0,388;   -0,682
660,944;51398,424;    1,794;    1,227
661,519;46094,323;    0,522;    0,409
662,095;38820,404;   -0,206;    0,591
662,670;33278,212;   -0,206;   -0,136
663,246;31735,656;   -0,660;   -0,409
663,821;30916,010;    0,431;    1,682
664,396;30433,818;    0,613;    1,864
664,972;30638,444;   -0,660;   -0,500
665,547;31037,888;    3,794;    0,136
666,122;31005,151;    1,340;    0,318
666,698;31331,959;    2,431;    0,318
667,273;30594,767;    0,885;    0,136
667,848;31431,120;    0,340;    1,500
668,423;31181,110;    1,795;    2,318
668,998;31819,373;    0,976;   -0,682
669,573;32441,817;    2,067;   -1,500
670,148;32262,534;    1,885;   -0,682
670,723;32067,615;   -0,024;    0,318
671,298;32501,150;   -1,296;    1,045
671,873;32626,867;   -0,296;   -0,136
672,448;32600,493;    1,704;    0,136
673,023;32921,301;    0,249;   -0,227
673,597;33232,200;    2,704;    2,318
674,172;32901,735;    2,431;    0,318
674,747;32467,634;   -0,205;   -1,045
675,321;32386,169;   -0,933;    3,318
675,896;31887,250;    2,158;    1,045
676,471;32933,785;    2,522;    1,591
677,045;32699,048;   -0,296;    0,682
677,620;32767,219;    2,158;    1,136
678,194;33115,482;    0,249;    1,136
678,769;32624,472;    0,886;   -0,318
679,343;32826,916;   -0,023;    1,773
679,917;32747,815;    0,340;    1,955
680,492;32835,168;    0,249;    3,227
681,066;32980,795;    0,613;    0,409
681,640;33021,966;    1,795;   -0,318
682,214;33912,138;    2,340;    0,500
682,788;33371,855;    0,613;   -0,773
683,363;33280,845;    1,977;    1,682
683,937;32945,380;    0,886;   -0,318
684,511;33829,006;   -1,023;   -0,591
685,085;33540,541;   -1,478;    0,318
685,659;33319,077;    1,431;    0,864
686,232;33508,794;    1,159;   -0,318
686,806;33259,056;    2,159;    0,409
687,380;33928,410;   -1,932;    0,591
687,954;34166,490;    2,432;    1,136
688,528;33829,662;    2,613;    1,955
689,101;34636,015;    0,432;    1,045
689,675;34215,823;    0,886;   -0,136
690,249;33534,813;    3,432;    0,409
690,822;33848,439;    1,159;    0,318
691,396;33908,065;    2,068;    1,227
691,969;33336,146;    2,523;    0,136
692,543;33796,409;   -0,568;   -1,955
693,116;33483,217;   -0,659;   -1,409
693,690;33274,388;   -0,296;    0,500
694,263;33799,287;    2,341;    2,955
694,836;33937,277;    2,795;    3,591
695,410;32504,812;    1,159;    1,773
695,983;32981,620;    1,614;    0,591
696,556;32910,428;   -0,750;   -1,045
697,129;33319,145;   -1,114;    1,409
697,703;32937,680;    1,341;    1,955
698,276;32936,488;    1,705;   -0,773
698,849;32733,024;   -1,023;    1,409
699,422;33086,377;    1,250;    0,591
699,995;32764,367;   -0,659;    0,136
700,568;33262,993;   -0,204;    3,045
701,140;33263,256;   -1,841;    1,682
701,713;32987,700;    0,341;    2,409
702,286;32746,053;    0,796;    0,864
702,859;32656,589;    0,614;   -0,591
703,432;31724,942;   -0,841;    0,682
704,004;32268,750;    1,978;    0,318
704,577;32153,649;    1,068;    0,136
705,150;32690,366;    0,887;    2,500
705,722;32482,810;    1,523;   -3,227
706,295;32250,437;    1,432;   -0,591
706,867;32070,517;    0,250;    1,955
707,440;32302,689;   -0,113;   -0,409
708,012;32622,497;   -0,022;    0,591
708,584;32472,941;    2,705;    0,227
709,157;32832,749;    1,160;   -0,591
709,729;32466,375;    1,069;    2,045
710,301;33339,365;   -1,204;    0,045
710,874;33358,173;    0,341;   -0,227
711,446;32192,526;   -0,295;    0,864
712,018;32058,607;   -3,022;    0,500
712,590;31764,506;   -0,204;    1,682
713,162;32334,405;   -0,477;    1,318
713,734;32572,577;    1,796;   -2,045
714,306;32489,566;    0,342;   -0,409
714,878;31108,283;   -0,295;    0,864
715,450;31921,637;   -0,113;    0,864
716,022;32186,263;    2,433;    1,318
716,593;32356,616;    0,978;    0,591
717,165;32292,697;    1,796;   -1,227
717,737;31932,232;    0,796;    0,409
718,309;31611,586;    1,160;   -0,045
718,880;31589,030;   -1,295;   -1,409
719,452;31840,020;    0,887;   -1,591
720,024;31320,737;    1,705;   -0,591
720,595;31855,272;    2,978;    0,955
721,167;31378,626;    1,160;   -2,045
721,738;30895,979;    2,069;   -1,045
722,309;30804,242;    1,251;   -1,227
722,881;30567,050;    2,705;    0,773
723,452;31273,858;    1,251;    2,864
724,023;31446,666;    1,524;    2,682
724,595;31218,837;    2,342;    0,682
725,166;30959,191;    1,524;   -0,409
725,737;30595,999;    1,887;    0,227
726,308;30689,443;    0,797;    0,318
726,879;31104,705;    1,069;    1,227
727,450;30996,968;   -2,022;   -0,045
728,021;30999,776;    1,069;    0,682
728,592;30823,220;    1,160;    0,500
729,163;31110,392;    1,433;   -0,136
729,734;31015,109;    2,160;   -0,227
730,305;31441,735;    0,615;    0,136
730,876;31825,180;    0,888;    2,955
731,447;31523,533;    0,797;    2,682
732,017;31679,250;   -0,840;    1,864
732,588;31157,694;   -0,021;    1,227
733,159;31285,321;    3,615;   -1,045
733,729;31129,674;    1,251;    0,409
734,300;30395,391;    0,160;    0,864
734,870;30907,835;   -1,385;    0,591
735,441;31443,643;    0,888;   -0,591
736,011;31182,724;    1,070;   -1,591
736,582;31082,259;    1,251;    0,045
737,152;30560,885;    0,979;   -2,045
737,722;31020,057;    1,070;   -0,682
738,293;30748,501;   -2,021;    1,318
738,863;30582,946;    1,797;    2,318
739,433;30354,936;    4,524;    0,318
740,003;31001,653;    1,524;   -0,682
740,573;30379,461;    2,252;   -1,591
741,143;30352,269;    3,615;    0,318
741,713;31104,349;    0,252;   -0,500
742,283;30761,975;    1,706;    1,591
742,853;30444,420;    0,524;    1,591
743,423;29948,500;    0,161;    0,045
743,993;30111,945;    1,070;    1,500
744,563;29383,480;    2,524;   -0,864
745,133;29309,561;   -0,112;   -0,864
745,702;30073,005;    2,797;    1,773
746,272;29191,177;    0,434;    0,591
746,842;28973,712;   -0,748;   -0,591
747,411;29451,520;   -0,839;   -0,318
747,981;29624,601;   -0,930;    0,500
748,551;29732,045;   -0,021;   -1,045
749,120;29561,035;   -0,112;   -0,227
749,690;29949,934;    2,161;    2,409
750,259;30268,378;    0,979;    2,955
750,828;30148,368;    4,070;   -1,955
751,398;30358,812;   -0,112;   -0,045
751,967;29836,893;    2,888;    0,409
752,536;30071,519;    1,161;   -0,227
753,105;30513,509;   -1,384;    0,227
753,675;30310,135;   -0,112;    1,773
754,244;30288,488;    0,888;    3,591
754,813;30326,478;    0,979;    1,227
755,382;29971,650;    0,798;    0,955
755,951;30589,458;   -0,112;    3,682
756,520;30016,629;    2,525;    1,864
757,089;30600,437;    1,888;    0,500
757,658;30715,791;    2,434;    1,227
758,227;30756,872;   -1,111;    0,318
758,795;31147,589;   -1,021;    1,136
759,364;31400,397;    0,525;   -0,591
759,933;30315,750;    1,343;   -0,045
760,501;29859,194;    0,252;   -1,318
761,070;30320,093;   -0,293;   -1,409
761,639;31037,992;    1,434;    1,318
762,207;30326,709;    0,889;   -0,955
762,776;30287,335;    2,889;    0,864
763,344;30175,325;    0,071;    0,591
763,913;29269,769;    1,616;    1,409
764,481;30030,759;    1,980;   -0,136
765,049;29818,295;    0,616;    1,409
765,618;29669,102;    1,434;    0,318
766,186;29737,092;    2,434;    0,136
766,754;29944,446;    1,798;    1,864
767,322;28856,345;    1,162;    0,409
767,890;28883,698;    0,525;   -1,773
768,459;29311,961;    2,616;   -0,318
769,027;29484,950;    2,525;    3,409
769,595;28463,577;    2,616;    2,591
770,163;28845,384;    3,344;    2,955
770,730;28530,011;    2,525;   -0,136
771,298;28433,819;    1,162;   -1,409
771,866;28479,627;    0,253;    4,955
772,434;28796,253;    1,162;   -1,864
773,002;28950,243;    2,616;    0,682
773,569;28575,960;    1,071;    1,682
774,137;28413,586;    0,889;   -0,045
774,705;29280,485;   -0,747;   -0,136
775,272;28677,202;    0,253;    0,682
775,840;28425,464;   -0,111;    2,682
776,407;27883,818;   -0,293;    1,955
776,975;27502,262;    1,162;    0,318
777,542;28531,343;    2,162;   -0,045
778,110;28371,423;    0,707;   -0,045
778,677;28036,868;    1,071;   -0,864
779,244;27749,403;   -1,020;    1,045
779,812;27890,575;    0,980;    0,864
780,379;27685,564;    2,435;    1,136
780,946;28010,645;    2,617;   -0,773
781,513;28317,908;   -0,565;    0,318
782,080;27615,079;    1,253;    2,864
782,647;28400,342;    1,708;    3,045
783,214;27935,150;   -0,201;    3,864
783,781;27489,776;    1,708;   -0,682
784,348;27413,129;    0,253;    1,500
784,915;27888,574;   -1,474;    0,318
785,482;27661,473;    2,708;    2,591
786,049;28128,644;    1,071;   -0,591
786,615;28212,361;    1,708;   -0,955
787,182;27973,624;   -3,201;   -0,682
787,749;27668,795;   -2,201;    1,409
788,315;26916,876;    0,253;   -0,409
788,882;27188,684;    0,981;   -1,227
789,448;27854,583;    1,435;   -0,955
790,015;27913,118;    1,799;    3,227
790,581;27467,381;    0,708;    0,227
791,148;27354,552;    1,344;    1,045
791,714;27607,724;   -1,019;    3,136
792,280;27291,714;    3,708;    1,591
792,847;26774,522;   -0,928;    2,500
793,413;27414,602;   -0,110;   -0,318
793,979;26859,410;    1,526;   -1,318
794,545;26958,855;    2,981;    2,682
795,111;26302,935;    2,435;    1,318
795,678;26514,653;    3,526;   -1,682
796,244;26120,642;    2,799;    0,136
796,810;26729,359;    0,799;    0,773
797,375;26473,349;   -0,292;   -2,136
797,941;26470,248;   -1,110;    0,591
798,507;26604,965;    0,254;   -0,955
799,073;26121,137;    2,708;    0,591
799,639;26206,945;    1,435;    3,136
800,205;26230,207;   -1,565;    2,682
800,770;25682,197;    1,345;    1,773
801,336;25741,369;    2,981;   -0,955
801,901;25396,995;    6,072;    3,136
802,467;25989,257;    0,526;    2,045
803,033;25297,520;   -0,019;    0,864
803,598;25525,601;    1,072;   -1,045
804,163;25563,318;    0,708;   -0,318
804,729;25457,307;   -0,110;    1,136
805,294;25908,025;    1,072;    2,227
805,859;25719,651;    0,890;   -0,409
806,425;25154,822;    3,890;    2,682
806,990;24791,176;    1,890;    4,318
807,555;25330,256;   -0,110;    2,591
808,120;25222,883;   -1,292;   -0,409
808,685;25271,509;    1,072;   -2,500
809,250;24730,044;    2,072;   -0,500
809,815;25071,943;   -0,201;    0,682
810,380;25619,024;    0,981;    1,591
810,945;26151,650;    2,890;    2,045
811,510;25333,821;   -0,200;    1,591
812,075;25021,629;    2,800;   -1,409
812,640;25061,165;    3,709;    1,409
813,204;25078,518;    2,163;   -0,227
813,769;25531,599;    0,254;   -0,045
814,334;24920,861;    0,527;    0,864
814,898;24974,215;    1,981;    0,591
815,463;24808,750;    0,981;   -0,773
816,027;24753,012;    1,345;   -2,318
816,592;24808,366;    2,163;   -2,045
817,156;24308,083;   -2,200;    1,136
817,721;24155,345;    0,982;    2,318
818,285;24131,063;    0,618;    1,500
818,849;24795,416;   -0,018;    1,682
819,414;24679,315;    0,073;    2,955
819,978;24190,850;   -0,291;    1,773
820,542;24802,294;    2,891;    0,500
821,106;24565,284;    2,800;    0,682
821,670;24631,092;    2,709;    2,591
822,234;24339,900;    1,073;    1,409
822,798;23653,163;   -0,836;    0,500
823,362;23601,062;    1,527;    4,227
823,926;22845,870;   -0,018;    1,136
824,490;23117,678;    3,527;   -0,682
825,054;23605,667;    2,527;   -1,136
825,618;23174,021;   -1,200;   -1,500
826,181;23124,556;    0,982;   -1,318
826,745;22980,819;   -0,745;   -1,045
827,309;23393,445;    2,255;    1,318
827,872;22732,435;    0,527;    0,955
828,436;23778,061;    1,982;   -0,773
828,999;23850,323;    2,436;    1,227
829,563;22631,404;   -0,654;    1,136
830,126;22439,485;   -0,018;   -0,591
830,690;22418,565;    0,709;    2,864
831,253;21903,555;   -0,473;    2,227
831,816;22003,818;   -0,018;    0,500
832,380;21937,989;    1,164;    0,864
832,943;22147,706;    3,073;   -0,500
833,506;21712,060;    0,255;   -1,227
834,069;22520,595;    2,164;   -0,955
834,632;22540,312;   -2,200;    1,318
835,195;22393,575;    1,346;    0,955
835,758;21534,564;    0,709;    1,955
836,321;21386,645;    1,073;   -1,045
836,884;21465,726;   -1,291;   -0,955
837,447;21514,261;    0,528;    1,773
838,010;21783,251;    1,800;    3,227
838,573;22102,422;    0,528;    0,773
839,135;22051,776;   -0,109;   -0,955
839,698;21463,675;    2,528;    0,409
840,261;20940,392;    0,255;   -0,227
840,823;20784,018;   -0,927;    0,864
841,386;21091,735;   -0,018;   -2,409
841,948;20907,998;    0,255;    1,773
842,511;20627,987;    0,255;    1,682
843,073;20823,886;    2,982;    0,227
843,636;20628,058;    0,619;   -0,227
844,198;20519,411;    1,255;    0,591
844,760;20695,583;    0,619;    1,955
845,322;20288,936;    0,164;    1,136
845,885;20750,926;   -0,290;    0,591
846,447;21160,007;    0,710;    0,227
847,009;20695,360;    3,983;   -0,682
847,571;21056,532;    1,346;   -2,045
848,133;21146,158;   -0,199;   -1,864
848,695;20986,148;    2,346;    1,409
849,257;20526,047;    1,346;   -1,682
849,819;20699,855;    2,983;   -0,409
850,381;20749,481;    1,801;   -0,864
850,942;21103,107;    1,892;   -0,591
851,504;21022,188;    0,983;    0,227
852,066;21087,905;    1,619;   -1,591
852,628;20639,258;    0,165;    1,955
853,189;20148,157;    0,256;    2,682
853,751;20303,783;   -0,654;    1,409
854,312;20085,319;    1,256;   -1,682
854,874;20644,036;   -0,108;   -0,773
855,435;21135,844;    0,528;   -1,682
855,997;21272,106;    3,983;   -0,136
856,558;20540,641;    0,801;    1,773
857,119;20667,358;   -0,744;    2,864
857,681;20316,076;   -0,108;    0,318
858,242;20333,429;    1,347;   -2,136
858,803;20851,873;    1,074;   -0,773
859,364;21401,318;    0,892;   -4,773
859,925;20672,398;   -0,290;   -0,955
860,486;20620,752;    0,529;   -0,955
861,047;20303,923;    0,165;   -1,227
861,608;20104,277;    0,165;   -0,773
862,169;20272,903;   -0,562;   -0,045
862,730;20033,620;   -0,290;    1,409
863,291;20261,973;    0,438;   -0,500
863,852;20613,054;   -0,926;    1,955
864,412;20070,498;   -1,835;   -0,864
864,973;18535,943;    1,892;    0,500
865,534;18381,842;    2,074;    0,227
866,094;19973,922;    2,620;    0,227
866,655;19588,458;    4,711;    3,318
867,215;19870,902;    0,074;    0,136
867,776;19776,619;   -1,199;   -0,136
868,336;19881,427;    1,529;    0,136
868,897;19221,962;    3,438;    1,682
869,457;19008,679;    3,256;    0,318
870,017;19269,669;    2,438;   -1,227
870,578;19773,659;    1,893;    0,773
871,138;19412,558;    2,620;   -0,955
871,698;18940,457;   -0,562;   -1,318
872,258;18793,901;    0,711;   -2,864
872,818;19176,800;    2,347;    0,045
873,378;19128,608;   -2,198;    1,045
873,938;18677,507;    4,984;    0,500
874,498;19048,860;    1,256;   -1,955
875,058;18936,668;    4,347;    1,773
875,618;18777,113;    1,438;   -2,682
876,177;18704,284;   -0,471;    0,136
876,737;18234,910;   -0,289;    1,955
877,297;18223,082;    2,711;    1,955
877,856;18217,163;    2,529;    0,318
878,416;18169,516;    2,438;   -0,136
878,976;18426,506;    3,438;    0,409
879,535;18610,768;    4,529;    3,136
880,095;18311,213;    1,347;    0,045
880,654;18454,112;    0,347;    1,318
881,213;18524,465;    2,347;    1,500
881,773;18207,546;    1,984;    2,682
882,332;18542,445;    6,075;    5,136
882,891;18419,616;    0,711;    2,136
883,451;18870,697;   -2,016;    1,682
884,010;18315,141;   -1,107;   -0,409
884,569;18400,040;   -2,289;   -0,045
885,128;18534,575;   -0,743;   -1,864
885,687;18644,838;   -0,743;    0,682
886,246;18272,737;    2,620;    2,136
886,805;18035,454;    1,620;    2,045
887,364;18357,080;    1,166;   -0,500
887,922;18689,252;   -0,016;    0,045
888,481;18216,151;    1,530;    0,591
889,040;18499,595;    3,711;    2,136
889,599;19194,676;    2,166;    1,409
890,157;19294,211;    2,166;    2,409
890,716;18966,655;    2,166;    0,227
891,274;18756,554;    0,075;   -1,136
891,833;19195,998;    1,166;    0,864
892,391;19023,534;    1,802;    0,500
892,950;19153,433;    0,166;   -0,773
893,508;19498,422;    0,984;   -0,409
894,067;18823,503;   -0,379;    0,136
894,625;18734,402;   -1,016;   -1,500
895,183;18903,028;   -0,198;   -0,682
895,741;18870,109;    2,257;   -1,773
896,299;18740,735;    1,621;   -2,409
896,858;18905,998;    1,530;   -1,591
897,416;18990,624;    0,166;   -1,318
897,974;18697,159;   -2,197;    0,318
898,532;18819,240;    6,530;    2,682
899,089;18757,684;    0,621;   -0,682
899,647;18820,947;    0,530;    1,318
900,205;18552,664;    0,257;    1,045
900,763;18792,290;    2,166;    0,227
901,321;18779,643;    3,530;   -1,409
901,878;18172,088;    3,257;   -0,773
902,436;18019,259;    0,257;    1,318
902,994;18382,431;    6,712;    3,682
903,551;17820,148;    1,439;    0,409
904,109;18233,410;    1,530;   -1,409
904,666;17808,582;    1,439;    1,045
905,224;17595,844;    3,894;   -0,409
905,781;17311,016;   -0,470;   -0,318
906,338;17459,370;    0,167;    1,045
906,895;17332,814;    1,894;    2,045
907,453;17263,531;    2,348;    1,136
908,010;17264,430;    3,348;    0,409
908,567;16861,692;   -0,561;    0,591
909,124;16394,773;    2,439;   -1,500
909,681;16465,399;   -1,288;    0,682
910,238;16587,389;   -0,106;   -1,318
910,795;16953,379;   -1,561;   -1,136
911,352;16547,742;   -0,379;   -2,682
911,909;15921,197;    2,803;   -0,864
912,466;16385,379;    1,985;    1,500
913,022;15914,470;   -0,924;    0,500
913,579;16302,652;   -0,470;    2,045
914,136;15949,470;   -2,561;    0,955
914,692;16333,742;    1,530;   -1,227
915,249;15869,652;    0,530;    0,409
915,806;16081,015;    1,803;    1,955
916,362;15769,470;    0,894;    1,864
916,918;15335,015;    2,439;    1,045
917,475;15320,106;    1,621;    0,955
918,031;15468,742;    0,076;   -0,045
918,587;14909,833;    0,621;   -0,318
919,144;15084,924;   -0,379;    0,227
919,700;15421,833;    0,167;    0,773
920,256;14949,652;    0,439;    0,045
920,812;14563,742;    1,439;   -1,045
921,368;14536,652;    1,348;   -1,045
921,924;14206,470;    0,439;   -0,136
922,480;13708,379;    0,076;    1,227
923,036;14330,561;   -0,652;    1,955
923,592;14259,652;    0,621;    0,318
924,148;14183,197;    1,894;   -0,955
924,704;13481,561;    0,258;   -0,409
925,259;13744,015;   -0,561;    0,591
925,815;13469,379;    3,803;    0,500
926,371;13022,106;    3,530;    1,409
926,926;12883,015;    1,621;    0,591
927,482;12488,833;    1,621;    0,773
928,037;12351,288;   -0,833;    2,045
928,593;12638,288;    0,258;    1,045
929,148;12435,379;    1,167;   -1,500
929,704;11933,106;    2,439;   -0,500
930,259;12123,470;    0,894;   -0,136
930,814;11127,470;    1,803;    1,955
931,369;10814,197;    0,258;   -0,773
931,925;10686,652;   -1,924;    0,136
932,480;10538,106;    3,076;   -2,591
933,035;10410,197;    3,985;   -0,318
933,590;10151,197;   -1,742;   -1,773
934,145; 9803,924;   -1,288;   -0,318
934,700;10165,106;    0,348;   -0,591
935,255; 9943,742;    4,803;    0,045
935,809; 9129,106;    6,258;    0,864
936,364; 8231,106;    2,167;   -0,136
936,919; 8175,833;    2,348;   -1,773
937,474; 8061,470;    1,348;    0,136
938,028; 7806,288;    3,076;    1,136
938,583; 7160,470;    6,348;    4,682
939,138; 7509,561;    0,167;    2,136
939,692; 6964,288;   -1,015;   -1,136
940,247; 6563,652;    1,167;   -1,045
940,801; 6066,924;    0,621;    0,227
941,355; 5983,197;    0,439;    2,591
941,910; 5634,288;    0,712;   -2,136
942,464; 5726,470;    2,712;   -0,318
943,018; 5468,742;    3,258;   -0,227
943,572; 5423,288;    2,803;   -0,682
944,126; 4780,288;   -0,924;   -0,409
944,681; 4651,288;    0,712;    0,227
945,235; 4652,833;    2,167;   -0,591
945,789; 4574,379;    1,258;   -1,864
946,342; 4625,197;   -0,561;   -0,591
946,896; 4451,288;    0,348;    0,955
947,450; 4226,288;   -0,561;   -0,227
948,004; 4384,561;    1,076;   -0,045
948,558; 4421,197;    1,258;   -0,864
949,111; 4315,924;   -1,197;   -0,318
949,665; 4335,561;   -0,106;   -0,682
950,219; 4211,652;    0,621;   -1,045
950,772; 4295,561;    0,258;    1,864
951,326; 4204,106;   -1,106;   -0,955
951,879; 4337,561;    1,076;   -2,318
952,433; 4339,106;    1,348;    2,227
952,986; 4172,561;    0,348;    0,682
953,539; 4121,015;    1,530;    0,591
954,093; 4053,106;    0,985;   -1,318
954,646; 4188,288;   -0,288;    1,318
955,199; 3983,742;    1,258;   -0,500
955,752; 3830,197;    1,985;    1,773
956,305; 3796,379;    0,894;    2,955
956,858; 3985,652;    0,621;   -0,318
957,411; 4181,561;    3,621;    2,136
957,964; 3960,470;    2,076;    2,136
958,517; 3970,288;    0,985;    3,136
959,070; 3817,470;   -1,197;    1,955
959,623; 3850,015;    1,076;    1,500
960,176; 3610,288;    0,712;    2,045
960,728; 3588,924;    1,712;    0,773
961,281; 3655,742;    2,258;    0,500
961,834; 3689,561;   -0,833;    0,864
962,386; 3627,379;    1,258;    1,045
962,939; 3533,288;    3,439;   -0,318
963,491; 3681,015;    2,621;    1,136
964,043; 3531,197;    0,076;    2,409
964,596; 3663,924;    1,712;    2,227
965,148; 3479,106;   -0,379;    1,773
965,700; 3426,652;   -0,015;   -0,227
966,253; 3591,924;   -0,833;    0,318
966,805; 3400,742;    1,894;    0,773
967,357; 3462,652;    0,439;   -1,500
967,909; 3392,015;    1,167;   -1,227
968,461; 3548,379;    0,894;    3,136
969,013; 3443,197;   -1,561;   -0,864
969,565; 3519,833;    1,803;   -1,136
970,117; 3558,288;    3,803;    1,045
970,669; 3418,379;    3,258;   -0,136
971,220; 3295,561;    2,167;   -1,500
971,772; 3212,924;    1,348;   -0,318
972,324; 3322,197;   -1,197;   -0,500
972,876; 3262,470;    0,167;   -0,045
973,427; 3376,833;   -1,197;   -1,045
973,979; 3365,924;    0,076;   -2,500
974,530; 3414,742;    0,803;    1,318
975,082; 3438,561;    2,167;    1,682
975,633; 3315,106;    2,894;    1,682
976,184; 3490,924;    2,076;    0,773
976,736; 3241,652;    0,348;    0,227
977,287; 3003,833;    0,258;   -0,500
977,838; 3215,015;   -0,924;   -0,318
978,389; 3264,197;    0,803;   -0,500
978,940; 3148,652;    1,258;   -0,409
979,491; 3170,106;    2,258;   -0,500
980,042; 3116,197;   -0,652;    3,045
980,593; 3194,106;    1,894;    0,227
981,144; 3228,470;    3,530;   -0,500
981,695; 3176,015;   -0,470;    1,500
982,246; 3143,833;   -1,833;    1,045
982,797; 3324,197;   -0,561;    0,682
983,347; 3445,379;    2,167;    0,591
983,898; 3596,106;    4,167;    0,409
984,449; 3392,470;    2,530;    0,773
984,999; 3330,742;    1,894;   -1,136
985,550; 3082,015;    3,167;   -0,318
986,100; 3139,470;    0,712;   -0,318
986,651; 3177,833;    0,258;    0,045
987,201; 3144,652;    0,894;   -0,591
987,751; 3233,924;   -0,288;    2,864
988,302; 3217,924;   -0,379;    1,500
988,852; 3251,106;    1,985;   -1,136
989,402; 3280,015;    0,985;    0,682
989,952; 3178,106;    1,621;    0,864
990,502; 3294,833;    1,076;    0,682
991,052; 3271,106;   -0,106;    0,045
991,602; 3135,470;    1,167;    1,318
992,152; 3105,652;    2,803;    0,682
992,702; 3097,652;    1,167;   -0,045
993,252; 3022,652;    0,076;   -0,500
993,802; 3111,833;    1,167;    1,318
994,352; 3358,833;   -0,742;    1,136
994,901; 3467,106;    1,076;    3,227
995,451; 3375,288;   -1,197;    0,318
996,000; 3482,379;    1,076;    0,318
996,550; 3150,379;    2,894;    0,227
997,100; 3161,561;   -0,561;   -0,045
997,649; 3462,288;   -0,197;    0,955
998,198; 3056,742;   -0,288;   -1,500
998,748; 3257,924;    0,348;   -2,318
999,297; 3177,379;    0,985;   -0,409
999,846; 3247,197;    1,894;   -0,773
1000,395; 3292,470;    1,530;    0,500
1000,945; 3222,924;    1,076;   -0,773
1001,494; 3297,379;    0,167;    0,682
1002,043; 3299,833;    0,712;    0,864
1002,592; 3141,106;    3,439;    1,955
1003,141; 3303,561;    2,439;   -0,682
1003,690; 3116,106;    1,258;    0,500
1004,238; 3216,379;   -0,106;   -0,045
1004,787; 2825,561;   -1,288;    1,227
1005,336; 3040,652;    1,621;    0,682
1005,885; 3222,106;   -0,197;   -2,773
1006,433; 3405,652;   -0,470;    0,955
1006,982; 3433,288;    2,167;    1,682
1007,531; 3357,924;    2,712;   -0,227
1008,079; 3330,833;    0,258;    0,500
1008,627; 3482,833;    1,621;    0,409
1009,176; 3183,652;    0,076;   -1,955
1009,724; 3239,833;   -2,742;    0,864
1010,273; 3270,015;    1,076;    0,500
1010,821; 3426,924;    1,076;    1,409
1011,369; 3142,106;    0,076;    1,318
1011,917; 3120,833;   -0,833;   -0,591
1012,465; 3417,197;    2,530;   -1,591
1013,013; 3544,470;    0,439;   -1,682
1013,561; 3370,197;   -1,288;   -0,773
1014,109; 3415,924;   -0,833;    1,682
1014,657; 3294,015;    1,348;    0,591
1015,205; 3435,742;    0,894;   -0,955
1015,753; 3478,924;    0,258;   -1,409
1016,301; 3516,652;    2,621;    3,045
1016,848; 3516,833;    2,167;    0,409
1017,396; 3555,561;    1,621;    0,045
1017,944; 3701,106;    2,621;    1,864
1018,491; 3453,470;   -0,197;    1,409
1019,039; 3572,106;   -0,652;    0,591
1019,586; 3504,833;    0,076;    1,682
1020,134; 3618,833;    0,712;    1,500
1020,681; 3623,742;    2,894;   -1,136
1021,228; 3660,379;   -0,561;   -2,227
1021,776; 3487,379;   -0,833;   -1,136
1022,323; 3658,561;    0,803;    0,773
1022,870; 3604,833;   -0,470;   -0,045
1023,417; 3504,652;    2,076;    1,864
1023,964; 3681,652;    0,621;    1,227
1024,511; 3503,561;   -0,652;    0,773
1025,058; 3289,197;    0,439;   -0,045
1025,605; 3346,561;   -1,742;    3,136
1026,152; 3524,652;   -0,106;   -0,591
1026,699; 3270,015;    0,167;    1,318
1027,245; 3485,288;    2,439;    0,318
1027,792; 3712,197;    0,712;    1,409
1028,339; 3532,379;    4,076;   -0,045
1028,885; 3384,379;    3,621;   -0,227
1029,432; 3334,106;   -0,106;    0,227
1029,978; 3383,833;    1,348;   -1,591
1030,525; 3278,561;    1,621;    0,409
1031,071; 3556,015;    0,348;    1,136
1031,618; 3626,833;    1,258;    1,682
1032,164; 3434,470;    2,076;    3,045
1032,710; 3485,288;    0,076;   -1,500
1033,256; 3423,379;    0,712;   -0,136
1033,803; 3414,470;   -0,288;    1,500
1034,349; 3130,288;    1,803;    0,136
1034,895; 3274,833;    2,621;   -0,318
1035,441; 3248,742;    0,439;    0,318
1035,987; 3257,106;   -2,288;   -0,682
1036,533; 3240,924;   -0,197;   -0,955
1037,078; 3444,288;    4,712;    1,682
1037,624; 3255,106;    2,439;   -0,955
1038,170; 3310,015;    1,712;   -0,318
1038,716; 3169,924;    2,167;   -0,409
1039,261; 3104,197;    2,167;   -0,773
1039,807; 3024,197;   -0,015;    3,409
1040,352; 3078,561;   -1,288;   -0,318
1040,898; 3129,288;    0,167;   -0,682
1041,443; 3046,379;    0,803;   -2,591
1041,989; 3040,742;    3,621;    1,591
1042,534; 2949,470;    0,985;    2,591
1043,079; 3098,197;    1,985;    0,955
1043,625; 2834,742;    0,258;    0,500
1044,170; 2870,742;    2,439;    1,045
1044,715; 3130,561;    0,167;    0,955
1045,260; 2934,288;   -0,833;   -0,955
1045,805; 3023,652;    0,258;   -0,591
1046,350; 2966,924;    0,530;   -0,409
1046,895; 2896,833;    0,803;    1,591
1047,440; 2827,833;    1,530;    0,409
1047,985; 2735,015;   -1,197;   -0,955
1048,530; 2658,742;    1,348;    1,227
1049,074; 2718,742;    2,803;    0,318
1049,619; 2690,561;   -0,924;    1,955
1050,164; 2478,379;    1,076;    0,227
1050,708; 2551,197;    2,621;    0,045
1051,253; 2892,288;    3,258;   -2,227
1051,797; 2605,561;   -0,197;   -1,318
1052,342; 2671,742;    1,348;    1,045
1052,886; 2628,652;    1,803;   -1,409
1053,430; 2518,470;    2,167;    0,136
1053,975; 2519,379;    0,894;   -0,318
1054,519; 2489,652;    1,803;    3,227
1055,063; 2468,924;    3,621;    1,318
1055,607; 2351,106;    1,348;    0,227
1056,151; 2394,106;    0,530;    1,682
1056,695; 2346,015;   -1,833;   -1,136
1057,239; 2405,197;   -1,197;   -0,682
1057,783; 2379,561;    2,258;   -1,500
1058,327; 2314,379;    3,076;    1,409
1058,871; 2540,833;    3,985;    1,318
1059,415; 2235,106;   -0,561;   -0,045
1059,958; 2478,106;    2,985;    2,591
1060,502; 2231,288;    1,348;   -0,773
1061,046; 2148,197;    1,712;   -0,955
1061,589; 2117,924;    2,803;   -1,136
1062,133; 1992,652;    0,985;    1,864
1062,676; 1921,652;    1,439;    0,864
1063,220; 1932,742;    0,985;    0,500
1063,763; 1947,742;    2,985;    1,136
1064,306; 2020,470;    0,985;    1,864
1064,849; 1893,106;    2,076;    0,591
1065,393; 1913,379;    2,894;   -1,500
1065,936; 2036,924;    2,530;   -0,409
1066,479; 1918,197;    2,621;    1,318
1067,022; 1938,742;    1,894;   -0,227
1067,565; 1837,197;   -1,197;   -1,318
1068,108; 1873,197;    1,258;   -0,591
1068,651; 1845,197;   -2,470;    1,409
1069,194; 1782,833;   -1,106;   -1,682
1069,736; 1761,470;    3,803;    0,955
1070,279; 1752,379;   -1,652;   -0,500
1070,822; 1784,015;    1,530;   -0,318
1071,364; 1843,197;    0,530;    1,318
1071,907; 1678,742;    0,348;    3,227
1072,450; 1593,833;    0,258;   -0,045
1072,992; 1585,288;   -0,561;    3,136
1073,535; 1707,833;    0,167;    2,136
1074,077; 1505,833;    2,985;    2,045
1074,619; 1466,924;    0,985;    0,591
1075,161; 1492,197;   -0,561;    1,500
1075,704; 1682,288;    0,258;    1,227
1076,246; 1490,561;    1,530;    0,682
1076,788; 1412,288;   -1,015;    1,773
1077,330; 1518,470;   -2,106;    2,136
1077,872; 1462,561;   -1,924;    0,955
1078,414; 1665,470;    3,712;    0,773
1078,956; 1385,652;    0,167;   -0,227
1079,498; 1646,742;    0,439;    0,318
1080,040; 1337,288;    0,985;   -1,318
1080,581; 1299,379;    0,621;   -0,318
1081,123; 1235,015;   -0,106;   -0,773
1081,665; 1286,470;    3,803;   -0,955
1082,206; 1544,742;    3,258;   -0,500
1082,748; 1424,015;    3,258;    2,045
1083,289; 1317,561;    0,167;    1,318
1083,831; 1221,015;    0,258;    0,227
1084,372; 1229,742;    0,894;    0,591
1084,913; 1225,652;    3,348;    0,864
1085,455; 1213,833;    1,530;   -2,045
1085,996; 1183,288;    0,530;    0,136
1086,537; 1200,833;    0,985;    0,864
1087,078; 1231,833;    0,439;   -2,136
1087,619; 1268,833;   -1,652;    0,227
1088,160; 1184,924;    1,439;    1,318
1088,701; 1178,924;   -0,742;    0,682
1089,242; 1123,015;   -0,561;   -2,227
1089,783; 1201,106;   -0,561;    1,409
1090,324; 1170,652;   -0,833;    0,682
1090,865; 1054,652;   -1,924;   -0,409
1091,405; 1046,015;   -0,561;    2,227
1091,946; 1082,470;   -0,197;   -0,955
1092,487;  994,561;   -1,288;   -1,409
1093,027; 1135,742;    1,803;   -1,500
1093,568;  987,470;    2,258;    1,227
1094,108; 1057,652;    0,621;    1,773
1094,649; 1018,833;   -0,470;    0,136
1095,189;  975,652;    1,167;   -0,682
1095,729;  914,652;    0,712;    0,955
1096,269;  931,470;    1,258;   -0,955
1096,810; 1223,197;   -0,197;    0,500
1097,350; 1053,561;   -0,561;   -0,773
1097,890;  960,652;    2,985;    1,227
1098,430; 1196,742;    4,985;    2,864
1098,970; 1071,652;    1,894;    1,682
1099,510;  953,470;   -0,833;   -2,318
1100,050;  881,379;    0,258;   -1,591
1100,589;  835,106;    0,076;   -0,318
1101,129;  962,561;    0,894;   -0,955
1101,669; 1085,652;    2,803;    2,136
1102,209;  927,833;    1,530;    2,227
1102,748;  887,197;    3,439;    0,955
1103,288;  867,015;    0,712;   -1,227
1103,827;  877,561;    3,530;   -2,227
1104,367;  768,561;    1,712;   -2,409
1104,906;  739,924;   -1,015;   -1,136
1105,445;  820,561;    0,985;   -1,136
1105,985;  747,470;   -0,652;    1,500
1106,524;  786,197;    1,530;   -0,682
1107,063;  751,561;    1,167;    1,409
1107,602;  740,561;    1,894;   -1,500
1108,141;  663,470;    1,621;    1,500
1108,680;  759,379;    3,985;   -0,591
1109,219;  697,833;    0,167;   -0,500
1109,758;  707,742;    4,167;    0,682
1110,297;  676,379;   -1,106;   -0,682
1110,836;  622,470;    1,439;    0,955
1111,375;  775,833;    0,348;    0,409
1111,913;  783,470;    0,985;    0,773
1112,452;  725,197;    0,894;    0,136
1112,991;  621,197;    1,076;    1,955
1113,529;  580,833;    0,167;   -0,045
1114,068;  635,106;    0,439;    2,955
1114,606;  537,288;   -0,561;   -0,955
1115,144;  693,379;    1,530;    1,045
1115,683;  643,924;    1,985;    0,318
1116,221;  688,379;    2,076;   -0,864
1116,759;  594,197;    1,621;   -0,864
1117,297;  778,742;    1,621;    1,864
1117,836;  591,379;    1,985;   -1,227
1118,374;  590,197;    0,258;   -0,682
1118,912;  535,924;    0,439;    2,682
1119,450;  516,470;    0,985;    0,864
1119,988;  577,197;    3,348;    2,136
1120,525; 1027,742;    7,258;    3,318
1121,063;  724,106;    0,530;    1,864
1121,601;  541,833;    1,076;   -1,227
1122,139;  499,561;    1,076;   -2,045
1122,676;  682,652;   -1,652;    2,773
1123,214;  623,015;    0,712;    4,409
1123,751;  442,652;    0,621;    2,227
1124,289;  565,197;    0,894;   -0,409
1124,826;  443,470;   -0,379;    0,227
1125,364;  373,652;    0,712;   -0,955
1125,901;  538,379;    6,258;    1,227
1126,438;  638,379;    3,530;    0,955
1126,975;  373,379;    2,985;   -0,773
1127,513;  442,106;    2,621;    2,136
1128,050;  365,470;   -0,561;   -0,682
1128,587;  456,015;    1,348;   -0,227
1129,124;  487,742;   -0,015;    1,318
1129,661;  377,197;   -1,924;    0,227
1130,198;  520,833;    2,439;    0,773
1130,734;  479,288;   -0,379;    1,409
1131,271;  350,470;   -1,197;    0,864
1131,808;  505,924;    1,621;    3,045
1132,345;  377,561;    4,530;    0,318
1132,881;  270,742;   -0,561;   -1,864
1133,418;  389,742;    0,348;   -1,136
1133,954;  333,106;    0,712;   -2,682
1134,491;  401,197;    1,712;   -0,773
1135,027;  305,833;    2,167;    0,864
1135,564;  384,106;    1,439;    2,955
1136,100;  372,470;   -0,742;    2,136
1136,636;  281,197;   -1,015;   -1,045
1137,172;  352,561;    0,894;   -1,045
1137,708;  285,924;   -1,561;   -1,045
1138,245;  288,379;    0,803;   -1,227
1138,781;  250,924;    1,803;   -3,318
1139,317;  298,379;    1,894;   -1,409
1139,852;  291,106;    3,076;    0,136
1140,388;  405,561;    2,076;   -0,409
1140,924;  293,742;    1,076;   -2,227
1141,460;  224,197;   -0,288;    0,136
1141,996;  170,015;   -0,652;    2,682
1142,531;  214,924;    1,076;    3,318
1143,067;  415,742;    1,167;    1,045
1143,602;  465,742;    3,439;   -0,318
1144,138;  320,742;    0,803;    1,045
1144,673;  193,652;    1,621;    1,409
1145,209;  261,742;    2,894;   -0,318
1145,744;  183,015;    0,803;    0,864
1146,279;  304,015;    1,530;   -0,136
1146,815;  229,106;    1,530;   -2,682
1147,350;  275,379;   -0,924;    0,045
1147,885;  190,197;   -1,924;   -1,318
1148,420;  186,470;    2,439;    0,773
1148,955;  168,197;   -1,470;    1,864
1149,490;  193,833;   -1,106;   -1,591
1150,025;  175,833;   -1,106;   -1,773
1150,560;  275,561;   -0,288;   -0,955
1151,094;  248,833;    0,258;   -0,591
1151,629;  252,561;   -3,742;    0,864
1152,164;  180,197;   -1,288;    1,318
1152,698;  146,288;    1,258;   -0,136
1153,233;  108,015;   -1,379;   -0,682
1153,767;  152,288;   -0,288;   -2,318
1154,302;  195,015;   -0,379;    1,773
1154,836;  192,288;    0,803;   -2,136
1155,371;  239,833;    2,258;    3,682
1155,905;  199,470;    1,985;    1,682
1156,439;  172,742;    0,530;   -0,500
1156,973;  194,015;    0,439;    0,318
1157,507;  136,470;   -1,742;    0,682
1158,042;  166,015;   -0,652;    1,045
1158,576;  197,561;   -0,561;    1,773
1159,110;  192,197;    0,076;    2,409
1159,643;  174,197;   -2,470;   -0,045
1160,177;  119,379;   -2,015;    1,500

