
Integration time [ms]:   0,050
Averaging Nr. [scans]: 11
Smoothing Nr. [pixels]: 0
Data measured with spectrometer [name]: 7318044SP
Wave   ;Sample   ;Dark     ;Reference
[nm]   ;[counts] ;[counts] ;[counts] 

186,757;    2,792;   38,161;    1,318
187,357;    2,645;   26,706;    0,955
187,958;    1,198;   17,252;   -1,591
188,558;    7,879;   12,979;   -1,227
189,159;    1,015;   10,070;   -4,500
189,759;   -3,443;    5,797;   -3,591
190,360;   -2,898;    6,797;   -2,136
190,960;    0,734;    5,706;   -4,136
191,560;    7,800;    2,614;   -6,591
192,161;   50,006;    5,885;   -3,500
192,761;   25,327;    5,520;   -3,227
193,361;   14,470;    3,065;   -3,773
193,962;   21,703;    1,612;   -2,682
194,562;    5,972;   -0,114;   -3,955
195,162;    3,604;   -0,567;   -2,227
195,762;   26,639;    2,433;   -0,045
196,362;   14,937;    1,706;   -2,500
196,963;    3,792;    1,706;   -0,864
197,563;    7,517;    1,252;   -0,955
198,163;    1,046;   -0,111;   -0,682
198,763;    5,375;   -0,020;   -0,500
199,363;    8,835;    3,616;   -0,500
199,963;    9,266;    2,162;    0,409
200,563;    9,931;    6,344;   -1,409
201,163;    3,238;    5,435;   -0,227
201,763;    7,500;    1,435;    0,318
202,363;    0,791;    0,980;    1,500
202,963;    7,736;    1,526;    1,045
203,563;   17,531;    0,344;    0,500
204,162;    8,903;    1,889;   -1,864
204,762;    4,903;    2,071;    0,591
205,362;    1,049;    0,708;    1,955
205,962;    5,145;    3,435;    1,955
206,562;    5,485;    1,889;    2,318
207,161;    5,653;    1,708;    0,318
207,761;   21,667;    4,435;    2,409
208,361;    8,089;    1,889;    1,409
208,960;   11,657;    2,889;    1,500
209,560;    8,546;    0,435;    1,591
210,160;   11,698;    5,071;    1,864
210,759;    8,405;    0,708;    1,227
211,359;    3,305;   -0,474;    1,045
211,958;   30,432;    3,526;    2,045
212,558;   31,147;    0,799;    1,864
213,157;   11,992;   -0,929;    1,500
213,757;   53,954;    5,617;   -0,227
214,356;   23,012;    1,708;   -0,409
214,956;   45,586;    3,526;    0,409
215,555;   18,419;    0,617;    2,136
216,154;    8,147;   -0,292;   -0,591
216,754;    8,779;    1,253;    0,773
217,353;   12,371;   -0,383;   -1,045
217,952;    6,008;    2,072;    0,318
218,552;   16,374;    0,254;   -0,773
219,151;    6,764;   -1,110;    0,955
219,750;    1,896;    0,890;   -0,227
220,349;    4,566;   -2,292;    1,045
220,948;   23,141;    1,163;    1,136
221,548;   11,089;    0,617;    1,227
222,147;   10,170;   -1,292;   -0,409
222,746;   30,316;    1,254;   -0,955
223,345;   17,145;   -1,019;    0,500
223,944;   16,832;    1,163;    0,773
224,543;   19,350;    4,072;   -1,409
225,142;   12,005;    1,345;    0,136
225,741;   17,937;    1,163;    1,045
226,340;   16,493;    1,254;   -0,955
226,939;   30,257;    2,708;   -0,136
227,538;   16,749;    1,163;   -0,773
228,137;   38,057;    0,435;    0,864
228,735;   25,600;    0,435;    1,227
229,334;    9,596;   -0,474;   -0,227
229,933;   42,056;    0,799;    0,591
230,532;   37,486;   -1,201;   -0,409
231,131;   57,378;    1,253;    0,318
231,729;   28,500;    1,163;   -2,318
232,328;   16,857;    0,435;   -1,500
232,927;   21,183;    4,526;   -0,500
233,525;   19,818;    0,981;    0,045
234,124;   22,758;    1,890;   -1,591
234,723;   15,047;    1,617;   -1,045
235,321;   14,808;    1,163;    0,136
235,920;   16,957;    2,526;   -1,227
236,518;   46,536;    1,072;    0,318
237,117;   19,545;    2,890;   -0,227
237,715;   27,325;    1,163;   -0,500
238,314;   26,765;    1,708;   -2,318
238,912;   48,311;    0,526;   -1,409
239,510;   35,030;    1,162;   -1,227
240,109;   60,985;   -0,474;    3,773
240,707;   51,086;   -0,474;    1,227
241,305;   17,192;   -0,383;    0,136
241,904;   36,738;   -0,292;   -2,045
242,502;   79,108;    3,253;   -0,227
243,100;   45,957;    3,344;   -0,955
243,698;   27,555;    2,799;    1,682
244,297;   40,780;   -0,656;    0,682
244,895;   35,258;   -0,474;   -2,318
245,493;   79,460;    2,981;   -0,591
246,091;   88,724;    5,163;   -1,318
246,689;   58,722;    2,163;    0,591
247,287;   59,173;   -0,019;   -1,136
247,885;   48,670;   -1,019;    1,227
248,483;   37,716;   -0,201;   -0,500
249,081;   69,528;    0,981;    1,591
249,679;   71,247;   -1,019;    1,682
250,277;   42,746;   -2,292;    0,864
250,875;   82,596;    0,617;   -1,045
251,473;   52,366;   -0,019;    0,500
252,071;   93,080;   -0,383;    1,045
252,669;   58,013;   -1,565;    0,318
253,267;   43,358;    1,618;    0,773
253,864;   63,446;    0,617;    0,682
254,462;  109,482;    1,526;    1,591
255,060;   50,471;    0,072;    1,318
255,658;   51,832;   -3,292;   -0,136
256,255;   63,535;   -0,201;   -2,045
256,853;   88,307;    2,345;    1,409
257,451;   64,092;    1,981;    1,864
258,048;  249,354;    2,072;    1,864
258,646;  129,753;    0,436;   -1,045
259,243;  165,670;    2,981;    2,227
259,841;  117,378;    1,799;    0,318
260,438;   63,399;    0,254;    0,864
261,036;  112,601;    0,617;    1,409
261,633;   70,836;    1,526;    2,227
262,231;   55,281;   -0,110;   -0,045
262,828;   54,950;   -0,383;    1,136
263,425;   73,259;   -1,928;   -0,591
264,023;   75,835;    1,436;    0,045
264,620;  128,658;    1,526;   -0,318
265,217;  182,561;    2,890;    3,136
265,815;   90,433;    2,527;    2,136
266,412;  128,292;    0,072;    0,136
267,009;  122,363;    0,526;    0,773
267,606;  162,389;    0,345;   -0,955
268,203;   96,156;   -0,383;   -0,591
268,801;  101,103;   -0,474;    0,591
269,398;   75,950;   -0,564;    2,500
269,995;  128,405;    0,890;    1,591
270,592;  108,506;    0,799;   -0,500
271,189;   69,769;    1,981;    0,409
271,786;   61,808;    2,072;    1,227
272,383;  158,514;   -0,383;    0,227
272,980;  101,457;    1,617;    0,318
273,577;   86,390;    2,162;    1,227
274,174;   75,399;    1,435;    2,591
274,771;  134,013;    1,890;   -0,773
275,367;  333,206;    3,253;    1,409
275,964;  207,414;   -0,565;   -0,500
276,561;  111,565;   -2,474;   -1,045
277,158;   67,520;    1,799;   -1,773
277,755;  189,619;   -0,110;    0,409
278,351;  138,841;    0,436;   -1,500
278,948;  160,343;   -0,201;    0,045
279,545;  139,955;    0,527;    2,318
280,141;  212,538;    1,254;   -2,045
280,738;  214,100;    2,435;   -0,136
281,334;  116,677;   -0,383;    0,591
281,931;  104,928;    2,890;   -1,318
282,528;  170,009;    4,072;   -0,500
283,124;  206,028;    3,345;   -0,500
283,721;  195,556;    0,709;    1,409
284,317;  130,023;    0,163;    2,500
284,913;  211,560;   -0,110;    0,591
285,510;  327,105;    2,890;   -0,318
286,106;  234,804;    2,345;   -0,955
286,703;  155,973;    0,072;    1,955
287,299;  125,197;    1,254;   -0,591
287,895;  117,113;    0,890;   -1,045
288,491;  111,132;    0,163;    2,136
289,088;  158,605;    0,163;    2,409
289,684;  171,559;    2,890;    1,500
290,280;  257,441;    1,890;    0,682
290,876;  227,109;    0,163;    5,500
291,472;  192,703;    2,163;    2,227
292,068;  200,536;    1,254;    0,227
292,665;  142,015;   -0,564;    0,773
293,261;   97,773;   -1,292;    2,136
293,857;  189,164;    4,072;    2,136
294,453;  146,872;   -0,928;    0,955
295,049;  268,848;    0,253;    1,955
295,644;  181,089;   -1,292;    0,136
296,240;  111,052;    0,162;   -0,136
296,836;  168,551;   -0,747;    0,318
297,432;  237,059;    2,980;   -0,500
298,028;  248,242;    0,435;    0,773
298,624;  185,557;    0,889;    1,864
299,220;  181,810;    0,435;    0,591
299,815;  172,292;    0,526;   -0,409
300,411;  230,121;    0,435;    1,773
301,007;  273,872;    1,889;    0,227
301,602;  184,191;    2,071;   -2,318
302,198;  275,851;    1,435;   -0,773
302,794;  188,803;    1,526;   -0,500
303,389;  150,810;    1,071;    1,045
303,985;  170,724;    1,253;    1,409
304,580;  262,074;    0,889;    1,591
305,176;  205,302;    0,344;    0,136
305,771;  118,322;   -0,929;   -1,227
306,367;  372,882;    3,071;    0,136
306,962;  230,373;    2,889;    1,500
307,558;  265,190;    2,435;    0,136
308,153;  273,123;   -0,383;   -1,136
308,748;  165,018;    0,162;    1,682
309,344;  387,155;    0,253;   -1,318
309,939;  375,500;    2,071;   -1,318
310,534;  202,146;   -2,020;   -1,682
311,130;  188,931;   -0,656;   -2,500
311,725;  165,039;    0,526;   -0,500
312,320;  189,194;    1,253;    0,045
312,915;  250,148;    2,890;   -1,045
313,510;  386,496;    0,526;   -0,500
314,105;  206,335;   -3,565;    1,409
314,700;  128,898;   -1,656;   -1,045
315,295;  172,710;   -0,020;    0,045
315,890;  146,459;   -0,292;    0,864
316,485;  206,770;    0,253;   -0,318
317,080;  152,468;   -0,929;    1,591
317,675;  341,560;    3,071;   -0,682
318,270;  496,680;    6,889;    3,318
318,865;  395,132;    2,435;    3,045
319,460;  281,827;   -1,565;    0,591
320,055;  178,204;   -2,565;   -1,227
320,650;  179,556;   -1,838;   -0,591
321,244;  183,396;    0,889;   -1,409
321,839;  183,995;    0,980;   -0,227
322,434;  210,194;   -0,111;   -1,591
323,029;  174,873;   -0,474;    1,591
323,623;  156,836;    0,798;    0,773
324,218;  278,313;    2,707;    1,409
324,812;  231,442;    0,889;    1,591
325,407;  220,281;   -0,929;    2,045
326,002;  316,830;    0,526;   -0,409
326,596;  277,528;   -0,656;    1,318
327,191;  172,729;   -0,383;   -1,045
327,785;  175,164;   -0,747;   -0,227
328,379;  174,729;   -0,383;    0,136
328,974;  207,185;    1,798;   -3,955
329,568;  227,263;    2,889;   -2,409
330,163;  278,787;    2,435;    1,045
330,757;  172,230;    0,253;    1,591
331,351;  136,662;   -0,292;    0,682
331,945;  139,347;   -0,383;    1,409
332,540;  221,755;    1,617;   -0,591
333,134;  210,779;    3,344;    0,773
333,728;  219,664;    2,799;    0,318
334,322;  157,726;    0,889;   -0,864
334,916;  147,711;    0,344;    0,955
335,510;  260,932;   -0,111;   -0,136
336,105;  246,638;   -0,929;    1,591
336,699;  171,580;   -1,292;    0,591
337,293;  200,615;    1,071;    0,318
337,887;  166,468;    0,071;    1,955
338,481;  253,481;    2,980;    0,591
339,074;  325,345;    2,071;    2,682
339,668;  310,698;   -0,110;    1,227
340,262;  717,328;    7,708;    3,227
340,856;  421,459;    1,708;   -0,682
341,450;  206,932;    0,708;    1,864
342,044;  252,979;    1,799;    0,136
342,637;  336,076;    1,162;   -2,136
343,231;  295,094;   -1,474;    0,682
343,825;  247,396;   -0,747;   -0,591
344,419;  232,723;   -0,474;    0,500
345,012;  632,614;    2,889;    4,045
345,606;  470,419;   -0,656;    1,591
346,199;  250,665;   -0,111;   -0,227
346,793;  336,562;    2,525;    2,045
347,386;  210,348;    0,889;   -1,136
347,980;  149,174;   -0,838;   -0,045
348,573;  215,412;   -1,748;    0,409
349,167;  433,555;    6,161;    4,773
349,760;  325,924;    2,252;    2,682
350,354;  301,552;    1,616;    1,136
350,947;  324,052;    2,798;    1,682
351,540;  246,049;    0,616;   -1,409
352,134;  165,288;   -1,111;    1,136
352,727;  175,891;   -0,657;    1,136
353,320;  192,663;    2,343;    0,591
353,913;  140,858;   -1,929;    1,864
354,507;  284,142;    0,434;   -1,227
355,100;  198,674;    0,071;    0,864
355,693;  509,142;    4,798;    2,409
356,286;  319,559;    0,980;    2,773
356,879;  222,837;   -0,475;    1,227
357,472;  217,299;    0,980;    1,500
358,065;  244,810;    3,161;    2,500
358,658;  150,017;    0,798;    2,318
359,251;  135,748;    0,252;   -0,591
359,844;  259,621;    0,343;   -1,136
360,437;  303,132;    0,252;    0,045
361,030;  197,293;    0,525;   -0,682
361,623;  202,419;    0,434;    0,318
362,215;  368,168;    0,979;    2,045
362,808;  244,362;   -2,293;   -1,682
363,401;  192,128;    0,798;    0,136
363,994;  354,927;    3,252;   -1,500
364,586;  217,593;    0,888;   -1,500
365,179;  184,374;   -0,203;   -1,136
365,772;   82,244;   -0,930;    2,045
366,364;  187,032;    1,524;   -3,227
366,957;  223,753;    1,342;   -0,045
367,549;  188,638;   -0,203;   -0,864
368,142;  199,676;    0,978;   -1,500
368,734;  173,934;    2,523;   -2,136
369,327;  133,258;    2,341;   -0,500
369,919;  161,369;   -1,659;    0,409
370,512;  174,905;   -1,023;   -0,500
371,104;  372,540;    2,704;    1,591
371,696;  389,780;    1,703;   -0,955
372,289;  268,100;    0,157;    1,136
372,881;  224,952;    1,156;    1,318
373,473;  151,846;    4,064;    1,136
374,066;  209,842;    1,336;    0,500
374,658;  198,905;    0,879;    1,136
375,250;  155,719;   -1,668;   -1,409
375,842;  186,562;   -0,124;   -0,045
376,434;  150,787;   -2,762;   -0,409
377,026;  157,407;   -1,855;   -2,500
377,618;  194,232;    0,779;   -0,682
378,210;  154,300;    3,141;   -1,955
378,802;  156,963;    3,412;   -0,591
379,394;  435,596;    3,411;    0,682
379,986;  256,752;    1,138;   -0,955
380,578;  186,510;    1,410;    0,773
381,170;  363,443;    0,320;    0,045
381,762;  288,170;   -0,224;    1,409
382,354;  242,010;   -0,223;   -1,318
382,945;  182,311;    0,870;    0,318
383,537;  149,381;    1,144;   -1,955
384,129;  142,450;    0,963;   -1,136
384,721;  221,752;    0,418;    0,955
385,312;  185,926;   -1,399;   -0,955
385,904;  236,226;   -0,945;    1,591
386,496;  190,063;    0,691;    1,045
387,087;  303,752;    0,418;    2,500
387,679;  249,054;   -0,401;    0,045
388,270;  224,551;   -2,401;    2,045
388,862;  211,677;   -0,401;   -0,318
389,453;  205,656;    1,054;    1,045
390,045;  213,655;    3,236;   -2,682
390,636;  139,142;    0,144;   -0,591
391,227;  181,851;    2,054;   -0,045
391,819;  164,159;    0,781;    0,773
392,410;  353,119;    0,600;    0,045
393,001;  210,815;    1,600;   -1,591
393,593;  247,120;    0,600;   -0,045
394,184;  280,910;    0,873;   -0,409
394,775;  197,640;    1,146;    2,136
395,366;  144,018;    1,782;    0,773
395,957;  279,851;   -2,400;    0,136
396,548;  199,906;    1,054;    2,682
397,139;  289,912;    2,236;    0,591
397,730;  222,376;    0,873;    0,955
398,321;  236,791;    0,509;    0,955
398,912;  189,536;   -0,764;    0,136
399,503;  190,350;   -1,945;   -1,409
400,094;  221,840;   -1,582;    1,682
400,685;  215,510;    3,600;    0,045
401,276;  183,857;   -0,400;   -0,955
401,867;  166,715;   -1,127;    0,773
402,458;  135,670;    1,509;   -2,318
403,048;  244,548;    0,146;    0,591
403,639;  202,665;    1,509;    0,864
404,230;  286,190;    0,691;    0,318
404,821;  335,078;   -0,127;    0,045
405,411;  261,207;   -0,763;   -2,591
406,002;  195,372;    3,237;   -1,136
406,592;  377,152;    2,691;    0,045
407,183;  259,222;    0,328;   -1,500
407,774;  240,739;    1,419;   -0,136
408,364;  205,811;    2,600;    0,409
408,954;  298,742;   -0,036;    1,227
409,545;  295,100;    1,873;    1,045
410,135;  263,068;   -1,581;    0,500
410,726;  211,083;    0,783;    0,318
411,316;  364,734;    2,237;    0,773
411,906;  241,054;    0,146;   -0,409
412,497;  252,976;   -0,490;   -0,045
413,087;  206,709;    0,783;   -0,227
413,677;  151,357;   -2,490;    3,864
414,267;  142,348;   -1,035;    1,409
414,857;  130,542;    0,419;    4,227
415,448;  139,266;   -0,763;    0,500
416,038;  157,459;   -2,945;   -0,591
416,628;  184,078;    0,965;    0,409
417,218;  230,107;   -1,762;    3,318
417,808;  356,028;    0,965;   -0,409
418,398;  254,213;   -1,035;    2,682
418,988;  165,678;   -2,217;    0,591
419,578;  243,642;    3,601;    1,409
420,168;  190,422;    0,692;   -0,955
420,757;  297,630;    0,964;   -1,500
421,347;  201,906;    1,601;   -0,227
421,937;  176,173;    3,329;    1,409
422,527;  292,928;    2,602;   -0,773
423,116;  414,303;    2,692;   -0,045
423,706;  189,057;    2,965;    0,318
424,296;  145,780;    1,601;    0,682
424,885;  253,598;    1,510;   -3,045
425,475;  223,721;    1,147;   -2,864
426,065;  149,444;   -1,489;   -0,318
426,654;  134,987;    0,329;   -0,318
427,244;  346,275;    1,147;    1,409
427,833;  305,806;    1,056;   -0,500
428,423;  202,690;    0,147;    1,136
429,012;  206,384;    2,420;   -1,136
429,601;  304,414;    2,057;    0,136
430,191;  215,632;    2,511;    4,318
430,780;  142,512;   -1,671;   -0,409
431,369;  283,598;    1,329;   -0,045
431,959;  197,246;    1,693;    0,500
432,548;  145,980;   -1,398;   -0,045
433,137;  101,187;    0,329;   -1,318
433,726;  160,350;    0,148;    0,500
434,315;  179,368;    0,148;    2,409
434,905;  261,181;    0,693;    1,409
435,494;  251,230;    3,148;    0,955
436,083;  153,632;    1,420;   -0,955
436,672;  223,021;    1,148;    0,500
437,261;  187,885;    0,512;   -1,955
437,850;  352,227;   -1,125;    0,682
438,439;  388,850;    2,239;    1,955
439,027;  487,685;    3,421;    1,773
439,616;  408,456;    2,239;    1,227
440,205;  228,233;    0,057;   -2,136
440,794;  191,557;   -0,306;   -0,045
441,383;  139,155;    1,603;   -0,591
441,971;  120,874;   -0,306;    0,591
442,560;  129,652;    0,603;   -1,773
443,149;   45,795;    3,060;   -1,318
443,737;   83,086;    0,968;   -2,318
444,326;  107,113;    0,331;    0,318
444,915;  140,376;   -1,851;    0,864
445,503;  150,535;    0,058;   -0,318
446,092;  361,188;    7,876;    2,136
446,680;  289,129;    1,876;    0,318
447,269;  201,965;   -1,487;   -0,318
447,857;  194,007;    2,240;   -1,773
448,445;  159,205;    2,149;    1,318
449,034;  117,102;    0,876;   -1,136
449,622;  118,559;    1,240;    3,500
450,210;  308,013;    3,149;    2,227
450,799;  243,301;    2,604;   -0,591
451,387;  217,591;    1,786;   -0,591
451,975;  197,477;   -1,305;    0,864
452,563;  249,256;    0,422;    2,318
453,151;  129,045;   -1,032;   -1,227
453,739;  142,040;   -1,577;    0,136
454,328;  205,921;    0,604;   -2,136
454,916;  165,592;    1,150;   -0,136
455,504;  182,924;    3,513;    1,227
456,092;  108,988;    2,150;   -1,591
456,679;   83,631;    0,604;    0,682
457,267;  371,309;    3,604;    1,045
457,855;  154,425;    3,241;    1,409
458,443;   59,748;   -0,304;    1,682
459,031;  135,444;    1,332;    2,409
459,619;  113,961;   -3,577;    2,864
460,206;   65,072;   -0,759;    2,045
460,794;   63,284;   -0,668;   -0,227
461,382;   88,075;    0,878;   -0,864
461,970;   94,165;    0,605;    1,864
462,557;   57,979;    0,878;   -0,682
463,145;  112,955;   -0,304;   -1,682
463,732;  266,205;    2,514;   -1,045
464,320;  124,984;    1,514;   -3,045
464,907;  202,418;    0,423;   -0,773
465,495;  134,701;    2,696;   -1,227
466,082;   92,887;    2,060;   -0,045
466,670;  111,532;    2,605;    1,227
467,257;   61,917;    0,060;    2,045
467,844;  113,936;    1,514;    0,045
468,432;   90,309;   -0,031;    3,500
469,019;   68,368;    1,606;   -1,773
469,606;  126,515;    0,969;    3,682
470,193;  131,045;    2,151;    0,227
470,780;   94,892;    0,333;    0,864
471,368;   63,022;   -1,212;   -0,773
471,955;  110,003;    1,060;   -0,682
472,542;   86,695;   -0,303;   -1,136
473,129;   40,015;   -0,485;    0,136
473,716;   42,908;    0,060;    0,591
474,303;   53,458;    1,333;   -0,864
474,890;   56,740;    2,333;   -0,500
475,477;  106,039;   -0,576;    0,409
476,064;   55,283;    0,697;   -1,591
476,650;  119,228;    2,152;    0,318
477,237;   65,591;    1,879;    0,955
477,824;   56,423;    3,879;    0,864
478,411;   27,505;    0,606;   -0,318
478,997;   21,554;    0,606;   -0,773
479,584;    8,435;   -0,666;   -0,409
480,171;   66,955;    1,243;   -0,773
480,757;   84,104;   -0,848;    0,773
481,344;   45,867;    0,334;    0,409
481,931;   12,583;   -0,393;    1,045
482,517;   58,421;    0,425;    0,318
483,104;   97,070;    1,334;    2,864
483,690;   43,804;    0,243;    0,045
484,276;   33,942;    0,698;    0,227
484,863;  125,824;    2,152;    1,136
485,449;   56,344;    0,152;    0,318
486,035;   33,171;   -0,666;   -0,136
486,622;   60,127;   -2,393;    0,045
487,208;   36,792;    1,334;    1,500
487,794;   12,742;    0,971;    0,318
488,380;   17,759;    0,698;   -1,409
488,967;   13,023;   -1,120;   -0,409
489,553;   20,536;   -1,029;   -1,409
490,139;   46,175;    0,971;    0,773
490,725;   22,732;    0,789;   -0,227
491,311;   33,084;    1,516;    3,045
491,897;   28,999;   -0,665;    1,500
492,483;   32,290;    0,426;    1,227
493,069;  218,371;    5,426;    0,864
493,655;   94,957;    1,789;    0,682
494,241;   40,946;    1,517;   -0,955
494,826;   39,715;    0,335;   -1,045
495,412;   60,534;    0,335;   -0,682
495,998;   34,642;    0,971;   -0,318
496,584;   53,797;    2,244;    1,045
497,169;   63,911;    2,335;   -0,682
497,755;   42,713;    1,244;    1,227
498,341;   98,908;    2,153;    0,318
498,926;  166,760;    2,881;    1,955
499,512;   44,837;   -0,028;    2,955
500,097;   41,401;   -0,574;   -0,318
500,683;   57,467;   -0,028;    2,136
501,268;   41,199;    1,881;   -0,955
501,854;   60,678;   -0,119;    1,227
502,439;   53,010;   -0,573;   -1,773
503,024;   55,240;    1,608;    0,500
503,610;   77,779;    1,335;   -0,682
504,195;   58,713;    1,245;    1,955
504,780;  127,116;    2,335;    1,227
505,366;  191,558;    4,063;    2,864
505,951;  140,608;   -1,119;    1,045
506,536;   92,141;    1,427;   -3,682
507,121;  135,662;    1,699;   -0,318
507,706;  113,668;   -0,392;    1,045
508,291;   82,973;   -2,937;    1,136
508,876;   76,909;   -0,482;    2,591
509,461;  117,773;    1,427;   -0,773
510,046;  160,129;   -0,391;    0,318
510,631;  173,548;   -0,119;   -0,773
511,216;  113,395;   -0,664;   -0,500
511,801;  172,601;   -0,755;    2,591
512,386;  191,382;    0,972;    0,500
512,971;  205,169;    0,427;    0,955
513,555;  245,582;    1,154;   -1,500
514,140;  210,689;    1,336;   -3,136
514,725;  323,483;    1,791;   -1,136
515,309;  242,561;    1,064;    0,318
515,894;  164,649;   -0,300;   -2,227
516,479;  202,216;    1,973;   -0,955
517,063;  209,742;    0,882;    1,227
517,648;  171,932;    0,155;   -1,136
518,232;  142,219;   -1,300;   -1,409
518,817;  228,222;    1,337;    1,682
519,401;  335,391;    0,700;    0,591
519,985;  308,283;    2,700;    1,136
520,570;  194,049;   -0,118;   -1,955
521,154;  282,350;    0,064;    0,591
521,738;  422,682;    1,064;    2,409
522,323;  288,883;   -0,390;    1,682
522,907;  279,312;    2,428;   -0,136
523,491;  209,863;    1,155;    0,955
524,075;  185,867;    0,428;    0,591
524,659;  346,832;    0,973;    0,591
525,243;  308,023;    0,883;    0,409
525,827;  254,323;    0,883;   -0,045
526,411;  257,559;    1,155;   -0,136
526,995;  336,670;    0,337;    1,409
527,579;  386,567;    1,974;   -1,045
528,163;  327,056;    0,428;   -1,500
528,747;  397,318;    1,065;   -0,773
529,331;  347,126;    0,883;   -1,409
529,915;  230,879;    2,338;    0,955
530,499;  302,606;    0,247;    1,227
531,082;  440,926;    1,065;    1,591
531,666;  506,930;    0,520;    0,773
532,250;  399,867;    0,428;    2,682
532,833;  476,464;    0,610;    2,773
533,417;  365,287;    1,247;    0,864
534,001;  454,964;    0,429;   -0,318
534,584;  394,828;    1,974;    0,500
535,168;  251,914;    3,247;    1,409
535,751;  545,478;    4,520;    0,045
536,334;  325,861;    4,520;   -0,409
536,918;  211,582;    1,974;    1,591
537,501;  214,976;    1,520;    1,318
538,085;  255,899;    1,702;    1,045
538,668;  321,994;    0,883;    2,409
539,251;  540,907;    3,156;    3,773
539,834;  313,171;    0,156;    0,773
540,418;  405,503;    3,247;    4,318
541,001;  552,486;    2,702;    1,773
541,584;  371,585;    1,429;    2,227
542,167;  450,058;    0,702;    2,955
542,750;  311,532;    0,793;   -0,773
543,333;  205,874;    1,429;    2,136
543,916;  389,465;   -0,298;    2,500
544,499;  340,485;    2,520;    0,227
545,082;  402,218;    0,248;    3,591
545,665;  328,838;   -0,207;    1,500
546,248;  433,056;    0,520;   -0,318
546,830;  412,681;   -1,752;    1,955
547,413;  365,456;    0,157;   -0,773
547,996;  340,392;    0,157;    0,500
548,579;  317,518;   -0,843;    0,955
549,161;  515,978;    0,884;    2,682
549,744;  412,196;    0,612;    0,409
550,326;  289,472;    0,885;   -1,136
550,909;  676,138;    2,339;    0,591
551,492;  385,823;    0,521;    0,227
552,074;  482,428;   -0,024;   -1,318
552,657;  515,611;    2,430;    0,045
553,239;  404,531;   -3,024;   -0,773
553,821;  298,034;   -1,570;    1,045
554,404;  506,154;   -0,024;    1,136
554,986;  583,543;    2,248;    1,045
555,568;  451,554;    0,430;   -0,955
556,151;  624,103;    4,067;   -0,227
556,733;  369,623;   -1,388;   -0,864
557,315;  394,782;    4,703;    0,500
557,897;  281,591;    0,521;   -0,500
558,479;  291,596;    1,703;    1,318
559,061;  361,568;    1,067;   -0,864
559,643;  398,356;   -0,297;    0,045
560,225;  438,196;   -0,388;    2,864
560,807;  309,538;    0,340;    0,318
561,389;  303,368;   -1,206;    2,318
561,971;  362,176;   -0,660;    2,136
562,553;  293,935;    0,613;    1,591
563,135;  365,111;    1,249;    1,136
563,717;  698,381;    3,158;    1,136
564,298;  619,039;    3,976;   -0,045
564,880;  399,038;    0,340;   -1,409
565,462;  258,948;    1,977;    1,318
566,043;  361,515;   -0,933;    2,318
566,625;  628,240;    4,067;    1,227
567,207;  469,914;    0,704;    1,682
567,788;  350,107;   -0,114;    1,500
568,370;  348,977;   -1,841;   -0,500
568,951;  339,303;   -0,569;    0,227
569,533;  424,461;    0,977;   -0,500
570,114;  434,716;   -0,296;    0,682
570,695;  457,253;   -0,478;   -1,318
571,277;  438,733;   -0,205;   -1,682
571,858;  604,713;    2,704;   -1,136
572,439;  462,321;    0,795;   -1,045
573,021;  481,070;    0,432;   -2,773
573,602;  571,043;    1,795;    0,318
574,183;  531,979;   -0,114;    2,227
574,764;  488,699;    2,068;    0,409
575,345;  645,813;    0,250;   -0,136
575,926;  498,942;    2,704;    0,136
576,507;  561,495;    2,704;   -0,227
577,088;  516,494;    1,704;    1,682
577,669;  695,807;    1,704;    1,955
578,250;  845,433;   -0,750;   -1,045
578,831;  654,141;   -0,841;   -2,227
579,412;  638,810;   -1,205;    0,955
579,993;  614,179;    1,432;    0,227
580,573;  526,182;   -0,023;   -0,955
581,154;  648,173;    1,613;   -0,591
581,735;  690,077;    0,341;    0,773
582,315;  810,258;    0,523;    2,136
582,896;  615,426;   -1,750;    1,227
583,477;  487,659;    0,614;    1,227
584,057;  599,906;    1,159;    0,955
584,638;  711,907;   -2,750;    2,318
585,218;  921,447;    2,886;    2,682
585,799;  745,886;    1,977;   -0,227
586,379;  644,040;    1,250;    1,591
586,959;  619,798;    2,613;    0,318
587,540;  544,132;    0,432;    2,227
588,120;  544,010;   -1,113;   -0,045
588,700;  582,144;    2,977;    2,136
589,281;  728,908;    1,250;   -0,955
589,861;  605,103;   -0,296;   -1,682
590,441;  476,458;   -1,477;   -2,682
591,021;  553,086;    1,432;   -2,591
591,601;  527,208;    0,431;    0,500
592,181;  514,200;   -1,296;   -0,773
592,761;  422,341;    2,250;    1,409
593,341;  530,068;    1,522;    0,045
593,921;  551,403;   -0,569;    1,591
594,501;  458,072;    1,250;    1,318
595,081;  468,399;    0,522;   -0,318
595,661;  523,240;    1,068;    0,955
596,240;  469,845;   -1,023;    0,136
596,820;  825,987;    2,613;    1,955
597,400;  577,053;    1,977;    0,773
597,980;  486,465;   -0,750;    1,045
598,559;  439,228;    0,341;   -0,227
599,139;  429,059;   -0,750;   -1,227
599,718;  428,332;    0,795;   -0,409
600,298;  428,320;   -2,387;    0,682
600,877;  866,471;    4,795;    1,409
601,457;  589,795;    0,340;    1,136
602,036;  481,296;    1,795;    2,045
602,616;  529,735;    2,250;    1,682
603,195;  639,975;    0,431;    3,500
603,774;  690,805;   -0,296;    2,045
604,354;  638,172;    2,522;   -0,500
604,933;  583,292;    0,250;    1,864
605,512;  655,996;    2,340;    0,591
606,091;  648,778;    1,886;    3,773
606,671;  600,979;    0,249;    0,773
607,250;  757,983;    1,431;    3,136
607,829;  706,661;    1,158;    3,227
608,408;  575,227;    4,613;    2,591
608,987;  674,525;    2,704;    3,409
609,566;  501,879;    0,341;   -2,500
610,145;  601,806;    2,885;    0,682
610,723;  652,451;    1,613;    6,864
611,302;  564,052;    1,067;    1,682
611,881;  829,796;    5,158;   11,227
612,460;  570,983;    0,795;    3,955
613,039;  466,578;    1,703;    2,045
613,617;  457,762;    0,886;    4,773
614,196;  468,166;    1,613;    1,227
614,775;  518,210;    1,249;    2,409
615,353;  570,186;   -1,660;    0,864
615,932;  555,555;    0,249;    2,409
616,510;  532,480;    0,158;    0,591
617,089;  999,924;    8,794;   17,591
617,667;  637,284;    4,885;    6,136
618,246;  426,714;   -1,115;    1,318
618,824;  492,358;    1,612;   -0,955
619,402;  497,997;    0,431;   -1,773
619,981;  560,515;    1,067;   -1,045
620,559;  496,586;    0,794;    1,682
621,137;  513,053;    3,067;    1,864
621,715;  428,971;    3,703;   -0,682
622,293;  454,777;    1,885;   -0,773
622,871;  460,873;    0,340;    0,500
623,450;  428,188;    0,430;   -0,864
624,028;  597,221;   -0,388;   -0,955
624,606;  539,471;    2,339;    1,682
625,183;  386,532;   -0,661;   -1,136
625,761;  522,802;    1,885;    1,136
626,339;  786,299;    2,339;    2,591
626,917;  473,122;    0,339;   -0,045
627,495;  417,310;    2,794;    1,318
628,073;  523,370;    5,248;    2,864
628,650;  549,420;    3,067;    2,136
629,228;  544,998;    1,248;    4,409
629,806;  383,788;   -0,024;    1,136
630,383;  432,024;    0,066;   -0,318
630,961;  435,334;   -2,206;   -0,955
631,539;  478,928;   -2,479;    0,227
632,116; 1174,971;   12,703;   15,409
632,694;  782,847;    4,885;    6,500
633,271;  626,143;    1,975;    2,682
633,848;  718,537;    1,430;    2,045
634,426;  477,394;    1,521;    1,773
635,003;  362,408;   -0,207;   -0,409
635,580;  716,127;    1,884;    3,682
636,158;  605,095;    3,793;    1,227
636,735;  445,871;    3,339;   -0,500
637,312;  435,365;    0,521;   -0,682
637,889;  434,747;    2,248;   -0,682
638,466;  417,569;    0,066;   -0,409
639,043;  467,690;    1,702;   -1,136
639,620;  388,051;    0,611;   -0,955
640,197;  503,708;    1,612;    1,682
640,774;  365,350;    1,430;    1,136
641,351;  419,809;    0,612;    1,136
641,928;  585,269;    2,794;    1,409
642,505;  687,729;    0,794;   -0,500
643,082;  527,734;    1,885;    1,227
643,658;  418,103;    1,157;    1,500
644,235;  402,381;   -2,479;    2,500
644,812;  560,750;    1,794;    0,773
645,388;  552,846;    1,612;    1,409
645,965;  373,943;    1,521;    1,682
646,542;  389,402;    3,430;   -0,227
647,118;  720,771;    3,703;   -0,955
647,695;  531,413;    0,339;    1,136
648,271;  369,146;   -2,115;    0,500
648,848;  518,242;    0,248;    2,227
649,424;  629,156;    0,976;    1,318
650,000;  459,070;   -0,388;   -1,045
650,577;  485,621;    0,158;   -0,955
651,153;  481,899;   -1,115;    0,955
651,729;  449,359;    0,521;    0,864
652,305;  786,364;    1,339;    2,773
652,881;  694,642;   -1,297;    1,136
653,458;  743,557;    0,249;    0,227
654,034;  768,017;    0,703;    1,591
654,610;  914,840;    0,339;    0,773
655,186; 1387,300;    1,612;    3,045
655,762;  939,305;   -1,842;    0,409
656,338;  912,765;    0,703;    0,136
656,913;  974,407;   -0,297;    0,409
657,489;  775,957;    0,249;   -0,318
658,065;  888,963;    0,794;   -1,591
658,641;  905,422;    2,158;   -0,864
659,217;  848,973;    2,067;    0,409
659,792; 1015,251;   -1,751;   -0,409
660,368;  835,711;   -0,388;   -0,682
660,944;  838,171;    1,794;    1,227
661,519;  798,267;    0,522;    0,409
662,095;  604,909;   -0,206;    0,591
662,670;  500,823;   -0,206;   -0,136
663,246;  427,283;   -0,660;   -0,409
663,821;  563,106;    0,431;    1,682
664,396;  509,748;    0,613;    1,864
664,972;  446,299;   -0,660;   -0,500
665,547;  488,031;    3,794;    0,136
666,122;  463,582;    1,340;    0,318
666,698;  638,769;    2,431;    0,318
667,273;  436,047;    0,885;    0,136
667,848;  465,507;    0,340;    1,500
668,423;  612,876;    1,795;    2,318
668,998;  482,427;    0,976;   -0,682
669,573;  452,796;    2,067;   -1,500
670,148;  605,801;    1,885;   -0,682
670,723;  418,261;   -0,024;    0,318
671,298;  671,539;   -1,296;    1,045
671,873;  590,817;   -0,296;   -0,136
672,448;  567,913;    1,704;    0,136
673,023;  562,554;    0,249;   -0,227
673,597;  642,469;    2,704;    2,318
674,172;  685,838;    2,431;    0,318
674,747;  612,843;   -0,205;   -1,045
675,321;  413,576;   -0,933;    3,318
675,896;  366,945;    2,158;    1,045
676,471;  567,586;    2,522;    1,591
677,045;  486,501;   -0,296;    0,682
677,620;  562,506;    2,158;    1,136
678,194;  426,602;    0,249;    1,136
678,769;  498,244;    0,886;   -0,318
679,343;  539,067;   -0,023;    1,773
679,917;  635,254;    0,340;    1,955
680,492;  503,350;    0,249;    3,227
681,066;  538,992;    0,613;    0,409
681,640;  485,634;    1,795;   -0,318
682,214;  501,912;    2,340;    0,500
682,788;  496,826;    0,613;   -0,773
683,363;  619,104;    1,977;    1,682
683,937;  507,382;    0,886;   -0,318
684,511;  536,024;   -1,023;   -0,591
685,085;  544,120;   -1,478;    0,318
685,659;  458,398;    1,431;    0,864
686,232;  674,221;    1,159;   -0,318
686,806;  565,681;    2,159;    0,409
687,380;  469,050;   -1,932;    0,591
687,954;  424,601;    2,432;    1,136
688,528;  697,243;    2,613;    1,955
689,101;  548,702;    0,432;    1,045
689,675;  453,889;    0,886;   -0,136
690,249;  657,077;    3,432;    0,409
690,822;  653,445;    1,159;    0,318
691,396;  556,269;    2,068;    1,227
691,969;  491,638;    2,523;    0,136
692,543;  416,552;   -0,568;   -1,955
693,116;  396,467;   -0,659;   -1,409
693,690;  482,563;   -0,296;    0,500
694,263;  423,295;    2,341;    2,955
694,836;  736,846;    2,795;    3,591
695,410;  623,033;    1,159;    1,773
695,983;  656,129;    1,614;    0,591
696,556;  472,407;   -0,750;   -1,045
697,129;  399,322;   -1,114;    1,409
697,703;  600,600;    1,341;    1,955
698,276;  504,241;    1,705;   -0,773
698,849;  639,610;   -1,023;    1,409
699,422;  447,434;    1,250;    0,591
699,995;  362,439;   -0,659;    0,136
700,568;  476,899;   -0,204;    3,045
701,140;  493,177;   -1,841;    1,682
701,713;  633,273;    0,341;    2,409
702,286;  536,915;    0,796;    0,864
702,859;  607,465;    0,614;   -0,591
703,432;  692,107;   -0,841;    0,682
704,004;  579,476;    1,978;    0,318
704,577;  451,936;    1,068;    0,136
705,150;  511,941;    0,887;    2,500
705,722;  568,310;    1,523;   -3,227
706,295;  624,043;    1,432;   -0,591
706,867;  516,321;    0,250;    1,955
707,440;  597,326;   -0,113;   -0,409
708,012;  663,695;   -0,022;    0,591
708,584;  593,246;    2,705;    0,227
709,157;  400,069;    1,160;   -0,591
709,729;  596,620;    1,069;    2,045
710,301;  471,989;   -1,204;    0,045
710,874;  480,449;    0,341;   -0,227
711,446;  384,727;   -0,295;    0,864
712,018;  445,550;   -3,022;    0,500
712,590;  405,919;   -0,204;    1,682
713,162;  644,197;   -0,477;    1,318
713,734;  469,384;    1,796;   -2,045
714,306;  395,298;    0,342;   -0,409
714,878;  436,395;   -0,295;    0,864
715,450;  399,854;   -0,113;    0,864
716,022;  409,587;    2,433;    1,318
716,593;  406,047;    0,978;    0,591
717,165;  455,688;    1,796;   -1,227
717,737;  683,876;    0,796;    0,409
718,309;  482,063;    1,160;   -0,045
718,880;  418,159;   -1,295;   -1,409
719,452;  477,255;    0,887;   -1,591
720,024;  555,533;    1,705;   -0,591
720,595;  468,266;    2,978;    0,955
721,167;  446,453;    1,160;   -2,045
721,738;  564,185;    2,069;   -1,045
722,309;  697,918;    1,251;   -1,227
722,881;  457,650;    2,705;    0,773
723,452;  531,837;    1,251;    2,864
724,023;  537,752;    1,524;    2,682
724,595;  583,393;    2,342;    0,682
725,166;  479,035;    1,524;   -0,409
725,737;  641,404;    1,887;    0,227
726,308;  468,046;    0,797;    0,318
726,879;  390,051;    1,069;    1,227
727,450;  531,147;   -2,022;   -0,045
728,021;  482,334;    1,069;    0,682
728,592;  629,158;    1,160;    0,500
729,163;  697,163;    1,433;   -0,136
729,734;  668,077;    2,160;   -0,227
730,305;  561,901;    0,615;    0,136
730,876;  535,088;    0,888;    2,955
731,447;  803,457;    0,797;    2,682
732,017;  725,735;   -0,840;    1,864
732,588;  537,831;   -0,021;    1,227
733,159;  783,018;    3,615;   -1,045
733,729;  540,842;    1,251;    0,409
734,300;  682,483;    0,160;    0,864
734,870;  511,670;   -1,385;    0,591
735,441;  509,767;    0,888;   -0,591
736,011;  485,408;    1,070;   -1,591
736,582;  482,595;    1,251;    0,045
737,152;  599,419;    0,979;   -2,045
737,722;  577,788;    1,070;   -0,682
738,293;  448,884;   -2,021;    1,318
738,863;  603,798;    1,797;    2,318
739,433;  836,713;    4,524;    0,318
740,003;  585,445;    1,524;   -0,682
740,573;  702,087;    2,252;   -1,591
741,143;  581,365;    3,615;    0,318
741,713;  504,188;    0,252;   -0,500
742,283;  566,284;    1,706;    1,591
742,853;  514,017;    0,524;    1,591
743,423;  368,204;    0,161;    0,045
743,993;  453,391;    1,070;    1,500
744,563;  504,669;    2,524;   -0,864
745,133;  527,402;   -0,112;   -0,864
745,702;  424,134;    2,797;    1,773
746,272;  605,049;    0,434;    0,591
746,842;  622,781;   -0,748;   -0,591
747,411;  445,150;   -0,839;   -0,318
747,981;  352,974;   -0,930;    0,500
748,551;  349,797;   -0,021;   -1,045
749,120;  527,802;   -0,112;   -0,227
749,690;  476,535;    2,161;    2,409
750,259;  568,177;    0,979;    2,955
750,828;  616,818;    4,070;   -1,955
751,398;  428,005;   -0,112;   -0,045
751,967;  859,102;    2,888;    0,409
752,536;  540,016;    1,161;   -0,227
753,105;  632,658;   -1,384;    0,227
753,675;  496,026;   -0,112;    1,773
754,244;  491,123;    0,888;    3,591
754,813;  523,855;    0,979;    1,227
755,382;  489,315;    0,798;    0,955
755,951;  599,684;   -0,112;    3,682
756,520;  704,507;    2,525;    1,864
757,089;  788,604;    1,888;    0,500
757,658;  561,336;    2,434;    1,227
758,227;  420,341;   -1,111;    0,318
758,795;  457,256;   -1,021;    1,136
759,364;  470,443;    0,525;   -0,591
759,933;  416,085;    1,343;   -0,045
760,501;  363,999;    0,252;   -1,318
761,070;  512,368;   -0,293;   -1,409
761,639;  475,009;    1,434;    1,318
762,207;  569,106;    0,889;   -0,955
762,776;  612,475;    2,889;    0,864
763,344;  483,934;    0,071;    0,591
763,913;  324,212;    1,616;    1,409
764,481;  782,036;    1,980;   -0,136
765,049;  782,041;    0,616;    1,409
765,618;  714,319;    1,434;    0,318
766,186;  542,143;    2,434;    0,136
766,754;  591,239;    1,798;    1,864
767,322;  480,244;    1,162;    0,409
767,890;  431,068;    0,525;   -1,773
768,459;  438,346;    2,616;   -0,318
769,027;  631,624;    2,525;    3,409
769,595;  477,083;    2,616;    2,591
770,163;  578,543;    3,344;    2,955
770,730;  535,639;    2,525;   -0,136
771,298;  528,099;    1,162;   -1,409
771,866;  469,468;    0,253;    4,955
772,434;  484,746;    1,162;   -1,864
773,002;  673,024;    2,616;    0,682
773,569;  557,120;    1,071;    1,682
774,137;  653,489;    0,889;   -0,045
774,705;  475,858;   -0,747;   -0,136
775,272;  458,136;    0,253;    0,682
775,840;  471,142;   -0,111;    2,682
776,407;  567,056;   -0,293;    1,955
776,975;  450,879;    1,162;    0,318
777,542;  411,339;    2,162;   -0,045
778,110;  449,254;    0,707;   -0,045
778,677;  352,986;    1,071;   -0,864
779,244;  415,355;   -1,020;    1,045
779,812;  524,724;    0,980;    0,864
780,379;  607,184;    2,435;    1,136
780,946;  505,189;    2,617;   -0,773
781,513;  418,558;   -0,565;    0,318
782,080;  396,291;    1,253;    2,864
782,647;  422,569;    1,708;    3,045
783,214;  401,665;   -0,201;    3,864
783,781;  575,034;    1,708;   -0,682
784,348;  532,403;    0,253;    1,500
784,915;  351,862;   -1,474;    0,318
785,482;  560,868;    2,708;    2,591
786,049;  486,418;    1,071;   -0,591
786,615;  377,878;    1,708;   -0,955
787,182;  350,520;   -3,201;   -0,682
787,749;  326,071;   -2,201;    1,409
788,315;  527,894;    0,253;   -0,409
788,882;  423,899;    0,981;   -1,227
789,448;  686,632;    1,435;   -0,955
790,015;  479,183;    1,799;    3,227
790,581;  630,370;    0,708;    0,227
791,148;  468,102;    1,344;    1,045
791,714;  376,562;   -1,019;    3,136
792,280;  390,113;    3,708;    1,591
792,847;  346,845;   -0,928;    2,500
793,413;  419,760;   -0,110;   -0,318
793,979;  613,583;    1,526;   -1,318
794,545;  853,316;    2,981;    2,682
795,111;  731,957;    2,435;    1,318
795,678;  607,326;    3,526;   -1,682
796,244;  749,877;    2,799;    0,136
796,810;  602,882;    0,799;    0,773
797,375;  591,069;   -0,292;   -2,136
797,941;  334,166;   -1,110;    0,591
798,507;  345,080;    0,254;   -0,955
799,073;  382,449;    2,708;    0,591
799,639;  369,818;    1,435;    3,136
800,205;  342,096;   -1,565;    2,682
800,770;  367,101;    1,345;    1,773
801,336;  384,834;    2,981;   -0,955
801,901;  917,839;    6,072;    3,136
802,467;  601,026;    0,526;    2,045
803,033;  413,213;   -0,019;    0,864
803,598;  395,764;    1,072;   -1,045
804,163;  400,951;    0,708;   -0,318
804,729;  491,684;   -0,110;    1,136
805,294;  397,325;    1,072;    2,227
805,859;  347,421;    0,890;   -0,409
806,425;  702,245;    3,890;    2,682
806,990;  672,250;    1,890;    4,318
807,555;  459,255;   -0,110;    2,591
808,120;  574,624;   -1,292;   -0,409
808,685;  412,448;    1,072;   -2,500
809,250;  337,089;    2,072;   -0,500
809,815;  318,640;   -0,201;    0,682
810,380;  434,736;    0,981;    1,591
810,945;  588,742;    2,890;    2,045
811,510;  437,474;   -0,200;    1,591
812,075;  487,843;    2,800;   -1,409
812,640;  690,030;    3,709;    1,409
813,204;  481,399;    2,163;   -0,227
813,769;  604,495;    0,254;   -0,045
814,334;  592,410;    0,527;    0,864
814,898;  364,233;    1,981;    0,591
815,463;  446,420;    0,981;   -0,773
816,027;  398,789;    1,345;   -2,318
816,592;  341,522;    2,163;   -2,045
817,156;  490,618;   -2,200;    1,136
817,721;  590,987;    0,982;    2,318
818,285;  370,810;    0,618;    1,500
818,849;  421,725;   -0,018;    1,682
819,414;  352,548;    0,073;    2,955
819,978;  315,190;   -0,291;    1,773
820,542;  562,377;    2,891;    0,500
821,106;  409,655;    2,800;    0,682
821,670;  608,024;    2,709;    2,591
822,234;  411,029;    1,073;    1,409
822,798;  325,762;   -0,836;    0,500
823,362;  512,222;    1,527;    4,227
823,926;  391,409;   -0,018;    1,136
824,490;  548,959;    3,527;   -0,682
825,054;  438,692;    2,527;   -1,136
825,618;  358,788;   -1,200;   -1,500
826,181;  411,975;    0,982;   -1,318
826,745;  502,526;   -0,745;   -1,045
827,309;  679,168;    2,255;    1,318
827,872;  558,537;    0,527;    0,955
828,436;  462,633;    1,982;   -0,773
828,999;  382,183;    2,436;    1,227
829,563;  362,916;   -0,654;    1,136
830,126;  344,194;   -0,018;   -0,591
830,690;  450,563;    0,709;    2,864
831,253;  367,386;   -0,473;    2,227
831,816;  399,028;   -0,018;    0,500
832,380;  371,306;    1,164;    0,864
832,943;  345,948;    3,073;   -0,500
833,506;  351,317;    0,255;   -1,227
834,069;  491,413;    2,164;   -0,955
834,632;  358,964;   -2,200;    1,318
835,195;  388,514;    1,346;    0,955
835,758;  342,338;    0,709;    1,955
836,321;  361,798;    1,073;   -1,045
836,884;  336,076;   -1,291;   -0,955
837,447;  291,535;    0,528;    1,773
838,010;  447,086;    1,800;    3,227
838,573;  439,637;    0,528;    0,773
839,135;  320,915;   -0,109;   -0,955
839,698;  381,647;    2,528;    0,409
840,261;  332,198;    0,255;   -0,227
840,823;  302,567;   -0,927;    0,864
841,386;  286,300;   -0,018;   -2,409
841,948;  541,032;    0,255;    1,773
842,511;  360,219;    0,255;    1,682
843,073;  519,497;    2,982;    0,227
843,636;  328,412;    0,619;   -0,227
844,198;  502,053;    1,255;    0,591
844,760;  466,422;    0,619;    1,955
845,322;  298,791;    0,164;    1,136
845,885;  422,069;   -0,290;    0,591
846,447;  370,256;    0,710;    0,227
847,009;  659,898;    3,983;   -0,682
847,571;  418,630;    1,346;   -2,045
848,133;  367,908;   -0,199;   -1,864
848,695;  252,096;    2,346;    1,409
849,257;  314,646;    1,346;   -1,682
849,819;  433,379;    2,983;   -0,409
850,381;  327,021;    1,801;   -0,864
850,942;  378,389;    1,892;   -0,591
851,504;  440,213;    0,983;    0,227
852,066;  332,491;    1,619;   -1,591
852,628;  353,405;    0,165;    1,955
853,189;  281,138;    0,256;    2,682
853,751;  286,416;   -0,654;    1,409
854,312;  402,512;    1,256;   -1,682
854,874;  523,426;   -0,108;   -0,773
855,435;  371,977;    0,528;   -1,682
855,997;  390,437;    3,983;   -0,136
856,558;  493,806;    0,801;    1,773
857,119;  413,993;   -0,744;    2,864
857,681;  291,726;   -0,108;    0,318
858,242;  522,004;    1,347;   -2,136
858,803;  469,191;    1,074;   -0,773
859,364;  370,378;    0,892;   -4,773
859,925;  444,292;   -0,290;   -0,955
860,486;  341,752;    0,529;   -0,955
861,047;  297,666;    0,165;   -1,227
861,608;  338,035;    0,165;   -0,773
862,169;  226,495;   -0,562;   -0,045
862,730;  330,864;   -0,290;    1,409
863,291;  365,960;    0,438;   -0,500
863,852;  341,875;   -0,926;    1,955
864,412;  344,334;   -1,835;   -0,864
864,973;  546,158;    1,892;    0,500
865,534;  621,254;    2,074;    0,227
866,094;  446,168;    2,620;    0,227
866,655;  574,537;    4,711;    3,318
867,215;  410,543;    0,074;    0,136
867,776;  290,821;   -1,199;   -0,136
868,336;  362,735;    1,529;    0,136
868,897;  677,195;    3,438;    1,682
869,457;  494,473;    3,256;    0,318
870,017;  324,114;    2,438;   -1,227
870,578;  316,029;    1,893;    0,773
871,138;  384,852;    2,620;   -0,955
871,698;  318,858;   -0,562;   -1,318
872,258;  401,772;    0,711;   -2,864
872,818;  524,323;    2,347;    0,045
873,378;  378,328;   -2,198;    1,045
873,938;  371,242;    4,984;    0,500
874,498;  290,793;    1,256;   -1,955
875,058;  384,162;    4,347;    1,773
875,618;  378,076;    1,438;   -2,682
876,177;  413,627;   -0,471;    0,136
876,737;  268,178;   -0,289;    1,955
877,297;  579,910;    2,711;    1,955
877,856;  504,552;    2,529;    0,318
878,416;  315,739;    2,438;   -0,136
878,976;  286,381;    3,438;    0,409
879,535;  320,113;    4,529;    3,136
880,095;  309,482;    1,347;    0,045
880,654;  269,851;    0,347;    1,318
881,213;  522,675;    2,347;    1,500
881,773;  383,407;    1,984;    2,682
882,332;  807,867;    6,075;    5,136
882,891;  381,418;    0,711;    2,136
883,451;  359,423;   -2,016;    1,682
884,010;  325,792;   -1,107;   -0,409
884,569;  284,888;   -2,289;   -0,045
885,128;  426,439;   -0,743;   -1,864
885,687;  626,262;   -0,743;    0,682
886,246;  770,540;    2,620;    2,136
886,805;  602,091;    1,620;    2,045
887,364;  320,642;    1,166;   -0,500
887,922;  260,283;   -0,016;    0,045
888,481;  429,289;    1,530;    0,591
889,040;  479,021;    3,711;    2,136
889,599;  381,208;    2,166;    1,409
890,157;  383,941;    2,166;    2,409
890,716;  312,492;    2,166;    0,227
891,274;  421,315;    0,075;   -1,136
891,833;  467,230;    1,166;    0,864
892,391;  373,689;    1,802;    0,500
892,950;  445,331;    0,166;   -0,773
893,508;  300,336;    0,984;   -0,409
894,067;  248,251;   -0,379;    0,136
894,625;  321,710;   -1,016;   -1,500
895,183;  288,534;   -0,198;   -0,682
895,741;  508,630;    2,257;   -1,773
896,299;  345,726;    1,621;   -2,409
896,858;  304,095;    1,530;   -1,591
897,416;  416,828;    0,166;   -1,318
897,974;  351,742;   -2,197;    0,318
898,532;  740,929;    6,530;    2,682
899,089;  477,389;    0,621;   -0,682
899,647;  385,303;    0,530;    1,318
900,205;  376,127;    0,257;    1,045
900,763;  373,950;    2,166;    0,227
901,321;  338,047;    3,530;   -1,409
901,878;  211,961;    3,257;   -0,773
902,436;  278,784;    0,257;    1,318
902,994;  852,881;    6,712;    3,682
903,551;  471,431;    1,439;    0,409
904,109;  367,255;    1,530;   -1,409
904,666;  334,442;    1,439;    1,045
905,224;  252,084;    3,894;   -0,409
905,781;  381,362;   -0,470;   -0,318
906,338;  335,367;    0,167;    1,045
906,895;  254,463;    1,894;    2,045
907,453;  465,286;    2,348;    1,136
908,010;  351,292;    3,348;    0,409
908,567;  341,570;   -0,561;    0,591
909,124;  218,848;    2,439;   -1,500
909,681;  267,580;   -1,288;    0,682
910,238;  300,858;   -0,106;   -1,318
910,795;  229,227;   -1,561;   -1,136
911,352;  239,409;   -0,379;   -2,682
911,909;  265,591;    2,803;   -0,864
912,466;  268,682;    1,985;    1,500
913,022;  367,864;   -0,924;    0,500
913,579;  423,955;   -0,470;    2,045
914,136;  323,136;   -2,561;    0,955
914,692;  320,409;    1,530;   -1,227
915,249;  345,409;    0,530;    0,409
915,806;  390,864;    1,803;    1,955
916,362;  310,318;    0,894;    1,864
916,918;  301,500;    2,439;    1,045
917,475;  390,955;    1,621;    0,955
918,031;  264,955;    0,076;   -0,045
918,587;  325,318;    0,621;   -0,318
919,144;  261,682;   -0,379;    0,227
919,700;  208,864;    0,167;    0,773
920,256;  213,318;    0,439;    0,045
920,812;  260,500;    1,439;   -1,045
921,368;  228,045;    1,348;   -1,045
921,924;  258,318;    0,439;   -0,136
922,480;  322,227;    0,076;    1,227
923,036;  328,136;   -0,652;    1,955
923,592;  250,409;    0,621;    0,318
924,148;  260,591;    1,894;   -0,955
924,704;  360,955;    0,258;   -0,409
925,259;  234,955;   -0,561;    0,591
925,815;  231,682;    3,803;    0,500
926,371;  212,682;    3,530;    1,409
926,926;  336,591;    1,621;    0,591
927,482;  309,409;    1,621;    0,773
928,037;  256,409;   -0,833;    2,045
928,593;  399,682;    0,258;    1,045
929,148;  236,955;    1,167;   -1,500
929,704;  288,045;    2,439;   -0,500
930,259;  239,773;    0,894;   -0,136
930,814;  365,682;    1,803;    1,955
931,369;  312,864;    0,258;   -0,773
931,925;  197,591;   -1,924;    0,136
932,480;  268,500;    3,076;   -2,591
933,035;  509,773;    3,985;   -0,318
933,590;  435,955;   -1,742;   -1,773
934,145;  208,045;   -1,288;   -0,318
934,700;  142,318;    0,348;   -0,591
935,255;  181,318;    4,803;    0,045
935,809;  421,591;    6,258;    0,864
936,364;  185,955;    2,167;   -0,136
936,919;  175,227;    2,348;   -1,773
937,474;  135,500;    1,348;    0,136
938,028;  144,500;    3,076;    1,136
938,583;  428,773;    6,348;    4,682
939,138;  214,136;    0,167;    2,136
939,692;  124,227;   -1,015;   -1,136
940,247;  153,045;    1,167;   -1,045
940,801;  170,591;    0,621;    0,227
941,355;  123,409;    0,439;    2,591
941,910;   92,773;    0,712;   -2,136
942,464;  110,682;    2,712;   -0,318
943,018;  237,318;    3,258;   -0,227
943,572;  152,136;    2,803;   -0,682
944,126;  198,318;   -0,924;   -0,409
944,681;  130,045;    0,712;    0,227
945,235;   93,773;    2,167;   -0,591
945,789;   85,318;    1,258;   -1,864
946,342;  225,864;   -0,561;   -0,591
946,896;  112,955;    0,348;    0,955
947,450;   86,227;   -0,561;   -0,227
948,004;  214,682;    1,076;   -0,045
948,558;  131,227;    1,258;   -0,864
949,111;  124,773;   -1,197;   -0,318
949,665;  214,136;   -0,106;   -0,682
950,219;  200,500;    0,621;   -1,045
950,772;  153,227;    0,258;    1,864
951,326;  138,955;   -1,106;   -0,955
951,879;  120,864;    1,076;   -2,318
952,433;  190,591;    1,348;    2,227
952,986;  107,318;    0,348;    0,682
953,539;   93,773;    1,530;    0,591
954,093;   77,500;    0,985;   -1,318
954,646;  124,136;   -0,288;    1,318
955,199;   82,682;    1,258;   -0,500
955,752;  223,591;    1,985;    1,773
956,305;  130,864;    0,894;    2,955
956,858;  154,409;    0,621;   -0,318
957,411;  178,045;    3,621;    2,136
957,964;  146,318;    2,076;    2,136
958,517;  102,227;    0,985;    3,136
959,070;   80,045;   -1,197;    1,955
959,623;  216,682;    1,076;    1,500
960,176;  191,318;    0,712;    2,045
960,728;  154,682;    1,712;    0,773
961,281;  123,591;    2,258;    0,500
961,834;   95,955;   -0,833;    0,864
962,386;  103,864;    1,258;    1,045
962,939;   90,864;    3,439;   -0,318
963,491;  117,227;    2,621;    1,136
964,043;   86,682;    0,076;    2,409
964,596;  170,591;    1,712;    2,227
965,148;  116,682;   -0,379;    1,773
965,700;   80,136;   -0,015;   -0,227
966,253;  168,409;   -0,833;    0,318
966,805;  136,864;    1,894;    0,773
967,357;  104,227;    0,439;   -1,500
967,909;  156,591;    1,167;   -1,227
968,461;  110,318;    0,894;    3,136
969,013;   89,409;   -1,561;   -0,864
969,565;  169,773;    1,803;   -1,136
970,117;  282,045;    3,803;    1,045
970,669;  168,045;    3,258;   -0,136
971,220;   73,409;    2,167;   -1,500
971,772;  114,409;    1,348;   -0,318
972,324;  159,136;   -1,197;   -0,500
972,876;   98,500;    0,167;   -0,045
973,427;  150,773;   -1,197;   -1,045
973,979;  197,500;    0,076;   -2,500
974,530;  109,864;    0,803;    1,318
975,082;  139,955;    2,167;    1,682
975,633;  109,500;    2,894;    1,682
976,184;  117,864;    2,076;    0,773
976,736;  116,409;    0,348;    0,227
977,287;  137,955;    0,258;   -0,500
977,838;  114,409;   -0,924;   -0,318
978,389;  109,682;    0,803;   -0,500
978,940;   63,955;    1,258;   -0,409
979,491;   60,136;    2,258;   -0,500
980,042;  103,045;   -0,652;    3,045
980,593;  118,773;    1,894;    0,227
981,144;  150,591;    3,530;   -0,500
981,695;  152,682;   -0,470;    1,500
982,246;  133,955;   -1,833;    1,045
982,797;   78,591;   -0,561;    0,682
983,347;  138,773;    2,167;    0,591
983,898;  256,318;    4,167;    0,409
984,449;  237,864;    2,530;    0,773
984,999;  151,136;    1,894;   -1,136
985,550;  130,409;    3,167;   -0,318
986,100;   76,409;    0,712;   -0,318
986,651;   70,773;    0,258;    0,045
987,201;   80,773;    0,894;   -0,591
987,751;   90,500;   -0,288;    2,864
988,302;   99,682;   -0,379;    1,500
988,852;  132,864;    1,985;   -1,136
989,402;  155,227;    0,985;    0,682
989,952;  178,864;    1,621;    0,864
990,502;  104,318;    1,076;    0,682
991,052;   57,591;   -0,106;    0,045
991,602;   79,136;    1,167;    1,318
992,152;   98,955;    2,803;    0,682
992,702;  120,773;    1,167;   -0,045
993,252;   92,682;    0,076;   -0,500
993,802;  139,682;    1,167;    1,318
994,352;  112,318;   -0,742;    1,136
994,901;   75,136;    1,076;    3,227
995,451;   70,136;   -1,197;    0,318
996,000;   82,045;    1,076;    0,318
996,550;   90,500;    2,894;    0,227
997,100;  101,045;   -0,561;   -0,045
997,649;  159,591;   -0,197;    0,955
998,198;   88,227;   -0,288;   -1,500
998,748;  130,955;    0,348;   -2,318
999,297;  107,136;    0,985;   -0,409
999,846;  156,045;    1,894;   -0,773
1000,395;  114,955;    1,530;    0,500
1000,945;  169,409;    1,076;   -0,773
1001,494;  167,318;    0,167;    0,682
1002,043;  172,682;    0,712;    0,864
1002,592;   92,955;    3,439;    1,955
1003,141;   75,318;    2,439;   -0,682
1003,690;  156,227;    1,258;    0,500
1004,238;  101,227;   -0,106;   -0,045
1004,787;   67,955;   -1,288;    1,227
1005,336;  141,045;    1,621;    0,682
1005,885;  117,136;   -0,197;   -2,773
1006,433;  113,955;   -0,470;    0,955
1006,982;  186,045;    2,167;    1,682
1007,531;  123,136;    2,712;   -0,227
1008,079;  109,136;    0,258;    0,500
1008,627;   89,591;    1,621;    0,409
1009,176;  105,682;    0,076;   -1,955
1009,724;   75,682;   -2,742;    0,864
1010,273;  143,227;    1,076;    0,500
1010,821;   89,500;    1,076;    1,409
1011,369;   75,227;    0,076;    1,318
1011,917;   72,955;   -0,833;   -0,591
1012,465;  109,773;    2,530;   -1,591
1013,013;  103,955;    0,439;   -1,682
1013,561;  157,318;   -1,288;   -0,773
1014,109;  198,227;   -0,833;    1,682
1014,657;  135,318;    1,348;    0,591
1015,205;   94,227;    0,894;   -0,955
1015,753;   77,045;    0,258;   -1,409
1016,301;  104,318;    2,621;    3,045
1016,848;  143,682;    2,167;    0,409
1017,396;  127,045;    1,621;    0,045
1017,944;  126,045;    2,621;    1,864
1018,491;   97,409;   -0,197;    1,409
1019,039;  237,045;   -0,652;    0,591
1019,586;  128,773;    0,076;    1,682
1020,134;  112,773;    0,712;    1,500
1020,681;  154,318;    2,894;   -1,136
1021,228;  118,318;   -0,561;   -2,227
1021,776;  102,045;   -0,833;   -1,136
1022,323;  210,136;    0,803;    0,773
1022,870;  147,227;   -0,470;   -0,045
1023,417;  170,318;    2,076;    1,864
1023,964;  110,955;    0,621;    1,227
1024,511;   91,136;   -0,652;    0,773
1025,058;  123,409;    0,439;   -0,045
1025,605;   97,136;   -1,742;    3,136
1026,152;  191,136;   -0,106;   -0,591
1026,699;  117,591;    0,167;    1,318
1027,245;  111,591;    2,439;    0,318
1027,792;   82,318;    0,712;    1,409
1028,339;  195,227;    4,076;   -0,045
1028,885;  127,045;    3,621;   -0,227
1029,432;  102,227;   -0,106;    0,227
1029,978;  143,045;    1,348;   -1,591
1030,525;  156,136;    1,621;    0,409
1031,071;   93,227;    0,348;    1,136
1031,618;  217,500;    1,258;    1,682
1032,164;  141,955;    2,076;    3,045
1032,710;  162,591;    0,076;   -1,500
1033,256;  141,682;    0,712;   -0,136
1033,803;   80,227;   -0,288;    1,500
1034,349;   31,409;    1,803;    0,136
1034,895;   52,409;    2,621;   -0,318
1035,441;   83,045;    0,439;    0,318
1035,987;  102,682;   -2,288;   -0,682
1036,533;  135,773;   -0,197;   -0,955
1037,078;  243,318;    4,712;    1,682
1037,624;  169,136;    2,439;   -0,955
1038,170;   95,773;    1,712;   -0,318
1038,716;  132,864;    2,167;   -0,409
1039,261;   83,500;    2,167;   -0,773
1039,807;   87,864;   -0,015;    3,409
1040,352;   95,045;   -1,288;   -0,318
1040,898;   89,955;    0,167;   -0,682
1041,443;   68,409;    0,803;   -2,591
1041,989;  221,227;    3,621;    1,591
1042,534;  122,591;    0,985;    2,591
1043,079;   66,318;    1,985;    0,955
1043,625;  107,409;    0,258;    0,500
1044,170;  113,136;    2,439;    1,045
1044,715;  207,955;    0,167;    0,955
1045,260;  155,682;   -0,833;   -0,955
1045,805;   87,227;    0,258;   -0,591
1046,350;   75,864;    0,530;   -0,409
1046,895;  161,591;    0,803;    1,591
1047,440;  143,227;    1,530;    0,409
1047,985;   89,409;   -1,197;   -0,955
1048,530;   82,227;    1,348;    1,227
1049,074;  100,409;    2,803;    0,318
1049,619;   78,591;   -0,924;    1,955
1050,164;   80,500;    1,076;    0,227
1050,708;  131,136;    2,621;    0,045
1051,253;  239,136;    3,258;   -2,227
1051,797;  135,955;   -0,197;   -1,318
1052,342;   67,773;    1,348;    1,045
1052,886;  100,773;    1,803;   -1,409
1053,430;   61,682;    2,167;    0,136
1053,975;  108,864;    0,894;   -0,318
1054,519;  100,318;    1,803;    3,227
1055,063;  124,136;    3,621;    1,318
1055,607;  123,773;    1,348;    0,227
1056,151;  119,682;    0,530;    1,682
1056,695;   85,864;   -1,833;   -1,136
1057,239;   84,864;   -1,197;   -0,682
1057,783;  104,864;    2,258;   -1,500
1058,327;  137,500;    3,076;    1,409
1058,871;  206,227;    3,985;    1,318
1059,415;  144,682;   -0,561;   -0,045
1059,958;  205,864;    2,985;    2,591
1060,502;   86,136;    1,348;   -0,773
1061,046;   54,591;    1,712;   -0,955
1061,589;   56,864;    2,803;   -1,136
1062,133;   49,500;    0,985;    1,864
1062,676;   65,955;    1,439;    0,864
1063,220;   80,045;    0,985;    0,500
1063,763;   91,955;    2,985;    1,136
1064,306;   95,864;    0,985;    1,864
1064,849;   99,955;    2,076;    0,591
1065,393;   84,136;    2,894;   -1,500
1065,936;   87,227;    2,530;   -0,409
1066,479;   61,864;    2,621;    1,318
1067,022;   72,409;    1,894;   -0,227
1067,565;   60,318;   -1,197;   -1,318
1068,108;   52,409;    1,258;   -0,591
1068,651;   44,591;   -2,470;    1,409
1069,194;   47,318;   -1,106;   -1,682
1069,736;   52,136;    3,803;    0,955
1070,279;   46,591;   -1,652;   -0,500
1070,822;   78,682;    1,530;   -0,318
1071,364;  133,955;    0,530;    1,318
1071,907;   76,227;    0,348;    3,227
1072,450;   26,864;    0,258;   -0,045
1072,992;   49,864;   -0,561;    3,136
1073,535;   75,045;    0,167;    2,136
1074,077;   49,318;    2,985;    2,045
1074,619;   41,682;    0,985;    0,591
1075,161;   60,773;   -0,561;    1,500
1075,704;  109,864;    0,258;    1,227
1076,246;   60,227;    1,530;    0,682
1076,788;   36,500;   -1,015;    1,773
1077,330;   35,591;   -2,106;    2,136
1077,872;   51,682;   -1,924;    0,955
1078,414;  120,955;    3,712;    0,773
1078,956;   64,227;    0,167;   -0,227
1079,498;  112,318;    0,439;    0,318
1080,040;   64,682;    0,985;   -1,318
1080,581;   47,591;    0,621;   -0,318
1081,123;   30,591;   -0,106;   -0,773
1081,665;   34,409;    3,803;   -0,955
1082,206;  106,955;    3,258;   -0,500
1082,748;   67,773;    3,258;    2,045
1083,289;   39,045;    0,167;    1,318
1083,831;   32,500;    0,258;    0,227
1084,372;   50,227;    0,894;    0,591
1084,913;   44,682;    3,348;    0,864
1085,455;   33,591;    1,530;   -2,045
1085,996;   24,864;    0,530;    0,136
1086,537;   32,500;    0,985;    0,864
1087,078;   42,227;    0,439;   -2,136
1087,619;   67,318;   -1,652;    0,227
1088,160;   49,045;    1,439;    1,318
1088,701;   43,591;   -0,742;    0,682
1089,242;   39,136;   -0,561;   -2,227
1089,783;   53,409;   -0,561;    1,409
1090,324;   41,955;   -0,833;    0,682
1090,865;   32,136;   -1,924;   -0,409
1091,405;   23,591;   -0,561;    2,227
1091,946;   40,227;   -0,197;   -0,955
1092,487;   24,136;   -1,288;   -1,409
1093,027;   62,045;    1,803;   -1,500
1093,568;   36,682;    2,258;    1,227
1094,108;   46,318;    0,621;    1,773
1094,649;   36,409;   -0,470;    0,136
1095,189;   27,318;    1,167;   -0,682
1095,729;   27,227;    0,712;    0,955
1096,269;   24,955;    1,258;   -0,955
1096,810;   73,591;   -0,197;    0,500
1097,350;   47,682;   -0,561;   -0,773
1097,890;   41,227;    2,985;    1,227
1098,430;  108,773;    4,985;    2,864
1098,970;   75,136;    1,894;    1,682
1099,510;   33,591;   -0,833;   -2,318
1100,050;   30,227;    0,258;   -1,591
1100,589;   35,318;    0,076;   -0,318
1101,129;   47,864;    0,894;   -0,955
1101,669;   75,864;    2,803;    2,136
1102,209;   49,500;    1,530;    2,227
1102,748;   37,318;    3,439;    0,955
1103,288;   41,682;    0,712;   -1,227
1103,827;   34,318;    3,530;   -2,227
1104,367;   21,773;    1,712;   -2,409
1104,906;   27,591;   -1,015;   -1,136
1105,445;   44,409;    0,985;   -1,136
1105,985;   30,045;   -0,652;    1,500
1106,524;   37,591;    1,530;   -0,682
1107,063;   33,500;    1,167;    1,409
1107,602;   22,045;    1,894;   -1,500
1108,141;   17,318;    1,621;    1,500
1108,680;   37,955;    3,985;   -0,591
1109,219;   30,591;    0,167;   -0,500
1109,758;   27,500;    4,167;    0,682
1110,297;   26,227;   -1,106;   -0,682
1110,836;   19,591;    1,439;    0,955
1111,375;   20,955;    0,348;    0,409
1111,913;   44,955;    0,985;    0,773
1112,452;   31,227;    0,894;    0,136
1112,991;   17,227;    1,076;    1,955
1113,529;   19,045;    0,167;   -0,045
1114,068;   26,136;    0,439;    2,955
1114,606;   18,864;   -0,561;   -0,955
1115,144;   32,864;    1,530;    1,045
1115,683;   28,045;    1,985;    0,318
1116,221;   39,864;    2,076;   -0,864
1116,759;   23,409;    1,621;   -0,864
1117,297;   40,045;    1,621;    1,864
1117,836;   24,227;    1,985;   -1,227
1118,374;   23,136;    0,258;   -0,682
1118,912;   28,955;    0,439;    2,682
1119,450;   24,591;    0,985;    0,864
1119,988;   21,409;    3,348;    2,136
1120,525;  139,136;    7,258;    3,318
1121,063;   63,591;    0,530;    1,864
1121,601;   21,318;    1,076;   -1,227
1122,139;   16,227;    1,076;   -2,045
1122,676;   47,773;   -1,652;    2,773
1123,214;   44,136;    0,712;    4,409
1123,751;   19,045;    0,621;    2,227
1124,289;   31,318;    0,894;   -0,409
1124,826;   19,591;   -0,379;    0,227
1125,364;    8,409;    0,712;   -0,955
1125,901;   50,864;    6,258;    1,227
1126,438;   41,773;    3,530;    0,955
1126,975;    9,864;    2,985;   -0,773
1127,513;   16,682;    2,621;    2,136
1128,050;    9,591;   -0,561;   -0,682
1128,587;   16,318;    1,348;   -0,227
1129,124;   26,591;   -0,015;    1,318
1129,661;   11,864;   -1,924;    0,227
1130,198;   38,227;    2,439;    0,773
1130,734;   26,500;   -0,379;    1,409
1131,271;   11,045;   -1,197;    0,864
1131,808;   33,591;    1,621;    3,045
1132,345;   19,409;    4,530;    0,318
1132,881;    8,409;   -0,561;   -1,864
1133,418;   20,500;    0,348;   -1,136
1133,954;   12,227;    0,712;   -2,682
1134,491;   20,409;    1,712;   -0,773
1135,027;   10,682;    2,167;    0,864
1135,564;   19,500;    1,439;    2,955
1136,100;   16,500;   -0,742;    2,136
1136,636;    8,955;   -1,015;   -1,045
1137,172;   13,227;    0,894;   -1,045
1137,708;    9,682;   -1,561;   -1,045
1138,245;   10,227;    0,803;   -1,227
1138,781;    4,864;    1,803;   -3,318
1139,317;    9,136;    1,894;   -1,409
1139,852;   14,955;    3,076;    0,136
1140,388;   20,409;    2,076;   -0,409
1140,924;   10,227;    1,076;   -2,227
1141,460;    8,409;   -0,288;    0,136
1141,996;    3,773;   -0,652;    2,682
1142,531;    5,773;    1,076;    3,318
1143,067;   28,773;    1,167;    1,045
1143,602;   37,591;    3,439;   -0,318
1144,138;   18,682;    0,803;    1,045
1144,673;    7,591;    1,621;    1,409
1145,209;   10,773;    2,894;   -0,318
1145,744;    5,773;    0,803;    0,864
1146,279;   15,409;    1,530;   -0,136
1146,815;    7,227;    1,530;   -2,682
1147,350;   10,955;   -0,924;    0,045
1147,885;    5,409;   -1,924;   -1,318
1148,420;    5,864;    2,439;    0,773
1148,955;    8,045;   -1,470;    1,864
1149,490;    5,682;   -1,106;   -1,591
1150,025;    5,045;   -1,106;   -1,773
1150,560;   17,955;   -0,288;   -0,955
1151,094;   11,864;    0,258;   -0,591
1151,629;   13,318;   -3,742;    0,864
1152,164;    7,045;   -1,288;    1,318
1152,698;    6,318;    1,258;   -0,136
1153,233;    3,136;   -1,379;   -0,682
1153,767;    2,045;   -0,288;   -2,318
1154,302;    4,136;   -0,379;    1,773
1154,836;    8,409;    0,803;   -2,136
1155,371;    8,409;    2,258;    3,682
1155,905;    7,682;    1,985;    1,682
1156,439;   10,318;    0,530;   -0,500
1156,973;   10,864;    0,439;    0,318
1157,507;    5,955;   -1,742;    0,682
1158,042;    8,045;   -0,652;    1,045
1158,576;   10,136;   -0,561;    1,773
1159,110;    9,682;    0,076;    2,409
1159,643;    7,773;   -2,470;   -0,045
1160,177;    3,591;   -2,015;    1,500

