
Integration time [ms]:   0,050
Averaging Nr. [scans]: 11
Smoothing Nr. [pixels]: 0
Data measured with spectrometer [name]: 7318044SP
Wave   ;Sample   ;Dark     ;Reference
[nm]   ;[counts] ;[counts] ;[counts] 

186,757;  -24,871;   38,161;    1,318
187,357;    6,962;   26,706;    0,955
187,958;  -10,198;   17,252;   -1,591
188,558;   33,283;   12,979;   -1,227
189,159;   -1,449;   10,070;   -4,500
189,759;  -26,499;    5,797;   -3,591
190,360;  -20,599;    6,797;   -2,136
190,960;    6,761;    5,706;   -4,136
191,560;    6,767;    2,614;   -6,591
192,161;  203,538;    5,885;   -3,500
192,761;   81,537;    5,520;   -3,227
193,361;   24,120;    3,065;   -3,773
193,962;   67,264;    1,612;   -2,682
194,562;    1,028;   -0,114;   -3,955
195,162;   11,470;   -0,567;   -2,227
195,762;  123,071;    2,433;   -0,045
196,362;   82,969;    1,706;   -2,500
196,963;   -9,936;    1,706;   -0,864
197,563;   33,661;    1,252;   -0,955
198,163;   -9,898;   -0,111;   -0,682
198,763;    1,987;   -0,020;   -0,500
199,363;   53,085;    3,616;   -0,500
199,963;   29,085;    2,162;    0,409
200,563;   18,305;    6,344;   -1,409
201,163;    0,113;    5,435;   -0,227
201,763;   34,587;    1,435;    0,318
202,363;    4,317;    0,980;    1,500
202,963;   33,069;    1,526;    1,045
203,563;   83,402;    0,344;    0,500
204,162;   20,095;    1,889;   -1,864
204,762;   11,343;    2,071;    0,591
205,362;   -4,843;    0,708;    1,955
205,962;   10,553;    3,435;    1,955
206,562;    5,337;    1,889;    2,318
207,161;    0,828;    1,708;    0,318
207,761;   72,463;    4,435;    2,409
208,361;    0,215;    1,889;    1,409
208,960;   27,790;    2,889;    1,500
209,560;   24,749;    0,435;    1,591
210,160;   40,368;    5,071;    1,864
210,759;   15,352;    0,708;    1,227
211,359;   13,780;   -0,474;    1,045
211,958;  117,956;    3,526;    2,045
212,558;  113,326;    0,799;    1,864
213,157;   40,692;   -0,929;    1,500
213,757;  198,866;    5,617;   -0,227
214,356;   76,128;    1,708;   -0,409
214,956;  185,317;    3,526;    0,409
215,555;   59,210;    0,617;    2,136
216,154;   19,245;   -0,292;   -0,591
216,754;   24,034;    1,253;    0,773
217,353;   37,519;   -0,383;   -1,045
217,952;  -11,072;    2,072;    0,318
218,552;   72,669;    0,254;   -0,773
219,151;   29,329;   -1,110;    0,955
219,750;   23,033;    0,890;   -0,227
220,349;   16,250;   -2,292;    1,045
220,948;   78,540;    1,163;    1,136
221,548;   23,129;    0,617;    1,227
222,147;   39,275;   -1,292;   -0,409
222,746;  138,952;    1,254;   -0,955
223,345;   68,023;   -1,019;    0,500
223,944;   63,809;    1,163;    0,773
224,543;   64,261;    4,072;   -1,409
225,142;   57,727;    1,345;    0,136
225,741;   63,237;    1,163;    1,045
226,340;   56,707;    1,254;   -0,955
226,939;  122,792;    2,708;   -0,136
227,538;   43,684;    1,163;   -0,773
228,137;  126,007;    0,435;    0,864
228,735;   87,084;    0,435;    1,227
229,334;    9,237;   -0,474;   -0,227
229,933;  121,790;    0,799;    0,591
230,532;  119,165;   -1,201;   -0,409
231,131;  159,086;    1,253;    0,318
231,729;   79,355;    1,163;   -2,318
232,328;   42,278;    0,435;   -1,500
232,927;   48,875;    4,526;   -0,500
233,525;   41,962;    0,981;    0,045
234,124;   65,039;    1,890;   -1,591
234,723;   22,880;    1,617;   -1,045
235,321;   11,072;    1,163;    0,136
235,920;   16,915;    2,526;   -1,227
236,518;  107,744;    1,072;    0,318
237,117;   25,927;    2,890;   -0,227
237,715;   36,671;    1,163;   -0,500
238,314;   52,480;    1,708;   -2,318
238,912;  110,424;    0,526;   -1,409
239,510;   67,458;    1,162;   -1,227
240,109;  127,251;   -0,474;    3,773
240,707;   97,560;   -0,474;    1,227
241,305;   19,967;   -0,383;    0,136
241,904;   75,240;   -0,292;   -2,045
242,502;  160,737;    3,253;   -0,227
243,100;   89,460;    3,344;   -0,955
243,698;   48,114;    2,799;    1,682
244,297;   84,615;   -0,656;    0,682
244,895;   87,589;   -0,474;   -2,318
245,493;  218,969;    2,981;   -0,591
246,091;  232,786;    5,163;   -1,318
246,689;  190,136;    2,163;    0,591
247,287;  192,450;   -0,019;   -1,136
247,885;  176,462;   -1,019;    1,227
248,483;  164,583;   -0,201;   -0,500
249,081;  269,788;    0,981;    1,591
249,679;  308,039;   -1,019;    1,682
250,277;  208,090;   -2,292;    0,864
250,875;  342,202;    0,617;   -1,045
251,473;  268,158;   -0,019;    0,500
252,071;  391,765;   -0,383;    1,045
252,669;  332,718;   -1,565;    0,318
253,267;  295,474;    1,618;    0,773
253,864;  363,541;    0,617;    0,682
254,462;  541,419;    1,526;    1,591
255,060;  345,348;    0,072;    1,318
255,658;  362,627;   -3,292;   -0,136
256,255;  475,527;   -0,201;   -2,045
256,853;  531,462;    2,345;    1,409
257,451;  516,304;    1,981;    1,864
258,048; 1003,233;    2,072;    1,864
258,646;  675,769;    0,436;   -1,045
259,243;  812,462;    2,981;    2,227
259,841;  707,516;    1,799;    0,318
260,438;  561,714;    0,254;    0,864
261,036;  742,573;    0,617;    1,409
261,633;  676,110;    1,526;    2,227
262,231;  636,165;   -0,110;   -0,045
262,828;  679,110;   -0,383;    1,136
263,425;  748,478;   -1,928;   -0,591
264,023;  788,893;    1,436;    0,045
264,620;  957,558;    1,526;   -0,318
265,217; 1137,187;    2,890;    3,136
265,815;  883,032;    2,527;    2,136
266,412; 1027,761;    0,072;    0,136
267,009; 1076,927;    0,526;    0,773
267,606; 1212,223;    0,345;   -0,955
268,203;  988,301;   -0,383;   -0,591
268,801; 1090,830;   -0,474;    0,591
269,398; 1053,721;   -0,564;    2,500
269,995; 1212,565;    0,890;    1,591
270,592; 1087,454;    0,799;   -0,500
271,189; 1082,574;    1,981;    0,409
271,786; 1090,254;    2,072;    1,227
272,383; 1360,783;   -0,383;    0,227
272,980; 1208,011;    1,617;    0,318
273,577; 1212,647;    2,162;    1,227
274,174; 1076,921;    1,435;    2,591
274,771; 1181,173;    1,890;   -0,773
275,367; 1656,633;    3,253;    1,409
275,964; 1471,601;   -0,565;   -0,500
276,561; 1258,488;   -2,474;   -1,045
277,158; 1199,311;    1,799;   -1,773
277,755; 1448,788;   -0,110;    0,409
278,351; 1196,936;    0,436;   -1,500
278,948; 1329,102;   -0,201;    0,045
279,545; 1208,694;    0,527;    2,318
280,141; 1569,611;    1,254;   -2,045
280,738; 1406,053;    2,435;   -0,136
281,334; 1227,267;   -0,383;    0,591
281,931; 1198,428;    2,890;   -1,318
282,528; 1306,028;    4,072;   -0,500
283,124; 1514,237;    3,345;   -0,500
283,721; 1488,462;    0,709;    1,409
284,317; 1316,240;    0,163;    2,500
284,913; 1629,001;   -0,110;    0,591
285,510; 1985,092;    2,890;   -0,318
286,106; 1802,690;    2,345;   -0,955
286,703; 1404,843;    0,072;    1,955
287,299; 1443,607;    1,254;   -0,591
287,895; 1560,502;    0,890;   -1,045
288,491; 1746,994;    0,163;    2,136
289,088; 1813,996;    0,163;    2,409
289,684; 1889,536;    2,890;    1,500
290,280; 2104,569;    1,890;    0,682
290,876; 2178,873;    0,163;    5,500
291,472; 2144,619;    2,163;    2,227
292,068; 2242,355;    1,254;    0,227
292,665; 2145,152;   -0,564;    0,773
293,261; 2125,512;   -1,292;    2,136
293,857; 2391,540;    4,072;    2,136
294,453; 2457,412;   -0,928;    0,955
295,049; 2663,610;    0,253;    1,955
295,644; 2697,245;   -1,292;    0,136
296,240; 2746,059;    0,162;   -0,136
296,836; 3006,929;   -0,747;    0,318
297,432; 3283,162;    2,980;   -0,500
298,028; 3490,960;    0,435;    0,773
298,624; 3683,699;    0,889;    1,864
299,220; 3900,717;    0,435;    0,591
299,815; 3812,503;    0,526;   -0,409
300,411; 3899,337;    0,435;    1,773
301,007; 4057,826;    1,889;    0,227
301,602; 4061,467;    2,071;   -2,318
302,198; 4305,320;    1,435;   -0,773
302,794; 4575,003;    1,526;   -0,500
303,389; 4736,410;    1,071;    1,045
303,985; 4838,054;    1,253;    1,409
304,580; 4937,262;    0,889;    1,591
305,176; 4970,302;    0,344;    0,136
305,771; 4934,828;   -0,929;   -1,227
306,367; 5072,893;    3,071;    0,136
306,962; 5217,013;    2,889;    1,500
307,558; 4977,670;    2,435;    0,136
308,153; 4969,225;   -0,383;   -1,136
308,748; 5036,378;    0,162;    1,682
309,344; 5121,746;    0,253;   -1,318
309,939; 5242,744;    2,071;   -1,318
310,534; 5286,109;   -2,020;   -1,682
311,130; 5126,098;   -0,656;   -2,500
311,725; 4867,576;    0,526;   -0,500
312,320; 5034,824;    1,253;    0,045
312,915; 5014,668;    2,890;   -1,045
313,510; 4998,170;    0,526;   -0,500
314,105; 5135,974;   -3,565;    1,409
314,700; 4623,179;   -1,656;   -1,045
315,295; 4428,716;   -0,020;    0,045
315,890; 4079,257;   -0,292;    0,864
316,485; 4156,786;    0,253;   -0,318
317,080; 4169,405;   -0,929;    1,591
317,675; 4452,293;    3,071;   -0,682
318,270; 4192,119;    6,889;    3,318
318,865; 4121,650;    2,435;    3,045
319,460; 3847,523;   -1,565;    0,591
320,055; 3882,487;   -2,565;   -1,227
320,650; 3635,654;   -1,838;   -0,591
321,244; 3611,104;    0,889;   -1,409
321,839; 4081,676;    0,980;   -0,227
322,434; 3968,734;   -0,111;   -1,591
323,029; 3746,316;   -0,474;    1,591
323,623; 3650,105;    0,798;    0,773
324,218; 3622,489;    2,707;    1,409
324,812; 3564,199;    0,889;    1,591
325,407; 3493,705;   -0,929;    2,045
326,002; 3519,335;    0,526;   -0,409
326,596; 3706,772;   -0,656;    1,318
327,191; 3783,173;   -0,383;   -1,045
327,785; 3602,681;   -0,747;   -0,227
328,379; 3893,753;   -0,383;    0,136
328,974; 3742,334;    1,798;   -3,955
329,568; 4071,976;    2,889;   -2,409
330,163; 4092,470;    2,435;    1,045
330,757; 4340,884;    0,253;    1,591
331,351; 4104,581;   -0,292;    0,682
331,945; 4395,625;   -0,383;    1,409
332,540; 4346,868;    1,617;   -0,591
333,134; 4534,696;    3,344;    0,773
333,728; 4742,379;    2,799;    0,318
334,322; 5118,760;    0,889;   -0,864
334,916; 4788,908;    0,344;    0,955
335,510; 5227,406;   -0,111;   -0,136
336,105; 5542,991;   -0,929;    1,591
336,699; 5389,638;   -1,292;    0,591
337,293; 5552,390;    1,071;    0,318
337,887; 5774,041;    0,071;    1,955
338,481; 6066,889;    2,980;    0,591
339,074; 6426,439;    2,071;    2,682
339,668; 6467,606;   -0,110;    1,227
340,262; 7002,291;    7,708;    3,227
340,856; 6696,197;    1,708;   -0,682
341,450; 6334,290;    0,708;    1,864
342,044; 7187,026;    1,799;    0,136
342,637; 7200,978;    1,162;   -2,136
343,231; 7249,102;   -1,474;    0,682
343,825; 7334,260;   -0,747;   -0,591
344,419; 7508,620;   -0,474;    0,500
345,012; 7586,163;    2,889;    4,045
345,606; 7745,043;   -0,656;    1,591
346,199; 7729,075;   -0,111;   -0,227
346,793; 7511,969;    2,525;    2,045
347,386; 7795,968;    0,889;   -1,136
347,980; 7886,288;   -0,838;   -0,045
348,573; 7829,389;   -1,748;    0,409
349,167; 7705,553;    6,161;    4,773
349,760; 8146,162;    2,252;    2,682
350,354; 8165,256;    1,616;    1,136
350,947; 7958,226;    2,798;    1,682
351,540; 7785,778;    0,616;   -1,409
352,134; 7762,288;   -1,111;    1,136
352,727; 7888,671;   -0,657;    1,136
353,320; 7767,121;    2,343;    0,591
353,913; 7655,514;   -1,929;    1,864
354,507; 7848,949;    0,434;   -1,227
355,100; 7912,409;    0,071;    0,864
355,693; 7228,883;    4,798;    2,409
356,286; 7294,273;    0,980;    2,773
356,879; 7658,099;   -0,475;    1,227
357,472; 7285,268;    0,980;    1,500
358,065; 7452,733;    3,161;    2,500
358,658; 7403,449;    0,798;    2,318
359,251; 7038,932;    0,252;   -0,591
359,844; 6601,599;    0,343;   -1,136
360,437; 6778,311;    0,252;    0,045
361,030; 6986,442;    0,525;   -0,682
361,623; 6589,093;    0,434;    0,318
362,215; 6612,998;    0,979;    2,045
362,808; 6492,719;   -2,293;   -1,682
363,401; 6625,308;    0,798;    0,136
363,994; 6396,963;    3,252;   -1,500
364,586; 6281,859;    0,888;   -1,500
365,179; 6451,365;   -0,203;   -1,136
365,772; 5945,297;   -0,930;    2,045
366,364; 6144,724;    1,524;   -3,227
366,957; 6347,162;    1,342;   -0,045
367,549; 6298,935;   -0,203;   -0,864
368,142; 5954,580;    0,978;   -1,500
368,734; 6170,631;    2,523;   -2,136
369,327; 6105,180;    2,341;   -0,500
369,919; 6009,403;   -1,659;    0,409
370,512; 5827,483;   -1,023;   -0,500
371,104; 5582,589;    2,704;    1,591
371,696; 5747,083;    1,703;   -0,955
372,289; 5762,789;    0,157;    1,136
372,881; 5849,330;    1,156;    1,318
373,473; 5732,553;    4,064;    1,136
374,066; 5575,444;    1,336;    0,500
374,658; 5444,748;    0,879;    1,136
375,250; 5724,664;   -1,668;   -1,409
375,842; 5575,258;   -0,124;   -0,045
376,434; 5453,284;   -2,762;   -0,409
377,026; 5937,321;   -1,855;   -2,500
377,618; 5802,186;    0,779;   -0,682
378,210; 5646,918;    3,141;   -1,955
378,802; 5437,714;    3,412;   -0,591
379,394; 5453,614;    3,411;    0,682
379,986; 5935,095;    1,138;   -0,955
380,578; 6000,117;    1,410;    0,773
381,170; 5442,622;    0,320;    0,045
381,762; 5378,455;   -0,224;    1,409
382,354; 5538,224;   -0,223;   -1,318
382,945; 5613,343;    0,870;    0,318
383,537; 5763,984;    1,144;   -1,955
384,129; 5783,832;    0,963;   -1,136
384,721; 5916,698;    0,418;    0,955
385,312; 5815,197;   -1,399;   -0,955
385,904; 5915,554;   -0,945;    1,591
386,496; 5331,434;    0,691;    1,045
387,087; 5482,112;    0,418;    2,500
387,679; 5474,882;   -0,401;    0,045
388,270; 5617,737;   -2,401;    2,045
388,862; 5707,181;   -0,401;   -0,318
389,453; 5553,039;    1,054;    1,045
390,045; 5796,095;    3,236;   -2,682
390,636; 5757,494;    0,144;   -0,591
391,227; 5629,250;    2,054;   -0,045
391,819; 5722,946;    0,781;    0,773
392,410; 5780,162;    0,600;    0,045
393,001; 5727,569;    1,600;   -1,591
393,593; 5949,909;    0,600;   -0,045
394,184; 5819,780;    0,873;   -0,409
394,775; 5671,920;    1,146;    2,136
395,366; 5919,737;    1,782;    0,773
395,957; 5894,043;   -2,400;    0,136
396,548; 6161,504;    1,054;    2,682
397,139; 6406,935;    2,236;    0,591
397,730; 6143,310;    0,873;    0,955
398,321; 6165,651;    0,509;    0,955
398,912; 6144,890;   -0,764;    0,136
399,503; 6301,079;   -1,945;   -1,409
400,094; 5822,796;   -1,582;    1,682
400,685; 5679,629;    3,600;    0,045
401,276; 5706,243;   -0,400;   -0,955
401,867; 5946,694;   -1,127;    0,773
402,458; 6003,179;    1,509;   -2,318
403,048; 5999,067;    0,146;    0,591
403,639; 5627,353;    1,509;    0,864
404,230; 5876,130;    0,691;    0,318
404,821; 5802,897;   -0,127;    0,045
405,411; 5867,370;   -0,763;   -2,591
406,002; 5451,403;    3,237;   -1,136
406,592; 5392,304;    2,691;    0,045
407,183; 5554,353;    0,328;   -1,500
407,774; 5392,406;    1,419;   -0,136
408,364; 5622,789;    2,600;    0,409
408,954; 5298,819;   -0,036;    1,227
409,545; 5289,504;    1,873;    1,045
410,135; 4781,265;   -1,581;    0,500
410,726; 4880,829;    0,783;    0,318
411,316; 5136,828;    2,237;    0,773
411,906; 4809,812;    0,146;   -0,409
412,497; 4379,321;   -0,490;   -0,045
413,087; 4755,238;    0,783;   -0,227
413,677; 4953,228;   -2,490;    3,864
414,267; 4739,318;   -1,035;    1,409
414,857; 4628,858;    0,419;    4,227
415,448; 4750,798;   -0,763;    0,500
416,038; 4468,450;   -2,945;   -0,591
416,628; 4325,912;    0,965;    0,409
417,218; 3972,713;   -1,762;    3,318
417,808; 4077,798;    0,965;   -0,409
418,398; 4170,393;   -1,035;    2,682
418,988; 4021,520;   -2,217;    0,591
419,578; 4060,005;    3,601;    1,409
420,168; 4211,295;    0,692;   -0,955
420,757; 3877,924;    0,964;   -1,500
421,347; 3474,105;    1,601;   -0,227
421,937; 3471,461;    3,329;    1,409
422,527; 3415,555;    2,602;   -0,773
423,116; 3257,595;    2,692;   -0,045
423,706; 3277,200;    2,965;    0,318
424,296; 3055,989;    1,601;    0,682
424,885; 3300,808;    1,510;   -3,045
425,475; 3311,475;    1,147;   -2,864
426,065; 3096,755;   -1,489;   -0,318
426,654; 2851,771;    0,329;   -0,318
427,244; 3008,567;    1,147;    1,409
427,833; 2647,377;    1,056;   -0,500
428,423; 2587,034;    0,147;    1,136
429,012; 2845,964;    2,420;   -1,136
429,601; 2597,834;    2,057;    0,136
430,191; 2504,136;    2,511;    4,318
430,780; 2137,846;   -1,671;   -0,409
431,369; 2316,212;    1,329;   -0,045
431,959; 2398,500;    1,693;    0,500
432,548; 2139,668;   -1,398;   -0,045
433,137; 2026,566;    0,329;   -1,318
433,726; 2186,711;    0,148;    0,500
434,315; 1944,895;    0,148;    2,409
434,905; 1984,407;    0,693;    1,409
435,494; 1970,704;    3,148;    0,955
436,083; 1823,747;    1,420;   -0,955
436,672; 1698,463;    1,148;    0,500
437,261; 1582,195;    0,512;   -1,955
437,850; 1875,109;   -1,125;    0,682
438,439; 1816,691;    2,239;    1,955
439,027; 1844,441;    3,421;    1,773
439,616; 1790,215;    2,239;    1,227
440,205; 1379,728;    0,057;   -2,136
440,794; 1200,377;   -0,306;   -0,045
441,383; 1064,242;    1,603;   -0,591
441,971;  887,367;   -0,306;    0,591
442,560;  856,653;    0,603;   -1,773
443,149;  695,605;    3,060;   -1,318
443,737;  752,768;    0,968;   -2,318
444,326;  711,059;    0,331;    0,318
444,915;  743,477;   -1,851;    0,864
445,503;  705,048;    0,058;   -0,318
446,092;  998,071;    7,876;    2,136
446,680;  906,103;    1,876;    0,318
447,269;  762,195;   -1,487;   -0,318
447,857;  668,480;    2,240;   -1,773
448,445;  567,705;    2,149;    1,318
449,034;  469,291;    0,876;   -1,136
449,622;  427,669;    1,240;    3,500
450,210;  814,189;    3,149;    2,227
450,799;  684,016;    2,604;   -0,591
451,387;  545,256;    1,786;   -0,591
451,975;  502,100;   -1,305;    0,864
452,563;  593,718;    0,422;    2,318
453,151;  312,312;   -1,032;   -1,227
453,739;  370,405;   -1,577;    0,136
454,328;  499,094;    0,604;   -2,136
454,916;  374,448;    1,150;   -0,136
455,504;  366,451;    3,513;    1,227
456,092;  216,665;    2,150;   -1,591
456,679;  139,127;    0,604;    0,682
457,267;  654,048;    3,604;    1,045
457,855;  240,365;    3,241;    1,409
458,443;   44,525;   -0,304;    1,682
459,031;  243,039;    1,332;    2,409
459,619;  199,637;   -3,577;    2,864
460,206;   66,800;   -0,759;    2,045
460,794;   64,489;   -0,668;   -0,227
461,382;  114,495;    0,878;   -0,864
461,970;  100,607;    0,605;    1,864
462,557;   23,977;    0,878;   -0,682
463,145;  163,877;   -0,304;   -1,682
463,732;  411,514;    2,514;   -1,045
464,320;  160,435;    1,514;   -3,045
464,907;  314,272;    0,423;   -0,773
465,495;  206,283;    2,696;   -1,227
466,082;  105,246;    2,060;   -0,045
466,670;  121,757;    2,605;    1,227
467,257;   11,718;    0,060;    2,045
467,844;  130,881;    1,514;    0,045
468,432;   93,154;   -0,031;    3,500
469,019;   41,335;    1,606;   -1,773
469,606;  125,073;    0,969;    3,682
470,193;  159,822;    2,151;    0,227
470,780;  107,102;    0,333;    0,864
471,368;   32,666;   -1,212;   -0,773
471,955;  134,356;    1,060;   -0,682
472,542;   90,215;   -0,303;   -1,136
473,129;  -22,048;   -0,485;    0,136
473,716;  -21,637;    0,060;    0,591
474,303;   18,573;    1,333;   -0,864
474,890;   22,276;    2,333;   -0,500
475,477;  117,062;   -0,576;    0,409
476,064;   21,111;    0,697;   -1,591
476,650;  122,014;    2,152;    0,318
477,237;   35,378;    1,879;    0,955
477,824;   21,952;    3,879;    0,864
478,411;  -50,832;    0,606;   -0,318
478,997;  -68,777;    0,606;   -0,773
479,584; -112,022;   -0,666;   -0,409
480,171;   55,625;    1,243;   -0,773
480,757;  110,499;   -0,848;    0,773
481,344;    2,073;    0,334;    0,409
481,931;  -75,629;   -0,393;    1,045
482,517;   29,979;    0,425;    0,318
483,104;  112,215;    1,334;    2,864
483,690;   -7,106;    0,243;    0,045
484,276;  -31,485;    0,698;    0,227
484,863;  168,966;    2,152;    1,136
485,449;   26,589;    0,152;    0,318
486,035;  -17,138;   -0,666;   -0,136
486,622;   66,655;   -2,393;    0,045
487,208;   -4,908;    1,334;    1,500
487,794;  -78,149;    0,971;    0,318
488,380;  -80,490;    0,698;   -1,409
488,967;  -70,935;   -1,120;   -0,409
489,553;  -59,491;   -1,029;   -1,409
490,139;   10,775;    0,971;    0,773
490,725;  -54,427;    0,789;   -0,227
491,311;  -10,442;    1,516;    3,045
491,897;  -30,581;   -0,665;    1,500
492,483;  -17,251;    0,426;    1,227
493,069;  419,259;    5,426;    0,864
493,655;  131,018;    1,789;    0,682
494,241;    4,003;    1,517;   -0,955
494,826;   22,949;    0,335;   -1,045
495,412;   72,620;    0,335;   -0,682
495,998;   -9,655;    0,971;   -0,318
496,584;   48,105;    2,244;    1,045
497,169;   60,499;    2,335;   -0,682
497,755;   -1,661;    1,244;    1,227
498,341;  130,485;    2,153;    0,318
498,926;  261,222;    2,881;    1,955
499,512;    8,744;   -0,028;    2,955
500,097;    8,988;   -0,574;   -0,318
500,683;   38,999;   -0,028;    2,136
501,268;   -4,483;    1,881;   -0,955
501,854;   31,289;   -0,119;    1,227
502,439;   21,596;   -0,573;   -1,773
503,024;   66,004;    1,608;    0,500
503,610;  117,906;    1,335;   -0,682
504,195;   67,370;    1,245;    1,955
504,780;  207,029;    2,335;    1,227
505,366;  354,761;    4,063;    2,864
505,951;  307,189;   -1,119;    1,045
506,536;  256,593;    1,427;   -3,682
507,121;  394,367;    1,699;   -0,318
507,706;  390,228;   -0,392;    1,045
508,291;  399,294;   -2,937;    1,136
508,876;  497,475;   -0,482;    2,591
509,461;  694,994;    1,427;   -0,773
510,046;  930,791;   -0,391;    0,318
510,631; 1071,549;   -0,119;   -0,773
511,216; 1146,259;   -0,664;   -0,500
511,801; 1576,147;   -0,755;    2,591
512,386; 1865,082;    0,972;    0,500
512,971; 2194,844;    0,427;    0,955
513,555; 2482,993;    1,154;   -1,500
514,140; 3094,492;    1,336;   -3,136
514,725; 3510,821;    1,791;   -1,136
515,309; 3983,281;    1,064;    0,318
515,894; 4258,777;   -0,300;   -2,227
516,479; 4977,464;    1,973;   -0,955
517,063; 5341,609;    0,882;    1,227
517,648; 6021,939;    0,155;   -1,136
518,232; 6184,852;   -1,300;   -1,409
518,817; 7026,936;    1,337;    1,682
519,401; 7818,453;    0,700;    0,591
519,985; 7860,975;    2,700;    1,136
520,570; 8284,630;   -0,118;   -1,955
521,154; 9037,248;    0,064;    0,591
521,738; 9672,555;    1,064;    2,409
522,323;10732,345;   -0,390;    1,682
522,907;10910,659;    2,428;   -0,136
523,491;11073,429;    1,155;    0,955
524,075;11463,059;    0,428;    0,591
524,659;11912,307;    0,973;    0,591
525,243;11749,763;    0,883;    0,409
525,827;12269,675;    0,883;   -0,045
526,411;13419,762;    1,155;   -0,136
526,995;13903,414;    0,337;    1,409
527,579;13796,667;    1,974;   -1,045
528,163;14316,930;    0,428;   -1,500
528,747;14517,586;    1,065;   -0,773
529,331;15015,368;    0,883;   -1,409
529,915;15403,084;    2,338;    0,955
530,499;15510,322;    0,247;    1,227
531,082;15386,093;    1,065;    1,591
531,666;14962,789;    0,520;    0,773
532,250;15806,216;    0,428;    2,682
532,833;16259,865;    0,610;    2,773
533,417;16268,383;    1,247;    0,864
534,001;16318,870;    0,429;   -0,318
534,584;17147,476;    1,974;    0,500
535,168;17031,902;    3,247;    1,409
535,751;17192,111;    4,520;    0,045
536,334;16696,057;    4,520;   -0,409
536,918;17420,686;    1,974;    1,591
537,501;17622,067;    1,520;    1,318
538,085;17583,621;    1,702;    1,045
538,668;17834,250;    0,883;    2,409
539,251;18244,062;    3,156;    3,773
539,834;18304,369;    0,156;    0,773
540,418;18275,711;    3,247;    4,318
541,001;18459,289;    2,702;    1,773
541,584;18494,104;    1,429;    2,227
542,167;18177,621;    0,702;    2,955
542,750;18422,329;    0,793;   -0,773
543,333;17997,945;    1,429;    2,136
543,916;18874,849;   -0,298;    2,500
544,499;19578,229;    2,520;    0,227
545,082;19605,055;    0,248;    3,591
545,665;19768,794;   -0,207;    1,500
546,248;20165,036;    0,520;   -0,318
546,830;19834,021;   -1,752;    1,955
547,413;20295,585;    0,157;   -0,773
547,996;20904,735;    0,157;    0,500
548,579;20668,124;   -0,843;    0,955
549,161;20465,404;    0,884;    2,682
549,744;20238,792;    0,612;    0,409
550,326;20805,730;    0,885;   -1,136
550,909;20522,439;    2,339;    0,591
551,492;21004,826;    0,521;    0,227
552,074;20788,770;   -0,024;   -1,318
552,657;21385,567;    2,430;    0,045
553,239;21101,184;   -3,024;   -0,773
553,821;21087,899;   -1,570;    1,045
554,404;20532,154;   -0,024;    1,136
554,986;20956,325;    2,248;    1,045
555,568;21573,487;    0,430;   -0,955
556,151;20721,935;    4,067;   -0,227
556,733;20968,527;   -1,388;   -0,864
557,315;21508,254;    4,703;    0,500
557,897;21323,071;    0,521;   -0,500
558,479;21471,226;    1,703;    1,318
559,061;21587,379;    1,067;   -0,864
559,643;21937,873;   -0,297;    0,045
560,225;22337,404;   -0,388;    2,864
560,807;22397,327;    0,340;    0,318
561,389;21880,741;   -1,206;    2,318
561,971;22673,827;   -0,660;    2,136
562,553;22446,974;    0,613;    1,591
563,135;22628,148;    1,249;    1,136
563,717;22221,008;    3,158;    1,136
564,298;22994,004;    3,976;   -0,045
564,880;22777,307;    0,340;   -1,409
565,462;22933,671;    1,977;    1,318
566,043;24180,418;   -0,933;    2,318
566,625;23751,222;    4,067;    1,227
567,207;23648,478;    0,704;    1,682
567,788;24899,640;   -0,114;    1,500
568,370;25885,233;   -1,841;   -0,500
568,951;25668,068;   -0,569;    0,227
569,533;26631,069;    0,977;   -0,500
570,114;27273,581;   -0,296;    0,682
570,695;27795,954;   -0,478;   -1,318
571,277;28509,579;   -0,205;   -1,682
571,858;29387,108;    2,704;   -1,136
572,439;30415,434;    0,795;   -1,045
573,021;30650,131;    0,432;   -2,773
573,602;31278,310;    1,795;    0,318
574,183;32309,914;   -0,114;    2,227
574,764;32578,928;    2,068;    0,409
575,345;33217,630;    0,250;   -0,136
575,926;33974,274;    2,704;    0,136
576,507;34017,478;    2,704;   -0,227
577,088;35128,261;    1,704;    1,682
577,669;35173,587;    1,704;    1,955
578,250;36076,642;   -0,750;   -1,045
578,831;36844,545;   -0,841;   -2,227
579,412;37163,489;   -1,205;    0,955
579,993;38150,861;    1,432;    0,227
580,573;38573,092;   -0,023;   -0,955
581,154;37495,000;    1,613;   -0,591
581,735;38321,901;    0,341;    0,773
582,315;37832,265;    0,523;    2,136
582,896;38288,200;   -1,750;    1,227
583,477;37679,996;    0,614;    1,227
584,057;37782,826;    1,159;    0,955
584,638;38051,770;   -2,750;    2,318
585,218;38046,161;    2,886;    2,682
585,799;38260,264;    1,977;   -0,227
586,379;38142,806;    1,250;    1,591
586,959;36806,530;    2,613;    0,318
587,540;36028,124;    0,432;    2,227
588,120;35423,557;   -1,113;   -0,045
588,700;34240,083;    2,977;    2,136
589,281;34552,931;    1,250;   -0,955
589,861;34522,415;   -0,296;   -1,682
590,441;34302,868;   -1,477;   -2,682
591,021;33123,937;    1,432;   -2,591
591,601;33352,106;    0,431;    0,500
592,181;33334,993;   -1,296;   -0,773
592,761;32580,456;    2,250;    1,409
593,341;32458,844;    1,522;    0,045
593,921;32308,771;   -0,569;    1,591
594,501;32174,747;    1,250;    1,318
595,081;31996,414;    0,522;   -0,318
595,661;32407,717;    1,068;    0,955
596,240;32989,141;   -1,023;    0,136
596,820;32557,360;    2,613;    1,955
597,400;32816,619;    1,977;    0,773
597,980;33062,789;   -0,750;    1,045
598,559;33072,213;    0,341;   -0,227
599,139;32728,753;   -0,750;   -1,227
599,718;32640,389;    0,795;   -0,409
600,298;32890,702;   -2,387;    0,682
600,877;33081,832;    4,795;    1,409
601,457;33385,870;    0,340;    1,136
602,036;33276,910;    1,795;    2,045
602,616;33534,230;    2,250;    1,682
603,195;33895,037;    0,431;    3,500
603,774;33412,360;   -0,296;    2,045
604,354;33293,444;    2,522;   -0,500
604,933;32719,154;    0,250;    1,864
605,512;32863,088;    2,340;    0,591
606,091;32873,903;    1,886;    3,773
606,671;33693,121;    0,249;    0,773
607,250;32732,604;    1,431;    3,136
607,829;32980,278;    1,158;    3,227
608,408;32862,112;    4,613;    2,591
608,987;31842,217;    2,704;    3,409
609,566;32132,823;    0,341;   -2,500
610,145;32178,148;    2,885;    0,682
610,723;32603,785;    1,613;    6,864
611,302;31786,634;    1,067;    1,682
611,881;31265,566;    5,158;   11,227
612,460;32111,846;    0,795;    3,955
613,039;32546,961;    1,703;    2,045
613,617;31178,824;    0,886;    4,773
614,196;31341,609;    1,613;    1,227
614,775;31718,625;    1,249;    2,409
615,353;31681,706;   -1,660;    0,864
615,932;31334,259;    0,249;    2,409
616,510;31888,520;    0,158;    0,591
617,089;31374,176;    8,794;   17,591
617,667;31149,728;    4,885;    6,136
618,246;30922,410;   -1,115;    1,318
618,824;31080,887;    1,612;   -0,955
619,402;30601,628;    0,431;   -1,773
619,981;31143,898;    1,067;   -1,045
620,559;31027,553;    0,794;    1,682
621,137;30531,240;    3,067;    1,864
621,715;30537,786;    3,703;   -0,682
622,293;30372,827;    1,885;   -0,773
622,871;30863,436;    0,340;    0,500
623,450;30374,564;    0,430;   -0,864
624,028;30254,483;   -0,388;   -0,955
624,606;29812,362;    2,339;    1,682
625,183;30190,855;   -0,661;   -1,136
625,761;29842,295;    1,885;    1,136
626,339;30142,762;    2,339;    2,591
626,917;30523,270;    0,339;   -0,045
627,495;30495,620;    2,794;    1,318
628,073;29933,533;    5,248;    2,864
628,650;29602,475;    3,067;    2,136
629,228;30032,724;    1,248;    4,409
629,806;29374,049;   -0,024;    1,136
630,383;29683,773;    0,066;   -0,318
630,961;29403,812;   -2,206;   -0,955
631,539;29103,073;   -2,479;    0,227
632,116;28289,902;   12,703;   15,409
632,694;28960,165;    4,885;    6,500
633,271;29299,108;    1,975;    2,682
633,848;29215,489;    1,430;    2,045
634,426;29274,204;    1,521;    1,773
635,003;28330,203;   -0,207;   -0,409
635,580;28636,419;    1,884;    3,682
636,158;29249,418;    3,793;    1,227
636,735;29186,234;    3,339;   -0,500
637,312;29322,253;    0,521;   -0,682
637,889;29404,916;    2,248;   -0,682
638,466;28864,424;    0,066;   -0,409
639,043;28878,411;    1,702;   -1,136
639,620;29246,634;    0,611;   -0,955
640,197;29602,515;    1,612;    1,682
640,774;29735,959;    1,430;    1,136
641,351;30125,494;    0,612;    1,136
641,928;29473,302;    2,794;    1,409
642,505;29127,928;    0,794;   -0,500
643,082;29221,918;    1,885;    1,227
643,658;28161,544;    1,157;    1,500
644,235;28972,352;   -2,479;    2,500
644,812;29279,342;    1,794;    0,773
645,388;29043,878;    1,612;    1,409
645,965;29114,958;    1,521;    1,682
646,542;29142,403;    3,430;   -0,227
647,118;29109,120;    3,703;   -0,955
647,695;29478,019;    0,339;    1,136
648,271;29400,736;   -2,115;    0,500
648,848;29715,816;    0,248;    2,227
649,424;29536,443;    0,976;    1,318
650,000;29316,614;   -0,388;   -1,045
650,577;29089,604;    0,158;   -0,955
651,153;29593,867;   -1,115;    0,955
651,729;30593,584;    0,521;    0,864
652,305;30915,755;    1,339;    2,773
652,881;36180,472;   -1,297;    1,136
653,458;44282,735;    0,249;    0,227
654,034;48997,634;    0,703;    1,591
654,610;50909,260;    0,339;    0,773
655,186;52366,886;    1,612;    3,045
655,762;52098,967;   -1,842;    0,409
656,338;52183,048;    0,703;    0,136
656,913;53251,583;   -0,297;    0,409
657,489;52525,664;    0,249;   -0,318
658,065;52381,926;    0,794;   -1,591
658,641;52964,098;    2,158;   -0,864
659,217;52197,542;    2,067;    0,409
659,792;51692,987;   -1,751;   -0,409
660,368;51917,976;   -0,388;   -0,682
660,944;51489,330;    1,794;    1,227
661,519;46106,411;    0,522;    0,409
662,095;38749,037;   -0,206;    0,591
662,670;33238,481;   -0,206;   -0,136
663,246;31782,562;   -0,660;   -0,409
663,821;30919,370;    0,431;    1,682
664,396;30356,632;    0,613;    1,864
664,972;30644,804;   -0,660;   -0,500
665,547;31007,248;    3,794;    0,136
666,122;30953,238;    1,340;    0,318
666,698;31268,683;    2,431;    0,318
667,273;30587,400;    0,885;    0,136
667,848;31403,299;    0,340;    1,500
668,423;31196,288;    1,795;    2,318
668,998;31826,005;    0,976;   -0,682
669,573;32392,177;    2,067;   -1,500
670,148;32235,076;    1,885;   -0,682
670,723;32043,702;   -0,024;    0,318
671,298;32511,601;   -1,296;    1,045
671,873;32660,318;   -0,296;   -0,136
672,448;32586,490;    1,704;    0,136
673,023;32929,571;    0,249;   -0,227
673,597;33255,288;    2,704;    2,318
674,172;33000,005;    2,431;    0,318
674,747;32519,813;   -0,205;   -1,045
675,321;32378,893;   -0,933;    3,318
675,896;31886,429;    2,158;    1,045
676,471;32929,237;    2,522;    1,591
677,045;32719,772;   -0,296;    0,682
677,620;32700,853;    2,158;    1,136
678,194;33103,388;    0,249;    1,136
678,769;32584,923;    0,886;   -0,318
679,343;32828,822;   -0,023;    1,773
679,917;32710,903;    0,340;    1,955
680,492;32797,711;    0,249;    3,227
681,066;33018,882;    0,613;    0,409
681,640;33061,781;    1,795;   -0,318
682,214;33820,498;    2,340;    0,500
682,788;33356,852;    0,613;   -0,773
683,363;33351,842;    1,977;    1,682
683,937;33029,377;    0,886;   -0,318
684,511;33868,821;   -1,023;   -0,591
685,085;33537,357;   -1,478;    0,318
685,659;33297,437;    1,431;    0,864
686,232;33437,064;    1,159;   -0,318
686,806;33251,690;    2,159;    0,409
687,380;33906,770;   -1,932;    0,591
687,954;34199,851;    2,432;    1,136
688,528;33870,932;    2,613;    1,955
689,101;34671,285;    0,432;    1,045
689,675;34219,548;    0,886;   -0,136
690,249;33495,720;    3,432;    0,409
690,822;33816,528;    1,159;    0,318
691,396;33885,608;    2,068;    1,227
691,969;33327,416;    2,523;    0,136
692,543;33868,679;   -0,568;   -1,955
693,116;33484,487;   -0,659;   -1,409
693,690;33275,658;   -0,296;    0,500
694,263;33839,103;    2,341;    2,955
694,836;33907,820;    2,795;    3,591
695,410;32504,628;    1,159;    1,773
695,983;32982,254;    1,614;    0,591
696,556;32929,789;   -0,750;   -1,045
697,129;33303,961;   -1,114;    1,409
697,703;32945,496;    1,341;    1,955
698,276;32913,213;    1,705;   -0,773
698,849;32713,021;   -1,023;    1,409
699,422;33118,466;    1,250;    0,591
699,995;32775,455;   -0,659;    0,136
700,568;33312,809;   -0,204;    3,045
701,140;33324,981;   -1,841;    1,682
701,713;33021,698;    0,341;    2,409
702,286;32740,142;    0,796;    0,864
702,859;32623,586;    0,614;   -0,591
703,432;31738,122;   -0,841;    0,682
704,004;32241,384;    1,978;    0,318
704,577;32162,101;    1,068;    0,136
705,150;32731,637;    0,887;    2,500
705,722;32473,808;    1,523;   -3,227
706,295;32294,616;    1,432;   -0,591
706,867;32103,333;    0,250;    1,955
707,440;32334,778;   -0,113;   -0,409
708,012;32567,767;   -0,022;    0,591
708,584;32547,939;    2,705;    0,227
709,157;32817,383;    1,160;   -0,591
709,729;32471,919;    1,069;    2,045
710,301;33367,636;   -1,204;    0,045
710,874;33358,898;    0,341;   -0,227
711,446;32179,979;   -0,295;    0,864
712,018;32057,696;   -3,022;    0,500
712,590;31798,868;   -0,204;    1,682
713,162;32309,767;   -0,477;    1,318
713,734;32602,393;    1,796;   -2,045
714,306;32502,110;    0,342;   -0,409
714,878;31115,554;   -0,295;    0,864
715,450;31906,817;   -0,113;    0,864
716,022;32204,443;    2,433;    1,318
716,593;32388,978;    0,978;    0,591
717,165;32310,423;    1,796;   -1,227
717,737;31963,685;    0,796;    0,409
718,309;31631,948;    1,160;   -0,045
718,880;31596,028;   -1,295;   -1,409
719,452;31826,291;    0,887;   -1,591
720,024;31309,826;    1,705;   -0,591
720,595;31889,816;    2,978;    0,955
721,167;31397,715;    1,160;   -2,045
721,738;30888,614;    2,069;   -1,045
722,309;30777,876;    1,251;   -1,227
722,881;30577,048;    2,705;    0,773
723,452;31357,402;    1,251;    2,864
724,023;31468,482;    1,524;    2,682
724,595;31255,199;    2,342;    0,682
725,166;30992,007;    1,524;   -0,409
725,737;30587,361;    1,887;    0,227
726,308;30665,987;    0,797;    0,318
726,879;31082,250;    1,069;    1,227
727,450;31007,694;   -2,022;   -0,045
728,021;30951,047;    1,069;    0,682
728,592;30727,583;    1,160;    0,500
729,163;31122,209;    1,433;   -0,136
729,734;31089,108;    2,160;   -0,227
730,305;31445,188;    0,615;    0,136
730,876;31841,360;    0,888;    2,955
731,447;31485,986;    0,797;    2,682
732,017;31607,249;   -0,840;    1,864
732,588;31105,875;   -0,021;    1,227
733,159;31333,956;    3,615;   -1,045
733,729;31157,309;    1,251;    0,409
734,300;30401,026;    0,160;    0,864
734,870;30839,743;   -1,385;    0,591
735,441;31452,097;    0,888;   -0,591
736,011;31127,359;    1,070;   -1,591
736,582;31090,258;    1,251;    0,045
737,152;30500,612;    0,979;   -2,045
737,722;30965,783;    1,070;   -0,682
738,293;30784,409;   -2,021;    1,318
738,863;30638,399;    1,797;    2,318
739,433;30397,844;    4,524;    0,318
740,003;31061,288;    1,524;   -0,682
740,573;30358,641;    2,252;   -1,591
741,143;30346,904;    3,615;    0,318
741,713;31073,167;    0,252;   -0,500
742,283;30740,884;    1,706;    1,591
742,853;30527,692;    0,524;    1,591
743,423;29926,409;    0,161;    0,045
743,993;30075,489;    1,070;    1,500
744,563;29357,025;    2,524;   -0,864
745,133;29324,105;   -0,112;   -0,864
745,702;30078,823;    2,797;    1,773
746,272;29203,812;    0,434;    0,591
746,842;28958,984;   -0,748;   -0,591
747,411;29454,156;   -0,839;   -0,318
747,981;29665,509;   -0,930;    0,500
748,551;29707,135;   -0,021;   -1,045
749,120;29523,943;   -0,112;   -0,227
749,690;29920,388;    2,161;    2,409
750,259;30256,377;    0,979;    2,955
750,828;30113,094;    4,070;   -1,955
751,398;30432,084;   -0,112;   -0,045
751,967;29850,074;    2,888;    0,409
752,536;30061,155;    1,161;   -0,227
753,105;30547,963;   -1,384;    0,227
753,675;30363,044;   -0,112;    1,773
754,244;30338,579;    0,888;    3,591
754,813;30342,387;    0,979;    1,227
755,382;29952,558;    0,798;    0,955
755,951;30471,821;   -0,112;    3,682
756,520;30020,993;    2,525;    1,864
757,089;30582,710;    1,888;    0,500
757,658;30749,154;    2,434;    1,227
758,227;30818,235;   -1,111;    0,318
758,795;31124,134;   -1,021;    1,136
759,364;31404,669;    0,525;   -0,591
759,933;30346,022;    1,343;   -0,045
760,501;29846,285;    0,252;   -1,318
761,070;30345,638;   -0,293;   -1,409
761,639;31079,810;    1,434;    1,318
762,207;30334,709;    0,889;   -0,955
762,776;30259,699;    2,889;    0,864
763,344;30205,234;    0,071;    0,591
763,913;29298,769;    1,616;    1,409
764,481;30072,032;    1,980;   -0,136
765,049;29850,749;    0,616;    1,409
765,618;29658,739;    1,434;    0,318
766,186;29737,274;    2,434;    0,136
766,754;29945,809;    1,798;    1,864
767,322;28861,254;    1,162;    0,409
767,890;28915,334;    0,525;   -1,773
768,459;29345,142;    2,616;   -0,318
769,027;29430,950;    2,525;    3,409
769,595;28380,849;    2,616;    2,591
770,163;28842,839;    3,344;    2,955
770,730;28520,193;    2,525;   -0,136
771,298;28383,546;    1,162;   -1,409
771,866;28439,445;    0,253;    4,955
772,434;28776,253;    1,162;   -1,864
773,002;29005,425;    2,616;    0,682
773,569;28565,687;    1,071;    1,682
774,137;28402,313;    0,889;   -0,045
774,705;29236,303;   -0,747;   -0,136
775,272;28715,202;    0,253;    0,682
775,840;28540,010;   -0,111;    2,682
776,407;27931,363;   -0,293;    1,955
776,975;27502,262;    1,162;    0,318
777,542;28518,252;    2,162;   -0,045
778,110;28356,606;    0,707;   -0,045
778,677;28019,323;    1,071;   -0,864
779,244;27735,313;   -1,020;    1,045
779,812;27908,666;    0,980;    0,864
780,379;27719,747;    2,435;    1,136
780,946;27952,009;    2,617;   -0,773
781,513;28276,817;   -0,565;    0,318
782,080;27618,807;    1,253;    2,864
782,647;28387,888;    1,708;    3,045
783,214;27946,514;   -0,201;    3,864
783,781;27538,413;    1,708;   -0,682
784,348;27474,857;    0,253;    1,500
784,915;27893,756;   -1,474;    0,318
785,482;27639,019;    2,708;    2,591
786,049;28135,918;    1,071;   -0,591
786,615;28235,180;    1,708;   -0,955
787,182;27985,443;   -3,201;   -0,682
787,749;27658,978;   -2,201;    1,409
788,315;26929,695;    0,253;   -0,409
788,882;27226,321;    0,981;   -1,227
789,448;27894,311;    1,435;   -0,955
790,015;27910,210;    1,799;    3,227
790,581;27450,291;    0,708;    0,227
791,148;27307,190;    1,344;    1,045
791,714;27613,361;   -1,019;    3,136
792,280;27305,624;    3,708;    1,591
792,847;26807,159;   -0,928;    2,500
793,413;27404,240;   -0,110;   -0,318
793,979;26831,139;    1,526;   -1,318
794,545;26905,947;    2,981;    2,682
795,111;26280,118;    2,435;    1,318
795,678;26475,926;    3,526;   -1,682
796,244;26142,189;    2,799;    0,136
796,810;26759,815;    0,799;    0,773
797,375;26399,532;   -0,292;   -2,136
797,941;26431,795;   -1,110;    0,591
798,507;26612,875;    0,254;   -0,955
799,073;26147,047;    2,708;    0,591
799,639;26232,219;    1,435;    3,136
800,205;26233,299;   -1,565;    2,682
800,770;25687,471;    1,345;    1,773
801,336;25757,915;    2,981;   -0,955
801,901;25422,269;    6,072;    3,136
802,467;25982,259;    0,526;    2,045
803,033;25284,612;   -0,019;    0,864
803,598;25493,965;    1,072;   -1,045
804,163;25559,137;    0,708;   -0,318
804,729;25483,309;   -0,110;    1,136
805,294;25917,844;    1,072;    2,227
805,859;25742,379;    0,890;   -0,409
806,425;25178,096;    3,890;    2,682
806,990;24786,541;    1,890;    4,318
807,555;25375,076;   -0,110;    2,591
808,120;25196,884;   -1,292;   -0,409
808,685;25253,419;    1,072;   -2,500
809,250;24663,409;    2,072;   -0,500
809,815;25062,672;   -0,201;    0,682
810,380;25640,480;    0,981;    1,591
810,945;26169,288;    2,890;    2,045
811,510;25323,187;   -0,200;    1,591
812,075;25018,449;    2,800;   -1,409
812,640;25037,075;    3,709;    1,409
813,204;25101,520;    2,163;   -0,227
813,769;25608,782;    0,254;   -0,045
814,334;24945,227;    0,527;    0,864
814,898;24984,125;    1,981;    0,591
815,463;24830,206;    0,981;   -0,773
816,027;24792,014;    1,345;   -2,318
816,592;24913,731;    2,163;   -2,045
817,156;24354,539;   -2,200;    1,136
817,721;24113,984;    0,982;    2,318
818,285;24103,337;    0,618;    1,500
818,849;24774,963;   -0,018;    1,682
819,414;24701,771;    0,073;    2,955
819,978;24237,397;   -0,291;    1,773
820,542;24853,205;    2,891;    0,500
821,106;24539,650;    2,800;    0,682
821,670;24625,912;    2,709;    2,591
822,234;24294,720;    1,073;    1,409
822,798;23639,528;   -0,836;    0,500
823,362;23659,245;    1,527;    4,227
823,926;22921,144;   -0,018;    1,136
824,490;23149,770;    3,527;   -0,682
825,054;23581,033;    2,527;   -1,136
825,618;23200,932;   -1,200;   -1,500
826,181;23136,104;    0,982;   -1,318
826,745;23040,275;   -0,745;   -1,045
827,309;23349,629;    2,255;    1,318
827,872;22743,255;    0,527;    0,955
828,436;23819,881;    1,982;   -0,773
828,999;23823,507;    2,436;    1,227
829,563;22595,588;   -0,654;    1,136
830,126;22423,941;   -0,018;   -0,591
830,690;22406,386;    0,709;    2,864
831,253;21897,012;   -0,473;    2,227
831,816;22056,729;   -0,018;    0,500
832,380;21936,810;    1,164;    0,864
832,943;22146,436;    3,073;   -0,500
833,506;21640,517;    0,255;   -1,227
834,069;22423,234;    2,164;   -0,955
834,632;22528,678;   -2,200;    1,318
835,195;22397,213;    1,346;    0,955
835,758;21545,930;    0,709;    1,955
836,321;21353,284;    1,073;   -1,045
836,884;21491,274;   -1,291;   -0,955
837,447;21537,718;    0,528;    1,773
838,010;21750,071;    1,800;    3,227
838,573;22066,698;    0,528;    0,773
839,135;21979,687;   -0,109;   -0,955
839,698;21415,314;    2,528;    0,409
840,261;20960,031;    0,255;   -0,227
840,823;20773,657;   -0,927;    0,864
841,386;21095,101;   -0,018;   -2,409
841,948;20922,455;    0,255;    1,773
842,511;20629,535;    0,255;    1,682
843,073;20833,253;    2,982;    0,227
843,636;20666,879;    0,619;   -0,227
844,198;20499,778;    1,255;    0,591
844,760;20647,495;    0,619;    1,955
845,322;20278,485;    0,164;    1,136
845,885;20744,202;   -0,290;    0,591
846,447;21214,191;    0,710;    0,227
847,009;20736,727;    3,983;   -0,682
847,571;21108,898;    1,346;   -2,045
848,133;21205,615;   -0,199;   -1,864
848,695;21009,423;    2,346;    1,409
849,257;20529,777;    1,346;   -1,682
849,819;20692,039;    2,983;   -0,409
850,381;20713,938;    1,801;   -0,864
850,942;21126,292;    1,892;   -0,591
851,504;21021,463;    0,983;    0,227
852,066;21058,362;    1,619;   -1,591
852,628;20604,807;    0,165;    1,955
853,189;20162,796;    0,256;    2,682
853,751;20288,059;   -0,654;    1,409
854,312;20078,958;    1,256;   -1,682
854,874;20644,220;   -0,108;   -0,773
855,435;21153,028;    0,528;   -1,682
855,997;21285,018;    3,983;   -0,136
856,558;20527,372;    0,801;    1,773
857,119;20701,998;   -0,744;    2,864
857,681;20304,533;   -0,108;    0,318
858,242;20358,068;    1,347;   -2,136
858,803;20817,513;    1,074;   -0,773
859,364;21412,412;    0,892;   -4,773
859,925;20724,038;   -0,290;   -0,955
860,486;20577,300;    0,529;   -0,955
861,047;20284,290;    0,165;   -1,227
861,608;20047,098;    0,165;   -0,773
862,169;20259,179;   -0,562;   -0,045
862,730;20015,987;   -0,290;    1,409
863,291;20242,159;    0,438;   -0,500
863,852;20578,148;   -0,926;    1,955
864,412;20040,593;   -1,835;   -0,864
864,973;18553,037;    1,892;    0,500
865,534;18375,209;    2,074;    0,227
866,094;19954,835;    2,620;    0,227
866,655;19585,279;    4,711;    3,318
867,215;19909,996;    0,074;    0,136
867,776;19757,441;   -1,199;   -0,136
868,336;19854,249;    1,529;    0,136
868,897;19222,148;    3,438;    1,682
869,457;18993,774;    3,256;    0,318
870,017;19273,946;    2,438;   -1,227
870,578;19801,844;    1,893;    0,773
871,138;19409,743;    2,620;   -0,955
871,698;18910,733;   -0,562;   -1,318
872,258;18775,359;    0,711;   -2,864
872,818;19149,076;    2,347;    0,045
873,378;19146,430;   -2,198;    1,045
873,938;18698,056;    4,984;    0,500
874,498;19041,500;    1,256;   -1,955
875,058;18896,127;    4,347;    1,773
875,618;18716,116;    1,438;   -2,682
876,177;18666,833;   -0,471;    0,136
876,737;18232,823;   -0,289;    1,955
877,297;18220,268;    2,711;    1,955
877,856;18233,803;    2,529;    0,318
878,416;18163,611;    2,438;   -0,136
878,976;18444,419;    3,438;    0,409
879,535;18633,681;    4,529;    3,136
880,095;18368,308;    1,347;    0,045
880,654;18465,479;    0,347;    1,318
881,213;18534,015;    2,347;    1,500
881,773;18151,459;    1,984;    2,682
882,332;18517,176;    6,075;    5,136
882,891;18391,984;    0,711;    2,136
883,451;18887,701;   -2,016;    1,682
884,010;18385,145;   -1,107;   -0,409
884,569;18406,681;   -2,289;   -0,045
885,128;18532,307;   -0,743;   -1,864
885,687;18598,479;   -0,743;    0,682
886,246;18267,559;    2,620;    2,136
886,805;17994,276;    1,620;    2,045
887,364;18352,903;    1,166;   -0,500
887,922;18708,074;   -0,016;    0,045
888,481;18171,609;    1,530;    0,591
889,040;18539,963;    3,711;    2,136
889,599;19248,771;    2,166;    1,409
890,157;19266,488;    2,166;    2,409
890,716;18920,750;    2,166;    0,227
891,274;18706,558;    0,075;   -1,136
891,833;19145,912;    1,166;    0,864
892,391;19029,084;    1,802;    0,500
892,950;19137,255;    0,166;   -0,773
893,508;19446,972;    0,984;   -0,409
894,067;18810,689;   -0,379;    0,136
894,625;18693,588;   -1,016;   -1,500
895,183;18882,124;   -0,198;   -0,682
895,741;18808,841;    2,257;   -1,773
896,299;18700,103;    1,621;   -2,409
896,858;18906,002;    1,530;   -1,591
897,416;18991,992;    0,166;   -1,318
897,974;18715,891;   -2,197;    0,318
898,532;18859,790;    6,530;    2,682
899,089;18736,780;    0,621;   -0,682
899,647;18829,769;    0,530;    1,318
900,205;18549,486;    0,257;    1,045
900,763;18741,294;    2,166;    0,227
901,321;18747,375;    3,530;   -1,409
901,878;18139,638;    3,257;   -0,773
902,436;18008,537;    0,257;    1,318
902,994;18416,526;    6,712;    3,682
903,551;17786,880;    1,439;    0,409
904,109;18172,779;    1,530;   -1,409
904,666;17809,223;    1,439;    1,045
905,224;17635,213;    3,894;   -0,409
905,781;17322,203;   -0,470;   -0,318
906,338;17424,647;    0,167;    1,045
906,895;17339,910;    1,894;    2,045
907,453;17219,354;    2,348;    1,136
908,010;17278,071;    3,348;    0,409
908,567;16891,970;   -0,561;    0,591
909,124;16389,869;    2,439;   -1,500
909,681;16449,313;   -1,288;    0,682
910,238;16594,394;   -0,106;   -1,318
910,795;16926,293;   -1,561;   -1,136
911,352;16559,838;   -0,379;   -2,682
911,909;15938,566;    2,803;   -0,864
912,466;16404,293;    1,985;    1,500
913,022;15912,202;   -0,924;    0,500
913,579;16309,657;   -0,470;    2,045
914,136;15953,111;   -2,561;    0,955
914,692;16347,384;    1,530;   -1,227
915,249;15889,747;    0,530;    0,409
915,806;16126,657;    1,803;    1,955
916,362;15832,929;    0,894;    1,864
916,918;15336,929;    2,439;    1,045
917,475;15294,929;    1,621;    0,955
918,031;15447,475;    0,076;   -0,045
918,587;14833,202;    0,621;   -0,318
919,144;15088,929;   -0,379;    0,227
919,700;15433,202;    0,167;    0,773
920,256;14989,384;    0,439;    0,045
920,812;14559,838;    1,439;   -1,045
921,368;14552,929;    1,348;   -1,045
921,924;14180,475;    0,439;   -0,136
922,480;13728,020;    0,076;    1,227
923,036;14371,566;   -0,652;    1,955
923,592;14288,475;    0,621;    0,318
924,148;14198,020;    1,894;   -0,955
924,704;13476,747;    0,258;   -0,409
925,259;13749,111;   -0,561;    0,591
925,815;13489,111;    3,803;    0,500
926,371;13027,929;    3,530;    1,409
926,926;12879,657;    1,621;    0,591
927,482;12468,202;    1,621;    0,773
928,037;12346,202;   -0,833;    2,045
928,593;12614,929;    0,258;    1,045
929,148;12416,293;    1,167;   -1,500
929,704;11912,838;    2,439;   -0,500
930,259;12116,929;    0,894;   -0,136
930,814;11154,111;    1,803;    1,955
931,369;10821,747;    0,258;   -0,773
931,925;10709,747;   -1,924;    0,136
932,480;10567,020;    3,076;   -2,591
933,035;10409,838;    3,985;   -0,318
933,590;10149,838;   -1,742;   -1,773
934,145; 9763,384;   -1,288;   -0,318
934,700;10139,566;    0,348;   -0,591
935,255; 9904,384;    4,803;    0,045
935,809; 9141,475;    6,258;    0,864
936,364; 8232,475;    2,167;   -0,136
936,919; 8180,838;    2,348;   -1,773
937,474; 8056,202;    1,348;    0,136
938,028; 7814,293;    3,076;    1,136
938,583; 7180,929;    6,348;    4,682
939,138; 7524,929;    0,167;    2,136
939,692; 6954,838;   -1,015;   -1,136
940,247; 6588,111;    1,167;   -1,045
940,801; 6076,838;    0,621;    0,227
941,355; 5981,384;    0,439;    2,591
941,910; 5621,747;    0,712;   -2,136
942,464; 5704,475;    2,712;   -0,318
943,018; 5454,384;    3,258;   -0,227
943,572; 5414,566;    2,803;   -0,682
944,126; 4783,020;   -0,924;   -0,409
944,681; 4651,657;    0,712;    0,227
945,235; 4627,657;    2,167;   -0,591
945,789; 4574,747;    1,258;   -1,864
946,342; 4636,929;   -0,561;   -0,591
946,896; 4465,747;    0,348;    0,955
947,450; 4241,202;   -0,561;   -0,227
948,004; 4397,747;    1,076;   -0,045
948,558; 4430,838;    1,258;   -0,864
949,111; 4333,838;   -1,197;   -0,318
949,665; 4343,475;   -0,106;   -0,682
950,219; 4186,384;    0,621;   -1,045
950,772; 4308,293;    0,258;    1,864
951,326; 4222,111;   -1,106;   -0,955
951,879; 4348,838;    1,076;   -2,318
952,433; 4335,747;    1,348;    2,227
952,986; 4165,202;    0,348;    0,682
953,539; 4129,747;    1,530;    0,591
954,093; 4044,657;    0,985;   -1,318
954,646; 4173,929;   -0,288;    1,318
955,199; 3976,293;    1,258;   -0,500
955,752; 3840,020;    1,985;    1,773
956,305; 3794,020;    0,894;    2,955
956,858; 3969,020;    0,621;   -0,318
957,411; 4162,111;    3,621;    2,136
957,964; 3963,475;    2,076;    2,136
958,517; 3985,929;    0,985;    3,136
959,070; 3815,566;   -1,197;    1,955
959,623; 3848,202;    1,076;    1,500
960,176; 3612,929;    0,712;    2,045
960,728; 3585,929;    1,712;    0,773
961,281; 3673,747;    2,258;    0,500
961,834; 3712,020;   -0,833;    0,864
962,386; 3623,838;    1,258;    1,045
962,939; 3533,566;    3,439;   -0,318
963,491; 3692,566;    2,621;    1,136
964,043; 3558,475;    0,076;    2,409
964,596; 3671,657;    1,712;    2,227
965,148; 3487,475;   -0,379;    1,773
965,700; 3439,657;   -0,015;   -0,227
966,253; 3581,020;   -0,833;    0,318
966,805; 3378,293;    1,894;    0,773
967,357; 3460,020;    0,439;   -1,500
967,909; 3395,384;    1,167;   -1,227
968,461; 3541,293;    0,894;    3,136
969,013; 3456,475;   -1,561;   -0,864
969,565; 3520,929;    1,803;   -1,136
970,117; 3546,111;    3,803;    1,045
970,669; 3409,475;    3,258;   -0,136
971,220; 3301,202;    2,167;   -1,500
971,772; 3201,566;    1,348;   -0,318
972,324; 3312,202;   -1,197;   -0,500
972,876; 3269,111;    0,167;   -0,045
973,427; 3380,384;   -1,197;   -1,045
973,979; 3364,202;    0,076;   -2,500
974,530; 3419,020;    0,803;    1,318
975,082; 3424,747;    2,167;    1,682
975,633; 3295,293;    2,894;    1,682
976,184; 3452,475;    2,076;    0,773
976,736; 3242,747;    0,348;    0,227
977,287; 3006,657;    0,258;   -0,500
977,838; 3223,293;   -0,924;   -0,318
978,389; 3263,566;    0,803;   -0,500
978,940; 3149,747;    1,258;   -0,409
979,491; 3186,475;    2,258;   -0,500
980,042; 3123,657;   -0,652;    3,045
980,593; 3184,475;    1,894;    0,227
981,144; 3241,384;    3,530;   -0,500
981,695; 3197,020;   -0,470;    1,500
982,246; 3149,657;   -1,833;    1,045
982,797; 3335,020;   -0,561;    0,682
983,347; 3454,384;    2,167;    0,591
983,898; 3584,475;    4,167;    0,409
984,449; 3399,384;    2,530;    0,773
984,999; 3337,657;    1,894;   -1,136
985,550; 3088,293;    3,167;   -0,318
986,100; 3140,202;    0,712;   -0,318
986,651; 3160,929;    0,258;    0,045
987,201; 3149,202;    0,894;   -0,591
987,751; 3237,475;   -0,288;    2,864
988,302; 3212,111;   -0,379;    1,500
988,852; 3231,657;    1,985;   -1,136
989,402; 3267,111;    0,985;    0,682
989,952; 3161,111;    1,621;    0,864
990,502; 3309,566;    1,076;    0,682
991,052; 3279,929;   -0,106;    0,045
991,602; 3120,929;    1,167;    1,318
992,152; 3108,111;    2,803;    0,682
992,702; 3102,566;    1,167;   -0,045
993,252; 3013,475;    0,076;   -0,500
993,802; 3088,202;    1,167;    1,318
994,352; 3364,384;   -0,742;    1,136
994,901; 3476,111;    1,076;    3,227
995,451; 3382,293;   -1,197;    0,318
996,000; 3475,202;    1,076;    0,318
996,550; 3155,838;    2,894;    0,227
997,100; 3146,566;   -0,561;   -0,045
997,649; 3426,657;   -0,197;    0,955
998,198; 3048,747;   -0,288;   -1,500
998,748; 3242,202;    0,348;   -2,318
999,297; 3163,747;    0,985;   -0,409
999,846; 3231,384;    1,894;   -0,773
1000,395; 3308,020;    1,530;    0,500
1000,945; 3231,747;    1,076;   -0,773
1001,494; 3299,566;    0,167;    0,682
1002,043; 3304,111;    0,712;    0,864
1002,592; 3138,111;    3,439;    1,955
1003,141; 3293,293;    2,439;   -0,682
1003,690; 3114,111;    1,258;    0,500
1004,238; 3207,838;   -0,106;   -0,045
1004,787; 2830,202;   -1,288;    1,227
1005,336; 3056,929;    1,621;    0,682
1005,885; 3228,566;   -0,197;   -2,773
1006,433; 3391,566;   -0,470;    0,955
1006,982; 3427,202;    2,167;    1,682
1007,531; 3356,838;    2,712;   -0,227
1008,079; 3323,929;    0,258;    0,500
1008,627; 3478,111;    1,621;    0,409
1009,176; 3190,293;    0,076;   -1,955
1009,724; 3238,475;   -2,742;    0,864
1010,273; 3289,293;    1,076;    0,500
1010,821; 3435,747;    1,076;    1,409
1011,369; 3145,475;    0,076;    1,318
1011,917; 3111,020;   -0,833;   -0,591
1012,465; 3412,293;    2,530;   -1,591
1013,013; 3532,020;    0,439;   -1,682
1013,561; 3382,293;   -1,288;   -0,773
1014,109; 3427,475;   -0,833;    1,682
1014,657; 3293,838;    1,348;    0,591
1015,205; 3442,475;    0,894;   -0,955
1015,753; 3490,657;    0,258;   -1,409
1016,301; 3520,020;    2,621;    3,045
1016,848; 3522,020;    2,167;    0,409
1017,396; 3553,838;    1,621;    0,045
1017,944; 3689,657;    2,621;    1,864
1018,491; 3453,747;   -0,197;    1,409
1019,039; 3580,838;   -0,652;    0,591
1019,586; 3521,111;    0,076;    1,682
1020,134; 3621,657;    0,712;    1,500
1020,681; 3628,747;    2,894;   -1,136
1021,228; 3673,566;   -0,561;   -2,227
1021,776; 3504,202;   -0,833;   -1,136
1022,323; 3701,384;    0,803;    0,773
1022,870; 3655,566;   -0,470;   -0,045
1023,417; 3510,384;    2,076;    1,864
1023,964; 3691,202;    0,621;    1,227
1024,511; 3488,657;   -0,652;    0,773
1025,058; 3277,384;    0,439;   -0,045
1025,605; 3340,020;   -1,742;    3,136
1026,152; 3543,838;   -0,106;   -0,591
1026,699; 3272,202;    0,167;    1,318
1027,245; 3466,020;    2,439;    0,318
1027,792; 3711,020;    0,712;    1,409
1028,339; 3562,566;    4,076;   -0,045
1028,885; 3416,020;    3,621;   -0,227
1029,432; 3339,020;   -0,106;    0,227
1029,978; 3387,111;    1,348;   -1,591
1030,525; 3289,838;    1,621;    0,409
1031,071; 3581,929;    0,348;    1,136
1031,618; 3643,929;    1,258;    1,682
1032,164; 3444,202;    2,076;    3,045
1032,710; 3496,747;    0,076;   -1,500
1033,256; 3429,111;    0,712;   -0,136
1033,803; 3387,475;   -0,288;    1,500
1034,349; 3120,384;    1,803;    0,136
1034,895; 3280,384;    2,621;   -0,318
1035,441; 3239,566;    0,439;    0,318
1035,987; 3256,384;   -2,288;   -0,682
1036,533; 3255,929;   -0,197;   -0,955
1037,078; 3431,566;    4,712;    1,682
1037,624; 3257,747;    2,439;   -0,955
1038,170; 3280,202;    1,712;   -0,318
1038,716; 3174,929;    2,167;   -0,409
1039,261; 3102,657;    2,167;   -0,773
1039,807; 3039,838;   -0,015;    3,409
1040,352; 3093,020;   -1,288;   -0,318
1040,898; 3145,293;    0,167;   -0,682
1041,443; 3058,929;    0,803;   -2,591
1041,989; 3048,202;    3,621;    1,591
1042,534; 2941,475;    0,985;    2,591
1043,079; 3099,202;    1,985;    0,955
1043,625; 2841,929;    0,258;    0,500
1044,170; 2891,838;    2,439;    1,045
1044,715; 3147,929;    0,167;    0,955
1045,260; 2952,566;   -0,833;   -0,955
1045,805; 3026,747;    0,258;   -0,591
1046,350; 2972,202;    0,530;   -0,409
1046,895; 2910,566;    0,803;    1,591
1047,440; 2838,202;    1,530;    0,409
1047,985; 2741,475;   -1,197;   -0,955
1048,530; 2659,657;    1,348;    1,227
1049,074; 2719,929;    2,803;    0,318
1049,619; 2704,566;   -0,924;    1,955
1050,164; 2482,202;    1,076;    0,227
1050,708; 2540,202;    2,621;    0,045
1051,253; 2883,657;    3,258;   -2,227
1051,797; 2617,566;   -0,197;   -1,318
1052,342; 2647,747;    1,348;    1,045
1052,886; 2616,929;    1,803;   -1,409
1053,430; 2531,747;    2,167;    0,136
1053,975; 2544,020;    0,894;   -0,318
1054,519; 2502,747;    1,803;    3,227
1055,063; 2490,657;    3,621;    1,318
1055,607; 2361,747;    1,348;    0,227
1056,151; 2392,747;    0,530;    1,682
1056,695; 2320,929;   -1,833;   -1,136
1057,239; 2390,657;   -1,197;   -0,682
1057,783; 2382,747;    2,258;   -1,500
1058,327; 2315,111;    3,076;    1,409
1058,871; 2532,384;    3,985;    1,318
1059,415; 2246,929;   -0,561;   -0,045
1059,958; 2476,475;    2,985;    2,591
1060,502; 2215,202;    1,348;   -0,773
1061,046; 2131,293;    1,712;   -0,955
1061,589; 2108,384;    2,803;   -1,136
1062,133; 2006,384;    0,985;    1,864
1062,676; 1926,566;    1,439;    0,864
1063,220; 1916,111;    0,985;    0,500
1063,763; 1939,202;    2,985;    1,136
1064,306; 2005,838;    0,985;    1,864
1064,849; 1905,475;    2,076;    0,591
1065,393; 1916,929;    2,894;   -1,500
1065,936; 2038,384;    2,530;   -0,409
1066,479; 1940,566;    2,621;    1,318
1067,022; 1944,657;    1,894;   -0,227
1067,565; 1842,838;   -1,197;   -1,318
1068,108; 1877,020;    1,258;   -0,591
1068,651; 1864,111;   -2,470;    1,409
1069,194; 1773,929;   -1,106;   -1,682
1069,736; 1762,293;    3,803;    0,955
1070,279; 1747,384;   -1,652;   -0,500
1070,822; 1786,293;    1,530;   -0,318
1071,364; 1841,020;    0,530;    1,318
1071,907; 1679,202;    0,348;    3,227
1072,450; 1620,384;    0,258;   -0,045
1072,992; 1587,657;   -0,561;    3,136
1073,535; 1698,838;    0,167;    2,136
1074,077; 1517,384;    2,985;    2,045
1074,619; 1477,657;    0,985;    0,591
1075,161; 1490,293;   -0,561;    1,500
1075,704; 1661,566;    0,258;    1,227
1076,246; 1477,657;    1,530;    0,682
1076,788; 1413,657;   -1,015;    1,773
1077,330; 1504,566;   -2,106;    2,136
1077,872; 1451,202;   -1,924;    0,955
1078,414; 1665,747;    3,712;    0,773
1078,956; 1400,657;    0,167;   -0,227
1079,498; 1632,111;    0,439;    0,318
1080,040; 1329,566;    0,985;   -1,318
1080,581; 1295,566;    0,621;   -0,318
1081,123; 1239,111;   -0,106;   -0,773
1081,665; 1292,202;    3,803;   -0,955
1082,206; 1558,929;    3,258;   -0,500
1082,748; 1425,202;    3,258;    2,045
1083,289; 1313,475;    0,167;    1,318
1083,831; 1216,566;    0,258;    0,227
1084,372; 1233,657;    0,894;    0,591
1084,913; 1228,293;    3,348;    0,864
1085,455; 1232,657;    1,530;   -2,045
1085,996; 1180,747;    0,530;    0,136
1086,537; 1188,293;    0,985;    0,864
1087,078; 1239,475;    0,439;   -2,136
1087,619; 1258,020;   -1,652;    0,227
1088,160; 1184,929;    1,439;    1,318
1088,701; 1185,929;   -0,742;    0,682
1089,242; 1111,020;   -0,561;   -2,227
1089,783; 1193,566;   -0,561;    1,409
1090,324; 1172,384;   -0,833;    0,682
1090,865; 1049,566;   -1,924;   -0,409
1091,405; 1035,657;   -0,561;    2,227
1091,946; 1070,475;   -0,197;   -0,955
1092,487;  985,020;   -1,288;   -1,409
1093,027; 1132,293;    1,803;   -1,500
1093,568;  988,566;    2,258;    1,227
1094,108; 1065,293;    0,621;    1,773
1094,649; 1030,293;   -0,470;    0,136
1095,189;  969,566;    1,167;   -0,682
1095,729;  903,566;    0,712;    0,955
1096,269;  922,020;    1,258;   -0,955
1096,810; 1225,929;   -0,197;    0,500
1097,350; 1052,293;   -0,561;   -0,773
1097,890;  949,566;    2,985;    1,227
1098,430; 1189,566;    4,985;    2,864
1098,970; 1070,384;    1,894;    1,682
1099,510;  948,838;   -0,833;   -2,318
1100,050;  871,202;    0,258;   -1,591
1100,589;  835,566;    0,076;   -0,318
1101,129;  960,657;    0,894;   -0,955
1101,669; 1087,566;    2,803;    2,136
1102,209;  912,747;    1,530;    2,227
1102,748;  878,566;    3,439;    0,955
1103,288;  856,838;    0,712;   -1,227
1103,827;  888,657;    3,530;   -2,227
1104,367;  775,747;    1,712;   -2,409
1104,906;  733,111;   -1,015;   -1,136
1105,445;  803,657;    0,985;   -1,136
1105,985;  743,293;   -0,652;    1,500
1106,524;  789,475;    1,530;   -0,682
1107,063;  771,293;    1,167;    1,409
1107,602;  750,293;    1,894;   -1,500
1108,141;  670,111;    1,621;    1,500
1108,680;  758,111;    3,985;   -0,591
1109,219;  700,747;    0,167;   -0,500
1109,758;  705,111;    4,167;    0,682
1110,297;  671,293;   -1,106;   -0,682
1110,836;  622,293;    1,439;    0,955
1111,375;  777,657;    0,348;    0,409
1111,913;  784,384;    0,985;    0,773
1112,452;  723,566;    0,894;    0,136
1112,991;  623,929;    1,076;    1,955
1113,529;  573,111;    0,167;   -0,045
1114,068;  637,838;    0,439;    2,955
1114,606;  528,747;   -0,561;   -0,955
1115,144;  686,929;    1,530;    1,045
1115,683;  633,202;    1,985;    0,318
1116,221;  678,020;    2,076;   -0,864
1116,759;  596,293;    1,621;   -0,864
1117,297;  775,838;    1,621;    1,864
1117,836;  589,202;    1,985;   -1,227
1118,374;  590,111;    0,258;   -0,682
1118,912;  552,384;    0,439;    2,682
1119,450;  529,020;    0,985;    0,864
1119,988;  574,657;    3,348;    2,136
1120,525; 1029,747;    7,258;    3,318
1121,063;  727,202;    0,530;    1,864
1121,601;  543,111;    1,076;   -1,227
1122,139;  495,475;    1,076;   -2,045
1122,676;  682,657;   -1,652;    2,773
1123,214;  621,202;    0,712;    4,409
1123,751;  440,566;    0,621;    2,227
1124,289;  564,566;    0,894;   -0,409
1124,826;  427,747;   -0,379;    0,227
1125,364;  366,020;    0,712;   -0,955
1125,901;  545,202;    6,258;    1,227
1126,438;  650,384;    3,530;    0,955
1126,975;  387,111;    2,985;   -0,773
1127,513;  455,111;    2,621;    2,136
1128,050;  370,475;   -0,561;   -0,682
1128,587;  457,566;    1,348;   -0,227
1129,124;  488,202;   -0,015;    1,318
1129,661;  370,929;   -1,924;    0,227
1130,198;  530,657;    2,439;    0,773
1130,734;  466,475;   -0,379;    1,409
1131,271;  336,566;   -1,197;    0,864
1131,808;  495,111;    1,621;    3,045
1132,345;  366,202;    4,530;    0,318
1132,881;  258,111;   -0,561;   -1,864
1133,418;  389,475;    0,348;   -1,136
1133,954;  340,657;    0,712;   -2,682
1134,491;  400,657;    1,712;   -0,773
1135,027;  303,111;    2,167;    0,864
1135,564;  378,566;    1,439;    2,955
1136,100;  368,929;   -0,742;    2,136
1136,636;  272,929;   -1,015;   -1,045
1137,172;  360,202;    0,894;   -1,045
1137,708;  281,929;   -1,561;   -1,045
1138,245;  286,384;    0,803;   -1,227
1138,781;  251,202;    1,803;   -3,318
1139,317;  298,566;    1,894;   -1,409
1139,852;  288,838;    3,076;    0,136
1140,388;  409,293;    2,076;   -0,409
1140,924;  288,020;    1,076;   -2,227
1141,460;  231,657;   -0,288;    0,136
1141,996;  182,111;   -0,652;    2,682
1142,531;  217,657;    1,076;    3,318
1143,067;  415,293;    1,167;    1,045
1143,602;  467,747;    3,439;   -0,318
1144,138;  315,384;    0,803;    1,045
1144,673;  191,020;    1,621;    1,409
1145,209;  257,566;    2,894;   -0,318
1145,744;  183,475;    0,803;    0,864
1146,279;  306,475;    1,530;   -0,136
1146,815;  224,929;    1,530;   -2,682
1147,350;  270,838;   -0,924;    0,045
1147,885;  186,747;   -1,924;   -1,318
1148,420;  188,475;    2,439;    0,773
1148,955;  163,293;   -1,470;    1,864
1149,490;  196,566;   -1,106;   -1,591
1150,025;  180,566;   -1,106;   -1,773
1150,560;  284,929;   -0,288;   -0,955
1151,094;  250,384;    0,258;   -0,591
1151,629;  253,475;   -3,742;    0,864
1152,164;  185,384;   -1,288;    1,318
1152,698;  149,202;    1,258;   -0,136
1153,233;  108,475;   -1,379;   -0,682
1153,767;  148,566;   -0,288;   -2,318
1154,302;  196,020;   -0,379;    1,773
1154,836;  194,566;    0,803;   -2,136
1155,371;  242,293;    2,258;    3,682
1155,905;  204,566;    1,985;    1,682
1156,439;  173,384;    0,530;   -0,500
1156,973;  199,929;    0,439;    0,318
1157,507;  142,111;   -1,742;    0,682
1158,042;  164,838;   -0,652;    1,045
1158,576;  208,838;   -0,561;    1,773
1159,110;  200,566;    0,076;    2,409
1159,643;  177,293;   -2,470;   -0,045
1160,177;  117,566;   -2,015;    1,500

