
Integration time [ms]:   0,040
Averaging Nr. [scans]: 11
Smoothing Nr. [pixels]: 0
Data measured with spectrometer [name]: 7318044SP
Wave   ;Sample   ;Dark     ;Reference
[nm]   ;[counts] ;[counts] ;[counts] 

186,757;   27,211;   38,161;    1,318
187,357;   61,895;   26,706;    0,955
187,958;   38,606;   17,252;   -1,591
188,558;   75,526;   12,979;   -1,227
189,159;   43,650;   10,070;   -4,500
189,759;   21,193;    5,797;   -3,591
190,360;   14,896;    6,797;   -2,136
190,960;   45,481;    5,706;   -4,136
191,560;   62,209;    2,614;   -6,591
192,161;  281,445;    5,885;   -3,500
192,761;  143,496;    5,520;   -3,227
193,361;   96,829;    3,065;   -3,773
193,962;  145,441;    1,612;   -2,682
194,562;   68,972;   -0,114;   -3,955
195,162;  104,656;   -0,567;   -2,227
195,762;  262,253;    2,433;   -0,045
196,362;  202,545;    1,706;   -2,500
196,963;   85,846;    1,706;   -0,864
197,563;  153,051;    1,252;   -0,955
198,163;  100,336;   -0,111;   -0,682
198,763;  124,899;   -0,020;   -0,500
199,363;  224,358;    3,616;   -0,500
199,963;  179,592;    2,162;    0,409
200,563;  157,614;    6,344;   -1,409
201,163;  130,118;    5,435;   -0,227
201,763;  212,496;    1,435;    0,318
202,363;  160,556;    0,980;    1,500
202,963;  253,719;    1,526;    1,045
203,563;  358,338;    0,344;    0,500
204,162;  218,345;    1,889;   -1,864
204,762;  203,983;    2,071;    0,591
205,362;  175,864;    0,708;    1,955
205,962;  270,139;    3,435;    1,955
206,562;  264,986;    1,889;    2,318
207,161;  227,727;    1,708;    0,318
207,761;  379,736;    4,435;    2,409
208,361;  266,575;    1,889;    1,409
208,960;  353,774;    2,889;    1,500
209,560;  412,192;    0,435;    1,591
210,160;  397,397;    5,071;    1,864
210,759;  366,722;    0,708;    1,227
211,359;  370,239;   -0,474;    1,045
211,958;  613,879;    3,526;    2,045
212,558;  694,551;    0,799;    1,864
213,157;  532,913;   -0,929;    1,500
213,757;  947,204;    5,617;   -0,227
214,356;  653,292;    1,708;   -0,409
214,956;  978,153;    3,526;    0,409
215,555;  616,280;    0,617;    2,136
216,154;  561,031;   -0,292;   -0,591
216,754;  558,527;    1,253;    0,773
217,353;  685,493;   -0,383;   -1,045
217,952;  540,996;    2,072;    0,318
218,552;  769,247;    0,254;   -0,773
219,151;  660,017;   -1,110;    0,955
219,750;  657,481;    0,890;   -0,227
220,349;  748,755;   -2,292;    1,045
220,948;  840,278;    1,163;    1,136
221,548;  816,737;    0,617;    1,227
222,147;  930,866;   -1,292;   -0,409
222,746; 1220,341;    1,254;   -0,955
223,345; 1073,508;   -1,019;    0,500
223,944; 1076,158;    1,163;    0,773
224,543; 1233,433;    4,072;   -1,409
225,142; 1348,699;    1,345;    0,136
225,741; 1247,169;    1,163;    1,045
226,340; 1270,269;    1,254;   -0,955
226,939; 1686,181;    2,708;   -0,136
227,538; 1587,256;    1,163;   -0,773
228,137; 1750,054;    0,435;    0,864
228,735; 1843,348;    0,435;    1,227
229,334; 1617,026;   -0,474;   -0,227
229,933; 2000,394;    0,799;    0,591
230,532; 2107,102;   -1,201;   -0,409
231,131; 2170,385;    1,253;    0,318
231,729; 2245,318;    1,163;   -2,318
232,328; 2315,631;    0,435;   -1,500
232,927; 2371,397;    4,526;   -0,500
233,525; 2476,807;    0,981;    0,045
234,124; 2667,260;    1,890;   -1,591
234,723; 2670,455;    1,617;   -1,045
235,321; 2797,276;    1,163;    0,136
235,920; 3005,842;    2,526;   -1,227
236,518; 3252,300;    1,072;    0,318
237,117; 3385,057;    2,890;   -0,227
237,715; 3515,073;    1,163;   -0,500
238,314; 3549,857;    1,708;   -2,318
238,912; 3685,244;    0,526;   -1,409
239,510; 3693,874;    1,162;   -1,227
240,109; 3852,408;   -0,474;    3,773
240,707; 3870,552;   -0,474;    1,227
241,305; 4192,427;   -0,383;    0,136
241,904; 4374,518;   -0,292;   -2,045
242,502; 4342,455;    3,253;   -0,227
243,100; 4311,842;    3,344;   -0,955
243,698; 4544,586;    2,799;    1,682
244,297; 4678,641;   -0,656;    0,682
244,895; 4537,773;   -0,474;   -2,318
245,493; 4823,357;    2,981;   -0,591
246,091; 4855,873;    5,163;   -1,318
246,689; 4832,076;    2,163;    0,591
247,287; 4978,710;   -0,019;   -1,136
247,885; 5239,197;   -1,019;    1,227
248,483; 5318,798;   -0,201;   -0,500
249,081; 5420,591;    0,981;    1,591
249,679; 5561,426;   -1,019;    1,682
250,277; 5801,345;   -2,292;    0,864
250,875; 5785,185;    0,617;   -1,045
251,473; 5803,786;   -0,019;    0,500
252,071; 5985,980;   -0,383;    1,045
252,669; 6103,431;   -1,565;    0,318
253,267; 6331,532;    1,618;    0,773
253,864; 6292,982;    0,617;    0,682
254,462; 6208,260;    1,526;    1,591
255,060; 6141,184;    0,072;    1,318
255,658; 6438,704;   -3,292;   -0,136
256,255; 6808,731;   -0,201;   -2,045
256,853; 6726,379;    2,345;    1,409
257,451; 6674,036;    1,981;    1,864
258,048; 6957,596;    2,072;    1,864
258,646; 6721,463;    0,436;   -1,045
259,243; 6880,561;    2,981;    2,227
259,841; 6934,205;    1,799;    0,318
260,438; 6800,789;    0,254;    0,864
261,036; 7476,371;    0,617;    1,409
261,633; 7408,571;    1,526;    2,227
262,231; 7146,609;   -0,110;   -0,045
262,828; 7232,882;   -0,383;    1,136
263,425; 7255,183;   -1,928;   -0,591
264,023; 7514,820;    1,436;    0,045
264,620; 7110,414;    1,526;   -0,318
265,217; 7421,592;    2,890;    3,136
265,815; 7505,451;    2,527;    2,136
266,412; 7323,822;    0,072;    0,136
267,009; 7358,784;    0,526;    0,773
267,606; 7289,827;    0,345;   -0,955
268,203; 7241,310;   -0,383;   -0,591
268,801; 7506,930;   -0,474;    0,591
269,398; 7803,702;   -0,564;    2,500
269,995; 7749,337;    0,890;    1,591
270,592; 7556,049;    0,799;   -0,500
271,189; 7738,271;    1,981;    0,409
271,786; 7868,458;    2,072;    1,227
272,383; 7706,601;   -0,383;    0,227
272,980; 7858,809;    1,617;    0,318
273,577; 8291,939;    2,162;    1,227
274,174; 7878,423;    1,435;    2,591
274,771; 7846,795;    1,890;   -0,773
275,367; 7998,233;    3,253;    1,409
275,964; 7972,935;   -0,565;   -0,500
276,561; 8086,459;   -2,474;   -1,045
277,158; 8256,608;    1,799;   -1,773
277,755; 8388,227;   -0,110;    0,409
278,351; 7832,757;    0,436;   -1,500
278,948; 8101,407;   -0,201;    0,045
279,545; 8114,592;    0,527;    2,318
280,141; 8737,302;    1,254;   -2,045
280,738; 8548,110;    2,435;   -0,136
281,334; 8758,066;   -0,383;    0,591
281,931; 8193,710;    2,890;   -1,318
282,528; 8293,112;    4,072;   -0,500
283,124; 8938,897;    3,345;   -0,500
283,721; 8813,613;    0,709;    1,409
284,317; 8648,735;    0,163;    2,500
284,913; 9195,638;   -0,110;    0,591
285,510; 9378,456;    2,890;   -0,318
286,106; 9376,889;    2,345;   -0,955
286,703; 8978,174;    0,072;    1,955
287,299; 9174,387;    1,254;   -0,591
287,895; 9363,165;    0,890;   -1,045
288,491; 9885,702;    0,163;    2,136
289,088; 9631,944;    0,163;    2,409
289,684; 9683,795;    2,890;    1,500
290,280; 9684,638;    1,890;    0,682
290,876; 9786,685;    0,163;    5,500
291,472; 9713,995;    2,163;    2,227
292,068; 9816,120;    1,254;    0,227
292,665; 9530,387;   -0,564;    0,773
293,261; 9198,592;   -1,292;    2,136
293,857; 9560,862;    4,072;    2,136
294,453; 9484,779;   -0,928;    0,955
295,049; 9358,077;    0,253;    1,955
295,644; 9385,917;   -1,292;    0,136
296,240; 9255,889;    0,162;   -0,136
296,836; 9357,535;   -0,747;    0,318
297,432; 9616,029;    2,980;   -0,500
298,028; 9632,257;    0,435;    0,773
298,624; 9978,381;    0,889;    1,864
299,220;10214,457;    0,435;    0,591
299,815; 9893,886;    0,526;   -0,409
300,411; 9695,531;    0,435;    1,773
301,007; 9714,502;    1,889;    0,227
301,602; 9733,561;    2,071;   -2,318
302,198; 9908,986;    1,435;   -0,773
302,794;10213,497;    1,526;   -0,500
303,389;10296,251;    1,071;    1,045
303,985;10375,347;    1,253;    1,409
304,580;10368,063;    0,889;    1,591
305,176;10339,872;    0,344;    0,136
305,771;10254,341;   -0,929;   -1,227
306,367;10125,534;    3,071;    0,136
306,962;10461,742;    2,889;    1,500
307,558;10201,878;    2,435;    0,136
308,153;10133,669;   -0,383;   -1,136
308,748;10331,408;    0,162;    1,682
309,344;10334,739;    0,253;   -1,318
309,939;10424,771;    2,071;   -1,318
310,534;10677,528;   -2,020;   -1,682
311,130;10606,343;   -0,656;   -2,500
311,725;10353,174;    0,526;   -0,500
312,320;10646,768;    1,253;    0,045
312,915;10514,597;    2,890;   -1,045
313,510;10589,449;    0,526;   -0,500
314,105;11063,691;   -3,565;    1,409
314,700;10481,340;   -1,656;   -1,045
315,295;10153,063;   -0,020;    0,045
315,890; 9750,057;   -0,292;    0,864
316,485;10043,768;    0,253;   -0,318
317,080;10141,791;   -0,929;    1,591
317,675;10679,292;    3,071;   -0,682
318,270;10117,335;    6,889;    3,318
318,865;10127,356;    2,435;    3,045
319,460; 9958,719;   -1,565;    0,591
320,055;10180,887;   -2,565;   -1,227
320,650; 9909,605;   -1,838;   -0,591
321,244; 9953,690;    0,889;   -1,409
321,839;10829,550;    0,980;   -0,227
322,434;10712,404;   -0,111;   -1,591
323,029;10388,889;   -0,474;    1,591
323,623;10221,954;    0,798;    0,773
324,218; 9997,855;    2,707;    1,409
324,812; 9934,021;    0,889;    1,591
325,407; 9760,355;   -0,929;    2,045
326,002; 9721,199;    0,526;   -0,409
326,596;10009,404;   -0,656;    1,318
327,191;10188,032;   -0,383;   -1,045
327,785; 9832,585;   -0,747;   -0,227
328,379;10062,328;   -0,383;    0,136
328,974; 9852,078;    1,798;   -3,955
329,568;10053,023;    2,889;   -2,409
330,163; 9886,507;    2,435;    1,045
330,757;10245,682;    0,253;    1,591
331,351; 9597,392;   -0,292;    0,682
331,945; 9867,245;   -0,383;    1,409
332,540; 9527,462;    1,617;   -0,591
333,134; 9648,616;    3,344;    0,773
333,728; 9855,620;    2,799;    0,318
334,322;10180,848;    0,889;   -0,864
334,916; 9500,725;    0,344;    0,955
335,510; 9844,184;   -0,111;   -0,136
336,105;10033,668;   -0,929;    1,591
336,699; 9778,671;   -1,292;    0,591
337,293; 9691,198;    1,071;    0,318
337,887; 9805,700;    0,071;    1,955
338,481; 9897,960;    2,980;    0,591
339,074;10020,564;    2,071;    2,682
339,668; 9856,283;   -0,110;    1,227
340,262;10114,800;    7,708;    3,227
340,856; 9647,127;    1,708;   -0,682
341,450; 9054,823;    0,708;    1,864
342,044; 9866,653;    1,799;    0,136
342,637; 9605,953;    1,162;   -2,136
343,231; 9426,991;   -1,474;    0,682
343,825; 9428,238;   -0,747;   -0,591
344,419; 9424,755;   -0,474;    0,500
345,012; 9267,786;    2,889;    4,045
345,606; 9259,071;   -0,656;    1,591
346,199; 9126,005;   -0,111;   -0,227
346,793; 8692,269;    2,525;    2,045
347,386; 8878,746;    0,889;   -1,136
347,980; 8862,727;   -0,838;   -0,045
348,573; 8679,860;   -1,748;    0,409
349,167; 8440,853;    6,161;    4,773
349,760; 8767,652;    2,252;    2,682
350,354; 8753,122;    1,616;    1,136
350,947; 8498,702;    2,798;    1,682
351,540; 8208,040;    0,616;   -1,409
352,134; 8174,403;   -1,111;    1,136
352,727; 8254,833;   -0,657;    1,136
353,320; 8040,139;    2,343;    0,591
353,913; 7882,035;   -1,929;    1,864
354,507; 8091,475;    0,434;   -1,227
355,100; 8109,238;    0,071;    0,864
355,693; 7441,746;    4,798;    2,409
356,286; 7457,696;    0,980;    2,773
356,879; 7790,610;   -0,475;    1,227
357,472; 7430,479;    0,980;    1,500
358,065; 7619,611;    3,161;    2,500
358,658; 7549,086;    0,798;    2,318
359,251; 7212,589;    0,252;   -0,591
359,844; 6772,766;    0,343;   -1,136
360,437; 6962,900;    0,252;    0,045
361,030; 7222,384;    0,525;   -0,682
361,623; 6838,613;    0,434;    0,318
362,215; 6870,607;    0,979;    2,045
362,808; 6714,299;   -2,293;   -1,682
363,401; 6921,122;    0,798;    0,136
363,994; 6710,107;    3,252;   -1,500
364,586; 6640,742;    0,888;   -1,500
365,179; 6800,054;   -0,203;   -1,136
365,772; 6303,687;   -0,930;    2,045
366,364; 6586,503;    1,524;   -3,227
366,957; 6789,110;    1,342;   -0,045
367,549; 6778,932;   -0,203;   -0,864
368,142; 6486,732;    0,978;   -1,500
368,734; 6653,810;    2,523;   -2,136
369,327; 6633,756;    2,341;   -0,500
369,919; 6543,520;   -1,659;    0,409
370,512; 6369,374;   -1,023;   -0,500
371,104; 6155,529;    2,704;    1,591
371,696; 6315,159;    1,703;   -0,955
372,289; 6375,283;    0,157;    1,136
372,881; 6493,644;    1,156;    1,318
373,473; 6442,697;    4,064;    1,136
374,066; 6259,096;    1,336;    0,500
374,658; 6122,451;    0,879;    1,136
375,250; 6427,030;   -1,668;   -1,409
375,842; 6314,038;   -0,124;   -0,045
376,434; 6176,472;   -2,762;   -0,409
377,026; 6708,811;   -1,855;   -2,500
377,618; 6600,305;    0,779;   -0,682
378,210; 6465,006;    3,141;   -1,955
378,802; 6321,883;    3,412;   -0,591
379,394; 6294,943;    3,411;    0,682
379,986; 6813,805;    1,138;   -0,955
380,578; 6881,827;    1,410;    0,773
381,170; 6297,531;    0,320;    0,045
381,762; 6279,810;   -0,224;    1,409
382,354; 6437,242;   -0,223;   -1,318
382,945; 6527,999;    0,870;    0,318
383,537; 6647,856;    1,144;   -1,955
384,129; 6680,528;    0,963;   -1,136
384,721; 6827,757;    0,418;    0,955
385,312; 6770,867;   -1,399;   -0,955
385,904; 6873,749;   -0,945;    1,591
386,496; 6281,194;    0,691;    1,045
387,087; 6411,208;    0,418;    2,500
387,679; 6419,274;   -0,401;    0,045
388,270; 6536,396;   -2,401;    2,045
388,862; 6658,536;   -0,401;   -0,318
389,453; 6553,929;    1,054;    1,045
390,045; 6793,088;    3,236;   -2,682
390,636; 6731,179;    0,144;   -0,591
391,227; 6575,008;    2,054;   -0,045
391,819; 6688,831;    0,781;    0,773
392,410; 6777,483;    0,600;    0,045
393,001; 6689,281;    1,600;   -1,591
393,593; 6959,624;    0,600;   -0,045
394,184; 6800,148;    0,873;   -0,409
394,775; 6725,605;    1,146;    2,136
395,366; 6939,704;    1,782;    0,773
395,957; 6854,737;   -2,400;    0,136
396,548; 7162,279;    1,054;    2,682
397,139; 7451,214;    2,236;    0,591
397,730; 7185,814;    0,873;    0,955
398,321; 7243,126;    0,509;    0,955
398,912; 7258,708;   -0,764;    0,136
399,503; 7356,591;   -1,945;   -1,409
400,094; 6846,732;   -1,582;    1,682
400,685; 6704,416;    3,600;    0,045
401,276; 6765,857;   -0,400;   -0,955
401,867; 7066,638;   -1,127;    0,773
402,458; 7128,149;    1,509;   -2,318
403,048; 7104,490;    0,146;    0,591
403,639; 6753,053;    1,509;    0,864
404,230; 7027,017;    0,691;    0,318
404,821; 6967,228;   -0,127;    0,045
405,411; 7039,871;   -0,763;   -2,591
406,002; 6692,290;    3,237;   -1,136
406,592; 6590,308;    2,691;    0,045
407,183; 6827,726;    0,328;   -1,500
407,774; 6754,340;    1,419;   -0,136
408,364; 7022,961;    2,600;    0,409
408,954; 6694,433;   -0,036;    1,227
409,545; 6748,860;    1,873;    1,045
410,135; 6322,633;   -1,581;    0,500
410,726; 6463,420;    0,783;    0,318
411,316; 6811,610;    2,237;    0,773
411,906; 6485,351;    0,146;   -0,409
412,497; 6036,701;   -0,490;   -0,045
413,087; 6584,614;    0,783;   -0,227
413,677; 6969,625;   -2,490;    3,864
414,267; 6792,686;   -1,035;    1,409
414,857; 6793,105;    0,419;    4,227
415,448; 7043,532;   -0,763;    0,500
416,038; 6764,359;   -2,945;   -0,591
416,628; 6709,324;    0,965;    0,409
417,218; 6272,097;   -1,762;    3,318
417,808; 6520,697;    0,965;   -0,409
418,398; 6929,609;   -1,035;    2,682
418,988; 6903,843;   -2,217;    0,591
419,578; 7117,293;    3,601;    1,409
420,168; 7393,218;    0,692;   -0,955
420,757; 7031,464;    0,964;   -1,500
421,347; 6746,834;    1,601;   -0,227
421,937; 6893,193;    3,329;    1,409
422,527; 6837,373;    2,602;   -0,773
423,116; 6670,107;    2,692;   -0,045
423,706; 7016,628;    2,965;    0,318
424,296; 6944,670;    1,601;    0,682
424,885; 7328,670;    1,510;   -3,045
425,475; 7587,717;    1,147;   -2,864
426,065; 7516,056;   -1,489;   -0,318
426,654; 7159,328;    0,329;   -0,318
427,244; 7268,293;    1,147;    1,409
427,833; 6764,440;    1,056;   -0,500
428,423; 7168,355;    0,147;    1,136
429,012; 7851,331;    2,420;   -1,136
429,601; 7397,877;    2,057;    0,136
430,191; 7620,721;    2,511;    4,318
430,780; 7258,926;   -1,671;   -0,409
431,369; 7206,492;    1,329;   -0,045
431,959; 7805,319;    1,693;    0,500
432,548; 7577,643;   -1,398;   -0,045
433,137; 7674,935;    0,329;   -1,318
433,726; 8162,852;    0,148;    0,500
434,315; 7589,548;    0,148;    2,409
434,905; 7668,818;    0,693;    1,409
435,494; 7577,536;    3,148;    0,955
436,083; 8013,996;    1,420;   -0,955
436,672; 7887,379;    1,148;    0,500
437,261; 7514,528;    0,512;   -1,955
437,850; 7615,534;   -1,125;    0,682
438,439; 7565,821;    2,239;    1,955
439,027; 7441,470;    3,421;    1,773
439,616; 7754,526;    2,239;    1,227
440,205; 7608,631;    0,057;   -2,136
440,794; 7628,330;   -0,306;   -0,045
441,383; 7861,234;    1,603;   -0,591
441,971; 7753,045;   -0,306;    0,591
442,560; 7608,380;    0,603;   -1,773
443,149; 7366,181;    3,060;   -1,318
443,737; 7530,709;    0,968;   -2,318
444,326; 7755,590;    0,331;    0,318
444,915; 7774,355;   -1,851;    0,864
445,503; 8123,496;    0,058;   -0,318
446,092; 7482,055;    7,876;    2,136
446,680; 7958,829;    1,876;    0,318
447,269; 8089,889;   -1,487;   -0,318
447,857; 7908,285;    2,240;   -1,773
448,445; 8011,979;    2,149;    1,318
449,034; 8196,492;    0,876;   -1,136
449,622; 8289,380;    1,240;    3,500
450,210; 7633,746;    3,149;    2,227
450,799; 8129,234;    2,604;   -0,591
451,387; 8057,634;    1,786;   -0,591
451,975; 7766,139;   -1,305;    0,864
452,563; 7848,768;    0,422;    2,318
453,151; 7856,156;   -1,032;   -1,227
453,739; 7792,632;   -1,577;    0,136
454,328; 7671,701;    0,604;   -2,136
454,916; 7412,932;    1,150;   -0,136
455,504; 7598,817;    3,513;    1,227
456,092; 7742,842;    2,150;   -1,591
456,679; 7699,210;    0,604;    0,682
457,267; 7686,788;    3,604;    1,045
457,855; 7779,148;    3,241;    1,409
458,443; 7540,278;   -0,304;    1,682
459,031; 7671,595;    1,332;    2,409
459,619; 8084,755;   -3,577;    2,864
460,206; 8182,406;   -0,759;    2,045
460,794; 8271,498;   -0,668;   -0,227
461,382; 8491,888;    0,878;   -0,864
461,970; 8091,932;    0,605;    1,864
462,557; 8113,907;    0,878;   -0,682
463,145; 8267,843;   -0,304;   -1,682
463,732; 8371,077;    2,514;   -1,045
464,320; 8305,048;    1,514;   -3,045
464,907; 8027,306;    0,423;   -0,773
465,495; 7912,179;    2,696;   -1,227
466,082; 8065,135;    2,060;   -0,045
466,670; 7964,596;    2,605;    1,227
467,257; 8337,567;    0,060;    2,045
467,844; 8510,400;    1,514;    0,045
468,432; 8548,976;   -0,031;    3,500
469,019; 8098,907;    1,606;   -1,773
469,606; 8517,130;    0,969;    3,682
470,193; 8357,711;    2,151;    0,227
470,780; 7955,572;    0,333;    0,864
471,368; 8285,852;   -1,212;   -0,773
471,955; 8089,497;    1,060;   -0,682
472,542; 7759,699;   -0,303;   -1,136
473,129; 7983,801;   -0,485;    0,136
473,716; 7747,017;    0,060;    0,591
474,303; 7905,611;    1,333;   -0,864
474,890; 8145,006;    2,333;   -0,500
475,477; 8177,709;   -0,576;    0,409
476,064; 8097,824;    0,697;   -1,591
476,650; 7999,918;    2,152;    0,318
477,237; 7843,645;    1,879;    0,955
477,824; 8001,360;    3,879;    0,864
478,411; 7989,626;    0,606;   -0,318
478,997; 8179,232;    0,606;   -0,773
479,584; 8201,212;   -0,666;   -0,409
480,171; 8830,738;    1,243;   -0,773
480,757; 8522,919;   -0,848;    0,773
481,344; 8779,673;    0,334;    0,409
481,931; 8315,213;   -0,393;    1,045
482,517; 9184,203;    0,425;    0,318
483,104; 9598,734;    1,334;    2,864
483,690; 9832,126;    0,243;    0,045
484,276;10119,048;    0,698;    0,227
484,863; 9915,505;    2,152;    1,136
485,449;10419,032;    0,152;    0,318
486,035;10423,971;   -0,666;   -0,136
486,622;10796,505;   -2,393;    0,045
487,208;10750,823;    1,334;    1,500
487,794;10633,627;    0,971;    0,318
488,380;10730,913;    0,698;   -1,409
488,967;10771,272;   -1,120;   -0,409
489,553;10827,633;   -1,029;   -1,409
490,139;11003,204;    0,971;    0,773
490,725;10530,098;    0,789;   -0,227
491,311;10180,089;    1,516;    3,045
491,897; 9603,026;   -0,665;    1,500
492,483; 9464,881;    0,426;    1,227
493,069; 9297,282;    5,426;    0,864
493,655; 9264,177;    1,789;    0,682
494,241; 9228,078;    1,517;   -0,955
494,826; 9546,108;    0,335;   -1,045
495,412; 9045,768;    0,335;   -0,682
495,998; 9193,965;    0,971;   -0,318
496,584; 9278,989;    2,244;    1,045
497,169; 9247,461;    2,335;   -0,682
497,755; 9252,315;    1,244;    1,227
498,341; 9781,301;    2,153;    0,318
498,926; 9336,576;    2,881;    1,955
499,512; 9521,478;   -0,028;    2,955
500,097; 9607,195;   -0,574;   -0,318
500,683; 9567,449;   -0,028;    2,136
501,268; 9908,702;    1,881;   -0,955
501,854; 9660,244;   -0,119;    1,227
502,439; 9566,653;   -0,573;   -1,773
503,024; 9741,688;    1,608;    0,500
503,610; 9813,684;    1,335;   -0,682
504,195; 9812,657;    1,245;    1,955
504,780; 9915,527;    2,335;    1,227
505,366; 9798,926;    4,063;    2,864
505,951; 9581,921;   -1,119;    1,045
506,536; 9600,980;    1,427;   -3,682
507,121; 9581,347;    1,699;   -0,318
507,706;10032,284;   -0,392;    1,045
508,291;10339,536;   -2,937;    1,136
508,876; 9867,217;   -0,482;    2,591
509,461; 9368,842;    1,427;   -0,773
510,046; 9795,495;   -0,391;    0,318
510,631; 9999,217;   -0,119;   -0,773
511,216; 9687,444;   -0,664;   -0,500
511,801;10037,257;   -0,755;    2,591
512,386;10247,935;    0,972;    0,500
512,971;10192,253;    0,427;    0,955
513,555; 9790,812;    1,154;   -1,500
514,140;10493,324;    1,336;   -3,136
514,725;10502,899;    1,791;   -1,136
515,309;10640,389;    1,064;    0,318
515,894;10164,205;   -0,300;   -2,227
516,479;10546,266;    1,973;   -0,955
517,063;10379,820;    0,882;    1,227
517,648;10525,099;    0,155;   -1,136
518,232;10125,907;   -1,300;   -1,409
518,817;10472,387;    1,337;    1,682
519,401;10680,399;    0,700;    0,591
519,985;10196,568;    2,700;    1,136
520,570;10088,030;   -0,118;   -1,955
521,154;10355,893;    0,064;    0,591
521,738;10507,939;    1,064;    2,409
522,323;11046,201;   -0,390;    1,682
522,907;10787,615;    2,428;   -0,136
523,491;10533,824;    1,155;    0,955
524,075;10480,941;    0,428;    0,591
524,659;10567,323;    0,973;    0,591
525,243;10100,807;    0,883;    0,409
525,827;10319,078;    0,883;   -0,045
526,411;11065,959;    1,155;   -0,136
526,995;11251,452;    0,337;    1,409
527,579;10879,126;    1,974;   -1,045
528,163;11159,175;    0,428;   -1,500
528,747;11083,735;    1,065;   -0,773
529,331;11359,410;    0,883;   -1,409
529,915;11505,156;    2,338;    0,955
530,499;11470,769;    0,247;    1,227
531,082;11182,441;    1,065;    1,591
531,666;10701,650;    0,520;    0,773
532,250;11262,488;    0,428;    2,682
532,833;11564,096;    0,610;    2,773
533,417;11418,168;    1,247;    0,864
534,001;11361,063;    0,429;   -0,318
534,584;12008,734;    1,974;    0,500
535,168;11869,867;    3,247;    1,409
535,751;11902,198;    4,520;    0,045
536,334;11363,190;    4,520;   -0,409
536,918;11916,276;    1,974;    1,591
537,501;11995,253;    1,520;    1,318
538,085;11979,378;    1,702;    1,045
538,668;12099,677;    0,883;    2,409
539,251;12362,338;    3,156;    3,773
539,834;12400,241;    0,156;    0,773
540,418;12348,037;    3,247;    4,318
541,001;12397,092;    2,702;    1,773
541,584;12398,713;    1,429;    2,227
542,167;12089,249;    0,702;    2,955
542,750;12201,900;    0,793;   -0,773
543,333;11851,454;    1,429;    2,136
543,916;12550,214;   -0,298;    2,500
544,499;13054,616;    2,520;    0,227
545,082;13037,620;    0,248;    3,591
545,665;13190,449;   -0,207;    1,500
546,248;13440,454;    0,520;   -0,318
546,830;13152,354;   -1,752;    1,955
547,413;13519,664;    0,157;   -0,773
547,996;14001,730;    0,157;    0,500
548,579;13732,893;   -0,843;    0,955
549,161;13556,625;    0,884;    2,682
549,744;13364,607;    0,612;    0,409
550,326;13842,746;    0,885;   -1,136
550,909;13623,700;    2,339;    0,591
551,492;13989,236;    0,521;    0,227
552,074;13763,100;   -0,024;   -1,318
552,657;14261,329;    2,430;    0,045
553,239;14051,768;   -3,024;   -0,773
553,821;13971,554;   -1,570;    1,045
554,404;13502,417;   -0,024;    1,136
554,986;13820,437;    2,248;    1,045
555,568;14349,786;    0,430;   -0,955
556,151;13680,357;    4,067;   -0,227
556,733;13858,088;   -1,388;   -0,864
557,315;14265,231;    4,703;    0,500
557,897;14019,656;    0,521;   -0,500
558,479;14121,818;    1,703;    1,318
559,061;14256,640;    1,067;   -0,864
559,643;14573,367;   -0,297;    0,045
560,225;14840,245;   -0,388;    2,864
560,807;14848,730;    0,340;    0,318
561,389;14450,490;   -1,206;    2,318
561,971;15049,506;   -0,660;    2,136
562,553;14896,642;    0,613;    1,591
563,135;15044,001;    1,249;    1,136
563,717;14633,545;    3,158;    1,136
564,298;15232,630;    3,976;   -0,045
564,880;14942,245;    0,340;   -1,409
565,462;15095,063;    1,977;    1,318
566,043;16104,146;   -0,933;    2,318
566,625;15675,167;    4,067;    1,227
567,207;15491,333;    0,704;    1,682
567,788;16431,227;   -0,114;    1,500
568,370;17141,404;   -1,841;   -0,500
568,951;16900,329;   -0,569;    0,227
569,533;17652,199;    0,977;   -0,500
570,114;18050,525;   -0,296;    0,682
570,695;18453,611;   -0,478;   -1,318
571,277;18750,449;   -0,205;   -1,682
571,858;19349,865;    2,704;   -1,136
572,439;20086,752;    0,795;   -1,045
573,021;20197,021;    0,432;   -2,773
573,602;20624,477;    1,795;    0,318
574,183;21401,907;   -0,114;    2,227
574,764;21450,038;    2,068;    0,409
575,345;21850,897;    0,250;   -0,136
575,926;22347,424;    2,704;    0,136
576,507;22296,680;    2,704;   -0,227
577,088;23312,929;    1,704;    1,682
577,669;23286,596;    1,704;    1,955
578,250;23896,089;   -0,750;   -1,045
578,831;24358,348;   -0,841;   -2,227
579,412;24525,985;   -1,205;    0,955
579,993;25409,535;    1,432;    0,227
580,573;25701,355;   -0,023;   -0,955
581,154;24673,053;    1,613;   -0,591
581,735;25516,049;    0,341;    0,773
582,315;25021,140;    0,523;    2,136
582,896;25316,583;   -1,750;    1,227
583,477;24814,804;    0,614;    1,227
584,057;24987,966;    1,159;    0,955
584,638;25210,899;   -2,750;    2,318
585,218;25301,100;    2,886;    2,682
585,799;25402,382;    1,977;   -0,227
586,379;25425,748;    1,250;    1,591
586,959;24416,135;    2,613;    0,318
587,540;23865,069;    0,432;    2,227
588,120;23452,319;   -1,113;   -0,045
588,700;22614,464;    2,977;    2,136
589,281;22930,763;    1,250;   -0,955
589,861;22818,478;   -0,296;   -1,682
590,441;22654,358;   -1,477;   -2,682
591,021;21738,829;    1,432;   -2,591
591,601;22022,737;    0,431;    0,500
592,181;22052,299;   -1,296;   -0,773
592,761;21359,589;    2,250;    1,409
593,341;21379,497;    1,522;    0,045
593,921;21366,633;   -0,569;    1,591
594,501;21267,158;    1,250;    1,318
595,081;21107,244;    0,522;   -0,318
595,661;21478,625;    1,068;    0,955
596,240;21924,124;   -1,023;    0,136
596,820;21503,002;    2,613;    1,955
597,400;21583,621;    1,977;    0,773
597,980;21755,679;   -0,750;    1,045
598,559;21862,048;    0,341;   -0,227
599,139;21650,194;   -0,750;   -1,227
599,718;21557,921;    0,795;   -0,409
600,298;21815,617;   -2,387;    0,682
600,877;22024,798;    4,795;    1,409
601,457;22222,858;    0,340;    1,136
602,036;22144,485;    1,795;    2,045
602,616;22307,791;    2,250;    1,682
603,195;22604,970;    0,431;    3,500
603,774;22133,093;   -0,296;    2,045
604,354;22052,482;    2,522;   -0,500
604,933;21655,255;    0,250;    1,864
605,512;21760,214;    2,340;    0,591
606,091;21839,186;    1,886;    3,773
606,671;22573,814;    0,249;    0,773
607,250;21718,408;    1,431;    3,136
607,829;21915,075;    1,158;    3,227
608,408;21800,841;    4,613;    2,591
608,987;20940,950;    2,704;    3,409
609,566;21198,150;    0,341;   -2,500
610,145;21323,660;    2,885;    0,682
610,723;21684,690;    1,613;    6,864
611,302;21019,594;    1,067;    1,682
611,881;20550,971;    5,158;   11,227
612,460;21324,248;    0,795;    3,955
613,039;21753,239;    1,703;    2,045
613,617;20544,014;    0,886;    4,773
614,196;20702,362;    1,613;    1,227
614,775;21035,530;    1,249;    2,409
615,353;20932,375;   -1,660;    0,864
615,932;20723,652;    0,249;    2,409
616,510;21263,369;    0,158;    0,591
617,089;20876,384;    8,794;   17,591
617,667;20715,813;    4,885;    6,136
618,246;20546,453;   -1,115;    1,318
618,824;20683,436;    1,612;   -0,955
619,402;20271,961;    0,431;   -1,773
619,981;20692,871;    1,067;   -1,045
620,559;20612,856;    0,794;    1,682
621,137;20200,434;    3,067;    1,864
621,715;20143,100;    3,703;   -0,682
622,293;20083,341;    1,885;   -0,773
622,871;20547,594;    0,340;    0,500
623,450;20183,261;    0,430;   -0,864
624,028;20092,810;   -0,388;   -0,955
624,606;19747,883;    2,339;    1,682
625,183;20070,337;   -0,661;   -1,136
625,761;19771,995;    1,885;    1,136
626,339;20074,027;    2,339;    2,591
626,917;20393,529;    0,339;   -0,045
627,495;20464,852;    2,794;    1,318
628,073;19915,374;    5,248;    2,864
628,650;19616,208;    3,067;    2,136
629,228;20037,460;    1,248;    4,409
629,806;19499,711;   -0,024;    1,136
630,383;19705,865;    0,066;   -0,318
630,961;19527,825;   -2,206;   -0,955
631,539;19338,247;   -2,479;    0,227
632,116;18741,462;   12,703;   15,409
632,694;19264,277;    4,885;    6,500
633,271;19450,339;    1,975;    2,682
633,848;19462,135;    1,430;    2,045
634,426;19512,072;    1,521;    1,773
635,003;18726,990;   -0,207;   -0,409
635,580;18970,347;    1,884;    3,682
636,158;19470,552;    3,793;    1,227
636,735;19422,817;    3,339;   -0,500
637,312;19561,460;    0,521;   -0,682
637,889;19675,154;    2,248;   -0,682
638,466;19249,292;    0,066;   -0,409
639,043;19206,291;    1,702;   -1,136
639,620;19473,198;    0,611;   -0,955
640,197;19722,789;    1,612;    1,682
640,774;19872,236;    1,430;    1,136
641,351;20201,865;    0,612;    1,136
641,928;19710,676;    2,794;    1,409
642,505;19388,305;    0,794;   -0,500
643,082;19465,479;    1,885;    1,227
643,658;18615,199;    1,157;    1,500
644,235;19264,828;   -2,479;    2,500
644,812;19485,639;    1,794;    0,773
645,388;19241,995;    1,612;    1,409
645,965;19362,169;    1,521;    1,682
646,542;19416,980;    3,430;   -0,227
647,118;19422,518;    3,703;   -0,955
647,695;19701,147;    0,339;    1,136
648,271;19645,776;   -2,115;    0,500
648,848;19860,223;    0,248;    2,227
649,424;19708,852;    0,976;    1,318
650,000;19485,844;   -0,388;   -1,045
650,577;19282,746;    0,158;   -0,955
651,153;19666,102;   -1,115;    0,955
651,729;20515,094;    0,521;    0,864
652,305;20582,632;    1,339;    2,773
652,881;23982,170;   -1,297;    1,136
653,458;29407,890;    0,249;    0,227
654,034;32353,065;    0,703;    1,591
654,610;33512,239;    0,339;    0,773
655,186;34670,777;    1,612;    3,045
655,762;34380,497;   -1,842;    0,409
656,338;34444,035;    0,703;    0,136
656,913;35404,936;   -0,297;    0,409
657,489;34761,474;    0,249;   -0,318
658,065;34773,558;    0,794;   -1,591
658,641;35273,368;    2,158;   -0,864
659,217;34620,179;    2,067;    0,409
659,792;34175,899;   -1,751;   -0,409
660,368;34526,073;   -0,388;   -0,682
660,944;34411,248;    1,794;    1,227
661,519;30798,877;    0,522;    0,409
662,095;26005,142;   -0,206;    0,591
662,670;22216,407;   -0,206;   -0,136
663,246;21303,491;   -0,660;   -0,409
663,821;20736,847;    0,431;    1,682
664,396;20218,930;    0,613;    1,864
664,972;20432,105;   -0,660;   -0,500
665,547;20734,279;    3,794;    0,136
666,122;20742,271;    1,340;    0,318
666,698;20993,173;    2,431;    0,318
667,273;20354,984;    0,885;    0,136
667,848;21078,976;    0,340;    1,500
668,423;20867,605;    1,795;    2,318
668,998;21265,780;    0,976;   -0,682
669,573;21808,863;    2,067;   -1,500
670,148;21611,583;    1,885;   -0,682
670,723;21376,848;   -0,024;    0,318
671,298;21777,477;   -1,296;    1,045
671,873;21824,742;   -0,296;   -0,136
672,448;21816,735;    1,704;    0,136
673,023;22095,091;    0,249;   -0,227
673,597;22404,356;    2,704;    2,318
674,172;22238,440;    2,431;    0,318
674,747;21759,341;   -0,205;   -1,045
675,321;21598,970;   -0,933;    3,318
675,896;21201,599;    2,158;    1,045
676,471;22080,228;    2,522;    1,591
677,045;21854,130;   -0,296;    0,682
677,620;21900,849;    2,158;    1,136
678,194;22227,024;    0,249;    1,136
678,769;21833,289;    0,886;   -0,318
679,343;22035,554;   -0,023;    1,773
679,917;21892,638;    0,340;    1,955
680,492;21924,539;    0,249;    3,227
681,066;21989,077;    0,613;    0,409
681,640;22070,615;    1,795;   -0,318
682,214;22811,699;    2,340;    0,500
682,788;22345,328;    0,613;   -0,773
683,363;22291,138;    1,977;    1,682
683,937;22024,676;    0,886;   -0,318
684,511;22694,396;   -1,023;   -0,591
685,085;22451,934;   -1,478;    0,318
685,659;22187,745;    1,431;    0,864
686,232;22386,737;    1,159;   -0,318
686,806;22123,821;    2,159;    0,409
687,380;22703,450;   -1,932;    0,591
687,954;22939,169;    2,432;    1,136
688,528;22591,980;    2,613;    1,955
689,101;23332,064;    0,432;    1,045
689,675;22939,147;    0,886;   -0,136
690,249;22339,412;    3,432;    0,409
690,822;22661,950;    1,159;    0,318
691,396;22787,125;    2,068;    1,227
691,969;22296,117;    2,523;    0,136
692,543;22737,019;   -0,568;   -1,955
693,116;22454,375;   -0,659;   -1,409
693,690;22313,640;   -0,296;    0,500
694,263;22778,269;    2,341;    2,955
694,836;22791,534;    2,795;    3,591
695,410;21600,072;    1,159;    1,773
695,983;21976,792;    1,614;    0,591
696,556;21986,512;   -0,750;   -1,045
697,129;22313,141;   -1,114;    1,409
697,703;21965,952;    1,341;    1,955
698,276;22020,490;    1,705;   -0,773
698,849;21801,482;   -1,023;    1,409
699,422;22154,929;    1,250;    0,591
699,995;21908,467;   -0,659;    0,136
700,568;22312,642;   -0,204;    3,045
701,140;22309,816;   -1,841;    1,682
701,713;22116,263;    0,341;    2,409
702,286;21876,165;    0,796;    0,864
702,859;21774,975;    0,614;   -0,591
703,432;21109,513;   -0,841;    0,682
704,004;21474,960;    1,978;    0,318
704,577;21341,680;    1,068;    0,136
705,150;21859,673;    0,887;    2,500
705,722;21656,665;    1,523;   -3,227
706,295;21455,749;    1,432;   -0,591
706,867;21337,105;    0,250;    1,955
707,440;21542,188;   -0,113;   -0,409
708,012;21777,363;   -0,022;    0,591
708,584;21690,901;    2,705;    0,227
709,157;21970,893;    1,160;   -0,591
709,729;21654,886;    1,069;    2,045
710,301;22417,605;   -1,204;    0,045
710,874;22440,871;    0,341;   -0,227
711,446;21425,863;   -0,295;    0,864
712,018;21270,129;   -3,022;    0,500
712,590;21071,394;   -0,204;    1,682
713,162;21591,568;   -0,477;    1,318
713,734;21793,561;    1,796;   -2,045
714,306;21705,917;    0,342;   -0,409
714,878;20503,546;   -0,295;    0,864
715,450;21273,993;   -0,113;    0,864
716,022;21488,349;    2,433;    1,318
716,593;21662,432;    0,978;    0,591
717,165;21598,970;    1,796;   -1,227
717,737;21354,781;    0,796;    0,409
718,309;21054,865;    1,160;   -0,045
718,880;21055,130;   -1,295;   -1,409
719,452;21210,668;    0,887;   -1,591
720,024;20898,024;    1,705;   -0,591
720,595;21411,926;    2,978;    0,955
721,167;21004,373;    1,160;   -2,045
721,738;20566,729;    2,069;   -1,045
722,309;20583,812;    1,251;   -1,227
722,881;20361,532;    2,705;    0,773
723,452;20901,797;    1,251;    2,864
724,023;21086,244;    1,524;    2,682
724,595;20901,328;    2,342;    0,682
725,166;20671,684;    1,524;   -0,409
725,737;20334,131;    1,887;    0,227
726,308;20441,124;    0,797;    0,318
726,879;20790,753;    1,069;    1,227
727,450;20649,291;   -2,022;   -0,045
728,021;20630,647;    1,069;    0,682
728,592;20473,821;    1,160;    0,500
729,163;20730,268;    1,433;   -0,136
729,734;20774,806;    2,160;   -0,227
730,305;21052,253;    0,615;    0,136
730,876;21361,155;    0,888;    2,955
731,447;21133,511;    0,797;    2,682
732,017;21198,231;   -0,840;    1,864
732,588;20781,496;   -0,021;    1,227
733,159;20895,852;    3,615;   -1,045
733,729;20707,663;    1,251;    0,409
734,300;20061,201;    0,160;    0,864
734,870;20474,466;   -1,385;    0,591
735,441;20956,095;    0,888;   -0,591
736,011;20751,633;    1,070;   -1,591
736,582;20660,717;    1,251;    0,045
737,152;20180,891;    0,979;   -2,045
737,722;20649,883;    1,070;   -0,682
738,293;20384,785;   -2,021;    1,318
738,863;20273,232;    1,797;    2,318
739,433;20142,043;    4,524;    0,318
740,003;20726,854;    1,524;   -0,682
740,573;20189,301;    2,252;   -1,591
741,143;20183,111;    3,615;    0,318
741,713;20808,649;    0,252;   -0,500
742,283;20573,278;    1,706;    1,591
742,853;20339,816;    0,524;    1,591
743,423;19912,991;    0,161;    0,045
743,993;19975,892;    1,070;    1,500
744,563;19474,703;    2,524;   -0,864
745,133;19439,786;   -0,112;   -0,864
745,702;20031,506;    2,797;    1,773
746,272;19297,590;    0,434;    0,591
746,842;19139,673;   -0,748;   -0,591
747,411;19556,756;   -0,839;   -0,318
747,981;19665,294;   -0,930;    0,500
748,551;19708,196;   -0,021;   -1,045
749,120;19569,098;   -0,112;   -0,227
749,690;19923,454;    2,161;    2,409
750,259;20216,810;    0,979;    2,955
750,828;20152,530;    4,070;   -1,955
751,398;20393,613;   -0,112;   -0,045
751,967;19933,515;    2,888;    0,409
752,536;20077,053;    1,161;   -0,227
753,105;20492,591;   -1,384;    0,227
753,675;20278,220;   -0,112;    1,773
754,244;20202,485;    0,888;    3,591
754,813;20247,296;    0,979;    1,227
755,382;19871,834;    0,798;    0,955
755,951;20308,190;   -0,112;    3,682
756,520;19921,364;    2,525;    1,864
757,089;20418,175;    1,888;    0,500
757,658;20539,077;    2,434;    1,227
758,227;20538,887;   -1,111;    0,318
758,795;20822,334;   -1,021;    1,136
759,364;21061,145;    0,525;   -0,591
759,933;20140,592;    1,343;   -0,045
760,501;19741,494;    0,252;   -1,318
761,070;20106,305;   -0,293;   -1,409
761,639;20780,206;    1,434;    1,318
762,207;20146,471;    0,889;   -0,955
762,776;20100,646;    2,889;    0,864
763,344;20093,456;    0,071;    0,591
763,913;19248,358;    1,616;    1,409
764,481;19932,078;    1,980;   -0,136
765,049;19794,434;    0,616;    1,409
765,618;19691,063;    1,434;    0,318
766,186;19753,146;    2,434;    0,136
766,754;19942,684;    1,798;    1,864
767,322;19049,859;    1,162;    0,409
767,890;19035,124;    0,525;   -1,773
768,459;19459,207;    2,616;   -0,318
769,027;19566,927;    2,525;    3,409
769,595;18649,193;    2,616;    2,591
770,163;19103,276;    3,344;    2,955
770,730;18865,087;    2,525;   -0,136
771,298;18728,443;    1,162;   -1,409
771,866;18841,890;    0,253;    4,955
772,434;19126,519;    1,162;   -1,864
773,002;19329,966;    2,616;    0,682
773,569;19005,504;    1,071;    1,682
774,137;18814,769;    0,889;   -0,045
774,705;19540,943;   -0,747;   -0,136
775,272;19085,572;    0,253;    0,682
775,840;18913,747;   -0,111;    2,682
776,407;18513,103;   -0,293;    1,955
776,975;18147,459;    1,162;    0,318
777,542;19036,270;    2,162;   -0,045
778,110;18880,899;    0,707;   -0,045
778,677;18621,073;    1,071;   -0,864
779,244;18394,156;   -1,020;    1,045
779,812;18486,149;    0,980;    0,864
780,379;18338,869;    2,435;    1,136
780,946;18608,770;    2,617;   -0,773
781,513;18833,490;   -0,565;    0,318
782,080;18253,755;    1,253;    2,864
782,647;18914,475;    1,708;    3,045
783,214;18583,195;   -0,201;    3,864
783,781;18267,733;    1,708;   -0,682
784,348;18134,544;    0,253;    1,500
784,915;18526,809;   -1,474;    0,318
785,482;18366,620;    2,708;    2,591
786,049;18788,612;    1,071;   -0,591
786,615;18909,059;    1,708;   -0,955
787,182;18660,143;   -3,201;   -0,682
787,749;18345,135;   -2,201;    1,409
788,315;17739,037;    0,253;   -0,409
788,882;18046,030;    0,981;   -1,227
789,448;18666,477;    1,435;   -0,955
790,015;18661,651;    1,799;    3,227
790,581;18253,553;    0,708;    0,227
791,148;18161,909;    1,344;    1,045
791,714;18412,538;   -1,019;    3,136
792,280;18118,348;    3,708;    1,591
792,847;17745,977;   -0,928;    2,500
793,413;18199,152;   -0,110;   -0,318
793,979;17838,962;    1,526;   -1,318
794,545;17896,864;    2,981;    2,682
795,111;17408,038;    2,435;    1,318
795,678;17533,031;    3,526;   -1,682
796,244;17232,478;    2,799;    0,136
796,810;17696,834;    0,799;    0,773
797,375;17511,554;   -0,292;   -2,136
797,941;17510,274;   -1,110;    0,591
798,507;17625,721;    0,254;   -0,955
799,073;17236,441;    2,708;    0,591
799,639;17281,524;    1,435;    3,136
800,205;17356,971;   -1,565;    2,682
800,770;16936,055;    1,345;    1,773
801,336;16981,593;    2,981;   -0,955
801,901;16711,494;    6,072;    3,136
802,467;17253,578;    0,526;    2,045
803,033;16637,843;   -0,019;    0,864
803,598;16832,472;    1,072;   -1,045
804,163;16929,101;    0,708;   -0,318
804,729;16864,730;   -0,110;    1,136
805,294;17156,722;    1,072;    2,227
805,859;16998,715;    0,890;   -0,409
806,425;16574,707;    3,890;    2,682
806,990;16262,336;    1,890;    4,318
807,555;16673,965;   -0,110;    2,591
808,120;16620,321;   -1,292;   -0,409
808,685;16672,859;    1,072;   -2,500
809,250;16278,943;    2,072;   -0,500
809,815;16489,481;   -0,201;    0,682
810,380;16954,200;    0,981;    1,591
810,945;17403,738;    2,890;    2,045
811,510;16705,276;   -0,200;    1,591
812,075;16464,996;    2,800;   -1,409
812,640;16480,989;    3,709;    1,409
813,204;16546,890;    2,163;   -0,227
813,769;16992,974;    0,254;   -0,045
814,334;16500,784;    0,527;    0,864
814,898;16557,777;    1,981;    0,591
815,463;16414,133;    0,981;   -0,773
816,027;16372,671;    1,345;   -2,318
816,592;16487,936;    2,163;   -2,045
817,156;16068,202;   -2,200;    1,136
817,721;15968,467;    0,982;    2,318
818,285;15935,368;    0,618;    1,500
818,849;16492,452;   -0,018;    1,682
819,414;16389,172;    0,073;    2,955
819,978;16010,164;   -0,291;    1,773
820,542;16536,066;    2,891;    0,500
821,106;16326,786;    2,800;    0,682
821,670;16402,596;    2,709;    2,591
822,234;16160,953;    1,073;    1,409
822,798;15696,491;   -0,836;    0,500
823,362;15655,847;    1,527;    4,227
823,926;15054,294;   -0,018;    1,136
824,490;15221,832;    3,527;   -0,682
825,054;15622,915;    2,527;   -1,136
825,618;15329,908;   -1,200;   -1,500
826,181;15287,264;    0,982;   -1,318
826,745;15191,256;   -0,745;   -1,045
827,309;15509,340;    2,255;    1,318
827,872;15023,423;    0,527;    0,955
828,436;15900,961;    1,982;   -0,773
828,999;16022,136;    2,436;    1,227
829,563;14976,219;   -0,654;    1,136
830,126;14773,121;   -0,018;   -0,591
830,690;14841,295;    0,709;    2,864
831,253;14379,651;   -0,473;    2,227
831,816;14507,462;   -0,018;    0,500
832,380;14466,455;    1,164;    0,864
832,943;14674,174;    3,073;   -0,500
833,506;14186,349;    0,255;   -1,227
834,069;14895,796;    2,164;   -0,955
834,632;15018,970;   -2,200;    1,318
835,195;14889,235;    1,346;    0,955
835,758;14167,319;    0,709;    1,955
836,321;14037,311;    1,073;   -1,045
836,884;14170,668;   -1,291;   -0,955
837,447;14221,660;    0,528;    1,773
838,010;14454,016;    1,800;    3,227
838,573;14710,372;    0,528;    0,773
839,135;14699,910;   -0,109;   -0,955
839,698;14248,267;    2,528;    0,409
840,261;13792,168;    0,255;   -0,227
840,823;13663,070;   -0,927;    0,864
841,386;13949,608;   -0,018;   -2,409
841,948;13839,873;    0,255;    1,773
842,511;13622,775;    0,255;    1,682
843,073;13752,767;    2,982;    0,227
843,636;13577,942;    0,619;   -0,227
844,198;13476,389;    1,255;    0,591
844,760;13616,199;    0,619;    1,955
845,322;13315,828;    0,164;    1,136
845,885;13655,457;   -0,290;    0,591
846,447;14077,995;    0,710;    0,227
847,009;13721,988;    3,983;   -0,682
847,571;13969,707;    1,346;   -2,045
848,133;14053,245;   -0,199;   -1,864
848,695;13898,783;    2,346;    1,409
849,257;13527,594;    1,346;   -1,682
849,819;13688,859;    2,983;   -0,409
850,381;13683,034;    1,801;   -0,864
850,942;14005,481;    1,892;   -0,591
851,504;13905,655;    0,983;    0,227
852,066;13951,739;    1,619;   -1,591
852,628;13625,822;    0,165;    1,955
853,189;13169,087;    0,256;    2,682
853,751;13319,443;   -0,654;    1,409
854,312;13170,527;    1,256;   -1,682
854,874;13578,429;   -0,108;   -0,773
855,435;13985,603;    0,528;   -1,682
855,997;14184,777;    3,983;   -0,136
856,558;13496,679;    0,801;    1,773
857,119;13584,490;   -0,744;    2,864
857,681;13339,755;   -0,108;    0,318
858,242;13367,020;    1,347;   -2,136
858,803;13755,285;    1,074;   -0,773
859,364;14294,551;    0,892;   -4,773
859,925;13733,270;   -0,290;   -0,955
860,486;13631,354;    0,529;   -0,955
861,047;13358,256;    0,165;   -1,227
861,608;13177,975;    0,165;   -0,773
862,169;13368,513;   -0,562;   -0,045
862,730;13128,506;   -0,290;    1,409
863,291;13388,498;    0,438;   -0,500
863,852;13698,036;   -0,926;    1,955
864,412;13244,665;   -1,835;   -0,864
864,973;12011,476;    1,892;    0,500
865,534;11898,468;    2,074;    0,227
866,094;13180,006;    2,620;    0,227
866,655;12850,272;    4,711;    3,318
867,215;13151,537;    0,074;    0,136
867,776;13024,166;   -1,199;   -0,136
868,336;13122,158;    1,529;    0,136
868,897;12703,424;    3,438;    1,682
869,457;12495,416;    3,256;    0,318
870,017;12697,227;    2,438;   -1,227
870,578;13154,947;    1,893;    0,773
871,138;12783,212;    2,620;   -0,955
871,698;12400,295;   -0,562;   -1,318
872,258;12273,470;    0,711;   -2,864
872,818;12669,553;    2,347;    0,045
873,378;12649,455;   -2,198;    1,045
873,938;12239,720;    4,984;    0,500
874,498;12500,531;    1,256;   -1,955
875,058;12408,160;    4,347;    1,773
875,618;12291,970;    1,438;   -2,682
876,177;12237,054;   -0,471;    0,136
876,737;11871,137;   -0,289;    1,955
877,297;11912,312;    2,711;    1,955
877,856;11932,486;    2,529;    0,318
878,416;11883,388;    2,438;   -0,136
878,976;12123,380;    3,438;    0,409
879,535;12283,009;    4,529;    3,136
880,095;12046,365;    1,347;    0,045
880,654;12138,085;    0,347;    1,318
881,213;12267,714;    2,347;    1,500
881,773;11920,070;    1,984;    2,682
882,332;12250,790;    6,075;    5,136
882,891;12133,964;    0,711;    2,136
883,451;12497,957;   -2,016;    1,682
884,010;12004,768;   -1,107;   -0,409
884,569;12103,669;   -2,289;   -0,045
885,128;12192,207;   -0,743;   -1,864
885,687;12243,654;   -0,743;    0,682
886,246;12021,283;    2,620;    2,136
886,805;11791,367;    1,620;    2,045
887,364;12016,905;    1,166;   -0,500
887,922;12331,079;   -0,016;    0,045
888,481;11869,890;    1,530;    0,591
889,040;12141,064;    3,711;    2,136
889,599;12700,511;    2,166;    1,409
890,157;12788,140;    2,166;    2,409
890,716;12363,769;    2,166;    0,227
891,274;12234,125;    0,075;   -1,136
891,833;12602,481;    1,166;    0,864
892,391;12495,292;    1,802;    0,500
892,950;12579,739;    0,166;   -0,773
893,508;12881,913;    0,984;   -0,409
894,067;12279,542;   -0,379;    0,136
894,625;12193,626;   -1,016;   -1,500
895,183;12430,527;   -0,198;   -0,682
895,741;12360,883;    2,257;   -1,773
896,299;12180,512;    1,621;   -2,409
896,858;12336,687;    1,530;   -1,591
897,416;12494,406;    0,166;   -1,318
897,974;12301,035;   -2,197;    0,318
898,532;12437,846;    6,530;    2,682
899,089;12351,748;    0,621;   -0,682
899,647;12410,831;    0,530;    1,318
900,205;12210,915;    0,257;    1,045
900,763;12358,362;    2,166;    0,227
901,321;12377,172;    3,530;   -1,409
901,878;11878,710;    3,257;   -0,773
902,436;11817,976;    0,257;    1,318
902,994;12176,968;    6,712;    3,682
903,551;11681,506;    1,439;    0,409
904,109;12076,317;    1,530;   -1,409
904,666;11709,400;    1,439;    1,045
905,224;11536,938;    3,894;   -0,409
905,781;11319,840;   -0,470;   -0,318
906,338;11428,651;    0,167;    1,045
906,895;11378,007;    1,894;    2,045
907,453;11307,454;    2,348;    1,136
908,010;11319,537;    3,348;    0,409
908,567;11042,712;   -0,561;    0,591
909,124;10580,886;    2,439;   -1,500
909,681;10673,969;   -1,288;    0,682
910,238;10854,780;   -0,106;   -1,318
910,795;11153,227;   -1,561;   -1,136
911,352;10829,318;   -0,379;   -2,682
911,909;10321,136;    2,803;   -0,864
912,466;10806,227;    1,985;    1,500
913,022;10381,773;   -0,924;    0,500
913,579;10725,500;   -0,470;    2,045
914,136;10487,318;   -2,561;    0,955
914,692;10767,591;    1,530;   -1,227
915,249;10391,682;    0,530;    0,409
915,806;10591,773;    1,803;    1,955
916,362;10458,318;    0,894;    1,864
916,918;10074,773;    2,439;    1,045
917,475;10068,864;    1,621;    0,955
918,031;10113,136;    0,076;   -0,045
918,587; 9670,045;    0,621;   -0,318
919,144; 9928,227;   -0,379;    0,227
919,700;10181,227;    0,167;    0,773
920,256; 9810,409;    0,439;    0,045
920,812; 9505,318;    1,439;   -1,045
921,368; 9582,682;    1,348;   -1,045
921,924; 9220,682;    0,439;   -0,136
922,480; 8849,682;    0,076;    1,227
923,036; 9418,773;   -0,652;    1,955
923,592; 9389,955;    0,621;    0,318
924,148; 9305,682;    1,894;   -0,955
924,704; 8770,318;    0,258;   -0,409
925,259; 9092,682;   -0,561;    0,591
925,815; 8848,500;    3,803;    0,500
926,371; 8431,227;    3,530;    1,409
926,926; 8408,227;    1,621;    0,591
927,482; 8101,773;    1,621;    0,773
928,037; 8008,955;   -0,833;    2,045
928,593; 8303,500;    0,258;    1,045
929,148; 8158,136;    1,167;   -1,500
929,704; 7770,318;    2,439;   -0,500
930,259; 7930,682;    0,894;   -0,136
930,814; 7192,591;    1,803;    1,955
931,369; 6931,773;    0,258;   -0,773
931,925; 6891,773;   -1,924;    0,136
932,480; 6827,591;    3,076;   -2,591
933,035; 6794,955;    3,985;   -0,318
933,590; 6603,773;   -1,742;   -1,773
934,145; 6311,955;   -1,288;   -0,318
934,700; 6626,500;    0,348;   -0,591
935,255; 6471,864;    4,803;    0,045
935,809; 5989,045;    6,258;    0,864
936,364; 5266,955;    2,167;   -0,136
936,919; 5311,864;    2,348;   -1,773
937,474; 5227,227;    1,348;    0,136
938,028; 5051,955;    3,076;    1,136
938,583; 4698,409;    6,348;    4,682
939,138; 4925,318;    0,167;    2,136
939,692; 4465,318;   -1,015;   -1,136
940,247; 4278,773;    1,167;   -1,045
940,801; 3965,318;    0,621;    0,227
941,355; 3884,955;    0,439;    2,591
941,910; 3627,773;    0,712;   -2,136
942,464; 3715,227;    2,712;   -0,318
943,018; 3623,682;    3,258;   -0,227
943,572; 3559,773;    2,803;   -0,682
944,126; 3126,955;   -0,924;   -0,409
944,681; 3035,591;    0,712;    0,227
945,235; 3003,136;    2,167;   -0,591
945,789; 2947,864;    1,258;   -1,864
946,342; 3140,318;   -0,561;   -0,591
946,896; 2900,591;    0,348;    0,955
947,450; 2701,955;   -0,561;   -0,227
948,004; 2933,682;    1,076;   -0,045
948,558; 2908,227;    1,258;   -0,864
949,111; 2846,227;   -1,197;   -0,318
949,665; 2949,227;   -0,106;   -0,682
950,219; 2844,227;    0,621;   -1,045
950,772; 2854,773;    0,258;    1,864
951,326; 2794,227;   -1,106;   -0,955
951,879; 2819,136;    1,076;   -2,318
952,433; 2896,682;    1,348;    2,227
952,986; 2722,591;    0,348;    0,682
953,539; 2662,864;    1,530;    0,591
954,093; 2638,500;    0,985;   -1,318
954,646; 2785,591;   -0,288;    1,318
955,199; 2595,955;    1,258;   -0,500
955,752; 2571,955;    1,985;    1,773
956,305; 2504,409;    0,894;    2,955
956,858; 2626,773;    0,621;   -0,318
957,411; 2772,682;    3,621;    2,136
957,964; 2599,045;    2,076;    2,136
958,517; 2577,045;    0,985;    3,136
959,070; 2458,045;   -1,197;    1,955
959,623; 2623,773;    1,076;    1,500
960,176; 2437,591;    0,712;    2,045
960,728; 2407,955;    1,712;    0,773
961,281; 2460,045;    2,258;    0,500
961,834; 2457,773;   -0,833;    0,864
962,386; 2385,955;    1,258;    1,045
962,939; 2320,045;    3,439;   -0,318
963,491; 2442,136;    2,621;    1,136
964,043; 2320,318;    0,076;    2,409
964,596; 2461,864;    1,712;    2,227
965,148; 2331,682;   -0,379;    1,773
965,700; 2248,136;   -0,015;   -0,227
966,253; 2392,591;   -0,833;    0,318
966,805; 2264,227;    1,894;    0,773
967,357; 2269,682;    0,439;   -1,500
967,909; 2278,864;    1,167;   -1,227
968,461; 2301,318;    0,894;    3,136
969,013; 2253,045;   -1,561;   -0,864
969,565; 2353,773;    1,803;   -1,136
970,117; 2549,136;    3,803;    1,045
970,669; 2307,227;    3,258;   -0,136
971,220; 2132,591;    2,167;   -1,500
971,772; 2095,864;    1,348;   -0,318
972,324; 2235,864;   -1,197;   -0,500
972,876; 2159,318;    0,167;   -0,045
973,427; 2302,409;   -1,197;   -1,045
973,979; 2297,409;    0,076;   -2,500
974,530; 2247,682;    0,803;    1,318
975,082; 2256,864;    2,167;    1,682
975,633; 2187,318;    2,894;    1,682
976,184; 2333,318;    2,076;    0,773
976,736; 2177,136;    0,348;    0,227
977,287; 2023,136;    0,258;   -0,500
977,838; 2139,318;   -0,924;   -0,318
978,389; 2179,409;    0,803;   -0,500
978,940; 2052,864;    1,258;   -0,409
979,491; 2066,500;    2,258;   -0,500
980,042; 2080,500;   -0,652;    3,045
980,593; 2106,409;    1,894;    0,227
981,144; 2203,227;    3,530;   -0,500
981,695; 2226,864;   -0,470;    1,500
982,246; 2143,864;   -1,833;    1,045
982,797; 2210,227;   -0,561;    0,682
983,347; 2335,773;    2,167;    0,591
983,898; 2534,136;    4,167;    0,409
984,449; 2395,318;    2,530;    0,773
984,999; 2228,318;    1,894;   -1,136
985,550; 2075,773;    3,167;   -0,318
986,100; 2054,773;    0,712;   -0,318
986,651; 2066,955;    0,258;    0,045
987,201; 2062,864;    0,894;   -0,591
987,751; 2120,955;   -0,288;    2,864
988,302; 2149,773;   -0,379;    1,500
988,852; 2160,955;    1,985;   -1,136
989,402; 2234,773;    0,985;    0,682
989,952; 2177,955;    1,621;    0,864
990,502; 2202,955;    1,076;    0,682
991,052; 2127,682;   -0,106;    0,045
991,602; 2033,227;    1,167;    1,318
992,152; 2085,864;    2,803;    0,682
992,702; 2051,500;    1,167;   -0,045
993,252; 1998,500;    0,076;   -0,500
993,802; 2102,227;    1,167;    1,318
994,352; 2231,409;   -0,742;    1,136
994,901; 2288,773;    1,076;    3,227
995,451; 2229,409;   -1,197;    0,318
996,000; 2290,409;    1,076;    0,318
996,550; 2079,045;    2,894;    0,227
997,100; 2096,136;   -0,561;   -0,045
997,649; 2351,409;   -0,197;    0,955
998,198; 2053,045;   -0,288;   -1,500
998,748; 2238,045;    0,348;   -2,318
999,297; 2126,682;    0,985;   -0,409
999,846; 2223,500;    1,894;   -0,773
1000,395; 2212,773;    1,530;    0,500
1000,945; 2243,682;    1,076;   -0,773
1001,494; 2302,682;    0,167;    0,682
1002,043; 2274,773;    0,712;    0,864
1002,592; 2083,500;    3,439;    1,955
1003,141; 2205,955;    2,439;   -0,682
1003,690; 2150,591;    1,258;    0,500
1004,238; 2151,500;   -0,106;   -0,045
1004,787; 1860,227;   -1,288;    1,227
1005,336; 2133,045;    1,621;    0,682
1005,885; 2184,955;   -0,197;   -2,773
1006,433; 2264,591;   -0,470;    0,955
1006,982; 2435,045;    2,167;    1,682
1007,531; 2281,227;    2,712;   -0,227
1008,079; 2192,045;    0,258;    0,500
1008,627; 2278,318;    1,621;    0,409
1009,176; 2117,955;    0,076;   -1,955
1009,724; 2133,682;   -2,742;    0,864
1010,273; 2239,500;    1,076;    0,500
1010,821; 2282,227;    1,076;    1,409
1011,369; 2064,864;    0,076;    1,318
1011,917; 2048,409;   -0,833;   -0,591
1012,465; 2299,773;    2,530;   -1,591
1013,013; 2365,591;    0,439;   -1,682
1013,561; 2318,955;   -1,288;   -0,773
1014,109; 2393,682;   -0,833;    1,682
1014,657; 2251,409;    1,348;    0,591
1015,205; 2316,500;    0,894;   -0,955
1015,753; 2303,500;    0,258;   -1,409
1016,301; 2341,773;    2,621;    3,045
1016,848; 2350,955;    2,167;    0,409
1017,396; 2398,864;    1,621;    0,045
1017,944; 2482,136;    2,621;    1,864
1018,491; 2272,955;   -0,197;    1,409
1019,039; 2547,500;   -0,652;    0,591
1019,586; 2375,500;    0,076;    1,682
1020,134; 2432,500;    0,712;    1,500
1020,681; 2462,500;    2,894;   -1,136
1021,228; 2410,409;   -0,561;   -2,227
1021,776; 2301,227;   -0,833;   -1,136
1022,323; 2559,500;    0,803;    0,773
1022,870; 2475,500;   -0,470;   -0,045
1023,417; 2425,591;    2,076;    1,864
1023,964; 2452,591;    0,621;    1,227
1024,511; 2356,864;   -0,652;    0,773
1025,058; 2195,318;    0,439;   -0,045
1025,605; 2234,773;   -1,742;    3,136
1026,152; 2472,409;   -0,106;   -0,591
1026,699; 2214,318;    0,167;    1,318
1027,245; 2327,045;    2,439;    0,318
1027,792; 2459,045;    0,712;    1,409
1028,339; 2448,955;    4,076;   -0,045
1028,885; 2304,864;    3,621;   -0,227
1029,432; 2228,682;   -0,106;    0,227
1029,978; 2327,591;    1,348;   -1,591
1030,525; 2231,773;    1,621;    0,409
1031,071; 2370,955;    0,348;    1,136
1031,618; 2585,318;    1,258;    1,682
1032,164; 2345,136;    2,076;    3,045
1032,710; 2388,136;    0,076;   -1,500
1033,256; 2303,227;    0,712;   -0,136
1033,803; 2235,045;   -0,288;    1,500
1034,349; 2028,227;    1,803;    0,136
1034,895; 2157,955;    2,621;   -0,318
1035,441; 2150,409;    0,439;    0,318
1035,987; 2192,955;   -2,288;   -0,682
1036,533; 2221,227;   -0,197;   -0,955
1037,078; 2426,682;    4,712;    1,682
1037,624; 2247,500;    2,439;   -0,955
1038,170; 2217,864;    1,712;   -0,318
1038,716; 2192,318;    2,167;   -0,409
1039,261; 2063,136;    2,167;   -0,773
1039,807; 2033,045;   -0,015;    3,409
1040,352; 2112,409;   -1,288;   -0,318
1040,898; 2138,955;    0,167;   -0,682
1041,443; 2048,318;    0,803;   -2,591
1041,989; 2186,591;    3,621;    1,591
1042,534; 2005,682;    0,985;    2,591
1043,079; 2044,136;    1,985;    0,955
1043,625; 1921,773;    0,258;    0,500
1044,170; 1987,591;    2,439;    1,045
1044,715; 2246,136;    0,167;    0,955
1045,260; 2065,136;   -0,833;   -0,955
1045,805; 2049,227;    0,258;   -0,591
1046,350; 1994,773;    0,530;   -0,409
1046,895; 2040,591;    0,803;    1,591
1047,440; 2021,045;    1,530;    0,409
1047,985; 1897,591;   -1,197;   -0,955
1048,530; 1820,955;    1,348;    1,227
1049,074; 1889,318;    2,803;    0,318
1049,619; 1836,409;   -0,924;    1,955
1050,164; 1691,136;    1,076;    0,227
1050,708; 1746,227;    2,621;    0,045
1051,253; 2136,045;    3,258;   -2,227
1051,797; 1852,773;   -0,197;   -1,318
1052,342; 1792,864;    1,348;    1,045
1052,886; 1819,682;    1,803;   -1,409
1053,430; 1679,773;    2,167;    0,136
1053,975; 1719,773;    0,894;   -0,318
1054,519; 1719,045;    1,803;    3,227
1055,063; 1781,500;    3,621;    1,318
1055,607; 1703,864;    1,348;    0,227
1056,151; 1715,773;    0,530;    1,682
1056,695; 1598,045;   -1,833;   -1,136
1057,239; 1651,136;   -1,197;   -0,682
1057,783; 1677,864;    2,258;   -1,500
1058,327; 1683,682;    3,076;    1,409
1058,871; 1924,136;    3,985;    1,318
1059,415; 1639,136;   -0,561;   -0,045
1059,958; 1915,318;    2,985;    2,591
1060,502; 1633,682;    1,348;   -0,773
1061,046; 1492,500;    1,712;   -0,955
1061,589; 1458,955;    2,803;   -1,136
1062,133; 1374,682;    0,985;    1,864
1062,676; 1348,682;    1,439;    0,864
1063,220; 1375,864;    0,985;    0,500
1063,763; 1413,045;    2,985;    1,136
1064,306; 1476,136;    0,985;    1,864
1064,849; 1393,500;    2,076;    0,591
1065,393; 1384,591;    2,894;   -1,500
1065,936; 1468,045;    2,530;   -0,409
1066,479; 1347,136;    2,621;    1,318
1067,022; 1372,682;    1,894;   -0,227
1067,565; 1297,409;   -1,197;   -1,318
1068,108; 1304,045;    1,258;   -0,591
1068,651; 1259,773;   -2,470;    1,409
1069,194; 1219,227;   -1,106;   -1,682
1069,736; 1239,136;    3,803;    0,955
1070,279; 1210,136;   -1,652;   -0,500
1070,822; 1295,136;    1,530;   -0,318
1071,364; 1407,318;    0,530;    1,318
1071,907; 1219,227;    0,348;    3,227
1072,450; 1081,045;    0,258;   -0,045
1072,992; 1116,591;   -0,561;    3,136
1073,535; 1261,136;    0,167;    2,136
1074,077; 1059,682;    2,985;    2,045
1074,619; 1055,955;    0,985;    0,591
1075,161; 1099,409;   -0,561;    1,500
1075,704; 1273,136;    0,258;    1,227
1076,246; 1054,136;    1,530;    0,682
1076,788;  970,045;   -1,015;    1,773
1077,330; 1027,409;   -2,106;    2,136
1077,872; 1040,955;   -1,924;    0,955
1078,414; 1281,864;    3,712;    0,773
1078,956; 1022,773;    0,167;   -0,227
1079,498; 1271,773;    0,439;    0,318
1080,040;  992,045;    0,985;   -1,318
1080,581;  927,955;    0,621;   -0,318
1081,123;  851,773;   -0,106;   -0,773
1081,665;  890,227;    3,803;   -0,955
1082,206; 1199,773;    3,258;   -0,500
1082,748; 1064,045;    3,258;    2,045
1083,289;  930,136;    0,167;    1,318
1083,831;  854,682;    0,258;    0,227
1084,372;  917,864;    0,894;    0,591
1084,913;  913,136;    3,348;    0,864
1085,455;  866,227;    1,530;   -2,045
1085,996;  847,409;    0,530;    0,136
1086,537;  893,773;    0,985;    0,864
1087,078;  913,955;    0,439;   -2,136
1087,619;  957,773;   -1,652;    0,227
1088,160;  878,955;    1,439;    1,318
1088,701;  862,955;   -0,742;    0,682
1089,242;  818,682;   -0,561;   -2,227
1089,783;  904,864;   -0,561;    1,409
1090,324;  873,500;   -0,833;    0,682
1090,865;  759,409;   -1,924;   -0,409
1091,405;  712,227;   -0,561;    2,227
1091,946;  761,591;   -0,197;   -0,955
1092,487;  688,864;   -1,288;   -1,409
1093,027;  872,773;    1,803;   -1,500
1093,568;  734,045;    2,258;    1,227
1094,108;  811,864;    0,621;    1,773
1094,649;  757,955;   -0,470;    0,136
1095,189;  689,864;    1,167;   -0,682
1095,729;  654,682;    0,712;    0,955
1096,269;  659,227;    1,258;   -0,955
1096,810;  952,864;   -0,197;    0,500
1097,350;  800,227;   -0,561;   -0,773
1097,890;  711,500;    2,985;    1,227
1098,430;  964,136;    4,985;    2,864
1098,970;  837,955;    1,894;    1,682
1099,510;  692,682;   -0,833;   -2,318
1100,050;  635,136;    0,258;   -1,591
1100,589;  608,864;    0,076;   -0,318
1101,129;  731,591;    0,894;   -0,955
1101,669;  881,318;    2,803;    2,136
1102,209;  713,409;    1,530;    2,227
1102,748;  671,318;    3,439;    0,955
1103,288;  658,682;    0,712;   -1,227
1103,827;  675,773;    3,530;   -2,227
1104,367;  570,227;    1,712;   -2,409
1104,906;  545,318;   -1,015;   -1,136
1105,445;  617,227;    0,985;   -1,136
1105,985;  566,227;   -0,652;    1,500
1106,524;  609,773;    1,530;   -0,682
1107,063;  583,591;    1,167;    1,409
1107,602;  550,227;    1,894;   -1,500
1108,141;  499,136;    1,621;    1,500
1108,680;  596,045;    3,985;   -0,591
1109,219;  537,500;    0,167;   -0,500
1109,758;  521,773;    4,167;    0,682
1110,297;  503,773;   -1,106;   -0,682
1110,836;  459,318;    1,439;    0,955
1111,375;  597,773;    0,348;    0,409
1111,913;  621,045;    0,985;    0,773
1112,452;  561,773;    0,894;    0,136
1112,991;  449,682;    1,076;    1,955
1113,529;  417,409;    0,167;   -0,045
1114,068;  485,773;    0,439;    2,955
1114,606;  397,318;   -0,561;   -0,955
1115,144;  544,045;    1,530;    1,045
1115,683;  487,864;    1,985;    0,318
1116,221;  544,591;    2,076;   -0,864
1116,759;  454,227;    1,621;   -0,864
1117,297;  640,318;    1,621;    1,864
1117,836;  459,500;    1,985;   -1,227
1118,374;  463,773;    0,258;   -0,682
1118,912;  415,500;    0,439;    2,682
1119,450;  412,409;    0,985;    0,864
1119,988;  445,500;    3,348;    2,136
1120,525;  880,136;    7,258;    3,318
1121,063;  587,591;    0,530;    1,864
1121,601;  423,045;    1,076;   -1,227
1122,139;  382,045;    1,076;   -2,045
1122,676;  566,136;   -1,652;    2,773
1123,214;  503,227;    0,712;    4,409
1123,751;  338,955;    0,621;    2,227
1124,289;  453,409;    0,894;   -0,409
1124,826;  339,955;   -0,379;    0,227
1125,364;  260,955;    0,712;   -0,955
1125,901;  448,500;    6,258;    1,227
1126,438;  546,682;    3,530;    0,955
1126,975;  288,591;    2,985;   -0,773
1127,513;  361,045;    2,621;    2,136
1128,050;  273,682;   -0,561;   -0,682
1128,587;  360,136;    1,348;   -0,227
1129,124;  402,773;   -0,015;    1,318
1129,661;  282,318;   -1,924;    0,227
1130,198;  438,318;    2,439;    0,773
1130,734;  375,409;   -0,379;    1,409
1131,271;  258,045;   -1,197;    0,864
1131,808;  419,682;    1,621;    3,045
1132,345;  299,318;    4,530;    0,318
1132,881;  187,227;   -0,561;   -1,864
1133,418;  305,955;    0,348;   -1,136
1133,954;  254,318;    0,712;   -2,682
1134,491;  326,682;    1,712;   -0,773
1135,027;  241,409;    2,167;    0,864
1135,564;  315,045;    1,439;    2,955
1136,100;  294,591;   -0,742;    2,136
1136,636;  202,318;   -1,015;   -1,045
1137,172;  292,955;    0,894;   -1,045
1137,708;  225,227;   -1,561;   -1,045
1138,245;  223,591;    0,803;   -1,227
1138,781;  176,955;    1,803;   -3,318
1139,317;  241,955;    1,894;   -1,409
1139,852;  228,955;    3,076;    0,136
1140,388;  334,500;    2,076;   -0,409
1140,924;  234,500;    1,076;   -2,227
1141,460;  180,136;   -0,288;    0,136
1141,996;  129,864;   -0,652;    2,682
1142,531;  161,500;    1,076;    3,318
1143,067;  353,864;    1,167;    1,045
1143,602;  406,773;    3,439;   -0,318
1144,138;  270,955;    0,803;    1,045
1144,673;  153,682;    1,621;    1,409
1145,209;  206,591;    2,894;   -0,318
1145,744;  146,591;    0,803;    0,864
1146,279;  265,136;    1,530;   -0,136
1146,815;  182,409;    1,530;   -2,682
1147,350;  230,409;   -0,924;    0,045
1147,885;  149,409;   -1,924;   -1,318
1148,420;  146,136;    2,439;    0,773
1148,955;  129,864;   -1,470;    1,864
1149,490;  153,136;   -1,106;   -1,591
1150,025;  138,136;   -1,106;   -1,773
1150,560;  240,500;   -0,288;   -0,955
1151,094;  207,318;    0,258;   -0,591
1151,629;  205,864;   -3,742;    0,864
1152,164;  143,045;   -1,288;    1,318
1152,698;  101,409;    1,258;   -0,136
1153,233;   70,591;   -1,379;   -0,682
1153,767;  117,864;   -0,288;   -2,318
1154,302;  164,136;   -0,379;    1,773
1154,836;  157,318;    0,803;   -2,136
1155,371;  203,409;    2,258;    3,682
1155,905;  165,227;    1,985;    1,682
1156,439;  135,773;    0,530;   -0,500
1156,973;  163,864;    0,439;    0,318
1157,507;  109,864;   -1,742;    0,682
1158,042;  133,136;   -0,652;    1,045
1158,576;  181,045;   -0,561;    1,773
1159,110;  165,045;    0,076;    2,409
1159,643;  131,773;   -2,470;   -0,045
1160,177;   92,955;   -2,015;    1,500

