
Integration time [ms]:   0,050
Averaging Nr. [scans]: 11
Smoothing Nr. [pixels]: 0
Data measured with spectrometer [name]: 7318044SP
Wave   ;Sample   ;Dark     ;Reference
[nm]   ;[counts] ;[counts] ;[counts] 

186,757;  -24,789;   38,161;    1,318
187,357;   -0,614;   26,706;    0,955
187,958;  -17,808;   17,252;   -1,591
188,558;   26,475;   12,979;   -1,227
189,159;   -1,872;   10,070;   -4,500
189,759;  -23,091;    5,797;   -3,591
190,360;  -26,511;    6,797;   -2,136
190,960;   -5,092;    5,706;   -4,136
191,560;    6,741;    2,614;   -6,591
192,161;  185,700;    5,885;   -3,500
192,761;   57,140;    5,520;   -3,227
193,361;   12,535;    3,065;   -3,773
193,962;   48,733;    1,612;   -2,682
194,562;    0,270;   -0,114;   -3,955
195,162;    5,881;   -0,567;   -2,227
195,762;  115,106;    2,433;   -0,045
196,362;   67,436;    1,706;   -2,500
196,963;  -11,177;    1,706;   -0,864
197,563;   30,298;    1,252;   -0,955
198,163;  -11,775;   -0,111;   -0,682
198,763;   -0,097;   -0,020;   -0,500
199,363;   43,612;    3,616;   -0,500
199,963;   19,948;    2,162;    0,409
200,563;    3,679;    6,344;   -1,409
201,163;   -6,121;    5,435;   -0,227
201,763;   17,946;    1,435;    0,318
202,363;   -1,134;    0,980;    1,500
202,963;   19,916;    1,526;    1,045
203,563;   70,986;    0,344;    0,500
204,162;   12,551;    1,889;   -1,864
204,762;    6,212;    2,071;    0,591
205,362;   -5,356;    0,708;    1,955
205,962;   11,783;    3,435;    1,955
206,562;   14,905;    1,889;    2,318
207,161;    1,051;    1,708;    0,318
207,761;   64,755;    4,435;    2,409
208,361;   -1,894;    1,889;    1,409
208,960;   15,945;    2,889;    1,500
209,560;   10,681;    0,435;    1,591
210,160;   24,523;    5,071;    1,864
210,759;   13,416;    0,708;    1,227
211,359;   -2,883;   -0,474;    1,045
211,958;   91,719;    3,526;    2,045
212,558;   98,690;    0,799;    1,864
213,157;   28,935;   -0,929;    1,500
213,757;  164,237;    5,617;   -0,227
214,356;   52,464;    1,708;   -0,409
214,956;  138,748;    3,526;    0,409
215,555;   35,897;    0,617;    2,136
216,154;    6,747;   -0,292;   -0,591
216,754;   10,829;    1,253;    0,773
217,353;   16,514;   -0,383;   -1,045
217,952;  -24,943;    2,072;    0,318
218,552;   32,608;    0,254;   -0,773
219,151;    3,061;   -1,110;    0,955
219,750;    1,034;    0,890;   -0,227
220,349;   -5,764;   -2,292;    1,045
220,948;   44,849;    1,163;    1,136
221,548;    0,579;    0,617;    1,227
222,147;   16,677;   -1,292;   -0,409
222,746;   73,471;    1,254;   -0,955
223,345;   23,040;   -1,019;    0,500
223,944;   34,190;    1,163;    0,773
224,543;   40,855;    4,072;   -1,409
225,142;   20,196;    1,345;    0,136
225,741;   27,282;    1,163;    1,045
226,340;   16,520;    1,254;   -0,955
226,939;   65,213;    2,708;   -0,136
227,538;   15,118;    1,163;   -0,773
228,137;   68,416;    0,435;    0,864
228,735;   40,502;    0,435;    1,227
229,334;  -16,417;   -0,474;   -0,227
229,933;   69,929;    0,799;    0,591
230,532;   68,053;   -1,201;   -0,409
231,131;   98,319;    1,253;    0,318
231,729;   39,996;    1,163;   -2,318
232,328;   12,313;    0,435;   -1,500
232,927;   14,077;    4,526;   -0,500
233,525;   14,856;    0,981;    0,045
234,124;   28,203;    1,890;   -1,591
234,723;   -1,395;    1,617;   -1,045
235,321;   -7,804;    1,163;    0,136
235,920;    2,001;    2,526;   -1,227
236,518;   73,137;    1,072;    0,318
237,117;    8,643;    2,890;   -0,227
237,715;   18,192;    1,163;   -0,500
238,314;   23,795;    1,708;   -2,318
238,912;   72,191;    0,526;   -1,409
239,510;   27,080;    1,162;   -1,227
240,109;   74,888;   -0,474;    3,773
240,707;   59,517;   -0,474;    1,227
241,305;    2,128;   -0,383;    0,136
241,904;   31,128;   -0,292;   -2,045
242,502;   90,415;    3,253;   -0,227
243,100;   48,546;    3,344;   -0,955
243,698;   10,187;    2,799;    1,682
244,297;   27,497;   -0,656;    0,682
244,895;   23,823;   -0,474;   -2,318
245,493;   99,657;    2,981;   -0,591
246,091;  109,424;    5,163;   -1,318
246,689;   59,783;    2,163;    0,591
247,287;   58,837;   -0,019;   -1,136
247,885;   34,570;   -1,019;    1,227
248,483;   20,528;   -0,201;   -0,500
249,081;   73,084;    0,981;    1,591
249,679;   87,278;   -1,019;    1,682
250,277;   34,263;   -2,292;    0,864
250,875;   90,460;    0,617;   -1,045
251,473;   48,407;   -0,019;    0,500
252,071;  102,709;   -0,383;    1,045
252,669;   63,826;   -1,565;    0,318
253,267;   44,535;    1,618;    0,773
253,864;   65,473;    0,617;    0,682
254,462;  145,646;    1,526;    1,591
255,060;   49,349;    0,072;    1,318
255,658;   57,281;   -3,292;   -0,136
256,255;   91,014;   -0,201;   -2,045
256,853;  128,661;    2,345;    1,409
257,451;   94,284;    1,981;    1,864
258,048;  362,169;    2,072;    1,864
258,646;  189,823;    0,436;   -1,045
259,243;  262,479;    2,981;    2,227
259,841;  180,435;    1,799;    0,318
260,438;   97,724;    0,254;    0,864
261,036;  174,443;    0,617;    1,409
261,633;  111,290;    1,526;    2,227
262,231;   91,116;   -0,110;   -0,045
262,828;   93,318;   -0,383;    1,136
263,425;  138,068;   -1,928;   -0,591
264,023;  135,895;    1,436;    0,045
264,620;  253,632;    1,526;   -0,318
265,217;  355,922;    2,890;    3,136
265,815;  175,620;    2,527;    2,136
266,412;  261,932;    0,072;    0,136
267,009;  272,733;    0,526;    0,773
267,606;  339,005;    0,345;   -0,955
268,203;  208,039;   -0,383;   -0,591
268,801;  238,944;   -0,474;    0,591
269,398;  183,889;   -0,564;    2,500
269,995;  303,591;    0,890;    1,591
270,592;  260,888;    0,799;   -0,500
271,189;  183,375;    1,981;    0,409
271,786;  165,014;    2,072;    1,227
272,383;  358,816;   -0,383;    0,227
272,980;  246,984;    1,617;    0,318
273,577;  209,284;    2,162;    1,227
274,174;  184,154;    1,435;    2,591
274,771;  302,553;    1,890;   -0,773
275,367;  624,280;    3,253;    1,409
275,964;  442,492;   -0,565;   -0,500
276,561;  283,204;   -2,474;   -1,045
277,158;  202,278;    1,799;   -1,773
277,755;  412,811;   -0,110;    0,409
278,351;  320,091;    0,436;   -1,500
278,948;  382,683;   -0,201;    0,045
279,545;  327,658;    0,527;    2,318
280,141;  485,810;    1,254;   -2,045
280,738;  460,726;    2,435;   -0,136
281,334;  283,980;   -0,383;    0,591
281,931;  305,743;    2,890;   -1,318
282,528;  402,660;    4,072;   -0,500
283,124;  465,919;    3,345;   -0,500
283,721;  464,542;    0,709;    1,409
284,317;  362,175;    0,163;    2,500
284,913;  523,338;   -0,110;    0,591
285,510;  768,247;    2,890;   -0,318
286,106;  588,334;    2,345;   -0,955
286,703;  403,273;    0,072;    1,955
287,299;  371,254;    1,254;   -0,591
287,895;  378,845;    0,890;   -1,045
288,491;  396,616;    0,163;    2,136
289,088;  511,264;    0,163;    2,409
289,684;  578,553;    2,890;    1,500
290,280;  746,977;    1,890;    0,682
290,876;  725,322;    0,163;    5,500
291,472;  661,492;    2,163;    2,227
292,068;  709,707;    1,254;    0,227
292,665;  601,435;   -0,564;    0,773
293,261;  519,294;   -1,292;    2,136
293,857;  757,059;    4,072;    2,136
294,453;  706,470;   -0,928;    0,955
295,049;  976,360;    0,253;    1,955
295,644;  820,554;   -1,292;    0,136
296,240;  728,349;    0,162;   -0,136
296,836;  928,789;   -0,747;    0,318
297,432; 1134,734;    2,980;   -0,500
298,028; 1253,798;    0,435;    0,773
298,624; 1133,712;    0,889;    1,864
299,220; 1182,364;    0,435;    0,591
299,815; 1158,213;    0,526;   -0,409
300,411; 1304,087;    0,435;    1,773
301,007; 1493,147;    1,889;    0,227
301,602; 1353,221;    2,071;   -2,318
302,198; 1520,280;    1,435;   -0,773
302,794; 1455,772;    1,526;   -0,500
303,389; 1493,514;    1,071;    1,045
303,985; 1587,315;    1,253;    1,409
304,580; 1695,767;    0,889;    1,591
305,176; 1620,873;    0,344;    0,136
305,771; 1508,949;   -0,929;   -1,227
306,367; 1903,950;    3,071;    0,136
306,962; 1749,312;    2,889;    1,500
307,558; 1664,430;    2,435;    0,136
308,153; 1786,878;   -0,383;   -1,136
308,748; 1621,636;    0,162;    1,682
309,344; 1993,346;    0,253;   -1,318
309,939; 2019,153;    2,071;   -1,318
310,534; 1733,840;   -2,020;   -1,682
311,130; 1615,977;   -0,656;   -2,500
311,725; 1476,015;    0,526;   -0,500
312,320; 1564,744;    1,253;    0,045
312,915; 1668,118;    2,890;   -1,045
313,510; 1865,961;    0,526;   -0,500
314,105; 1698,257;   -3,565;    1,409
314,700; 1378,477;   -1,656;   -1,045
315,295; 1384,586;   -0,020;    0,045
315,890; 1210,575;   -0,292;    0,864
316,485; 1321,480;    0,253;   -0,318
317,080; 1264,685;   -0,929;    1,591
317,675; 1581,567;    3,071;   -0,682
318,270; 1706,214;    6,889;    3,318
318,865; 1590,845;    2,435;    3,045
319,460; 1338,098;   -1,565;    0,591
320,055; 1206,497;   -2,565;   -1,227
320,650; 1133,532;   -1,838;   -0,591
321,244; 1119,703;    0,889;   -1,409
321,839; 1265,674;    0,980;   -0,227
322,434; 1279,199;   -0,111;   -1,591
323,029; 1140,815;   -0,474;    1,591
323,623; 1093,090;    0,798;    0,773
324,218; 1217,690;    2,707;    1,409
324,812; 1158,959;    0,889;    1,591
325,407; 1179,189;   -0,929;    2,045
326,002; 1283,621;    0,526;   -0,409
326,596; 1267,554;   -0,656;    1,318
327,191; 1166,779;   -0,383;   -1,045
327,785; 1085,917;   -0,747;   -0,227
328,379; 1246,629;   -0,383;    0,136
328,974; 1247,752;    1,798;   -3,955
329,568; 1356,268;    2,889;   -2,409
330,163; 1454,675;    2,435;    1,045
330,757; 1418,280;    0,253;    1,591
331,351; 1357,077;   -0,292;    0,682
331,945; 1451,131;   -0,383;    1,409
332,540; 1580,719;    1,617;   -0,591
333,134; 1618,894;    3,344;    0,773
333,728; 1671,869;    2,799;    0,318
334,322; 1791,106;    0,889;   -0,864
334,916; 1667,643;    0,344;    0,955
335,510; 1980,191;   -0,111;   -0,136
336,105; 2135,961;   -0,929;    1,591
336,699; 2031,642;   -1,292;    0,591
337,293; 2129,328;    1,071;    0,318
337,887; 2212,412;    0,071;    1,955
338,481; 2471,928;    2,980;    0,591
339,074; 2758,729;    2,071;    2,682
339,668; 2765,036;   -0,110;    1,227
340,262; 3472,295;    7,708;    3,227
340,856; 3059,204;    1,708;   -0,682
341,450; 2737,670;    0,708;    1,864
342,044; 3202,601;    1,799;    0,136
342,637; 3329,616;    1,162;   -2,136
343,231; 3403,529;   -1,474;    0,682
343,825; 3339,910;   -0,747;   -0,591
344,419; 3488,524;   -0,474;    0,500
345,012; 3922,240;    2,889;    4,045
345,606; 3883,997;   -0,656;    1,591
346,199; 3778,875;   -0,111;   -0,227
346,793; 3732,547;    2,525;    2,045
347,386; 3908,377;    0,889;   -1,136
347,980; 3896,793;   -0,838;   -0,045
348,573; 3975,048;   -1,748;    0,409
349,167; 3984,657;    6,161;    4,773
349,760; 4289,789;    2,252;    2,682
350,354; 4254,231;    1,616;    1,136
350,947; 4181,364;    2,798;    1,682
351,540; 4029,569;    0,616;   -1,409
352,134; 3990,458;   -1,111;    1,136
352,727; 4088,951;   -0,657;    1,136
353,320; 4048,877;    2,343;    0,591
353,913; 3906,484;   -1,929;    1,864
354,507; 4105,326;    0,434;   -1,227
355,100; 4165,479;    0,071;    0,864
355,693; 3908,664;    4,798;    2,409
356,286; 3826,726;    0,980;    2,773
356,879; 3976,072;   -0,475;    1,227
357,472; 3711,664;    0,980;    1,500
358,065; 3868,009;    3,161;    2,500
358,658; 3806,431;    0,798;    2,318
359,251; 3552,077;    0,252;   -0,591
359,844; 3340,722;    0,343;   -1,136
360,437; 3481,002;    0,252;    0,045
361,030; 3595,772;    0,525;   -0,682
361,623; 3314,310;    0,434;    0,318
362,215; 3384,299;    0,979;    2,045
362,808; 3252,601;   -2,293;   -1,682
363,401; 3293,240;    0,798;    0,136
363,994; 3288,528;    3,252;   -1,500
364,586; 3097,875;    0,888;   -1,500
365,179; 3156,639;   -0,203;   -1,136
365,772; 2783,570;   -0,930;    2,045
366,364; 2921,991;    1,524;   -3,227
366,957; 3137,588;    1,342;   -0,045
367,549; 3006,926;   -0,203;   -0,864
368,142; 2842,260;    0,978;   -1,500
368,734; 2890,960;    2,523;   -2,136
369,327; 2865,687;    2,341;   -0,500
369,919; 2815,406;   -1,659;    0,409
370,512; 2777,661;   -1,023;   -0,500
371,104; 2706,851;    2,704;    1,591
371,696; 2799,029;    1,703;   -0,955
372,289; 2751,512;    0,157;    1,136
372,881; 2739,300;    1,156;    1,318
373,473; 2611,398;    4,064;    1,136
374,066; 2568,924;    1,336;    0,500
374,658; 2499,554;    0,879;    1,136
375,250; 2602,418;   -1,668;   -1,409
375,842; 2535,870;   -0,124;   -0,045
376,434; 2421,450;   -2,762;   -0,409
377,026; 2718,443;   -1,855;   -2,500
377,618; 2610,065;    0,779;   -0,682
378,210; 2507,282;    3,141;   -1,955
378,802; 2360,940;    3,412;   -0,591
379,394; 2635,432;    3,411;    0,682
379,986; 2701,019;    1,138;   -0,955
380,578; 2681,580;    1,410;    0,773
381,170; 2524,624;    0,320;    0,045
381,762; 2423,609;   -0,224;    1,409
382,354; 2456,121;   -0,223;   -1,318
382,945; 2451,771;    0,870;    0,318
383,537; 2519,212;    1,144;   -1,955
384,129; 2555,537;    0,963;   -1,136
384,721; 2648,598;    0,418;    0,955
385,312; 2524,545;   -1,399;   -0,955
385,904; 2659,550;   -0,945;    1,591
386,496; 2276,477;    0,691;    1,045
387,087; 2452,366;    0,418;    2,500
387,679; 2387,590;   -0,401;    0,045
388,270; 2474,479;   -2,401;    2,045
388,862; 2481,406;   -0,401;   -0,318
389,453; 2300,176;    1,054;    1,045
390,045; 2499,326;    3,236;   -2,682
390,636; 2476,437;    0,144;   -0,591
391,227; 2377,873;    2,054;   -0,045
391,819; 2447,410;    0,781;    0,773
392,410; 2605,039;    0,600;    0,045
393,001; 2480,776;    1,600;   -1,591
393,593; 2609,971;    0,600;   -0,045
394,184; 2563,604;    0,873;   -0,409
394,775; 2363,004;    1,146;    2,136
395,366; 2559,253;    1,782;    0,773
395,957; 2589,989;   -2,400;    0,136
396,548; 2645,569;    1,054;    2,682
397,139; 2845,831;    2,236;    0,591
397,730; 2643,303;    0,873;    0,955
398,321; 2651,873;    0,509;    0,955
398,912; 2601,761;   -0,764;    0,136
399,503; 2730,875;   -1,945;   -1,409
400,094; 2490,529;   -1,582;    1,682
400,685; 2432,431;    3,600;    0,045
401,276; 2358,847;   -0,400;   -0,955
401,867; 2475,575;   -1,127;    0,773
402,458; 2497,078;    1,509;   -2,318
403,048; 2566,790;    0,146;    0,591
403,639; 2302,277;    1,509;    0,864
404,230; 2574,195;    0,691;    0,318
404,821; 2544,056;   -0,127;    0,045
405,411; 2503,357;   -0,763;   -2,591
406,002; 2226,195;    3,237;   -1,136
406,592; 2368,407;    2,691;    0,045
407,183; 2313,143;    0,328;   -1,500
407,774; 2159,139;    1,419;   -0,136
408,364; 2255,428;    2,600;    0,409
408,954; 2196,812;   -0,036;    1,227
409,545; 2154,343;    1,873;    1,045
410,135; 1873,751;   -1,581;    0,500
410,726; 1875,114;    0,783;    0,318
411,316; 2099,727;    2,237;    0,773
411,906; 1812,320;    0,146;   -0,409
412,497; 1640,446;   -0,490;   -0,045
413,087; 1726,429;    0,783;   -0,227
413,677; 1779,146;   -2,490;    3,864
414,267; 1644,368;   -1,035;    1,409
414,857; 1543,579;    0,419;    4,227
415,448; 1569,030;   -0,763;    0,500
416,038; 1456,359;   -2,945;   -0,591
416,628; 1422,586;    0,965;    0,409
417,218; 1398,713;   -1,762;    3,318
417,808; 1557,014;    0,965;   -0,409
418,398; 1384,051;   -1,035;    2,682
418,988; 1202,680;   -2,217;    0,591
419,578; 1248,416;    3,601;    1,409
420,168; 1269,602;    0,692;   -0,955
420,757; 1302,426;    0,964;   -1,500
421,347; 1060,695;    1,601;   -0,227
421,937;  994,621;    3,329;    1,409
422,527; 1111,502;    2,602;   -0,773
423,116; 1204,078;    2,692;   -0,045
423,706;  908,200;    2,965;    0,318
424,296;  756,645;    1,601;    0,682
424,885;  961,917;    1,510;   -3,045
425,475;  889,990;    1,147;   -2,864
426,065;  709,285;   -1,489;   -0,318
426,654;  658,000;    0,329;   -0,318
427,244;  984,768;    1,147;    1,409
427,833;  873,098;    1,056;   -0,500
428,423;  680,006;    0,147;    1,136
429,012;  706,773;    2,420;   -1,136
429,601;  803,781;    2,057;    0,136
430,191;  636,233;    2,511;    4,318
430,780;  443,075;   -1,671;   -0,409
431,369;  707,513;    1,329;   -0,045
431,959;  582,842;    1,693;    0,500
432,548;  444,070;   -1,398;   -0,045
433,137;  341,582;    0,329;   -1,318
433,726;  449,721;    0,148;    0,500
434,315;  424,096;    0,148;    2,409
434,905;  549,502;    0,693;    1,409
435,494;  550,438;    3,148;    0,955
436,083;  353,622;    1,420;   -0,955
436,672;  417,680;    1,148;    0,500
437,261;  343,390;    0,512;   -1,955
437,850;  633,128;   -1,125;    0,682
438,439;  664,184;    2,239;    1,955
439,027;  767,586;    3,421;    1,773
439,616;  670,169;    2,239;    1,227
440,205;  374,682;    0,057;   -2,136
440,794;  287,193;   -0,306;   -0,045
441,383;  186,281;    1,603;   -0,591
441,971;  120,898;   -0,306;    0,591
442,560;  125,409;    0,603;   -1,773
443,149;   12,253;    3,060;   -1,318
443,737;   68,534;    0,968;   -2,318
444,326;   87,787;    0,331;    0,318
444,915;  128,704;   -1,851;    0,864
445,503;  128,560;    0,058;   -0,318
446,092;  403,235;    7,876;    2,136
446,680;  319,853;    1,876;    0,318
447,269;  207,682;   -1,487;   -0,318
447,857;  177,961;    2,240;   -1,773
448,445;  122,662;    2,149;    1,318
449,034;   57,666;    0,876;   -1,136
449,622;   47,943;    1,240;    3,500
450,210;  341,786;    3,149;    2,227
450,799;  246,456;    2,604;   -0,591
451,387;  188,800;    1,786;   -0,591
451,975;  167,565;   -1,305;    0,864
452,563;  234,174;    0,422;    2,318
453,151;   55,768;   -1,032;   -1,227
453,739;   87,024;   -1,577;    0,136
454,328;  200,384;    0,604;   -2,136
454,916;  134,038;    1,150;   -0,136
455,504;  146,089;    3,513;    1,227
456,092;   40,149;    2,150;   -1,591
456,679;   -2,595;    0,604;    0,682
457,267;  403,864;    3,604;    1,045
457,855;   97,436;    3,241;    1,409
458,443;  -46,631;   -0,304;    1,682
459,031;   88,752;    1,332;    2,409
459,619;   57,748;   -3,577;    2,864
460,206;  -29,086;   -0,759;    2,045
460,794;  -28,895;   -0,668;   -0,227
461,382;   16,190;    0,878;   -0,864
461,970;   12,944;    0,605;    1,864
462,557;  -59,670;    0,878;   -0,682
463,145;   55,518;   -0,304;   -1,682
463,732;  284,309;    2,514;   -1,045
464,320;   80,729;    1,514;   -3,045
464,907;  199,472;    0,423;   -0,773
465,495;  108,398;    2,696;   -1,227
466,082;   40,201;    2,060;   -0,045
466,670;   54,038;    2,605;    1,227
467,257;  -27,186;    0,060;    2,045
467,844;   54,798;    1,514;    0,045
468,432;   27,667;   -0,031;    3,500
469,019;   -0,775;    1,606;   -1,773
469,606;   77,934;    0,969;    3,682
470,193;   99,712;    2,151;    0,227
470,780;   54,449;    0,333;    0,864
471,368;   -0,341;   -1,212;   -0,773
471,955;   82,797;    1,060;   -0,682
472,542;   55,954;   -0,303;   -1,136
473,129;  -40,570;   -0,485;    0,136
473,716;  -33,544;    0,060;    0,591
474,303;   -8,080;    1,333;   -0,864
474,890;   -0,186;    2,333;   -0,500
475,477;   86,209;   -0,576;    0,409
476,064;   -3,743;    0,697;   -1,591
476,650;  108,405;    2,152;    0,318
477,237;   23,678;    1,879;    0,955
477,824;    0,829;    3,879;    0,864
478,411;  -66,644;    0,606;   -0,318
478,997;  -69,079;    0,606;   -0,773
479,584; -119,421;   -0,666;   -0,409
480,171;   32,885;    1,243;   -0,773
480,757;   92,865;   -0,848;    0,773
481,344;    4,044;    0,334;    0,409
481,931;  -74,234;   -0,393;    1,045
482,517;   28,239;    0,425;    0,318
483,104;  102,729;    1,334;    2,864
483,690;   -7,166;    0,243;    0,045
484,276;  -31,574;    0,698;    0,227
484,863;  151,364;    2,152;    1,136
485,449;   15,240;    0,152;    0,318
486,035;  -22,527;   -0,666;   -0,136
486,622;   56,372;   -2,393;    0,045
487,208;  -13,592;    1,334;    1,500
487,794;  -79,469;    0,971;    0,318
488,380;  -76,249;    0,698;   -1,409
488,967;  -77,334;   -1,120;   -0,409
489,553;  -59,106;   -1,029;   -1,409
490,139;    7,508;    0,971;    0,773
490,725;  -53,013;    0,789;   -0,227
491,311;  -14,887;    1,516;    3,045
491,897;  -31,328;   -0,665;    1,500
492,483;  -14,257;    0,426;    1,227
493,069;  394,205;    5,426;    0,864
493,655;  117,692;    1,789;    0,682
494,241;    7,091;    1,517;   -0,955
494,826;   11,707;    0,335;   -1,045
495,412;   62,376;    0,335;   -0,682
495,998;  -10,833;    0,971;   -0,318
496,584;   33,954;    2,244;    1,045
497,169;   55,430;    2,335;   -0,682
497,755;   -1,611;    1,244;    1,227
498,341;  111,789;    2,153;    0,318
498,926;  230,379;    2,881;    1,955
499,512;   -9,209;   -0,028;    2,955
500,097;   -8,463;   -0,574;   -0,318
500,683;   22,388;   -0,028;    2,136
501,268;  -16,389;    1,881;   -0,955
501,854;    6,819;   -0,119;    1,227
502,439;   -5,319;   -0,573;   -1,773
503,024;    9,371;    1,608;    0,500
503,610;   38,116;    1,335;   -0,682
504,195;   -3,163;    1,245;    1,955
504,780;   95,903;    2,335;    1,227
505,366;  178,784;    4,063;    2,864
505,951;  128,133;   -1,119;    1,045
506,536;   70,045;    1,427;   -3,682
507,121;  144,201;    1,699;   -0,318
507,706;  112,579;   -0,392;    1,045
508,291;   80,320;   -2,937;    1,136
508,876;  118,798;   -0,482;    2,591
509,461;  228,424;    1,427;   -0,773
510,046;  321,892;   -0,391;    0,318
510,631;  373,628;   -0,119;   -0,773
511,216;  331,845;   -0,664;   -0,500
511,801;  533,391;   -0,755;    2,591
512,386;  661,816;    0,972;    0,500
512,971;  796,497;    0,427;    0,955
513,555;  989,373;    1,154;   -1,500
514,140; 1153,439;    1,336;   -3,136
514,725; 1427,925;    1,791;   -1,136
515,309; 1549,714;    1,064;    0,318
515,894; 1639,404;   -0,300;   -2,227
516,479; 2011,907;    1,973;   -0,955
517,063; 2246,046;    0,882;    1,227
517,648; 2680,883;    0,155;   -1,136
518,232; 2791,969;   -1,300;   -1,409
518,817; 3419,129;    1,337;    1,682
519,401; 4056,250;    0,700;    0,591
519,985; 4109,029;    2,700;    1,136
520,570; 4520,784;   -0,118;   -1,955
521,154; 5208,911;    0,064;    0,591
521,738; 5800,500;    1,064;    2,409
522,323; 6748,609;   -0,390;    1,682
522,907; 7002,817;    2,428;   -0,136
523,491; 7299,468;    1,155;    0,955
524,075; 7756,627;    0,428;    0,591
524,659; 8265,941;    0,973;    0,591
525,243; 8308,083;    0,883;    0,409
525,827; 8866,964;    0,883;   -0,045
526,411;10001,668;    1,155;   -0,136
526,995;10600,139;    0,337;    1,409
527,579;10600,317;    1,974;   -1,045
528,163;11220,881;    0,428;   -1,500
528,747;11458,948;    1,065;   -0,773
529,331;12052,137;    0,883;   -1,409
529,915;12510,468;    2,338;    0,955
530,499;12727,799;    0,247;    1,227
531,082;12701,308;    1,065;    1,591
531,666;12404,492;    0,520;    0,773
532,250;13229,016;    0,428;    2,682
532,833;13750,982;    0,610;    2,773
533,417;13856,478;    1,247;    0,864
534,001;13944,783;    0,429;   -0,318
534,584;14810,007;    1,974;    0,500
535,168;14754,270;    3,247;    1,409
535,751;14922,802;    4,520;    0,045
536,334;14516,027;    4,520;   -0,409
536,918;15205,317;    1,974;    1,591
537,501;15448,385;    1,520;    1,318
538,085;15520,782;    1,702;    1,045
538,668;15733,760;    0,883;    2,409
539,251;16177,374;    3,156;    3,773
539,834;16311,264;    0,156;    0,773
540,418;16270,794;    3,247;    4,318
541,001;16435,451;    2,702;    1,773
541,584;16489,554;    1,429;    2,227
542,167;16222,845;    0,702;    2,955
542,750;16426,647;    0,793;   -0,773
543,333;16026,320;    1,429;    2,136
543,916;16892,610;   -0,298;    2,500
544,499;17537,989;    2,520;    0,227
545,082;17590,790;    0,248;    3,591
545,665;17775,693;   -0,207;    1,500
546,248;18129,683;    0,520;   -0,318
546,830;17823,718;   -1,752;    1,955
547,413;18298,252;    0,157;   -0,773
547,996;18853,737;    0,157;    0,500
548,579;18616,696;   -0,843;    0,955
549,161;18495,588;    0,884;    2,682
549,744;18295,547;    0,612;    0,409
550,326;18819,556;    0,885;   -1,136
550,909;18553,683;    2,339;    0,591
551,492;18980,346;    0,521;    0,227
552,074;18794,480;   -0,024;   -1,318
552,657;19389,908;    2,430;    0,045
553,239;19209,205;   -3,024;   -0,773
553,821;19113,563;   -1,570;    1,045
554,404;18658,871;   -0,024;    1,136
554,986;19002,838;    2,248;    1,045
555,568;19547,680;    0,430;   -0,955
556,151;18748,658;    4,067;   -0,227
556,733;19020,905;   -1,388;   -0,864
557,315;19483,422;    4,703;    0,500
557,897;19318,735;    0,521;   -0,500
558,479;19468,867;    1,703;    1,318
559,061;19581,375;    1,067;   -0,864
559,643;19925,912;   -0,297;    0,045
560,225;20311,754;   -0,388;    2,864
560,807;20373,912;    0,340;    0,318
561,389;19870,909;   -1,206;    2,318
561,971;20569,001;   -0,660;    2,136
562,553;20454,230;    0,613;    1,591
563,135;20561,339;    1,249;    1,136
563,717;20182,756;    3,158;    1,136
564,298;20915,655;    3,976;   -0,045
564,880;20595,648;    0,340;   -1,409
565,462;20800,466;    1,977;    1,318
566,043;21987,794;   -0,933;    2,318
566,625;21485,698;    4,067;    1,227
567,207;21394,421;    0,704;    1,682
567,788;22537,536;   -0,114;    1,500
568,370;23389,443;   -1,841;   -0,500
568,951;23203,810;   -0,569;    0,227
569,533;24112,874;    0,977;   -0,500
570,114;24619,233;   -0,296;    0,682
570,695;25096,329;   -0,478;   -1,318
571,277;25622,205;   -0,205;   -1,682
571,858;26413,916;    2,704;   -1,136
572,439;27386,095;    0,795;   -1,045
573,021;27559,291;    0,432;   -2,773
573,602;28118,774;    1,795;    0,318
574,183;29029,895;   -0,114;    2,227
574,764;29208,031;    2,068;    0,409
575,345;29777,720;    0,250;   -0,136
575,926;30390,509;    2,704;    0,136
576,507;30415,132;    2,704;   -0,227
577,088;31525,828;    1,704;    1,682
577,669;31559,887;    1,704;    1,955
578,250;32315,350;   -0,750;   -1,045
578,831;32992,118;   -0,841;   -2,227
579,412;33300,138;   -1,205;    0,955
579,993;34289,575;    1,432;    0,227
580,573;34558,157;   -0,023;   -0,955
581,154;33498,379;    1,613;   -0,591
581,735;34432,123;    0,341;    0,773
582,315;33836,487;    0,523;    2,136
582,896;34259,394;   -1,750;    1,227
583,477;33679,146;    0,614;    1,227
584,057;33885,270;    1,159;    0,955
584,638;34134,757;   -2,750;    2,318
585,218;34178,806;    2,886;    2,682
585,799;34353,981;    1,977;   -0,227
586,379;34317,010;    1,250;    1,591
586,959;33105,959;    2,613;    0,318
587,540;32413,735;    0,432;    2,227
588,120;31869,447;   -1,113;   -0,045
588,700;30791,823;    2,977;    2,136
589,281;31100,093;    1,250;   -0,955
589,861;31002,699;   -0,296;   -1,682
590,441;30841,012;   -1,477;   -2,682
591,021;29741,025;    1,432;   -2,591
591,601;29990,917;    0,431;    0,500
592,181;29983,202;   -1,296;   -0,773
592,761;29289,947;    2,250;    1,409
593,341;29185,377;    1,522;    0,045
593,921;29162,523;   -0,569;    1,591
594,501;28988,627;    1,250;    1,318
595,081;28905,273;    0,522;   -0,318
595,661;29233,930;    1,068;    0,955
596,240;29722,040;   -1,023;    0,136
596,820;29317,798;    2,613;    1,955
597,400;29525,038;    1,977;    0,773
597,980;29831,669;   -0,750;    1,045
598,559;29834,297;    0,341;   -0,227
599,139;29540,235;   -0,750;   -1,227
599,718;29424,235;    0,795;   -0,409
600,298;29715,783;   -2,387;    0,682
600,877;29928,593;    4,795;    1,409
601,457;30215,715;    0,340;    1,136
602,036;30116,912;    1,795;    2,045
602,616;30313,574;    2,250;    1,682
603,195;30674,165;    0,431;    3,500
603,774;30179,707;   -0,296;    2,045
604,354;30044,412;    2,522;   -0,500
604,933;29504,266;    0,250;    1,864
605,512;29631,577;    2,340;    0,591
606,091;29689,009;    1,886;    3,773
606,671;30540,597;    0,249;    0,773
607,250;29584,607;    1,431;    3,136
607,829;29836,042;    1,158;    3,227
608,408;29696,422;    4,613;    2,591
608,987;28643,727;    2,704;    3,409
609,566;29004,026;    0,341;   -2,500
610,145;29125,896;    2,885;    0,682
610,723;29535,584;    1,613;    6,864
611,302;28715,047;    1,067;    1,682
611,881;28173,904;    5,158;   11,227
612,460;29032,432;    0,795;    3,955
613,039;29480,549;    1,703;    2,045
613,617;28205,456;    0,886;    4,773
614,196;28365,827;    1,613;    1,227
614,775;28714,781;    1,249;    2,409
615,353;28644,514;   -1,660;    0,864
615,932;28313,587;    0,249;    2,409
616,510;28967,776;    0,158;    0,591
617,089;28431,843;    8,794;   17,591
617,667;28202,956;    4,885;    6,136
618,246;28035,294;   -1,115;    1,318
618,824;28229,554;    1,612;   -0,955
619,402;27768,649;    0,431;   -1,773
619,981;28278,678;    1,067;   -1,045
620,559;28154,330;    0,794;    1,682
621,137;27639,599;    3,067;    1,864
621,715;27599,469;    3,703;   -0,682
622,293;27532,472;    1,885;   -0,773
622,871;28031,695;    0,340;    0,500
623,450;27567,130;    0,430;   -0,864
624,028;27472,084;   -0,388;   -0,955
624,606;27057,881;    2,339;    1,682
625,183;27499,418;   -0,661;   -1,136
625,761;27103,686;    1,885;    1,136
626,339;27360,782;    2,339;    2,591
626,917;27729,858;    0,339;   -0,045
627,495;27846,359;    2,794;    1,318
628,073;27266,318;    5,248;    2,864
628,650;26966,402;    3,067;    2,136
629,228;27411,052;    1,248;    4,409
629,806;26719,503;   -0,024;    1,136
630,383;27000,025;    0,066;   -0,318
630,961;26773,444;   -2,206;   -0,955
631,539;26516,075;   -2,479;    0,227
632,116;25760,989;   12,703;   15,409
632,694;26398,762;    4,885;    6,500
633,271;26706,731;    1,975;    2,682
633,848;26608,344;    1,430;    2,045
634,426;26695,924;    1,521;    1,773
635,003;25826,628;   -0,207;   -0,409
635,580;26154,245;    1,884;    3,682
636,158;26684,438;    3,793;    1,227
636,735;26699,126;    3,339;   -0,500
637,312;26772,881;    0,521;   -0,682
637,889;26886,686;    2,248;   -0,682
638,466;26395,670;    0,066;   -0,409
639,043;26374,199;    1,702;   -1,136
639,620;26634,980;    0,611;   -0,955
640,197;26950,688;    1,612;    1,682
640,774;27142,018;    1,430;    1,136
641,351;27495,712;    0,612;    1,136
641,928;26865,951;    2,794;    1,409
642,505;26561,190;    0,794;   -0,500
643,082;26713,884;    1,885;    1,227
643,658;25673,668;    1,157;    1,500
644,235;26424,544;   -2,479;    2,500
644,812;26688,055;    1,794;    0,773
645,388;26465,476;    1,612;    1,409
645,965;26547,625;    1,521;    1,682
646,542;26592,227;    3,430;   -0,227
647,118;26643,557;    3,703;   -0,955
647,695;26933,342;    0,339;    1,136
648,271;26824,217;   -2,115;    0,500
648,848;27087,183;    0,248;    2,227
649,424;26935,695;    0,976;    1,318
650,000;26666,298;   -0,388;   -1,045
650,577;26550,446;    0,158;   -0,955
651,153;27031,231;   -1,115;    0,955
651,729;28011,015;    0,521;    0,864
652,305;28199,800;    1,339;    2,773
652,881;32626,130;   -1,297;    1,136
653,458;39686,732;    0,249;    0,227
654,034;43629,517;    0,703;    1,591
654,610;45201,120;    0,339;    0,773
655,186;46634,086;    1,612;    3,045
655,762;46344,507;   -1,842;    0,409
656,338;46439,928;    0,703;    0,136
656,913;47460,894;   -0,297;    0,409
657,489;46732,588;    0,249;   -0,318
658,065;46736,554;    0,794;   -1,591
658,641;47366,157;    2,158;   -0,864
659,217;46668,850;    2,067;    0,409
659,792;46104,544;   -1,751;   -0,409
660,368;46379,874;   -0,388;   -0,682
660,944;46070,022;    1,794;    1,227
661,519;41448,170;    0,522;    0,409
662,095;35082,955;   -0,206;    0,591
662,670;30161,921;   -0,206;   -0,136
663,246;28963,433;   -0,660;   -0,409
663,821;28207,217;    0,431;    1,682
664,396;27754,365;    0,613;    1,864
664,972;28038,695;   -0,660;   -0,500
665,547;28362,662;    3,794;    0,136
666,122;28310,083;    1,340;    0,318
666,698;28631,958;    2,431;    0,318
667,273;27943,197;    0,885;    0,136
667,848;28781,073;    0,340;    1,500
668,423;28571,130;    1,795;    2,318
668,998;29093,914;    0,976;   -0,682
669,573;29670,063;    2,067;   -1,500
670,148;29513,029;    1,885;   -0,682
670,723;29307,359;   -0,024;    0,318
671,298;29737,052;   -1,296;    1,045
671,873;29857,473;   -0,296;   -0,136
672,448;29869,440;    1,704;    0,136
673,023;30165,679;    0,249;   -0,227
673,597;30451,736;    2,704;    2,318
674,172;30227,884;    2,431;    0,318
674,747;29755,578;   -0,205;   -1,045
675,321;29637,453;   -0,933;    3,318
675,896;29136,056;    2,158;    1,045
676,471;30129,022;    2,522;    1,591
677,045;29941,443;   -0,296;    0,682
677,620;29940,500;    2,158;    1,136
678,194;30284,558;    0,249;    1,136
678,769;29803,615;    0,886;   -0,318
679,343;29970,490;   -0,023;    1,773
679,917;29847,457;    0,340;    1,955
680,492;29974,968;    0,249;    3,227
681,066;30083,117;    0,613;    0,409
681,640;30149,537;    1,795;   -0,318
682,214;30984,504;    2,340;    0,500
682,788;30436,561;    0,613;   -0,773
683,363;30375,346;    1,977;    1,682
683,937;30101,948;    0,886;   -0,318
684,511;30910,187;   -1,023;   -0,591
685,085;30539,790;   -1,478;    0,318
685,659;30332,211;    1,431;    0,864
686,232;30590,268;    1,159;   -0,318
686,806;30341,053;    2,159;    0,409
687,380;30954,746;   -1,932;    0,591
687,954;31205,440;    2,432;    1,136
688,528;30919,133;    2,613;    1,955
689,101;31729,736;    0,432;    1,045
689,675;31229,248;    0,886;   -0,136
690,249;30563,578;    3,432;    0,409
690,822;30903,090;    1,159;    0,318
691,396;30967,147;    2,068;    1,227
691,969;30420,113;    2,523;    0,136
692,543;30930,080;   -0,568;   -1,955
693,116;30552,410;   -0,659;   -1,409
693,690;30407,376;   -0,296;    0,500
694,263;30930,797;    2,341;    2,955
694,836;30950,309;    2,795;    3,591
695,410;29541,730;    1,159;    1,773
695,983;30071,969;    1,614;    0,591
696,556;29977,208;   -0,750;   -1,045
697,129;30424,810;   -1,114;    1,409
697,703;30061,231;    1,341;    1,955
698,276;30082,379;    1,705;   -0,773
698,849;29874,255;   -1,023;    1,409
699,422;30248,221;    1,250;    0,591
699,995;29896,733;   -0,659;    0,136
700,568;30395,881;   -0,204;    3,045
701,140;30419,757;   -1,841;    1,682
701,713;30142,268;    0,341;    2,409
702,286;29895,780;    0,796;    0,864
702,859;29814,928;    0,614;   -0,591
703,432;28958,804;   -0,841;    0,682
704,004;29455,861;    1,978;    0,318
704,577;29281,555;    1,068;    0,136
705,150;29906,885;    0,887;    2,500
705,722;29682,851;    1,523;   -3,227
706,295;29487,454;    1,432;   -0,591
706,867;29277,329;    0,250;    1,955
707,440;29486,841;   -0,113;   -0,409
708,012;29734,898;   -0,022;    0,591
708,584;29602,864;    2,705;    0,227
709,157;29967,649;    1,160;   -0,591
709,729;29607,252;    1,069;    2,045
710,301;30447,400;   -1,204;    0,045
710,874;30516,639;    0,341;   -0,227
711,446;29379,787;   -0,295;    0,864
712,018;29270,117;   -3,022;    0,500
712,590;28938,538;   -0,204;    1,682
713,162;29493,322;   -0,477;    1,318
713,734;29728,925;    1,796;   -2,045
714,306;29625,346;    0,342;   -0,409
714,878;28290,130;   -0,295;    0,864
715,450;29092,006;   -0,113;    0,864
716,022;29448,699;    2,433;    1,318
716,593;29546,302;    0,978;    0,591
717,165;29443,087;    1,796;   -1,227
717,737;29188,962;    0,796;    0,409
718,309;28824,474;    1,160;   -0,045
718,880;28816,258;   -1,295;   -1,409
719,452;29126,407;    0,887;   -1,591
720,024;28564,464;    1,705;   -0,591
720,595;29148,612;    2,978;    0,955
721,167;28661,215;    1,160;   -2,045
721,738;28207,999;    2,069;   -1,045
722,309;28065,238;    1,251;   -1,227
722,881;27858,568;    2,705;    0,773
723,452;28587,353;    1,251;    2,864
724,023;28783,683;    1,524;    2,682
724,595;28483,195;    2,342;    0,682
725,166;28187,888;    1,524;   -0,409
725,737;27829,945;    1,887;    0,227
726,308;27926,184;    0,797;    0,318
726,879;28357,969;    1,069;    1,227
727,450;28241,935;   -2,022;   -0,045
728,021;28206,629;    1,069;    0,682
728,592;28019,232;    1,160;    0,500
729,163;28377,743;    1,433;   -0,136
729,734;28362,437;    2,160;   -0,227
730,305;28661,040;    0,615;    0,136
730,876;28992,824;    0,888;    2,955
731,447;28694,881;    0,797;    2,682
732,017;28801,211;   -0,840;    1,864
732,588;28306,178;   -0,021;    1,227
733,159;28519,053;    3,615;   -1,045
733,729;28298,565;    1,251;    0,409
734,300;27557,895;    0,160;    0,864
734,870;28033,316;   -1,385;    0,591
735,441;28571,919;    0,888;   -0,591
736,011;28276,067;    1,070;   -1,591
736,582;28275,397;    1,251;    0,045
737,152;27702,181;    0,979;   -2,045
737,722;28177,602;    1,070;   -0,682
738,293;27918,296;   -2,021;    1,318
738,863;27797,898;    1,797;    2,318
739,433;27587,501;    4,524;    0,318
740,003;28223,286;    1,524;   -0,682
740,573;27609,434;    2,252;   -1,591
741,143;27606,491;    3,615;    0,318
741,713;28372,548;    0,252;   -0,500
742,283;28105,333;    1,706;    1,591
742,853;27889,390;    0,524;    1,591
743,423;27298,265;    0,161;    0,045
743,993;27405,505;    1,070;    1,500
744,563;26775,198;    2,524;   -0,864
745,133;26690,710;   -0,112;   -0,864
745,702;27413,949;    2,797;    1,773
746,272;26551,097;    0,434;    0,591
746,842;26336,064;   -0,748;   -0,591
747,411;26789,575;   -0,839;   -0,318
747,981;26910,996;   -0,930;    0,500
748,551;26992,235;   -0,021;   -1,045
749,120;26843,292;   -0,112;   -0,227
749,690;27260,986;    2,161;    2,409
750,259;27569,589;    0,979;    2,955
750,828;27454,010;    4,070;   -1,955
751,398;27717,158;   -0,112;   -0,045
751,967;27200,306;    2,888;    0,409
752,536;27407,272;    1,161;   -0,227
753,105;27870,511;   -1,384;    0,227
753,675;27643,478;   -0,112;    1,773
754,244;27605,262;    0,888;    3,591
754,813;27619,683;    0,979;    1,227
755,382;27213,559;    0,798;    0,955
755,951;27753,161;   -0,112;    3,682
756,520;27273,128;    2,525;    1,864
757,089;27844,639;    1,888;    0,500
757,658;27978,878;    2,434;    1,227
758,227;27961,027;   -1,111;    0,318
758,795;28280,811;   -1,021;    1,136
759,364;28535,505;    0,525;   -0,591
759,933;27541,562;    1,343;   -0,045
760,501;27093,892;    0,252;   -1,318
761,070;27518,858;   -0,293;   -1,409
761,639;28183,370;    1,434;    1,318
762,207;27461,155;    0,889;   -0,955
762,776;27489,939;    2,889;    0,864
763,344;27450,269;    0,071;    0,591
763,913;26581,508;    1,616;    1,409
764,481;27337,020;    1,980;   -0,136
765,049;27127,532;    0,616;    1,409
765,618;26931,134;    1,434;    0,318
766,186;27047,010;    2,434;    0,136
766,754;27268,340;    1,798;    1,864
767,322;26238,124;    1,162;    0,409
767,890;26267,273;    0,525;   -1,773
768,459;26629,693;    2,616;   -0,318
769,027;26821,478;    2,525;    3,409
769,595;25744,990;    2,616;    2,591
770,163;26227,411;    3,344;    2,955
770,730;25971,286;    2,525;   -0,136
771,298;25840,252;    1,162;   -1,409
771,866;25918,491;    0,253;    4,955
772,434;26206,367;    1,162;   -1,864
773,002;26366,970;    2,616;    0,682
773,569;25984,936;    1,071;    1,682
774,137;25799,084;    0,889;   -0,045
774,705;26651,232;   -0,747;   -0,136
775,272;26096,017;    0,253;    0,682
775,840;25900,710;   -0,111;    2,682
776,407;25412,404;   -0,293;    1,955
776,975;24956,461;    1,162;    0,318
777,542;26013,700;    2,162;   -0,045
778,110;25880,576;    0,707;   -0,045
778,677;25517,087;    1,071;   -0,864
779,244;25258,145;   -1,020;    1,045
779,812;25417,384;    0,980;    0,864
780,379;25209,077;    2,435;    1,136
780,946;25437,044;    2,617;   -0,773
781,513;25743,465;   -0,565;    0,318
782,080;25073,795;    1,253;    2,864
782,647;25812,670;    1,708;    3,045
783,214;25456,364;   -0,201;    3,864
783,781;25020,512;    1,708;   -0,682
784,348;24940,751;    0,253;    1,500
784,915;25430,899;   -1,474;    0,318
785,482;25146,229;    2,708;    2,591
786,049;25612,832;    1,071;   -0,591
786,615;25704,253;    1,708;   -0,955
787,182;25471,037;   -3,201;   -0,682
787,749;25137,640;   -2,201;    1,409
788,315;24464,788;    0,253;   -0,409
788,882;24768,572;    0,981;   -1,227
789,448;25465,812;    1,435;   -0,955
790,015;25501,960;    1,799;    3,227
790,581;25019,199;    0,708;    0,227
791,148;24872,256;    1,344;    1,045
791,714;25097,950;   -1,019;    3,136
792,280;24783,916;    3,708;    1,591
792,847;24368,337;   -0,928;    2,500
793,413;24945,667;   -0,110;   -0,318
793,979;24499,270;    1,526;   -1,318
794,545;24533,781;    2,981;    2,682
795,111;23901,111;    2,435;    1,318
795,678;24104,623;    3,526;   -1,682
796,244;23717,589;    2,799;    0,136
796,810;24335,283;    0,799;    0,773
797,375;24033,704;   -0,292;   -2,136
797,941;24051,943;   -1,110;    0,591
798,507;24171,273;    0,254;   -0,955
799,073;23716,057;    2,708;    0,591
799,639;23768,569;    1,435;    3,136
800,205;23822,172;   -1,565;    2,682
800,770;23326,138;    1,345;    1,773
801,336;23376,105;    2,981;   -0,955
801,901;23052,707;    6,072;    3,136
802,467;23659,492;    0,526;    2,045
803,033;22999,185;   -0,019;    0,864
803,598;23171,970;    1,072;   -1,045
804,163;23278,027;    0,708;   -0,318
804,729;23178,630;   -0,110;    1,136
805,294;23554,324;    1,072;    2,227
805,859;23386,381;    0,890;   -0,409
806,425;22860,893;    3,890;    2,682
806,990;22509,768;    1,890;    4,318
807,555;23009,643;   -0,110;    2,591
808,120;22886,337;   -1,292;   -0,409
808,685;22946,031;    1,072;   -2,500
809,250;22445,724;    2,072;   -0,500
809,815;22806,782;   -0,201;    0,682
810,380;23305,657;    0,981;    1,591
810,945;23805,623;    2,890;    2,045
811,510;23047,044;   -0,200;    1,591
812,075;22720,010;    2,800;   -1,409
812,640;22727,886;    3,709;    1,409
813,204;22771,943;    2,163;   -0,227
813,769;23307,637;    0,254;   -0,045
814,334;22704,876;    0,527;    0,864
814,898;22773,842;    1,981;    0,591
815,463;22551,627;    0,981;   -0,773
816,027;22506,502;    1,345;   -2,318
816,592;22666,559;    2,163;   -2,045
817,156;22174,344;   -2,200;    1,136
817,721;21953,947;    0,982;    2,318
818,285;21907,186;    0,618;    1,500
818,849;22597,061;   -0,018;    1,682
819,414;22463,846;    0,073;    2,955
819,978;22075,176;   -0,291;    1,773
820,542;22652,596;    2,891;    0,500
821,106;22418,472;    2,800;    0,682
821,670;22487,438;    2,709;    2,591
822,234;22109,586;    1,073;    1,409
822,798;21544,189;   -0,836;    0,500
823,362;21523,065;    1,527;    4,227
823,926;20829,849;   -0,018;    1,136
824,490;21025,452;    3,527;   -0,682
825,054;21507,964;    2,527;   -1,136
825,618;21151,112;   -1,200;   -1,500
826,181;21067,351;    0,982;   -1,318
826,745;20942,681;   -0,745;   -1,045
827,309;21311,283;    2,255;    1,318
827,872;20682,159;    0,527;    0,955
828,436;21676,852;    1,982;   -0,773
828,999;21742,364;    2,436;    1,227
829,563;20590,331;   -0,654;    1,136
830,126;20423,661;   -0,018;   -0,591
830,690;20393,627;    0,709;    2,864
831,253;19914,321;   -0,473;    2,227
831,816;20024,923;   -0,018;    0,500
832,380;19971,435;    1,164;    0,864
832,943;20192,492;    3,073;   -0,500
833,506;19708,913;    0,255;   -1,227
834,069;20459,879;    2,164;   -0,955
834,632;20536,664;   -2,200;    1,318
835,195;20438,448;    1,346;    0,955
835,758;19656,142;    0,709;    1,955
836,321;19476,745;    1,073;   -1,045
836,884;19544,438;   -1,291;   -0,955
837,447;19625,677;    0,528;    1,773
838,010;19820,098;    1,800;    3,227
838,573;20190,610;    0,528;    0,773
839,135;20120,667;   -0,109;   -0,955
839,698;19547,361;    2,528;    0,409
840,261;19046,055;    0,255;   -0,227
840,823;18962,930;   -0,927;    0,864
841,386;19246,442;   -0,018;   -2,409
841,948;19071,681;    0,255;    1,773
842,511;18796,829;    0,255;    1,682
843,073;18991,795;    2,982;    0,227
843,636;18765,944;    0,619;   -0,227
844,198;18707,546;    1,255;    0,591
844,760;18820,604;    0,619;    1,955
845,322;18461,024;    0,164;    1,136
845,885;18908,354;   -0,290;    0,591
846,447;19306,866;    0,710;    0,227
847,009;18860,469;    3,983;   -0,682
847,571;19195,617;    1,346;   -2,045
848,133;19329,492;   -0,199;   -1,864
848,695;19116,095;    2,346;    1,409
849,257;18651,334;    1,346;   -1,682
849,819;18818,846;    2,983;   -0,409
850,381;18865,631;    1,801;   -0,864
850,942;19288,415;    1,892;   -0,591
851,504;19137,472;    0,983;    0,227
852,066;19181,348;    1,619;   -1,591
852,628;18761,860;    0,165;    1,955
853,189;18290,462;    0,256;    2,682
853,751;18438,701;   -0,654;    1,409
854,312;18265,940;    1,256;   -1,682
854,874;18727,179;   -0,108;   -0,773
855,435;19234,691;    0,528;   -1,682
855,997;19344,567;    3,983;   -0,136
856,558;18665,078;    0,801;    1,773
857,119;18804,954;   -0,744;    2,864
857,681;18468,829;   -0,108;    0,318
858,242;18511,705;    1,347;   -2,136
858,803;18932,671;    1,074;   -0,773
859,364;19497,365;    0,892;   -4,773
859,925;18822,331;   -0,290;   -0,955
860,486;18744,388;    0,529;   -0,955
861,047;18499,809;    0,165;   -1,227
861,608;18271,594;    0,165;   -0,773
862,169;18442,287;   -0,562;   -0,045
862,730;18184,072;   -0,290;    1,409
863,291;18446,220;    0,438;   -0,500
863,852;18790,550;   -0,926;    1,955
864,412;18259,425;   -1,835;   -0,864
864,973;16814,210;    1,892;    0,500
865,534;16634,358;    2,074;    0,227
866,094;18157,506;    2,620;    0,227
866,655;17816,291;    4,711;    3,318
867,215;18116,439;    0,074;    0,136
867,776;17976,314;   -1,199;   -0,136
868,336;18067,826;    1,529;    0,136
868,897;17497,338;    3,438;    1,682
869,457;17293,668;    3,256;    0,318
870,017;17555,725;    2,438;   -1,227
870,578;18023,782;    1,893;    0,773
871,138;17678,294;    2,620;   -0,955
871,698;17199,170;   -0,562;   -1,318
872,258;17062,954;    0,711;   -2,864
872,818;17434,557;    2,347;    0,045
873,378;17413,341;   -2,198;    1,045
873,938;16984,399;    4,984;    0,500
874,498;17304,456;    1,256;   -1,955
875,058;17184,058;    4,347;    1,773
875,618;17029,843;    1,438;   -2,682
876,177;16967,173;   -0,471;    0,136
876,737;16539,230;   -0,289;    1,955
877,297;16525,015;    2,711;    1,955
877,856;16544,072;    2,529;    0,318
878,416;16499,402;    2,438;   -0,136
878,976;16724,096;    3,438;    0,409
879,535;16943,971;    4,529;    3,136
880,095;16641,210;    1,347;    0,045
880,654;16738,904;    0,347;    1,318
881,213;16818,143;    2,347;    1,500
881,773;16493,836;    1,984;    2,682
882,332;16875,166;    6,075;    5,136
882,891;16714,951;    0,711;    2,136
883,451;17150,281;   -2,016;    1,682
884,010;16643,338;   -1,107;   -0,409
884,569;16722,213;   -2,289;   -0,045
885,128;16824,816;   -0,743;   -1,864
885,687;16929,419;   -0,743;    0,682
886,246;16625,112;    2,620;    2,136
886,805;16369,624;    1,620;    2,045
887,364;16677,954;    1,166;   -0,500
887,922;17048,284;   -0,016;    0,045
888,481;16509,614;    1,530;    0,591
889,040;16813,399;    3,711;    2,136
889,599;17534,729;    2,166;    1,409
890,157;17599,150;    2,166;    2,409
890,716;17227,752;    2,166;    0,227
891,274;17006,991;    0,075;   -1,136
891,833;17447,139;    1,166;    0,864
892,391;17373,924;    1,802;    0,500
892,950;17452,072;    0,166;   -0,773
893,508;17812,857;    0,984;   -0,409
894,067;17126,187;   -0,379;    0,136
894,625;17063,426;   -1,016;   -1,500
895,183;17284,028;   -0,198;   -0,682
895,741;17171,267;    2,257;   -1,773
896,299;17017,870;    1,621;   -2,409
896,858;17205,473;    1,530;   -1,591
897,416;17293,166;    0,166;   -1,318
897,974;17018,224;   -2,197;    0,318
898,532;17163,917;    6,530;    2,682
899,089;17065,793;    0,621;   -0,682
899,647;17113,395;    0,530;    1,318
900,205;16849,635;    0,257;    1,045
900,763;17063,055;    2,166;    0,227
901,321;17091,931;    3,530;   -1,409
901,878;16494,624;    3,257;   -0,773
902,436;16334,500;    0,257;    1,318
902,994;16726,739;    6,712;    3,682
903,551;16207,342;    1,439;    0,409
904,109;16624,763;    1,530;   -1,409
904,666;16181,456;    1,439;    1,045
905,224;15980,695;    3,894;   -0,409
905,781;15739,571;   -0,470;   -0,318
906,338;15839,719;    0,167;    1,045
906,895;15753,594;    1,894;    2,045
907,453;15681,106;    2,348;    1,136
908,010;15672,163;    3,348;    0,409
908,567;15291,039;   -0,561;    0,591
909,124;14847,096;    2,439;   -1,500
909,681;14943,426;   -1,288;    0,682
910,238;15076,665;   -0,106;   -1,318
910,795;15385,722;   -1,561;   -1,136
911,352;15047,722;   -0,379;   -2,682
911,909;14461,449;    2,803;   -0,864
912,466;14903,268;    1,985;    1,500
913,022;14460,177;   -0,924;    0,500
913,579;14827,359;   -0,470;    2,045
914,136;14531,268;   -2,561;    0,955
914,692;14888,813;    1,530;   -1,227
915,249;14469,813;    0,530;    0,409
915,806;14660,904;    1,803;    1,955
916,362;14407,177;    0,894;    1,864
916,918;13938,540;    2,439;    1,045
917,475;13917,995;    1,621;    0,955
918,031;14051,540;    0,076;   -0,045
918,587;13501,177;    0,621;   -0,318
919,144;13718,449;   -0,379;    0,227
919,700;14036,540;    0,167;    0,773
920,256;13598,722;    0,439;    0,045
920,812;13286,904;    1,439;   -1,045
921,368;13288,904;    1,348;   -1,045
921,924;12925,904;    0,439;   -0,136
922,480;12457,722;    0,076;    1,227
923,036;13062,359;   -0,652;    1,955
923,592;13027,995;    0,621;    0,318
924,148;12945,359;    1,894;   -0,955
924,704;12252,631;    0,258;   -0,409
925,259;12554,995;   -0,561;    0,591
925,815;12302,359;    3,803;    0,500
926,371;11817,540;    3,530;    1,409
926,926;11708,813;    1,621;    0,591
927,482;11336,268;    1,621;    0,773
928,037;11187,268;   -0,833;    2,045
928,593;11470,449;    0,258;    1,045
929,148;11311,540;    1,167;   -1,500
929,704;10881,813;    2,439;   -0,500
930,259;11026,177;    0,894;   -0,136
930,814;10108,631;    1,803;    1,955
931,369; 9799,540;    0,258;   -0,773
931,925; 9683,359;   -1,924;    0,136
932,480; 9597,449;    3,076;   -2,591
933,035; 9476,086;    3,985;   -0,318
933,590; 9209,359;   -1,742;   -1,773
934,145; 8846,449;   -1,288;   -0,318
934,700; 9215,722;    0,348;   -0,591
935,255; 9021,086;    4,803;    0,045
935,809; 8290,359;    6,258;    0,864
936,364; 7424,540;    2,167;   -0,136
936,919; 7407,359;    2,348;   -1,773
937,474; 7289,086;    1,348;    0,136
938,028; 7064,813;    3,076;    1,136
938,583; 6527,177;    6,348;    4,682
939,138; 6843,540;    0,167;    2,136
939,692; 6310,722;   -1,015;   -1,136
940,247; 5960,359;    1,167;   -1,045
940,801; 5510,904;    0,621;    0,227
941,355; 5423,268;    0,439;    2,591
941,910; 5121,631;    0,712;   -2,136
942,464; 5200,449;    2,712;   -0,318
943,018; 4980,449;    3,258;   -0,227
943,572; 4929,177;    2,803;   -0,682
944,126; 4345,540;   -0,924;   -0,409
944,681; 4225,540;    0,712;    0,227
945,235; 4208,449;    2,167;   -0,591
945,789; 4166,904;    1,258;   -1,864
946,342; 4231,359;   -0,561;   -0,591
946,896; 4049,540;    0,348;    0,955
947,450; 3792,904;   -0,561;   -0,227
948,004; 3989,904;    1,076;   -0,045
948,558; 4014,449;    1,258;   -0,864
949,111; 3929,086;   -1,197;   -0,318
949,665; 3976,359;   -0,106;   -0,682
950,219; 3834,631;    0,621;   -1,045
950,772; 3916,177;    0,258;    1,864
951,326; 3834,449;   -1,106;   -0,955
951,879; 3902,904;    1,076;   -2,318
952,433; 3949,722;    1,348;    2,227
952,986; 3793,995;    0,348;    0,682
953,539; 3727,540;    1,530;    0,591
954,093; 3691,904;    0,985;   -1,318
954,646; 3817,359;   -0,288;    1,318
955,199; 3615,722;    1,258;   -0,500
955,752; 3489,813;    1,985;    1,773
956,305; 3437,631;    0,894;    2,955
956,858; 3636,177;    0,621;   -0,318
957,411; 3818,177;    3,621;    2,136
957,964; 3628,359;    2,076;    2,136
958,517; 3613,449;    0,985;    3,136
959,070; 3453,177;   -1,197;    1,955
959,623; 3503,995;    1,076;    1,500
960,176; 3285,449;    0,712;    2,045
960,728; 3266,813;    1,712;    0,773
961,281; 3337,268;    2,258;    0,500
961,834; 3365,086;   -0,833;    0,864
962,386; 3290,359;    1,258;    1,045
962,939; 3215,086;    3,439;   -0,318
963,491; 3351,086;    2,621;    1,136
964,043; 3218,359;    0,076;    2,409
964,596; 3362,722;    1,712;    2,227
965,148; 3199,995;   -0,379;    1,773
965,700; 3118,904;   -0,015;   -0,227
966,253; 3276,722;   -0,833;    0,318
966,805; 3096,540;    1,894;    0,773
967,357; 3147,631;    0,439;   -1,500
967,909; 3088,359;    1,167;   -1,227
968,461; 3218,449;    0,894;    3,136
969,013; 3128,086;   -1,561;   -0,864
969,565; 3208,813;    1,803;   -1,136
970,117; 3275,631;    3,803;    1,045
970,669; 3111,995;    3,258;   -0,136
971,220; 2976,722;    2,167;   -1,500
971,772; 2908,631;    1,348;   -0,318
972,324; 3015,813;   -1,197;   -0,500
972,876; 2980,449;    0,167;   -0,045
973,427; 3107,540;   -1,197;   -1,045
973,979; 3105,359;    0,076;   -2,500
974,530; 3102,631;    0,803;    1,318
975,082; 3122,540;    2,167;    1,682
975,633; 3025,722;    2,894;    1,682
976,184; 3168,449;    2,076;    0,773
976,736; 2937,359;    0,348;    0,227
977,287; 2727,631;    0,258;   -0,500
977,838; 2919,268;   -0,924;   -0,318
978,389; 2963,722;    0,803;   -0,500
978,940; 2855,995;    1,258;   -0,409
979,491; 2878,359;    2,258;   -0,500
980,042; 2829,995;   -0,652;    3,045
980,593; 2897,086;    1,894;    0,227
981,144; 2951,813;    3,530;   -0,500
981,695; 2926,177;   -0,470;    1,500
982,246; 2898,904;   -1,833;    1,045
982,797; 3041,086;   -0,561;    0,682
983,347; 3173,904;    2,167;    0,591
983,898; 3304,086;    4,167;    0,409
984,449; 3117,086;    2,530;    0,773
984,999; 3055,722;    1,894;   -1,136
985,550; 2815,268;    3,167;   -0,318
986,100; 2861,449;    0,712;   -0,318
986,651; 2872,540;    0,258;    0,045
987,201; 2869,177;    0,894;   -0,591
987,751; 2939,813;   -0,288;    2,864
988,302; 2927,359;   -0,379;    1,500
988,852; 2940,904;    1,985;   -1,136
989,402; 2982,904;    0,985;    0,682
989,952; 2910,995;    1,621;    0,864
990,502; 3010,995;    1,076;    0,682
991,052; 2968,904;   -0,106;    0,045
991,602; 2838,631;    1,167;    1,318
992,152; 2832,722;    2,803;    0,682
992,702; 2809,904;    1,167;   -0,045
993,252; 2731,995;    0,076;   -0,500
993,802; 2831,631;    1,167;    1,318
994,352; 3078,722;   -0,742;    1,136
994,901; 3187,449;    1,076;    3,227
995,451; 3098,359;   -1,197;    0,318
996,000; 3175,359;    1,076;    0,318
996,550; 2872,177;    2,894;    0,227
997,100; 2884,359;   -0,561;   -0,045
997,649; 3177,995;   -0,197;    0,955
998,198; 2806,904;   -0,288;   -1,500
998,748; 2978,722;    0,348;   -2,318
999,297; 2881,631;    0,985;   -0,409
999,846; 2980,995;    1,894;   -0,773
1000,395; 3028,813;    1,530;    0,500
1000,945; 2959,813;    1,076;   -0,773
1001,494; 3048,722;    0,167;    0,682
1002,043; 3026,813;    0,712;    0,864
1002,592; 2867,813;    3,439;    1,955
1003,141; 3032,177;    2,439;   -0,682
1003,690; 2855,722;    1,258;    0,500
1004,238; 2916,449;   -0,106;   -0,045
1004,787; 2568,086;   -1,288;    1,227
1005,336; 2797,449;    1,621;    0,682
1005,885; 2944,904;   -0,197;   -2,773
1006,433; 3098,631;   -0,470;    0,955
1006,982; 3163,449;    2,167;    1,682
1007,531; 3079,995;    2,712;   -0,227
1008,079; 3018,177;    0,258;    0,500
1008,627; 3179,449;    1,621;    0,409
1009,176; 2898,177;    0,076;   -1,955
1009,724; 2923,086;   -2,742;    0,864
1010,273; 2997,086;    1,076;    0,500
1010,821; 3115,359;    1,076;    1,409
1011,369; 2844,540;    0,076;    1,318
1011,917; 2832,268;   -0,833;   -0,591
1012,465; 3135,813;    2,530;   -1,591
1013,013; 3229,904;    0,439;   -1,682
1013,561; 3097,995;   -1,288;   -0,773
1014,109; 3139,268;   -0,833;    1,682
1014,657; 3026,995;    1,348;    0,591
1015,205; 3139,722;    0,894;   -0,955
1015,753; 3164,904;    0,258;   -1,409
1016,301; 3205,722;    2,621;    3,045
1016,848; 3224,995;    2,167;    0,409
1017,396; 3253,813;    1,621;    0,045
1017,944; 3375,722;    2,621;    1,864
1018,491; 3137,722;   -0,197;    1,409
1019,039; 3310,540;   -0,652;    0,591
1019,586; 3193,359;    0,076;    1,682
1020,134; 3312,722;    0,712;    1,500
1020,681; 3319,904;    2,894;   -1,136
1021,228; 3335,813;   -0,561;   -2,227
1021,776; 3164,268;   -0,833;   -1,136
1022,323; 3389,359;    0,803;    0,773
1022,870; 3313,177;   -0,470;   -0,045
1023,417; 3189,813;    2,076;    1,864
1023,964; 3344,813;    0,621;    1,227
1024,511; 3195,540;   -0,652;    0,773
1025,058; 2981,540;    0,439;   -0,045
1025,605; 3041,904;   -1,742;    3,136
1026,152; 3247,086;   -0,106;   -0,591
1026,699; 2984,359;    0,167;    1,318
1027,245; 3166,631;    2,439;    0,318
1027,792; 3397,177;    0,712;    1,409
1028,339; 3247,449;    4,076;   -0,045
1028,885; 3110,540;    3,621;   -0,227
1029,432; 3053,359;   -0,106;    0,227
1029,978; 3110,995;    1,348;   -1,591
1030,525; 3002,268;    1,621;    0,409
1031,071; 3250,813;    0,348;    1,136
1031,618; 3352,177;    1,258;    1,682
1032,164; 3136,177;    2,076;    3,045
1032,710; 3184,722;    0,076;   -1,500
1033,256; 3108,904;    0,712;   -0,136
1033,803; 3098,449;   -0,288;    1,500
1034,349; 2842,540;    1,803;    0,136
1034,895; 3006,540;    2,621;   -0,318
1035,441; 2975,904;    0,439;    0,318
1035,987; 2981,086;   -2,288;   -0,682
1036,533; 2965,449;   -0,197;   -0,955
1037,078; 3160,995;    4,712;    1,682
1037,624; 2980,904;    2,439;   -0,955
1038,170; 3005,268;    1,712;   -0,318
1038,716; 2895,995;    2,167;   -0,409
1039,261; 2814,904;    2,167;   -0,773
1039,807; 2756,449;   -0,015;    3,409
1040,352; 2826,359;   -1,288;   -0,318
1040,898; 2867,359;    0,167;   -0,682
1041,443; 2781,268;    0,803;   -2,591
1041,989; 2805,722;    3,621;    1,591
1042,534; 2697,722;    0,985;    2,591
1043,079; 2811,359;    1,985;    0,955
1043,625; 2586,086;    0,258;    0,500
1044,170; 2635,813;    2,439;    1,045
1044,715; 2887,268;    0,167;    0,955
1045,260; 2705,359;   -0,833;   -0,955
1045,805; 2766,449;    0,258;   -0,591
1046,350; 2711,904;    0,530;   -0,409
1046,895; 2679,086;    0,803;    1,591
1047,440; 2615,540;    1,530;    0,409
1047,985; 2506,904;   -1,197;   -0,955
1048,530; 2413,995;    1,348;    1,227
1049,074; 2487,359;    2,803;    0,318
1049,619; 2469,177;   -0,924;    1,955
1050,164; 2281,631;    1,076;    0,227
1050,708; 2329,359;    2,621;    0,045
1051,253; 2677,086;    3,258;   -2,227
1051,797; 2390,813;   -0,197;   -1,318
1052,342; 2417,904;    1,348;    1,045
1052,886; 2400,813;    1,803;   -1,409
1053,430; 2295,540;    2,167;    0,136
1053,975; 2306,631;    0,894;   -0,318
1054,519; 2291,904;    1,803;    3,227
1055,063; 2301,177;    3,621;    1,318
1055,607; 2187,995;    1,348;    0,227
1056,151; 2221,359;    0,530;    1,682
1056,695; 2137,268;   -1,833;   -1,136
1057,239; 2198,540;   -1,197;   -0,682
1057,783; 2179,631;    2,258;   -1,500
1058,327; 2142,722;    3,076;    1,409
1058,871; 2376,268;    3,985;    1,318
1059,415; 2080,904;   -0,561;   -0,045
1059,958; 2321,449;    2,985;    2,591
1060,502; 2074,995;    1,348;   -0,773
1061,046; 1968,359;    1,712;   -0,955
1061,589; 1941,631;    2,803;   -1,136
1062,133; 1820,268;    0,985;    1,864
1062,676; 1769,995;    1,439;    0,864
1063,220; 1773,086;    0,985;    0,500
1063,763; 1799,813;    2,985;    1,136
1064,306; 1872,631;    0,985;    1,864
1064,849; 1758,177;    2,076;    0,591
1065,393; 1771,268;    2,894;   -1,500
1065,936; 1884,813;    2,530;   -0,409
1066,479; 1754,995;    2,621;    1,318
1067,022; 1775,904;    1,894;   -0,227
1067,565; 1678,813;   -1,197;   -1,318
1068,108; 1722,995;    1,258;   -0,591
1068,651; 1696,995;   -2,470;    1,409
1069,194; 1634,995;   -1,106;   -1,682
1069,736; 1615,177;    3,803;    0,955
1070,279; 1608,177;   -1,652;   -0,500
1070,822; 1654,904;    1,530;   -0,318
1071,364; 1723,540;    0,530;    1,318
1071,907; 1555,449;    0,348;    3,227
1072,450; 1468,904;    0,258;   -0,045
1072,992; 1463,631;   -0,561;    3,136
1073,535; 1599,359;    0,167;    2,136
1074,077; 1385,359;    2,985;    2,045
1074,619; 1348,813;    0,985;    0,591
1075,161; 1375,540;   -0,561;    1,500
1075,704; 1557,813;    0,258;    1,227
1076,246; 1360,995;    1,530;    0,682
1076,788; 1306,449;   -1,015;    1,773
1077,330; 1391,449;   -2,106;    2,136
1077,872; 1340,995;   -1,924;    0,955
1078,414; 1561,722;    3,712;    0,773
1078,956; 1288,268;    0,167;   -0,227
1079,498; 1536,631;    0,439;    0,318
1080,040; 1239,904;    0,985;   -1,318
1080,581; 1202,359;    0,621;   -0,318
1081,123; 1144,449;   -0,106;   -0,773
1081,665; 1185,540;    3,803;   -0,955
1082,206; 1465,995;    3,258;   -0,500
1082,748; 1333,995;    3,258;    2,045
1083,289; 1219,722;    0,167;    1,318
1083,831; 1126,540;    0,258;    0,227
1084,372; 1139,449;    0,894;    0,591
1084,913; 1138,177;    3,348;    0,864
1085,455; 1138,904;    1,530;   -2,045
1085,996; 1103,631;    0,530;    0,136
1086,537; 1110,449;    0,985;    0,864
1087,078; 1165,086;    0,439;   -2,136
1087,619; 1184,268;   -1,652;    0,227
1088,160; 1093,631;    1,439;    1,318
1088,701; 1077,813;   -0,742;    0,682
1089,242; 1020,359;   -0,561;   -2,227
1089,783; 1124,904;   -0,561;    1,409
1090,324; 1092,177;   -0,833;    0,682
1090,865;  967,631;   -1,924;   -0,409
1091,405;  963,540;   -0,561;    2,227
1091,946;  980,904;   -0,197;   -0,955
1092,487;  912,177;   -1,288;   -1,409
1093,027; 1069,449;    1,803;   -1,500
1093,568;  917,177;    2,258;    1,227
1094,108;  987,631;    0,621;    1,773
1094,649;  940,995;   -0,470;    0,136
1095,189;  890,540;    1,167;   -0,682
1095,729;  848,813;    0,712;    0,955
1096,269;  852,177;    1,258;   -0,955
1096,810; 1154,631;   -0,197;    0,500
1097,350;  984,813;   -0,561;   -0,773
1097,890;  883,904;    2,985;    1,227
1098,430; 1131,631;    4,985;    2,864
1098,970; 1007,177;    1,894;    1,682
1099,510;  874,268;   -0,833;   -2,318
1100,050;  807,813;    0,258;   -1,591
1100,589;  771,086;    0,076;   -0,318
1101,129;  903,813;    0,894;   -0,955
1101,669; 1031,086;    2,803;    2,136
1102,209;  860,177;    1,530;    2,227
1102,748;  815,359;    3,439;    0,955
1103,288;  811,177;    0,712;   -1,227
1103,827;  825,449;    3,530;   -2,227
1104,367;  717,631;    1,712;   -2,409
1104,906;  687,540;   -1,015;   -1,136
1105,445;  756,449;    0,985;   -1,136
1105,985;  691,631;   -0,652;    1,500
1106,524;  741,631;    1,530;   -0,682
1107,063;  717,449;    1,167;    1,409
1107,602;  689,813;    1,894;   -1,500
1108,141;  618,540;    1,621;    1,500
1108,680;  707,813;    3,985;   -0,591
1109,219;  657,268;    0,167;   -0,500
1109,758;  662,359;    4,167;    0,682
1110,297;  634,540;   -1,106;   -0,682
1110,836;  576,268;    1,439;    0,955
1111,375;  723,449;    0,348;    0,409
1111,913;  732,268;    0,985;    0,773
1112,452;  677,995;    0,894;    0,136
1112,991;  570,904;    1,076;    1,955
1113,529;  521,540;    0,167;   -0,045
1114,068;  596,449;    0,439;    2,955
1114,606;  498,995;   -0,561;   -0,955
1115,144;  650,722;    1,530;    1,045
1115,683;  591,995;    1,985;    0,318
1116,221;  650,631;    2,076;   -0,864
1116,759;  551,722;    1,621;   -0,864
1117,297;  731,268;    1,621;    1,864
1117,836;  560,904;    1,985;   -1,227
1118,374;  557,359;    0,258;   -0,682
1118,912;  506,722;    0,439;    2,682
1119,450;  494,449;    0,985;    0,864
1119,988;  534,904;    3,348;    2,136
1120,525;  967,268;    7,258;    3,318
1121,063;  685,904;    0,530;    1,864
1121,601;  501,995;    1,076;   -1,227
1122,139;  462,631;    1,076;   -2,045
1122,676;  645,995;   -1,652;    2,773
1123,214;  596,086;    0,712;    4,409
1123,751;  406,813;    0,621;    2,227
1124,289;  520,904;    0,894;   -0,409
1124,826;  398,359;   -0,379;    0,227
1125,364;  337,722;    0,712;   -0,955
1125,901;  519,904;    6,258;    1,227
1126,438;  610,813;    3,530;    0,955
1126,975;  356,449;    2,985;   -0,773
1127,513;  417,177;    2,621;    2,136
1128,050;  337,268;   -0,561;   -0,682
1128,587;  429,813;    1,348;   -0,227
1129,124;  473,449;   -0,015;    1,318
1129,661;  343,268;   -1,924;    0,227
1130,198;  510,086;    2,439;    0,773
1130,734;  447,813;   -0,379;    1,409
1131,271;  323,722;   -1,197;    0,864
1131,808;  483,268;    1,621;    3,045
1132,345;  352,722;    4,530;    0,318
1132,881;  245,177;   -0,561;   -1,864
1133,418;  365,904;    0,348;   -1,136
1133,954;  308,813;    0,712;   -2,682
1134,491;  375,540;    1,712;   -0,773
1135,027;  283,813;    2,167;    0,864
1135,564;  362,359;    1,439;    2,955
1136,100;  340,813;   -0,742;    2,136
1136,636;  250,177;   -1,015;   -1,045
1137,172;  329,813;    0,894;   -1,045
1137,708;  256,177;   -1,561;   -1,045
1138,245;  259,813;    0,803;   -1,227
1138,781;  227,268;    1,803;   -3,318
1139,317;  277,449;    1,894;   -1,409
1139,852;  266,086;    3,076;    0,136
1140,388;  373,904;    2,076;   -0,409
1140,924;  264,904;    1,076;   -2,227
1141,460;  208,268;   -0,288;    0,136
1141,996;  158,813;   -0,652;    2,682
1142,531;  198,177;    1,076;    3,318
1143,067;  396,722;    1,167;    1,045
1143,602;  455,904;    3,439;   -0,318
1144,138;  304,086;    0,803;    1,045
1144,673;  182,995;    1,621;    1,409
1145,209;  236,631;    2,894;   -0,318
1145,744;  173,086;    0,803;    0,864
1146,279;  290,086;    1,530;   -0,136
1146,815;  211,813;    1,530;   -2,682
1147,350;  256,086;   -0,924;    0,045
1147,885;  173,449;   -1,924;   -1,318
1148,420;  164,904;    2,439;    0,773
1148,955;  152,268;   -1,470;    1,864
1149,490;  183,359;   -1,106;   -1,591
1150,025;  167,631;   -1,106;   -1,773
1150,560;  260,268;   -0,288;   -0,955
1151,094;  229,540;    0,258;   -0,591
1151,629;  238,904;   -3,742;    0,864
1152,164;  168,268;   -1,288;    1,318
1152,698;  142,540;    1,258;   -0,136
1153,233;   97,177;   -1,379;   -0,682
1153,767;  137,813;   -0,288;   -2,318
1154,302;  179,995;   -0,379;    1,773
1154,836;  192,722;    0,803;   -2,136
1155,371;  226,359;    2,258;    3,682
1155,905;  177,268;    1,985;    1,682
1156,439;  159,449;    0,530;   -0,500
1156,973;  186,086;    0,439;    0,318
1157,507;  124,449;   -1,742;    0,682
1158,042;  149,359;   -0,652;    1,045
1158,576;  187,995;   -0,561;    1,773
1159,110;  182,359;    0,076;    2,409
1159,643;  158,086;   -2,470;   -0,045
1160,177;  103,540;   -2,015;    1,500

