
Integration time [ms]:   0,040
Averaging Nr. [scans]: 11
Smoothing Nr. [pixels]: 0
Data measured with spectrometer [name]: 7318044SP
Wave   ;Sample   ;Dark     ;Reference
[nm]   ;[counts] ;[counts] ;[counts] 

186,757;   35,734;   38,161;    1,318
187,357;   62,510;   26,706;    0,955
187,958;   37,403;   17,252;   -1,591
188,558;   77,777;   12,979;   -1,227
189,159;   49,992;   10,070;   -4,500
189,759;   18,354;    5,797;   -3,591
190,360;   19,331;    6,797;   -2,136
190,960;   54,738;    5,706;   -4,136
191,560;   68,198;    2,614;   -6,591
192,161;  280,446;    5,885;   -3,500
192,761;  141,689;    5,520;   -3,227
193,361;   93,296;    3,065;   -3,773
193,962;  146,265;    1,612;   -2,682
194,562;   73,236;   -0,114;   -3,955
195,162;   99,550;   -0,567;   -2,227
195,762;  251,143;    2,433;   -0,045
196,362;  205,435;    1,706;   -2,500
196,963;   86,371;    1,706;   -0,864
197,563;  154,119;    1,252;   -0,955
198,163;  100,493;   -0,111;   -0,682
198,763;  122,512;   -0,020;   -0,500
199,363;  213,243;    3,616;   -0,500
199,963;  169,476;    2,162;    0,409
200,563;  152,315;    6,344;   -1,409
201,163;  129,272;    5,435;   -0,227
201,763;  224,287;    1,435;    0,318
202,363;  161,164;    0,980;    1,500
202,963;  251,963;    1,526;    1,045
203,563;  373,401;    0,344;    0,500
204,162;  227,044;    1,889;   -1,864
204,762;  205,771;    2,071;    0,591
205,362;  170,925;    0,708;    1,955
205,962;  275,021;    3,435;    1,955
206,562;  266,684;    1,889;    2,318
207,161;  235,151;    1,708;    0,318
207,761;  389,707;    4,435;    2,409
208,361;  256,274;    1,889;    1,409
208,960;  356,018;    2,889;    1,500
209,560;  422,798;    0,435;    1,591
210,160;  408,640;    5,071;    1,864
210,759;  368,420;    0,708;    1,227
211,359;  367,572;   -0,474;    1,045
211,958;  622,031;    3,526;    2,045
212,558;  693,521;    0,799;    1,864
213,157;  530,428;   -0,929;    1,500
213,757;  952,899;    5,617;   -0,227
214,356;  659,625;    1,708;   -0,409
214,956;  977,215;    3,526;    0,409
215,555;  621,521;    0,617;    2,136
216,154;  567,453;   -0,292;   -0,591
216,754;  565,041;    1,253;    0,773
217,353;  697,916;   -0,383;   -1,045
217,952;  552,144;    2,072;    0,318
218,552;  789,668;    0,254;   -0,773
219,151;  679,074;   -1,110;    0,955
219,750;  670,355;    0,890;   -0,227
220,349;  760,630;   -2,292;    1,045
220,948;  852,061;    1,163;    1,136
221,548;  839,523;    0,617;    1,227
222,147;  947,379;   -1,292;   -0,409
222,746; 1209,943;    1,254;   -0,955
223,345; 1076,383;   -1,019;    0,500
223,944; 1089,761;    1,163;    0,773
224,543; 1226,764;    4,072;   -1,409
225,142; 1367,845;    1,345;    0,136
225,741; 1267,681;    1,163;    1,045
226,340; 1282,689;    1,254;   -0,955
226,939; 1677,058;    2,708;   -0,136
227,538; 1603,950;    1,163;   -0,773
228,137; 1778,840;    0,435;    0,864
228,735; 1873,497;    0,435;    1,227
229,334; 1653,812;   -0,474;   -0,227
229,933; 2028,817;    0,799;    0,591
230,532; 2115,616;   -1,201;   -0,409
231,131; 2167,627;    1,253;    0,318
231,729; 2261,286;    1,163;   -2,318
232,328; 2333,963;    0,435;   -1,500
232,927; 2397,912;    4,526;   -0,500
233,525; 2504,592;    0,981;    0,045
234,124; 2699,138;    1,890;   -1,591
234,723; 2736,605;    1,617;   -1,045
235,321; 2848,880;    1,163;    0,136
235,920; 3030,810;    2,526;   -1,227
236,518; 3285,903;    1,072;    0,318
237,117; 3425,024;    2,890;   -0,227
237,715; 3584,132;    1,163;   -0,500
238,314; 3597,916;    1,708;   -2,318
238,912; 3719,576;    0,526;   -1,409
239,510; 3747,933;    1,162;   -1,227
240,109; 3926,286;   -0,474;    3,773
240,707; 3946,976;   -0,474;    1,227
241,305; 4253,214;   -0,383;    0,136
241,904; 4432,487;   -0,292;   -2,045
242,502; 4421,515;    3,253;   -0,227
243,100; 4349,629;    3,344;   -0,955
243,698; 4556,191;    2,799;    1,682
244,297; 4725,519;   -0,656;    0,682
244,895; 4583,286;   -0,474;   -2,318
245,493; 4886,415;    2,981;   -0,591
246,091; 4923,112;    5,163;   -1,318
246,689; 4909,770;    2,163;    0,591
247,287; 5032,677;   -0,019;   -1,136
247,885; 5302,890;   -1,019;    1,227
248,483; 5368,129;   -0,201;   -0,500
249,081; 5471,374;    0,981;    1,591
249,679; 5593,482;   -1,019;    1,682
250,277; 5848,947;   -2,292;    0,864
250,875; 5831,698;    0,617;   -1,045
251,473; 5864,117;   -0,019;    0,500
252,071; 6017,493;   -0,383;    1,045
252,669; 6145,852;   -1,565;    0,318
253,267; 6404,133;    1,618;    0,773
253,864; 6344,495;    0,617;    0,682
254,462; 6240,408;    1,526;    1,591
255,060; 6190,332;    0,072;    1,318
255,658; 6478,580;   -3,292;   -0,136
256,255; 6865,698;   -0,201;   -2,045
256,853; 6734,618;    2,345;    1,409
257,451; 6706,184;    1,981;    1,864
258,048; 7007,745;    2,072;    1,864
258,646; 6755,611;    0,436;   -1,045
259,243; 6920,981;    2,981;    2,227
259,841; 6956,990;    1,799;    0,318
260,438; 6871,846;    0,254;    0,864
261,036; 7518,884;    0,617;    1,409
261,633; 7400,992;    1,526;    2,227
262,231; 7194,666;   -0,110;   -0,045
262,828; 7273,760;   -0,383;    1,136
263,425; 7291,605;   -1,928;   -0,591
264,023; 7528,241;    1,436;    0,045
264,620; 7108,563;    1,526;   -0,318
265,217; 7456,922;    2,890;    3,136
265,815; 7587,235;    2,527;    2,136
266,412; 7367,243;    0,072;    0,136
267,009; 7398,478;    0,526;    0,773
267,606; 7320,702;    0,345;   -0,955
268,203; 7296,823;   -0,383;   -0,591
268,801; 7567,169;   -0,474;    0,591
269,398; 7817,941;   -0,564;    2,500
269,995; 7791,578;    0,890;    1,591
270,592; 7592,199;    0,799;   -0,500
271,189; 7778,964;    1,981;    0,409
271,786; 7898,880;    2,072;    1,227
272,383; 7753,751;   -0,383;    0,227
272,980; 7910,685;    1,617;    0,318
273,577; 8355,544;    2,162;    1,227
274,174; 7929,119;    1,435;    2,591
274,771; 7885,125;    1,890;   -0,773
275,367; 8059,838;    3,253;    1,409
275,964; 8020,449;   -0,565;   -0,500
276,561; 8112,789;   -2,474;   -1,045
277,158; 8291,573;    1,799;   -1,773
277,755; 8428,283;   -0,110;    0,409
278,351; 7841,814;    0,436;   -1,500
278,948; 8129,463;   -0,201;    0,045
279,545; 8148,376;    0,527;    2,318
280,141; 8781,633;    1,254;   -2,045
280,738; 8628,440;    2,435;   -0,136
281,334; 8789,214;   -0,383;    0,591
281,931; 8219,583;    2,890;   -1,318
282,528; 8341,894;    4,072;   -0,500
283,124; 8990,772;    3,345;   -0,500
283,721; 8880,759;    0,709;    1,409
284,317; 8713,609;    0,163;    2,500
284,913; 9253,420;   -0,110;    0,591
285,510; 9420,602;    2,890;   -0,318
286,106; 9440,400;    2,345;   -0,955
286,703; 9032,412;    0,072;    1,955
287,299; 9213,262;    1,254;   -0,591
287,895; 9404,768;    0,890;   -1,045
288,491; 9945,941;    0,163;    2,136
289,088; 9681,364;    0,163;    2,409
289,684; 9743,398;    2,890;    1,500
290,280; 9755,060;    1,890;    0,682
290,876; 9820,833;    0,163;    5,500
291,472; 9704,778;    2,163;    2,227
292,068; 9813,084;    1,254;    0,227
292,665; 9523,626;   -0,564;    0,773
293,261; 9211,104;   -1,292;    2,136
293,857; 9581,920;    4,072;    2,136
294,453; 9527,747;   -0,928;    0,955
295,049; 9372,048;    0,253;    1,955
295,644; 9408,341;   -1,292;    0,136
296,240; 9301,678;    0,162;   -0,136
296,836; 9368,416;   -0,747;    0,318
297,432; 9638,274;    2,980;   -0,500
298,028; 9661,866;    0,435;    0,773
298,624;10039,625;    0,889;    1,864
299,220;10259,520;    0,435;    0,591
299,815; 9948,494;    0,526;   -0,409
300,411; 9733,321;    0,435;    1,773
301,007; 9747,748;    1,889;    0,227
301,602; 9777,350;    2,071;   -2,318
302,198; 9904,323;    1,435;   -0,773
302,794;10249,923;    1,526;   -0,500
303,389;10324,314;    1,071;    1,045
303,985;10400,137;    1,253;    1,409
304,580;10374,490;    0,889;    1,591
305,176;10351,206;    0,344;    0,136
305,771;10292,039;   -0,929;   -1,227
306,367;10196,232;    3,071;    0,136
306,962;10466,168;    2,889;    1,500
307,558;10200,576;    2,435;    0,136
308,153;10102,822;   -0,383;   -1,136
308,748;10357,107;    0,162;    1,682
309,344;10322,437;    0,253;   -1,318
309,939;10443,196;    2,071;   -1,318
310,534;10703,407;   -2,020;   -1,682
311,130;10617,042;   -0,656;   -2,500
311,725;10352,236;    0,526;   -0,500
312,320;10669,012;    1,253;    0,045
312,915;10549,931;    2,890;   -1,045
313,510;10632,420;    0,526;   -0,500
314,105;11109,754;   -3,565;    1,409
314,700;10506,040;   -1,656;   -1,045
315,295;10162,581;   -0,020;    0,045
315,890; 9759,211;   -0,292;    0,864
316,485;10079,466;    0,253;   -0,318
317,080;10182,399;   -0,929;    1,591
317,675;10709,082;    3,071;   -0,682
318,270;10142,399;    6,889;    3,318
318,865;10138,784;    2,435;    3,045
319,460; 9964,418;   -1,565;    0,591
320,055;10211,860;   -2,565;   -1,227
320,650; 9910,034;   -1,838;   -0,591
321,244; 9962,573;    0,889;   -1,409
321,839;10837,976;    0,980;   -0,227
322,434;10731,103;   -0,111;   -1,591
323,029;10414,226;   -0,474;    1,591
323,623;10241,562;    0,798;    0,773
324,218;10051,738;    2,707;    1,409
324,812; 9965,084;    0,889;    1,591
325,407; 9801,691;   -0,929;    2,045
326,002; 9742,898;    0,526;   -0,409
326,596;10040,194;   -0,656;    1,318
327,191;10240,913;   -0,383;   -1,045
327,785; 9838,739;   -0,747;   -0,227
328,379;10072,027;   -0,383;    0,136
328,974; 9834,959;    1,798;   -3,955
329,568;10089,359;    2,889;   -2,409
330,163; 9922,207;    2,435;    1,045
330,757;10271,016;    0,253;    1,591
331,351; 9637,545;   -0,292;    0,682
331,945; 9943,581;   -0,383;    1,409
332,540; 9564,614;    1,617;   -0,591
333,134; 9673,496;    3,344;    0,773
333,728; 9910,773;    2,799;    0,318
334,322;10196,092;    0,889;   -0,864
334,916; 9507,422;    0,344;    0,955
335,510; 9851,883;   -0,111;   -0,136
336,105;10092,549;   -0,929;    1,591
336,699; 9777,551;   -1,292;    0,591
337,293; 9718,714;    1,071;    0,318
337,887; 9818,126;    0,071;    1,955
338,481; 9915,386;    2,980;    0,591
339,074;10032,625;    2,071;    2,682
339,668; 9876,980;   -0,110;    1,227
340,262;10106,407;    7,708;    3,227
340,856; 9624,096;    1,708;   -0,682
341,450; 9039,155;    0,708;    1,864
342,044; 9877,259;    1,799;    0,136
342,637; 9625,286;    1,162;   -2,136
343,231; 9484,049;   -1,474;    0,682
343,825; 9451,390;   -0,747;   -0,591
344,419; 9441,727;   -0,474;    0,500
345,012; 9298,395;    2,889;    4,045
345,606; 9286,408;   -0,656;    1,591
346,199; 9139,888;   -0,111;   -0,227
346,793; 8701,425;    2,525;    2,045
347,386; 8887,809;    0,889;   -1,136
347,980; 8897,338;   -0,838;   -0,045
348,573; 8703,381;   -1,748;    0,409
349,167; 8428,193;    6,161;    4,773
349,760; 8768,719;    2,252;    2,682
350,354; 8743,919;    1,616;    1,136
350,947; 8483,134;    2,798;    1,682
351,540; 8185,381;    0,616;   -1,409
352,134; 8148,561;   -1,111;    1,136
352,727; 8241,535;   -0,657;    1,136
353,320; 8075,387;    2,343;    0,591
353,913; 7907,193;   -1,929;    1,864
354,507; 8110,087;    0,434;   -1,227
355,100; 8141,668;    0,071;    0,864
355,693; 7446,906;    4,798;    2,409
356,286; 7463,673;    0,980;    2,773
356,879; 7802,041;   -0,475;    1,227
357,472; 7417,364;    0,980;    1,500
358,065; 7624,134;    3,161;    2,500
358,658; 7553,334;    0,798;    2,318
359,251; 7256,474;    0,252;   -0,591
359,844; 6801,561;    0,343;   -1,136
360,437; 6965,421;    0,252;    0,045
361,030; 7239,814;    0,525;   -0,682
361,623; 6846,591;    0,434;    0,318
362,215; 6863,311;    0,979;    2,045
362,808; 6738,366;   -2,293;   -1,682
363,401; 6914,100;    0,798;    0,136
363,994; 6685,813;    3,252;   -1,500
364,586; 6662,722;    0,888;   -1,500
365,179; 6810,763;   -0,203;   -1,136
365,772; 6316,210;   -0,930;    2,045
366,364; 6606,756;    1,524;   -3,227
366,957; 6824,002;    1,342;   -0,045
367,549; 6797,552;   -0,203;   -0,864
368,142; 6493,535;    0,978;   -1,500
368,734; 6662,253;    2,523;   -2,136
369,327; 6638,382;    2,341;   -0,500
369,919; 6549,784;   -1,659;    0,409
370,512; 6392,641;   -1,023;   -0,500
371,104; 6189,891;    2,704;    1,591
371,696; 6312,618;    1,703;   -0,955
372,289; 6382,745;    0,157;    1,136
372,881; 6498,931;    1,156;    1,318
373,473; 6407,716;    4,064;    1,136
374,066; 6263,033;    1,336;    0,500
374,658; 6133,129;    0,879;    1,136
375,250; 6434,265;   -1,668;   -1,409
375,842; 6290,106;   -0,124;   -0,045
376,434; 6196,823;   -2,762;   -0,409
377,026; 6719,722;   -1,855;   -2,500
377,618; 6642,686;    0,779;   -0,682
378,210; 6472,035;    3,141;   -1,955
378,802; 6340,012;    3,412;   -0,591
379,394; 6315,988;    3,411;    0,682
379,986; 6826,765;    1,138;   -0,955
380,578; 6906,880;    1,410;    0,773
381,170; 6331,851;    0,320;    0,045
381,762; 6290,758;   -0,224;    1,409
382,354; 6463,090;   -0,223;   -1,318
382,945; 6558,200;    0,870;    0,318
383,537; 6680,227;    1,144;   -1,955
384,129; 6691,800;    0,963;   -1,136
384,721; 6851,025;    0,418;    0,955
385,312; 6799,951;   -1,399;   -0,955
385,904; 6870,653;   -0,945;    1,591
386,496; 6277,554;    0,691;    1,045
387,087; 6430,936;    0,418;    2,500
387,679; 6450,640;   -0,401;    0,045
388,270; 6584,399;   -2,401;    2,045
388,862; 6669,084;   -0,401;   -0,318
389,453; 6529,296;    1,054;    1,045
390,045; 6796,181;    3,236;   -2,682
390,636; 6746,275;    0,144;   -0,591
391,227; 6597,101;    2,054;   -0,045
391,819; 6711,650;    0,781;    0,773
392,410; 6771,938;    0,600;    0,045
393,001; 6681,004;    1,600;   -1,591
393,593; 6927,619;    0,600;   -0,045
394,184; 6824,144;    0,873;   -0,409
394,775; 6714,419;    1,146;    2,136
395,366; 6932,248;    1,782;    0,773
395,957; 6863,010;   -2,400;    0,136
396,548; 7158,369;    1,054;    2,682
397,139; 7457,033;    2,236;    0,591
397,730; 7193,085;    0,873;    0,955
398,321; 7265,759;    0,509;    0,955
398,912; 7285,977;   -0,764;    0,136
399,503; 7371,770;   -1,945;   -1,409
400,094; 6841,273;   -1,582;    1,682
400,685; 6707,504;    3,600;    0,045
401,276; 6803,491;   -0,400;   -0,955
401,867; 7067,816;   -1,127;    0,773
402,458; 7131,874;    1,509;   -2,318
403,048; 7117,941;    0,146;    0,591
403,639; 6756,233;    1,509;    0,864
404,230; 7015,922;    0,691;    0,318
404,821; 6954,224;   -0,127;    0,045
405,411; 7042,230;   -0,763;   -2,591
406,002; 6701,831;    3,237;   -1,136
406,592; 6585,938;    2,691;    0,045
407,183; 6841,809;    0,328;   -1,500
407,774; 6776,970;    1,419;   -0,136
408,364; 7063,410;    2,600;    0,409
408,954; 6675,608;   -0,036;    1,227
409,545; 6766,126;    1,873;    1,045
410,135; 6319,534;   -1,581;    0,500
410,726; 6452,045;    0,783;    0,318
411,316; 6816,511;    2,237;    0,773
411,906; 6500,250;    0,146;   -0,409
412,497; 6060,329;   -0,490;   -0,045
413,087; 6604,606;    0,783;   -0,227
413,677; 6950,614;   -2,490;    3,864
414,267; 6818,402;   -1,035;    1,409
414,857; 6830,730;    0,419;    4,227
415,448; 7072,705;   -0,763;    0,500
416,038; 6799,623;   -2,945;   -0,591
416,628; 6746,405;    0,965;    0,409
417,218; 6282,085;   -1,762;    3,318
417,808; 6499,867;    0,965;   -0,409
418,398; 6895,233;   -1,035;    2,682
418,988; 6925,468;   -2,217;    0,591
419,578; 7150,918;    3,601;    1,409
420,168; 7441,117;    0,692;   -0,955
420,757; 7066,183;    0,964;   -1,500
421,347; 6775,457;    1,601;   -0,227
421,937; 6923,362;    3,329;    1,409
422,527; 6902,450;    2,602;   -0,773
423,116; 6733,459;    2,692;   -0,045
423,706; 7023,343;    2,965;    0,318
424,296; 6973,840;    1,601;    0,682
424,885; 7377,385;    1,510;   -3,045
425,475; 7644,250;    1,147;   -2,864
426,065; 7555,406;   -1,489;   -0,318
426,654; 7209,040;    0,329;   -0,318
427,244; 7319,188;    1,147;    1,409
427,833; 6822,791;    1,056;   -0,500
428,423; 7220,431;    0,147;    1,136
429,012; 7911,133;    2,420;   -1,136
429,601; 7446,860;    2,057;    0,136
430,191; 7644,888;    2,511;    4,318
430,780; 7315,093;   -1,671;   -0,409
431,369; 7278,839;    1,329;   -0,045
431,959; 7831,574;    1,693;    0,500
432,548; 7618,625;   -1,398;   -0,045
433,137; 7728,826;    0,329;   -1,318
433,726; 8191,652;    0,148;    0,500
434,315; 7635,166;    0,148;    2,409
434,905; 7719,616;    0,693;    1,409
435,494; 7654,608;    3,148;    0,955
436,083; 8049,523;    1,420;   -0,955
436,672; 7906,360;    1,148;    0,500
437,261; 7574,144;    0,512;   -1,955
437,850; 7675,878;   -1,125;    0,682
438,439; 7640,981;    2,239;    1,955
439,027; 7514,267;    3,421;    1,773
439,616; 7799,685;    2,239;    1,227
440,205; 7655,791;    0,057;   -2,136
440,794; 7715,034;   -0,306;   -0,045
441,383; 7958,845;    1,603;   -0,591
441,971; 7820,930;   -0,306;    0,591
442,560; 7662,718;    0,603;   -1,773
443,149; 7432,776;    3,060;   -1,318
443,737; 7569,225;    0,968;   -2,318
444,326; 7803,837;    0,331;    0,318
444,915; 7833,420;   -1,851;    0,864
445,503; 8174,380;    0,058;   -0,318
446,092; 7545,211;    7,876;    2,136
446,680; 8044,257;    1,876;    0,318
447,269; 8189,680;   -1,487;   -0,318
447,857; 7965,348;    2,240;   -1,773
448,445; 8080,405;    2,149;    1,318
449,034; 8315,646;    0,876;   -1,136
449,622; 8404,170;    1,240;    3,500
450,210; 7712,351;    3,149;    2,227
450,799; 8223,840;    2,604;   -0,591
451,387; 8160,239;    1,786;   -0,591
451,975; 7851,290;   -1,305;    0,864
452,563; 7967,829;    0,422;    2,318
453,151; 7954,580;   -1,032;   -1,227
453,739; 7913,507;   -1,577;    0,136
454,328; 7767,123;    0,604;   -2,136
454,916; 7519,171;    1,150;   -0,136
455,504; 7704,693;    3,513;    1,227
456,092; 7849,173;    2,150;   -1,591
456,679; 7784,905;    0,604;    0,682
457,267; 7779,936;    3,604;    1,045
457,855; 7911,841;    3,241;    1,409
458,443; 7634,242;   -0,304;    1,682
459,031; 7785,105;    1,332;    2,409
459,619; 8219,175;   -3,577;    2,864
460,206; 8290,553;   -0,759;    2,045
460,794; 8356,281;   -0,668;   -0,227
461,382; 8556,124;    0,878;   -0,864
461,970; 8175,168;    0,605;    1,864
462,557; 8230,416;    0,878;   -0,682
463,145; 8380,079;   -0,304;   -1,682
463,732; 8484,948;    2,514;   -1,045
464,320; 8419,100;    1,514;   -3,045
464,907; 8142,722;    0,423;   -0,773
465,495; 8026,683;    2,696;   -1,227
466,082; 8148,368;    2,060;   -0,045
466,670; 8091,375;    2,605;    1,227
467,257; 8477,436;    0,060;    2,045
467,844; 8635,269;    1,514;    0,045
468,432; 8652,844;   -0,031;    3,500
469,019; 8191,955;    1,606;   -1,773
469,606; 8642,816;    0,969;    3,682
470,193; 8443,668;    2,151;    0,227
470,780; 8074,440;    0,333;    0,864
471,368; 8404,719;   -1,212;   -0,773
471,955; 8183,273;    1,060;   -0,682
472,542; 7840,019;   -0,303;   -1,136
473,129; 8070,032;   -0,485;    0,136
473,716; 7852,793;    0,060;    0,591
474,303; 8004,660;    1,333;   -0,864
474,890; 8245,961;    2,333;   -0,500
475,477; 8278,390;   -0,576;    0,409
476,064; 8214,686;    0,697;   -1,591
476,650; 8111,327;    2,152;    0,318
477,237; 7951,872;    1,879;    0,955
477,824; 8126,041;    3,879;    0,864
478,411; 8109,126;    0,606;   -0,318
478,997; 8287,276;    0,606;   -0,773
479,584; 8357,527;   -0,666;   -0,409
480,171; 8959,144;    1,243;   -0,773
480,757; 8634,233;   -0,848;    0,773
481,344; 8912,352;    0,334;    0,409
481,931; 8429,797;   -0,393;    1,045
482,517; 9318,789;    0,425;    0,318
483,104; 9774,686;    1,334;    2,864
483,690; 9992,440;    0,243;    0,045
484,276;10299,634;    0,698;    0,227
484,863;10081,000;    2,152;    1,136
485,449;10580,163;    0,152;    0,318
486,035;10580,192;   -0,666;   -0,136
486,622;10946,909;   -2,393;    0,045
487,208;10926,226;    1,334;    1,500
487,794;10775,029;    0,971;    0,318
488,380;10884,406;    0,698;   -1,409
488,967;10919,671;   -1,120;   -0,409
489,553;10971,670;   -1,029;   -1,409
490,139;11168,786;    0,971;    0,773
490,725;10677,225;    0,789;   -0,227
491,311;10346,308;    1,516;    3,045
491,897; 9762,608;   -0,665;    1,500
492,483; 9601,826;    0,426;    1,227
493,069; 9438,773;    5,426;    0,864
493,655; 9413,667;    1,789;    0,682
494,241; 9340,113;    1,517;   -0,955
494,826; 9676,145;    0,335;   -1,045
495,412; 9165,350;    0,335;   -0,682
495,998; 9313,453;    0,971;   -0,318
496,584; 9372,570;    2,244;    1,045
497,169; 9358,768;    2,335;   -0,682
497,755; 9376,711;    1,244;    1,227
498,341; 9867,699;    2,153;    0,318
498,926; 9468,610;    2,881;    1,955
499,512; 9620,598;   -0,028;    2,955
500,097; 9696,408;   -0,574;   -0,318
500,683; 9656,207;   -0,028;    2,136
501,268; 9997,916;    1,881;   -0,955
501,854; 9754,639;   -0,119;    1,227
502,439; 9665,137;   -0,573;   -1,773
503,024; 9815,355;    1,608;    0,500
503,610; 9878,896;    1,335;   -0,682
504,195; 9903,960;    1,245;    1,955
504,780; 9990,013;    2,335;    1,227
505,366; 9860,867;    4,063;    2,864
505,951; 9572,949;   -1,119;    1,045
506,536; 9627,372;    1,427;   -3,682
507,121; 9619,012;    1,699;   -0,318
507,706;10057,131;   -0,392;    1,045
508,291;10361,382;   -2,937;    1,136
508,876; 9882,969;   -0,482;    2,591
509,461; 9399,777;    1,427;   -0,773
510,046; 9792,703;   -0,391;    0,318
510,631;10011,063;   -0,119;   -0,773
511,216; 9706,289;   -0,664;   -0,500
511,801;10056,739;   -0,755;    2,591
512,386;10306,870;    0,972;    0,500
512,971;10247,369;    0,427;    0,955
513,555; 9793,657;    1,154;   -1,500
514,140;10539,441;    1,336;   -3,136
514,725;10481,195;    1,791;   -1,136
515,309;10601,049;    1,064;    0,318
515,894;10156,956;   -0,300;   -2,227
516,479;10554,018;    1,973;   -0,955
517,063;10362,935;    0,882;    1,227
517,648;10492,669;    0,155;   -1,136
518,232;10130,655;   -1,300;   -1,409
518,817;10465,954;    1,337;    1,682
519,401;10673,966;    0,700;    0,591
519,985;10211,499;    2,700;    1,136
520,570;10101,687;   -0,118;   -1,955
521,154;10340,004;    0,064;    0,591
521,738;10507,412;    1,064;    2,409
522,323;11040,495;   -0,390;    1,682
522,907;10775,634;    2,428;   -0,136
523,491;10527,843;    1,155;    0,955
524,075;10493,687;    0,428;    0,591
524,659;10565,342;    0,973;    0,591
525,243;10139,099;    0,883;    0,409
525,827;10337,915;    0,883;   -0,045
526,411;11061,069;    1,155;   -0,136
526,995;11226,835;    0,337;    1,409
527,579;10849,506;    1,974;   -1,045
528,163;11153,828;    0,428;   -1,500
528,747;11090,297;    1,065;   -0,773
529,331;11319,699;    0,883;   -1,409
529,915;11487,172;    2,338;    0,955
530,499;11439,331;    0,247;    1,227
531,082;11159,367;    1,065;    1,591
531,666;10695,664;    0,520;    0,773
532,250;11282,050;    0,428;    2,682
532,833;11541,020;    0,610;    2,773
533,417;11441,092;    1,247;    0,864
534,001;11401,349;    0,429;   -0,318
534,584;12005,928;    1,974;    0,500
535,168;11849,334;    3,247;    1,409
535,751;11896,757;    4,520;    0,045
536,334;11365,749;    4,520;   -0,409
536,918;11916,563;    1,974;    1,591
537,501;11976,812;    1,520;    1,318
538,085;11959,210;    1,702;    1,045
538,668;12052,326;    0,883;    2,409
539,251;12374,078;    3,156;    3,773
539,834;12416,345;    0,156;    0,773
540,418;12316,412;    3,247;    4,318
541,001;12429,013;    2,702;    1,773
541,584;12420,541;    1,429;    2,227
542,167;12093,624;    0,702;    2,955
542,750;12213,638;    0,793;   -0,773
543,333;11831,008;    1,429;    2,136
543,916;12540,951;   -0,298;    2,500
544,499;13013,443;    2,520;    0,227
545,082;13037,811;    0,248;    3,591
545,665;13162,731;   -0,207;    1,500
546,248;13399,190;    0,520;   -0,318
546,830;13133,090;   -1,752;    1,955
547,413;13493,944;    0,157;   -0,773
547,996;13979,191;    0,157;    0,500
548,579;13747,081;   -0,843;    0,955
549,161;13559,540;    0,884;    2,682
549,744;13338,975;    0,612;    0,409
550,326;13836,297;    0,885;   -1,136
550,909;13584,432;    2,339;    0,591
551,492;13946,514;    0,521;    0,227
552,074;13767,740;   -0,024;   -1,318
552,657;14229,969;    2,430;    0,045
553,239;14065,136;   -3,024;   -0,773
553,821;13971,104;   -1,570;    1,045
554,404;13508,966;   -0,024;    1,136
554,986;13827,167;    2,248;    1,045
555,568;14351,243;    0,430;   -0,955
556,151;13686,450;    4,067;   -0,227
556,733;13872,546;   -1,388;   -0,864
557,315;14239,051;    4,703;    0,500
557,897;14010,294;    0,521;   -0,500
558,479;14124,911;    1,703;    1,318
559,061;14271,095;    1,067;   -0,864
559,643;14546,458;   -0,297;    0,045
560,225;14820,066;   -0,388;    2,864
560,807;14866,822;    0,340;    0,318
561,389;14425,217;   -1,206;    2,318
561,971;15036,141;   -0,660;    2,136
562,553;14886,006;    0,613;    1,591
563,135;14990,911;    1,249;    1,136
563,717;14639,636;    3,158;    1,136
564,298;15212,084;    3,976;   -0,045
564,880;14938,515;    0,340;   -1,409
565,462;15052,242;    1,977;    1,318
566,043;16055,145;   -0,933;    2,318
566,625;15625,712;    4,067;    1,227
567,207;15454,149;    0,704;    1,682
567,788;16384,225;   -0,114;    1,500
568,370;17116,764;   -1,841;   -0,500
568,951;16892,236;   -0,569;    0,227
569,533;17639,468;    0,977;   -0,500
570,114;18017,433;   -0,296;    0,682
570,695;18400,244;   -0,478;   -1,318
571,277;18724,172;   -0,205;   -1,682
571,858;19347,861;    2,704;   -1,136
572,439;20102,386;    0,795;   -1,045
573,021;20170,197;    0,432;   -2,773
573,602;20592,381;    1,795;    0,318
574,183;21363,628;   -0,114;    2,227
574,764;21395,486;    2,068;    0,409
575,345;21761,072;    0,250;   -0,136
575,926;22294,146;    2,704;    0,136
576,507;22291,493;    2,704;   -0,227
577,088;23266,015;    1,704;    1,682
577,669;23260,226;    1,704;    1,955
578,250;23891,083;   -0,750;   -1,045
578,831;24336,886;   -0,841;   -2,227
579,412;24486,252;   -1,205;    0,955
579,993;25376,438;    1,432;    0,227
580,573;25686,440;   -0,023;   -0,955
581,154;24655,683;    1,613;   -0,591
581,735;25443,133;    0,341;    0,773
582,315;24942,042;    0,523;    2,136
582,896;25283,850;   -1,750;    1,227
583,477;24785,524;    0,614;    1,227
584,057;24950,414;    1,159;    0,955
584,638;25193,074;   -2,750;    2,318
585,218;25244,366;    2,886;    2,682
585,799;25377,740;    1,977;   -0,227
586,379;25407,015;    1,250;    1,591
586,959;24370,947;    2,613;    0,318
587,540;23804,697;    0,432;    2,227
588,120;23429,401;   -1,113;   -0,045
588,700;22613,547;    2,977;    2,136
589,281;22854,939;    1,250;   -0,955
589,861;22816,199;   -0,296;   -1,682
590,441;22645,260;   -1,477;   -2,682
591,021;21715,095;    1,432;   -2,591
591,601;21998,277;    0,431;    0,500
592,181;22035,476;   -1,296;   -0,773
592,761;21397,217;    2,250;    1,409
593,341;21340,218;    1,522;    0,045
593,921;21306,992;   -0,569;    1,591
594,501;21226,334;    1,250;    1,318
595,081;21082,148;    0,522;   -0,318
595,661;21423,438;    1,068;    0,955
596,240;21863,210;   -1,023;    0,136
596,820;21469,817;    2,613;    1,955
597,400;21573,888;    1,977;    0,773
597,980;21846,311;   -0,750;    1,045
598,559;21880,952;    0,341;   -0,227
599,139;21638,188;   -0,750;   -1,227
599,718;21537,370;    0,795;   -0,409
600,298;21780,248;   -2,387;    0,682
600,877;21974,611;    4,795;    1,409
601,457;22185,855;    0,340;    1,136
602,036;22106,662;    1,795;    2,045
602,616;22262,242;    2,250;    1,682
603,195;22545,240;    0,431;    3,500
603,774;22148,362;   -0,296;    2,045
604,354;22024,206;    2,522;   -0,500
604,933;21628,250;    0,250;    1,864
605,512;21754,846;    2,340;    0,591
606,091;21785,728;    1,886;    3,773
606,671;22497,265;    0,249;    0,773
607,250;21713,677;    1,431;    3,136
607,829;21899,709;    1,158;    3,227
608,408;21796,474;    4,613;    2,591
608,987;20922,403;    2,704;    3,409
609,566;21151,053;    0,341;   -2,500
610,145;21293,113;    2,885;    0,682
610,723;21701,143;    1,613;    6,864
611,302;20998,321;    1,067;    1,682
611,881;20559,424;    5,158;   11,227
612,460;21297,792;    0,795;    3,955
613,039;21704,784;    1,703;    2,045
613,617;20554,375;    0,886;    4,773
614,196;20692,088;    1,613;    1,227
614,775;21021,348;    1,249;    2,409
615,353;20934,740;   -1,660;    0,864
615,932;20696,016;    0,249;    2,409
616,510;21281,733;    0,158;    0,591
617,089;20839,748;    8,794;   17,591
617,667;20642,450;    4,885;    6,136
618,246;20538,454;   -1,115;    1,318
618,824;20699,983;    1,612;   -0,955
619,402;20287,507;    0,431;   -1,773
619,981;20660,509;    1,067;   -1,045
620,559;20561,313;    0,794;    1,682
621,137;20204,890;    3,067;    1,864
621,715;20185,374;    3,703;   -0,682
622,293;20069,070;    1,885;   -0,773
622,871;20512,323;    0,340;    0,500
623,450;20139,446;    0,430;   -0,864
624,028;20069,903;   -0,388;   -0,955
624,606;19723,886;    2,339;    1,682
625,183;20065,341;   -0,661;   -1,136
625,761;19776,907;    1,885;    1,136
626,339;20064,211;    2,339;    2,591
626,917;20370,442;    0,339;   -0,045
627,495;20422,675;    2,794;    1,318
628,073;19875,197;    5,248;    2,864
628,650;19596,848;    3,067;    2,136
629,228;19990,918;    1,248;    4,409
629,806;19473,988;   -0,024;    1,136
630,383;19689,415;    0,066;   -0,318
630,961;19558,375;   -2,206;   -0,955
631,539;19280,161;   -2,479;    0,227
632,116;18708,738;   12,703;   15,409
632,694;19234,827;    4,885;    6,500
633,271;19469,073;    1,975;    2,682
633,848;19459,595;    1,430;    2,045
634,426;19472,352;    1,521;    1,773
635,003;18675,999;   -0,207;   -0,409
635,580;18912,357;    1,884;    3,682
636,158;19430,378;    3,793;    1,227
636,735;19435,551;    3,339;   -0,500
637,312;19527,011;    0,521;   -0,682
637,889;19594,253;    2,248;   -0,682
638,466;19167,756;    0,066;   -0,409
639,043;19174,757;    1,702;   -1,136
639,620;19428,664;    0,611;   -0,955
640,197;19715,704;    1,612;    1,682
640,774;19863,424;    1,430;    1,136
641,351;20188,144;    0,612;    1,136
641,928;19699,318;    2,794;    1,409
642,505;19362,037;    0,794;   -0,500
643,082;19497,121;    1,885;    1,227
643,658;18625,568;    1,157;    1,500
644,235;19282,560;   -2,479;    2,500
644,812;19476,734;    1,794;    0,773
645,388;19227,636;    1,612;    1,409
645,965;19317,265;    1,521;    1,682
646,542;19386,802;    3,430;   -0,227
647,118;19395,704;    3,703;   -0,955
647,695;19641,151;    0,339;    1,136
648,271;19613,325;   -2,115;    0,500
648,848;19825,681;    0,248;    2,227
649,424;19689,037;    0,976;    1,318
650,000;19405,211;   -0,388;   -1,045
650,577;19299,567;    0,158;   -0,955
651,153;19630,378;   -1,115;    0,955
651,729;20487,461;    0,521;    0,864
652,305;20574,181;    1,339;    2,773
652,881;23949,173;   -1,297;    1,136
653,458;29340,075;    0,249;    0,227
654,034;32283,794;    0,703;    1,591
654,610;33455,060;    0,339;    0,773
655,186;34671,961;    1,612;    3,045
655,762;34388,317;   -1,842;    0,409
656,338;34393,764;    0,703;    0,136
656,913;35328,575;   -0,297;    0,409
657,489;34681,476;    0,249;   -0,318
658,065;34662,923;    0,794;   -1,591
658,641;35238,279;    2,158;   -0,864
659,217;34646,544;    2,067;    0,409
659,792;34148,082;   -1,751;   -0,409
660,368;34479,165;   -0,388;   -0,682
660,944;34418,340;    1,794;    1,227
661,519;30797,514;    0,522;    0,409
662,095;25917,415;   -0,206;    0,591
662,670;22137,953;   -0,206;   -0,136
663,246;21279,127;   -0,660;   -0,409
663,821;20696,756;    0,431;    1,682
664,396;20206,385;    0,613;    1,864
664,972;20435,286;   -0,660;   -0,500
665,547;20771,097;    3,794;    0,136
666,122;20746,635;    1,340;    0,318
666,698;20960,991;    2,431;    0,318
667,273;20346,710;    0,885;    0,136
667,848;21067,794;    0,340;    1,500
668,423;20876,968;    1,795;    2,318
668,998;21302,869;    0,976;   -0,682
669,573;21775,225;    2,067;   -1,500
670,148;21612,491;    1,885;   -0,682
670,723;21382,210;   -0,024;    0,318
671,298;21760,930;   -1,296;    1,045
671,873;21830,377;   -0,296;   -0,136
672,448;21813,733;    1,704;    0,136
673,023;22135,271;    0,249;   -0,227
673,597;22427,172;    2,704;    2,318
674,172;22233,165;    2,431;    0,318
674,747;21733,157;   -0,205;   -1,045
675,321;21541,604;   -0,933;    3,318
675,896;21206,505;    2,158;    1,045
676,471;22051,407;    2,522;    1,591
677,045;21831,763;   -0,296;    0,682
677,620;21905,846;    2,158;    1,136
678,194;22214,202;    0,249;    1,136
678,769;21816,649;    0,886;   -0,318
679,343;22026,369;   -0,023;    1,773
679,917;21874,816;    0,340;    1,955
680,492;21874,354;    0,249;    3,227
681,066;22019,801;    0,613;    0,409
681,640;22037,975;    1,795;   -0,318
682,214;22794,422;    2,340;    0,500
682,788;22283,505;    0,613;   -0,773
683,363;22228,770;    1,977;    1,682
683,937;21969,944;    0,886;   -0,318
684,511;22669,028;   -1,023;   -0,591
685,085;22401,475;   -1,478;    0,318
685,659;22156,649;    1,431;    0,864
686,232;22373,459;    1,159;   -0,318
686,806;22117,088;    2,159;    0,409
687,380;22720,990;   -1,932;    0,591
687,954;22916,527;    2,432;    1,136
688,528;22609,702;    2,613;    1,955
689,101;23310,785;    0,432;    1,045
689,675;22888,050;    0,886;   -0,136
690,249;22283,861;    3,432;    0,409
690,822;22686,853;    1,159;    0,318
691,396;22804,027;    2,068;    1,227
691,969;22284,747;    2,523;    0,136
692,543;22719,921;   -0,568;   -1,955
693,116;22351,186;   -0,659;   -1,409
693,690;22254,633;   -0,296;    0,500
694,263;22770,353;    2,341;    2,955
694,836;22804,891;    2,795;    3,591
695,410;21564,519;    1,159;    1,773
695,983;21959,239;    1,614;    0,591
696,556;21979,686;   -0,750;   -1,045
697,129;22339,497;   -1,114;    1,409
697,703;21985,853;    1,341;    1,955
698,276;21999,118;    1,705;   -0,773
698,849;21797,656;   -1,023;    1,409
699,422;22148,466;    1,250;    0,591
699,995;21907,731;   -0,659;    0,136
700,568;22284,724;   -0,204;    3,045
701,140;22324,989;   -1,841;    1,682
701,713;22088,890;    0,341;    2,409
702,286;21876,610;    0,796;    0,864
702,859;21773,602;    0,614;   -0,591
703,432;21056,140;   -0,841;    0,682
704,004;21489,769;    1,978;    0,318
704,577;21353,125;    1,068;    0,136
705,150;21847,117;    0,887;    2,500
705,722;21656,110;    1,523;   -3,227
706,295;21484,557;    1,432;   -0,591
706,867;21346,095;    0,250;    1,955
707,440;21504,542;   -0,113;   -0,409
708,012;21766,170;   -0,022;    0,591
708,584;21687,435;    2,705;    0,227
709,157;21984,246;    1,160;   -0,591
709,729;21670,329;    1,069;    2,045
710,301;22426,322;   -1,204;    0,045
710,874;22431,678;    0,341;   -0,227
711,446;21337,216;   -0,295;    0,864
712,018;21259,935;   -3,022;    0,500
712,590;21054,746;   -0,204;    1,682
713,162;21530,920;   -0,477;    1,318
713,734;21769,094;    1,796;   -2,045
714,306;21640,087;    0,342;   -0,409
714,878;20457,715;   -0,295;    0,864
715,450;21266,708;   -0,113;    0,864
716,022;21502,155;    2,433;    1,318
716,593;21673,056;    0,978;    0,591
717,165;21596,049;    1,796;   -1,227
717,737;21369,314;    0,796;    0,409
718,309;21045,306;    1,160;   -0,045
718,880;20994,389;   -1,295;   -1,409
719,452;21212,836;    0,887;   -1,591
720,024;20885,556;    1,705;   -0,591
720,595;21398,639;    2,978;    0,955
721,167;21018,904;    1,160;   -2,045
721,738;20557,624;    2,069;   -1,045
722,309;20534,980;    1,251;   -1,227
722,881;20324,882;    2,705;    0,773
723,452;20891,783;    1,251;    2,864
724,023;21073,230;    1,524;    2,682
724,595;20889,677;    2,342;    0,682
725,166;20635,397;    1,524;   -0,409
725,737;20309,662;    1,887;    0,227
726,308;20455,018;    0,797;    0,318
726,879;20822,556;    1,069;    1,227
727,450;20651,184;   -2,022;   -0,045
728,021;20642,631;    1,069;    0,682
728,592;20476,260;    1,160;    0,500
729,163;20718,980;    1,433;   -0,136
729,734;20731,699;    2,160;   -0,227
730,305;21007,874;    0,615;    0,136
730,876;21305,230;    0,888;    2,955
731,447;21068,586;    0,797;    2,682
732,017;21188,124;   -0,840;    1,864
732,588;20757,025;   -0,021;    1,227
733,159;20862,654;    3,615;   -1,045
733,729;20683,555;    1,251;    0,409
734,300;20060,457;    0,160;    0,864
734,870;20484,176;   -1,385;    0,591
735,441;20998,805;    0,888;   -0,591
736,011;20764,343;    1,070;   -1,591
736,582;20684,517;    1,251;    0,045
737,152;20203,055;    0,979;   -2,045
737,722;20602,593;    1,070;   -0,682
738,293;20363,131;   -2,021;    1,318
738,863;20251,305;    1,797;    2,318
739,433;20136,843;    4,524;    0,318
740,003;20693,472;    1,524;   -0,682
740,573;20170,009;    2,252;   -1,591
741,143;20140,911;    3,615;    0,318
741,713;20825,085;    0,252;   -0,500
742,283;20578,350;    1,706;    1,591
742,853;20392,888;    0,524;    1,591
743,423;19934,244;    0,161;    0,045
743,993;19982,055;    1,070;    1,500
744,563;19408,411;    2,524;   -0,864
745,133;19386,949;   -0,112;   -0,864
745,702;20046,759;    2,797;    1,773
746,272;19327,115;    0,434;    0,591
746,842;19142,108;   -0,748;   -0,591
747,411;19531,554;   -0,839;   -0,318
747,981;19671,092;   -0,930;    0,500
748,551;19745,630;   -0,021;   -1,045
749,120;19573,259;   -0,112;   -0,227
749,690;19926,070;    2,161;    2,409
750,259;20238,971;    0,979;    2,955
750,828;20093,509;    4,070;   -1,955
751,398;20359,229;   -0,112;   -0,045
751,967;19889,312;    2,888;    0,409
752,536;20116,031;    1,161;   -0,227
753,105;20490,569;   -1,384;    0,227
753,675;20259,744;   -0,112;    1,773
754,244;20138,827;    0,888;    3,591
754,813;20178,728;    0,979;    1,227
755,382;19801,448;    0,798;    0,955
755,951;20269,168;   -0,112;    3,682
756,520;19918,342;    2,525;    1,864
757,089;20403,880;    1,888;    0,500
757,658;20521,418;    2,434;    1,227
758,227;20497,865;   -1,111;    0,318
758,795;20762,948;   -1,021;    1,136
759,364;21038,486;    0,525;   -0,591
759,933;20114,478;    1,343;   -0,045
760,501;19698,380;    0,252;   -1,318
761,070;20136,645;   -0,293;   -1,409
761,639;20781,637;    1,434;    1,318
762,207;20139,629;    0,889;   -0,955
762,776;20064,985;    2,889;    0,864
763,344;20062,069;    0,071;    0,591
763,913;19233,607;    1,616;    1,409
764,481;19901,690;    1,980;   -0,136
765,049;19786,137;    0,616;    1,409
765,618;19688,129;    1,434;    0,318
766,186;19753,303;    2,434;    0,136
766,754;19936,114;    1,798;    1,864
767,322;19024,197;    1,162;    0,409
767,890;19014,281;    0,525;   -1,773
768,459;19442,273;    2,616;   -0,318
769,027;19572,629;    2,525;    3,409
769,595;18686,712;    2,616;    2,591
770,163;19079,250;    3,344;    2,955
770,730;18868,061;    2,525;   -0,136
771,298;18729,690;    1,162;   -1,409
771,866;18832,773;    0,253;    4,955
772,434;19106,583;    1,162;   -1,864
773,002;19329,758;    2,616;    0,682
773,569;19004,295;    1,071;    1,682
774,137;18795,470;    0,889;   -0,045
774,705;19502,735;   -0,747;   -0,136
775,272;19085,909;    0,253;    0,682
775,840;18897,174;   -0,111;    2,682
776,407;18481,985;   -0,293;    1,955
776,975;18094,704;    1,162;    0,318
777,542;19020,060;    2,162;   -0,045
778,110;18923,326;    0,707;   -0,045
778,677;18589,409;    1,071;   -0,864
779,244;18406,947;   -1,020;    1,045
779,812;18469,212;    0,980;    0,864
780,379;18361,477;    2,435;    1,136
780,946;18598,742;    2,617;   -0,773
781,513;18873,098;   -0,565;    0,318
782,080;18278,272;    1,253;    2,864
782,647;18897,992;    1,708;    3,045
783,214;18539,530;   -0,201;    3,864
783,781;18198,886;    1,708;   -0,682
784,348;18119,969;    0,253;    1,500
784,915;18504,598;   -1,474;    0,318
785,482;18259,136;    2,708;    2,591
786,049;18740,492;    1,071;   -0,591
786,615;18816,121;    1,708;   -0,955
787,182;18575,386;   -3,201;   -0,682
787,749;18322,833;   -2,201;    1,409
788,315;17728,370;    0,253;   -0,409
788,882;18016,817;    0,981;   -1,227
789,448;18626,264;    1,435;   -0,955
790,015;18642,802;    1,799;    3,227
790,581;18234,795;    0,708;    0,227
791,148;18143,605;    1,344;    1,045
791,714;18363,143;   -1,019;    3,136
792,280;18106,408;    3,708;    1,591
792,847;17723,764;   -0,928;    2,500
793,413;18144,484;   -0,110;   -0,318
793,979;17776,113;    1,526;   -1,318
794,545;17851,378;    2,981;    2,682
795,111;17396,006;    2,435;    1,318
795,678;17521,817;    3,526;   -1,682
796,244;17220,900;    2,799;    0,136
796,810;17715,256;    0,799;    0,773
797,375;17440,431;   -0,292;   -2,136
797,941;17450,241;   -1,110;    0,591
798,507;17553,324;    0,254;   -0,955
799,073;17213,590;    2,708;    0,591
799,639;17303,127;    1,435;    3,136
800,205;17328,756;   -1,565;    2,682
800,770;16945,567;    1,345;    1,773
801,336;16965,741;    2,981;   -0,955
801,901;16731,915;    6,072;    3,136
802,467;17255,908;    0,526;    2,045
803,033;16660,082;   -0,019;    0,864
803,598;16830,801;    1,072;   -1,045
804,163;16879,430;    0,708;   -0,318
804,729;16848,695;   -0,110;    1,136
805,294;17148,506;    1,072;    2,227
805,859;17003,953;    0,890;   -0,409
806,425;16569,127;    3,890;    2,682
806,990;16251,392;    1,890;    4,318
807,555;16653,475;   -0,110;    2,591
808,120;16610,013;   -1,292;   -0,409
808,685;16655,006;    1,072;   -2,500
809,250;16217,362;    2,072;   -0,500
809,815;16489,990;   -0,201;    0,682
810,380;16952,437;    0,981;    1,591
810,945;17332,612;    2,890;    2,045
811,510;16711,149;   -0,200;    1,591
812,075;16407,960;    2,800;   -1,409
812,640;16444,680;    3,709;    1,409
813,204;16533,581;    2,163;   -0,227
813,769;16986,119;    0,254;   -0,045
814,334;16435,202;    0,527;    0,864
814,898;16520,467;    1,981;    0,591
815,463;16346,187;    0,981;   -0,773
816,027;16377,725;    1,345;   -2,318
816,592;16479,263;    2,163;   -2,045
817,156;16056,892;   -2,200;    1,136
817,721;15922,611;    0,982;    2,318
818,285;15916,331;    0,618;    1,500
818,849;16498,596;   -0,018;    1,682
819,414;16417,861;    0,073;    2,955
819,978;16010,217;   -0,291;    1,773
820,542;16513,482;    2,891;    0,500
821,106;16330,293;    2,800;    0,682
821,670;16378,013;    2,709;    2,591
822,234;16125,187;    1,073;    1,409
822,798;15617,634;   -0,836;    0,500
823,362;15634,172;    1,527;    4,227
823,926;15072,346;   -0,018;    1,136
824,490;15239,065;    3,527;   -0,682
825,054;15637,149;    2,527;   -1,136
825,618;15358,596;   -1,200;   -1,500
826,181;15300,861;    0,982;   -1,318
826,745;15197,308;   -0,745;   -1,045
827,309;15495,482;    2,255;    1,318
827,872;15007,292;    0,527;    0,955
828,436;15895,467;    1,982;   -0,773
828,999;15990,095;    2,436;    1,227
829,563;14986,906;   -0,654;    1,136
830,126;14814,808;   -0,018;   -0,591
830,690;14778,164;    0,709;    2,864
831,253;14352,610;   -0,473;    2,227
831,816;14458,694;   -0,018;    0,500
832,380;14438,504;    1,164;    0,864
832,943;14647,769;    3,073;   -0,500
833,506;14209,489;    0,255;   -1,227
834,069;14902,027;    2,164;   -0,955
834,632;14986,656;   -2,200;    1,318
835,195;14889,739;    1,346;    0,955
835,758;14188,186;    0,709;    1,955
836,321;14049,997;    1,073;   -1,045
836,884;14162,898;   -1,291;   -0,955
837,447;14202,890;    0,528;    1,773
838,010;14429,337;    1,800;    3,227
838,573;14673,784;    0,528;    0,773
839,135;14668,049;   -0,109;   -0,955
839,698;14188,587;    2,528;    0,409
840,261;13785,489;    0,255;   -0,227
840,823;13651,936;   -0,927;    0,864
841,386;13964,746;   -0,018;   -2,409
841,948;13880,557;    0,255;    1,773
842,511;13617,186;    0,255;    1,682
843,073;13766,087;    2,982;    0,227
843,636;13561,534;    0,619;   -0,227
844,198;13466,799;    1,255;    0,591
844,760;13619,519;    0,619;    1,955
845,322;13312,420;    0,164;    1,136
845,885;13670,867;   -0,290;    0,591
846,447;14055,860;    0,710;    0,227
847,009;13712,943;    3,983;   -0,682
847,571;13966,299;    1,346;   -2,045
848,133;14029,837;   -0,199;   -1,864
848,695;13857,466;    2,346;    1,409
849,257;13513,731;    1,346;   -1,682
849,819;13652,996;    2,983;   -0,409
850,381;13685,079;    1,801;   -0,864
850,942;13967,344;    1,892;   -0,591
851,504;13875,791;    0,983;    0,227
852,066;13935,874;    1,619;   -1,591
852,628;13602,049;    0,165;    1,955
853,189;13173,768;    0,256;    2,682
853,751;13314,943;   -0,654;    1,409
854,312;13115,208;    1,256;   -1,682
854,874;13543,473;   -0,108;   -0,773
855,435;13988,738;    0,528;   -1,682
855,997;14140,185;    3,983;   -0,136
856,558;13488,450;    0,801;    1,773
857,119;13600,351;   -0,744;    2,864
857,681;13316,071;   -0,108;    0,318
858,242;13355,609;    1,347;   -2,136
858,803;13773,238;    1,074;   -0,773
859,364;14294,685;    0,892;   -4,773
859,925;13711,223;   -0,290;   -0,955
860,486;13638,488;    0,529;   -0,955
861,047;13377,026;    0,165;   -1,227
861,608;13235,200;    0,165;   -0,773
862,169;13375,010;   -0,562;   -0,045
862,730;13126,275;   -0,290;    1,409
863,291;13353,086;    0,438;   -0,500
863,852;13635,987;   -0,926;    1,955
864,412;13183,889;   -1,835;   -0,864
864,973;11949,336;    1,892;    0,500
865,534;11853,783;    2,074;    0,227
866,094;13131,139;    2,620;    0,227
866,655;12841,677;    4,711;    3,318
867,215;13138,305;    0,074;    0,136
867,776;13019,389;   -1,199;   -0,136
868,336;13122,018;    1,529;    0,136
868,897;12677,101;    3,438;    1,682
869,457;12475,366;    3,256;    0,318
870,017;12681,086;    2,438;   -1,227
870,578;13139,260;    1,893;    0,773
871,138;12747,343;    2,620;   -0,955
871,698;12378,972;   -0,562;   -1,318
872,258;12255,237;    0,711;   -2,864
872,818;12619,866;    2,347;    0,045
873,378;12612,313;   -2,198;    1,045
873,938;12231,941;    4,984;    0,500
874,498;12507,843;    1,256;   -1,955
875,058;12401,290;    4,347;    1,773
875,618;12255,646;    1,438;   -2,682
876,177;12185,729;   -0,471;    0,136
876,737;11868,540;   -0,289;    1,955
877,297;11942,805;    2,711;    1,955
877,856;11943,888;    2,529;    0,318
878,416;11884,517;    2,438;   -0,136
878,976;12074,691;    3,438;    0,409
879,535;12278,684;    4,529;    3,136
880,095;12031,040;    1,347;    0,045
880,654;12118,487;    0,347;    1,318
881,213;12222,024;    2,347;    1,500
881,773;11914,380;    1,984;    2,682
882,332;12235,191;    6,075;    5,136
882,891;12103,729;    0,711;    2,136
883,451;12462,176;   -2,016;    1,682
884,010;11970,532;   -1,107;   -0,409
884,569;12073,433;   -2,289;   -0,045
885,128;12157,880;   -0,743;   -1,864
885,687;12260,418;   -0,743;    0,682
886,246;12027,410;    2,620;    2,136
886,805;11766,039;    1,620;    2,045
887,364;11993,577;    1,166;   -0,500
887,922;12336,297;   -0,016;    0,045
888,481;11882,471;    1,530;    0,591
889,040;12126,191;    3,711;    2,136
889,599;12693,001;    2,166;    1,409
890,157;12782,084;    2,166;    2,409
890,716;12400,259;    2,166;    0,227
891,274;12212,160;    0,075;   -1,136
891,833;12585,880;    1,166;    0,864
892,391;12446,054;    1,802;    0,500
892,950;12518,137;    0,166;   -0,773
893,508;12881,402;    0,984;   -0,409
894,067;12286,759;   -0,379;    0,136
894,625;12216,024;   -1,016;   -1,500
895,183;12410,107;   -0,198;   -0,682
895,741;12332,827;    2,257;   -1,773
896,299;12202,728;    1,621;   -2,409
896,858;12339,448;    1,530;   -1,591
897,416;12473,349;    0,166;   -1,318
897,974;12255,796;   -2,197;    0,318
898,532;12409,243;    6,530;    2,682
899,089;12346,963;    0,621;   -0,682
899,647;12367,046;    0,530;    1,318
900,205;12211,584;    0,257;    1,045
900,763;12392,213;    2,166;    0,227
901,321;12387,751;    3,530;   -1,409
901,878;11892,743;    3,257;   -0,773
902,436;11784,281;    0,257;    1,318
902,994;12183,000;    6,712;    3,682
903,551;11670,084;    1,439;    0,409
904,109;12050,712;    1,530;   -1,409
904,666;11721,432;    1,439;    1,045
905,224;11571,243;    3,894;   -0,409
905,781;11329,235;   -0,470;   -0,318
906,338;11390,046;    0,167;    1,045
906,895;11353,947;    1,894;    2,045
907,453;11296,030;    2,348;    1,136
908,010;11319,750;    3,348;    0,409
908,567;11015,924;   -0,561;    0,591
909,124;10593,008;    2,439;   -1,500
909,681;10687,818;   -1,288;    0,682
910,238;10853,720;   -0,106;   -1,318
910,795;11187,530;   -1,561;   -1,136
911,352;10821,258;   -0,379;   -2,682
911,909;10332,985;    2,803;   -0,864
912,466;10793,439;    1,985;    1,500
913,022;10377,258;   -0,924;    0,500
913,579;10701,621;   -0,470;    2,045
914,136;10464,439;   -2,561;    0,955
914,692;10776,803;    1,530;   -1,227
915,249;10383,712;    0,530;    0,409
915,806;10589,076;    1,803;    1,955
916,362;10418,712;    0,894;    1,864
916,918;10033,803;    2,439;    1,045
917,475;10061,985;    1,621;    0,955
918,031;10135,167;    0,076;   -0,045
918,587; 9701,348;    0,621;   -0,318
919,144; 9928,439;   -0,379;    0,227
919,700;10171,985;    0,167;    0,773
920,256; 9827,712;    0,439;    0,045
920,812; 9495,439;    1,439;   -1,045
921,368; 9530,803;    1,348;   -1,045
921,924; 9255,076;    0,439;   -0,136
922,480; 8880,076;    0,076;    1,227
923,036; 9392,894;   -0,652;    1,955
923,592; 9372,258;    0,621;    0,318
924,148; 9320,985;    1,894;   -0,955
924,704; 8754,167;    0,258;   -0,409
925,259; 9047,439;   -0,561;    0,591
925,815; 8826,167;    3,803;    0,500
926,371; 8433,894;    3,530;    1,409
926,926; 8386,439;    1,621;    0,591
927,482; 8069,167;    1,621;    0,773
928,037; 8019,894;   -0,833;    2,045
928,593; 8288,348;    0,258;    1,045
929,148; 8150,803;    1,167;   -1,500
929,704; 7729,985;    2,439;   -0,500
930,259; 7941,348;    0,894;   -0,136
930,814; 7192,894;    1,803;    1,955
931,369; 6936,348;    0,258;   -0,773
931,925; 6869,258;   -1,924;    0,136
932,480; 6806,439;    3,076;   -2,591
933,035; 6769,076;    3,985;   -0,318
933,590; 6598,167;   -1,742;   -1,773
934,145; 6330,621;   -1,288;   -0,318
934,700; 6661,803;    0,348;   -0,591
935,255; 6466,167;    4,803;    0,045
935,809; 5962,621;    6,258;    0,864
936,364; 5261,348;    2,167;   -0,136
936,919; 5306,076;    2,348;   -1,773
937,474; 5239,894;    1,348;    0,136
938,028; 5049,167;    3,076;    1,136
938,583; 4693,621;    6,348;    4,682
939,138; 4902,985;    0,167;    2,136
939,692; 4461,894;   -1,015;   -1,136
940,247; 4241,712;    1,167;   -1,045
940,801; 3951,621;    0,621;    0,227
941,355; 3880,712;    0,439;    2,591
941,910; 3613,258;    0,712;   -2,136
942,464; 3721,712;    2,712;   -0,318
943,018; 3640,530;    3,258;   -0,227
943,572; 3565,439;    2,803;   -0,682
944,126; 3144,985;   -0,924;   -0,409
944,681; 3018,803;    0,712;    0,227
945,235; 3013,803;    2,167;   -0,591
945,789; 2964,076;    1,258;   -1,864
946,342; 3148,621;   -0,561;   -0,591
946,896; 2910,439;    0,348;    0,955
947,450; 2686,530;   -0,561;   -0,227
948,004; 2942,258;    1,076;   -0,045
948,558; 2891,530;    1,258;   -0,864
949,111; 2828,985;   -1,197;   -0,318
949,665; 2942,530;   -0,106;   -0,682
950,219; 2844,621;    0,621;   -1,045
950,772; 2847,530;    0,258;    1,864
951,326; 2780,712;   -1,106;   -0,955
951,879; 2805,803;    1,076;   -2,318
952,433; 2882,348;    1,348;    2,227
952,986; 2724,258;    0,348;    0,682
953,539; 2672,258;    1,530;    0,591
954,093; 2618,894;    0,985;   -1,318
954,646; 2771,258;   -0,288;    1,318
955,199; 2595,894;    1,258;   -0,500
955,752; 2562,894;    1,985;    1,773
956,305; 2500,894;    0,894;    2,955
956,858; 2632,803;    0,621;   -0,318
957,411; 2783,258;    3,621;    2,136
957,964; 2622,803;    2,076;    2,136
958,517; 2594,258;    0,985;    3,136
959,070; 2475,348;   -1,197;    1,955
959,623; 2625,894;    1,076;    1,500
960,176; 2430,348;    0,712;    2,045
960,728; 2405,348;    1,712;    0,773
961,281; 2459,076;    2,258;    0,500
961,834; 2458,530;   -0,833;    0,864
962,386; 2387,530;    1,258;    1,045
962,939; 2320,712;    3,439;   -0,318
963,491; 2434,530;    2,621;    1,136
964,043; 2330,439;    0,076;    2,409
964,596; 2449,530;    1,712;    2,227
965,148; 2304,803;   -0,379;    1,773
965,700; 2245,167;   -0,015;   -0,227
966,253; 2380,712;   -0,833;    0,318
966,805; 2263,621;    1,894;    0,773
967,357; 2286,076;    0,439;   -1,500
967,909; 2288,621;    1,167;   -1,227
968,461; 2331,985;    0,894;    3,136
969,013; 2253,712;   -1,561;   -0,864
969,565; 2347,530;    1,803;   -1,136
970,117; 2539,167;    3,803;    1,045
970,669; 2303,621;    3,258;   -0,136
971,220; 2133,258;    2,167;   -1,500
971,772; 2102,894;    1,348;   -0,318
972,324; 2221,258;   -1,197;   -0,500
972,876; 2141,803;    0,167;   -0,045
973,427; 2300,167;   -1,197;   -1,045
973,979; 2302,803;    0,076;   -2,500
974,530; 2252,167;    0,803;    1,318
975,082; 2252,439;    2,167;    1,682
975,633; 2192,621;    2,894;    1,682
976,184; 2337,712;    2,076;    0,773
976,736; 2188,621;    0,348;    0,227
977,287; 2021,712;    0,258;   -0,500
977,838; 2157,167;   -0,924;   -0,318
978,389; 2200,258;    0,803;   -0,500
978,940; 2047,712;    1,258;   -0,409
979,491; 2089,530;    2,258;   -0,500
980,042; 2100,258;   -0,652;    3,045
980,593; 2101,348;    1,894;    0,227
981,144; 2201,894;    3,530;   -0,500
981,695; 2204,803;   -0,470;    1,500
982,246; 2130,530;   -1,833;    1,045
982,797; 2201,803;   -0,561;    0,682
983,347; 2319,076;    2,167;    0,591
983,898; 2503,985;    4,167;    0,409
984,449; 2374,439;    2,530;    0,773
984,999; 2211,258;    1,894;   -1,136
985,550; 2070,803;    3,167;   -0,318
986,100; 2041,621;    0,712;   -0,318
986,651; 2066,621;    0,258;    0,045
987,201; 2079,985;    0,894;   -0,591
987,751; 2148,621;   -0,288;    2,864
988,302; 2137,258;   -0,379;    1,500
988,852; 2150,258;    1,985;   -1,136
989,402; 2228,530;    0,985;    0,682
989,952; 2179,712;    1,621;    0,864
990,502; 2196,530;    1,076;    0,682
991,052; 2141,076;   -0,106;    0,045
991,602; 2041,621;    1,167;    1,318
992,152; 2065,894;    2,803;    0,682
992,702; 2061,439;    1,167;   -0,045
993,252; 1982,985;    0,076;   -0,500
993,802; 2090,712;    1,167;    1,318
994,352; 2243,167;   -0,742;    1,136
994,901; 2294,439;    1,076;    3,227
995,451; 2218,076;   -1,197;    0,318
996,000; 2287,167;    1,076;    0,318
996,550; 2078,712;    2,894;    0,227
997,100; 2086,076;   -0,561;   -0,045
997,649; 2336,985;   -0,197;    0,955
998,198; 2054,076;   -0,288;   -1,500
998,748; 2234,439;    0,348;   -2,318
999,297; 2123,894;    0,985;   -0,409
999,846; 2226,258;    1,894;   -0,773
1000,395; 2209,076;    1,530;    0,500
1000,945; 2231,167;    1,076;   -0,773
1001,494; 2300,621;    0,167;    0,682
1002,043; 2263,167;    0,712;    0,864
1002,592; 2085,621;    3,439;    1,955
1003,141; 2221,530;    2,439;   -0,682
1003,690; 2149,167;    1,258;    0,500
1004,238; 2122,439;   -0,106;   -0,045
1004,787; 1852,530;   -1,288;    1,227
1005,336; 2115,985;    1,621;    0,682
1005,885; 2182,985;   -0,197;   -2,773
1006,433; 2263,985;   -0,470;    0,955
1006,982; 2418,439;    2,167;    1,682
1007,531; 2276,167;    2,712;   -0,227
1008,079; 2194,348;    0,258;    0,500
1008,627; 2276,167;    1,621;    0,409
1009,176; 2105,530;    0,076;   -1,955
1009,724; 2128,985;   -2,742;    0,864
1010,273; 2247,439;    1,076;    0,500
1010,821; 2274,985;    1,076;    1,409
1011,369; 2057,803;    0,076;    1,318
1011,917; 2049,439;   -0,833;   -0,591
1012,465; 2296,621;    2,530;   -1,591
1013,013; 2337,621;    0,439;   -1,682
1013,561; 2303,258;   -1,288;   -0,773
1014,109; 2393,348;   -0,833;    1,682
1014,657; 2262,258;    1,348;    0,591
1015,205; 2307,621;    0,894;   -0,955
1015,753; 2308,348;    0,258;   -1,409
1016,301; 2355,530;    2,621;    3,045
1016,848; 2365,258;    2,167;    0,409
1017,396; 2409,621;    1,621;    0,045
1017,944; 2501,530;    2,621;    1,864
1018,491; 2276,712;   -0,197;    1,409
1019,039; 2538,439;   -0,652;    0,591
1019,586; 2363,803;    0,076;    1,682
1020,134; 2416,348;    0,712;    1,500
1020,681; 2455,803;    2,894;   -1,136
1021,228; 2420,439;   -0,561;   -2,227
1021,776; 2304,258;   -0,833;   -1,136
1022,323; 2543,803;    0,803;    0,773
1022,870; 2462,530;   -0,470;   -0,045
1023,417; 2416,985;    2,076;    1,864
1023,964; 2456,621;    0,621;    1,227
1024,511; 2361,439;   -0,652;    0,773
1025,058; 2195,894;    0,439;   -0,045
1025,605; 2222,076;   -1,742;    3,136
1026,152; 2485,439;   -0,106;   -0,591
1026,699; 2200,985;    0,167;    1,318
1027,245; 2329,894;    2,439;    0,318
1027,792; 2465,348;    0,712;    1,409
1028,339; 2465,076;    4,076;   -0,045
1028,885; 2296,985;    3,621;   -0,227
1029,432; 2235,258;   -0,106;    0,227
1029,978; 2328,439;    1,348;   -1,591
1030,525; 2250,894;    1,621;    0,409
1031,071; 2386,258;    0,348;    1,136
1031,618; 2579,258;    1,258;    1,682
1032,164; 2343,258;    2,076;    3,045
1032,710; 2394,894;    0,076;   -1,500
1033,256; 2310,985;    0,712;   -0,136
1033,803; 2244,348;   -0,288;    1,500
1034,349; 2032,985;    1,803;    0,136
1034,895; 2162,076;    2,621;   -0,318
1035,441; 2144,894;    0,439;    0,318
1035,987; 2187,348;   -2,288;   -0,682
1036,533; 2239,894;   -0,197;   -0,955
1037,078; 2433,712;    4,712;    1,682
1037,624; 2250,803;    2,439;   -0,955
1038,170; 2205,894;    1,712;   -0,318
1038,716; 2180,258;    2,167;   -0,409
1039,261; 2067,894;    2,167;   -0,773
1039,807; 2029,985;   -0,015;    3,409
1040,352; 2110,894;   -1,288;   -0,318
1040,898; 2142,530;    0,167;   -0,682
1041,443; 2041,712;    0,803;   -2,591
1041,989; 2184,803;    3,621;    1,591
1042,534; 2004,439;    0,985;    2,591
1043,079; 2032,258;    1,985;    0,955
1043,625; 1915,803;    0,258;    0,500
1044,170; 1983,894;    2,439;    1,045
1044,715; 2228,348;    0,167;    0,955
1045,260; 2065,803;   -0,833;   -0,955
1045,805; 2056,076;    0,258;   -0,591
1046,350; 1975,258;    0,530;   -0,409
1046,895; 2046,803;    0,803;    1,591
1047,440; 2024,530;    1,530;    0,409
1047,985; 1893,621;   -1,197;   -0,955
1048,530; 1820,621;    1,348;    1,227
1049,074; 1887,621;    2,803;    0,318
1049,619; 1839,530;   -0,924;    1,955
1050,164; 1699,439;    1,076;    0,227
1050,708; 1756,985;    2,621;    0,045
1051,253; 2134,712;    3,258;   -2,227
1051,797; 1841,621;   -0,197;   -1,318
1052,342; 1781,894;    1,348;    1,045
1052,886; 1812,621;    1,803;   -1,409
1053,430; 1679,894;    2,167;    0,136
1053,975; 1716,439;    0,894;   -0,318
1054,519; 1722,439;    1,803;    3,227
1055,063; 1772,076;    3,621;    1,318
1055,607; 1695,258;    1,348;    0,227
1056,151; 1700,985;    0,530;    1,682
1056,695; 1581,894;   -1,833;   -1,136
1057,239; 1652,439;   -1,197;   -0,682
1057,783; 1678,894;    2,258;   -1,500
1058,327; 1684,348;    3,076;    1,409
1058,871; 1912,894;    3,985;    1,318
1059,415; 1629,258;   -0,561;   -0,045
1059,958; 1906,985;    2,985;    2,591
1060,502; 1618,348;    1,348;   -0,773
1061,046; 1482,894;    1,712;   -0,955
1061,589; 1469,621;    2,803;   -1,136
1062,133; 1384,348;    0,985;    1,864
1062,676; 1349,076;    1,439;    0,864
1063,220; 1374,348;    0,985;    0,500
1063,763; 1411,167;    2,985;    1,136
1064,306; 1473,258;    0,985;    1,864
1064,849; 1388,530;    2,076;    0,591
1065,393; 1387,803;    2,894;   -1,500
1065,936; 1471,439;    2,530;   -0,409
1066,479; 1335,258;    2,621;    1,318
1067,022; 1372,530;    1,894;   -0,227
1067,565; 1296,803;   -1,197;   -1,318
1068,108; 1297,894;    1,258;   -0,591
1068,651; 1280,985;   -2,470;    1,409
1069,194; 1220,258;   -1,106;   -1,682
1069,736; 1240,348;    3,803;    0,955
1070,279; 1206,348;   -1,652;   -0,500
1070,822; 1289,076;    1,530;   -0,318
1071,364; 1418,076;    0,530;    1,318
1071,907; 1208,348;    0,348;    3,227
1072,450; 1071,439;    0,258;   -0,045
1072,992; 1112,530;   -0,561;    3,136
1073,535; 1278,076;    0,167;    2,136
1074,077; 1072,258;    2,985;    2,045
1074,619; 1053,530;    0,985;    0,591
1075,161; 1091,439;   -0,561;    1,500
1075,704; 1265,894;    0,258;    1,227
1076,246; 1049,530;    1,530;    0,682
1076,788;  968,803;   -1,015;    1,773
1077,330; 1020,167;   -2,106;    2,136
1077,872; 1023,530;   -1,924;    0,955
1078,414; 1279,258;    3,712;    0,773
1078,956; 1018,803;    0,167;   -0,227
1079,498; 1277,348;    0,439;    0,318
1080,040; 1005,985;    0,985;   -1,318
1080,581;  930,621;    0,621;   -0,318
1081,123;  858,167;   -0,106;   -0,773
1081,665;  888,348;    3,803;   -0,955
1082,206; 1195,985;    3,258;   -0,500
1082,748; 1059,258;    3,258;    2,045
1083,289;  930,712;    0,167;    1,318
1083,831;  867,530;    0,258;    0,227
1084,372;  915,076;    0,894;    0,591
1084,913;  915,803;    3,348;    0,864
1085,455;  866,985;    1,530;   -2,045
1085,996;  853,985;    0,530;    0,136
1086,537;  891,167;    0,985;    0,864
1087,078;  901,530;    0,439;   -2,136
1087,619;  953,530;   -1,652;    0,227
1088,160;  879,621;    1,439;    1,318
1088,701;  859,258;   -0,742;    0,682
1089,242;  818,076;   -0,561;   -2,227
1089,783;  904,167;   -0,561;    1,409
1090,324;  874,258;   -0,833;    0,682
1090,865;  763,076;   -1,924;   -0,409
1091,405;  718,439;   -0,561;    2,227
1091,946;  762,439;   -0,197;   -0,955
1092,487;  684,803;   -1,288;   -1,409
1093,027;  858,712;    1,803;   -1,500
1093,568;  733,530;    2,258;    1,227
1094,108;  812,803;    0,621;    1,773
1094,649;  751,076;   -0,470;    0,136
1095,189;  699,894;    1,167;   -0,682
1095,729;  669,712;    0,712;    0,955
1096,269;  656,712;    1,258;   -0,955
1096,810;  963,076;   -0,197;    0,500
1097,350;  810,803;   -0,561;   -0,773
1097,890;  708,621;    2,985;    1,227
1098,430;  943,076;    4,985;    2,864
1098,970;  837,076;    1,894;    1,682
1099,510;  688,258;   -0,833;   -2,318
1100,050;  631,712;    0,258;   -1,591
1100,589;  613,712;    0,076;   -0,318
1101,129;  733,439;    0,894;   -0,955
1101,669;  882,803;    2,803;    2,136
1102,209;  714,712;    1,530;    2,227
1102,748;  669,167;    3,439;    0,955
1103,288;  656,167;    0,712;   -1,227
1103,827;  672,348;    3,530;   -2,227
1104,367;  563,530;    1,712;   -2,409
1104,906;  534,530;   -1,015;   -1,136
1105,445;  614,348;    0,985;   -1,136
1105,985;  563,258;   -0,652;    1,500
1106,524;  601,348;    1,530;   -0,682
1107,063;  582,530;    1,167;    1,409
1107,602;  547,258;    1,894;   -1,500
1108,141;  493,621;    1,621;    1,500
1108,680;  600,985;    3,985;   -0,591
1109,219;  530,439;    0,167;   -0,500
1109,758;  535,348;    4,167;    0,682
1110,297;  510,439;   -1,106;   -0,682
1110,836;  461,258;    1,439;    0,955
1111,375;  611,803;    0,348;    0,409
1111,913;  628,348;    0,985;    0,773
1112,452;  557,167;    0,894;    0,136
1112,991;  444,348;    1,076;    1,955
1113,529;  418,621;    0,167;   -0,045
1114,068;  481,348;    0,439;    2,955
1114,606;  404,712;   -0,561;   -0,955
1115,144;  556,076;    1,530;    1,045
1115,683;  496,712;    1,985;    0,318
1116,221;  541,258;    2,076;   -0,864
1116,759;  444,712;    1,621;   -0,864
1117,297;  635,530;    1,621;    1,864
1117,836;  459,348;    1,985;   -1,227
1118,374;  466,530;    0,258;   -0,682
1118,912;  420,348;    0,439;    2,682
1119,450;  408,621;    0,985;    0,864
1119,988;  447,894;    3,348;    2,136
1120,525;  885,076;    7,258;    3,318
1121,063;  606,621;    0,530;    1,864
1121,601;  429,439;    1,076;   -1,227
1122,139;  388,076;    1,076;   -2,045
1122,676;  572,258;   -1,652;    2,773
1123,214;  501,894;    0,712;    4,409
1123,751;  344,985;    0,621;    2,227
1124,289;  455,167;    0,894;   -0,409
1124,826;  342,530;   -0,379;    0,227
1125,364;  274,167;    0,712;   -0,955
1125,901;  445,167;    6,258;    1,227
1126,438;  540,894;    3,530;    0,955
1126,975;  290,894;    2,985;   -0,773
1127,513;  358,894;    2,621;    2,136
1128,050;  268,985;   -0,561;   -0,682
1128,587;  356,712;    1,348;   -0,227
1129,124;  397,621;   -0,015;    1,318
1129,661;  282,530;   -1,924;    0,227
1130,198;  433,712;    2,439;    0,773
1130,734;  384,167;   -0,379;    1,409
1131,271;  257,258;   -1,197;    0,864
1131,808;  409,439;    1,621;    3,045
1132,345;  293,348;    4,530;    0,318
1132,881;  190,803;   -0,561;   -1,864
1133,418;  319,348;    0,348;   -1,136
1133,954;  243,439;    0,712;   -2,682
1134,491;  324,439;    1,712;   -0,773
1135,027;  231,803;    2,167;    0,864
1135,564;  309,258;    1,439;    2,955
1136,100;  306,167;   -0,742;    2,136
1136,636;  209,439;   -1,015;   -1,045
1137,172;  285,712;    0,894;   -1,045
1137,708;  216,803;   -1,561;   -1,045
1138,245;  220,894;    0,803;   -1,227
1138,781;  179,894;    1,803;   -3,318
1139,317;  235,985;    1,894;   -1,409
1139,852;  239,167;    3,076;    0,136
1140,388;  336,258;    2,076;   -0,409
1140,924;  226,712;    1,076;   -2,227
1141,460;  177,076;   -0,288;    0,136
1141,996;  125,258;   -0,652;    2,682
1142,531;  167,076;    1,076;    3,318
1143,067;  350,530;    1,167;    1,045
1143,602;  406,348;    3,439;   -0,318
1144,138;  265,167;    0,803;    1,045
1144,673;  150,439;    1,621;    1,409
1145,209;  206,530;    2,894;   -0,318
1145,744;  142,076;    0,803;    0,864
1146,279;  263,894;    1,530;   -0,136
1146,815;  182,076;    1,530;   -2,682
1147,350;  226,530;   -0,924;    0,045
1147,885;  148,258;   -1,924;   -1,318
1148,420;  140,894;    2,439;    0,773
1148,955;  123,076;   -1,470;    1,864
1149,490;  146,712;   -1,106;   -1,591
1150,025;  127,894;   -1,106;   -1,773
1150,560;  231,621;   -0,288;   -0,955
1151,094;  206,348;    0,258;   -0,591
1151,629;  214,167;   -3,742;    0,864
1152,164;  154,076;   -1,288;    1,318
1152,698;  108,348;    1,258;   -0,136
1153,233;   76,985;   -1,379;   -0,682
1153,767;  117,439;   -0,288;   -2,318
1154,302;  152,894;   -0,379;    1,773
1154,836;  158,258;    0,803;   -2,136
1155,371;  210,621;    2,258;    3,682
1155,905;  161,894;    1,985;    1,682
1156,439;  138,348;    0,530;   -0,500
1156,973;  165,621;    0,439;    0,318
1157,507;  105,985;   -1,742;    0,682
1158,042;  132,530;   -0,652;    1,045
1158,576;  173,439;   -0,561;    1,773
1159,110;  167,621;    0,076;    2,409
1159,643;  140,712;   -2,470;   -0,045
1160,177;   88,985;   -2,015;    1,500

