
Integration time [ms]:   0,050
Averaging Nr. [scans]: 11
Smoothing Nr. [pixels]: 0
Data measured with spectrometer [name]: 7318044SP
Wave   ;Sample   ;Dark     ;Reference
[nm]   ;[counts] ;[counts] ;[counts] 

186,757;   -3,600;   38,161;    1,318
187,357;   32,843;   26,706;    0,955
187,958;   12,661;   17,252;   -1,591
188,558;   59,020;   12,979;   -1,227
189,159;   35,686;   10,070;   -4,500
189,759;    1,190;    5,797;   -3,591
190,360;   -0,569;    6,797;   -2,136
190,960;   44,962;    5,706;   -4,136
191,560;   53,080;    2,614;   -6,591
192,161;  279,579;    5,885;   -3,500
192,761;  126,145;    5,520;   -3,227
193,361;   80,109;    3,065;   -3,773
193,962;  137,704;    1,612;   -2,682
194,562;   67,527;   -0,114;   -3,955
195,162;   93,141;   -0,567;   -2,227
195,762;  254,761;    2,433;   -0,045
196,362;  199,590;    1,706;   -2,500
196,963;   79,220;    1,706;   -0,864
197,563;  152,755;    1,252;   -0,955
198,163;  107,901;   -0,111;   -0,682
198,763;  119,155;   -0,020;   -0,500
199,363;  223,056;    3,616;   -0,500
199,963;  193,871;    2,162;    0,409
200,563;  164,650;    6,344;   -1,409
201,163;  149,090;    5,435;   -0,227
201,763;  245,866;    1,435;    0,318
202,363;  182,000;    0,980;    1,500
202,963;  287,928;    1,526;    1,045
203,563;  396,596;    0,344;    0,500
204,162;  240,447;    1,889;   -1,864
204,762;  230,355;    2,071;    0,591
205,362;  213,997;    0,708;    1,955
205,962;  313,900;    3,435;    1,955
206,562;  317,227;    1,889;    2,318
207,161;  281,959;    1,708;    0,318
207,761;  427,623;    4,435;    2,409
208,361;  312,373;    1,889;    1,409
208,960;  406,524;    2,889;    1,500
209,560;  482,016;    0,435;    1,591
210,160;  467,717;    5,071;    1,864
210,759;  447,484;    0,708;    1,227
211,359;  447,870;   -0,474;    1,045
211,958;  713,196;    3,526;    2,045
212,558;  790,055;    0,799;    1,864
213,157;  635,982;   -0,929;    1,500
213,757; 1090,193;    5,617;   -0,227
214,356;  789,273;    1,708;   -0,409
214,956; 1128,905;    3,526;    0,409
215,555;  751,417;    0,617;    2,136
216,154;  687,086;   -0,292;   -0,591
216,754;  721,069;    1,253;    0,773
217,353;  871,769;   -0,383;   -1,045
217,952;  725,742;    2,072;    0,318
218,552;  952,932;    0,254;   -0,773
219,151;  873,521;   -1,110;    0,955
219,750;  880,201;    0,890;   -0,227
220,349; 1039,669;   -2,292;    1,045
220,948; 1073,786;    1,163;    1,136
221,548; 1139,336;    0,617;    1,227
222,147; 1266,055;   -1,292;   -0,409
222,746; 1558,852;    1,254;   -0,955
223,345; 1434,985;   -1,019;    0,500
223,944; 1468,337;    1,163;    0,773
224,543; 1672,046;    4,072;   -1,409
225,142; 1786,393;    1,345;    0,136
225,741; 1716,181;    1,163;    1,045
226,340; 1740,166;    1,254;   -0,955
226,939; 2220,129;    2,708;   -0,136
227,538; 2264,280;    1,163;   -0,773
228,137; 2415,210;    0,435;    0,864
228,735; 2617,384;    0,435;    1,227
229,334; 2342,912;   -0,474;   -0,227
229,933; 2734,450;    0,799;    0,591
230,532; 2896,531;   -1,201;   -0,409
231,131; 2940,133;    1,253;    0,318
231,729; 3122,862;    1,163;   -2,318
232,328; 3328,168;    0,435;   -1,500
232,927; 3479,140;    4,526;   -0,500
233,525; 3637,163;    0,981;    0,045
234,124; 3875,498;    1,890;   -1,591
234,723; 3929,747;    1,617;   -1,045
235,321; 4115,485;    1,163;    0,136
235,920; 4422,871;    2,526;   -1,227
236,518; 4729,790;    1,072;    0,318
237,117; 4987,039;    2,890;   -0,227
237,715; 5166,433;    1,163;   -0,500
238,314; 5218,010;    1,708;   -2,318
238,912; 5334,407;    0,526;   -1,409
239,510; 5423,374;    1,162;   -1,227
240,109; 5606,924;   -0,474;    3,773
240,707; 5689,842;   -0,474;    1,227
241,305; 6195,661;   -0,383;    0,136
241,904; 6430,752;   -0,292;   -2,045
242,502; 6368,141;    3,253;   -0,227
243,100; 6353,507;    3,344;   -0,955
243,698; 6621,537;    2,799;    1,682
244,297; 6825,466;   -0,656;    0,682
244,895; 6669,013;   -0,474;   -2,318
245,493; 7060,064;    2,981;   -0,591
246,091; 7150,634;    5,163;   -1,318
246,689; 7127,534;    2,163;    0,591
247,287; 7341,584;   -0,019;   -1,136
247,885; 7704,752;   -1,019;    1,227
248,483; 7823,179;   -0,201;   -0,500
249,081; 7968,606;    0,981;    1,591
249,679; 8179,696;   -1,019;    1,682
250,277; 8480,966;   -2,292;    0,864
250,875; 8430,970;    0,617;   -1,045
251,473; 8509,808;   -0,019;    0,500
252,071; 8717,724;   -0,383;    1,045
252,669; 8926,428;   -1,565;    0,318
253,267; 9237,805;    1,618;    0,773
253,864; 9229,766;    0,617;    0,682
254,462; 9005,272;    1,526;    1,591
255,060; 9036,321;    0,072;    1,318
255,658; 9417,701;   -3,292;   -0,136
256,255; 9906,848;   -0,201;   -2,045
256,853; 9765,298;    2,345;    1,409
257,451; 9805,775;    1,981;    1,864
258,048;10072,096;    2,072;    1,864
258,646; 9822,900;    0,436;   -1,045
259,243;10036,843;    2,981;    2,227
259,841;10093,858;    1,799;    0,318
260,438; 9966,091;    0,254;    0,864
261,036;10795,235;    0,617;    1,409
261,633;10710,082;    1,526;    2,227
262,231;10458,800;   -0,110;   -0,045
262,828;10558,085;   -0,383;    1,136
263,425;10625,352;   -1,928;   -0,591
264,023;10939,321;    1,436;    0,045
264,620;10434,520;    1,526;   -0,318
265,217;10813,800;    2,890;    3,136
265,815;10952,498;    2,527;    2,136
266,412;10700,454;    0,072;    0,136
267,009;10754,857;    0,526;    0,773
267,606;10611,809;    0,345;   -0,955
268,203;10595,847;   -0,383;   -0,591
268,801;10971,362;   -0,474;    0,591
269,398;11323,265;   -0,564;    2,500
269,995;11327,449;    0,890;    1,591
270,592;11012,309;    0,799;   -0,500
271,189;11310,934;    1,981;    0,409
271,786;11435,757;    2,072;    1,227
272,383;11239,343;   -0,383;    0,227
272,980;11473,841;    1,617;    0,318
273,577;11999,117;    2,162;    1,227
274,174;11530,911;    1,435;    2,591
274,771;11527,519;    1,890;   -0,773
275,367;11645,290;    3,253;    1,409
275,964;11630,912;   -0,565;   -0,500
276,561;11797,635;   -2,474;   -1,045
277,158;12089,242;    1,799;   -1,773
277,755;12181,970;   -0,110;    0,409
278,351;11493,437;    0,436;   -1,500
278,948;11861,383;   -0,201;    0,045
279,545;11901,769;    0,527;    2,318
280,141;12563,014;    1,254;   -2,045
280,738;12453,593;    2,435;   -0,136
281,334;12743,083;   -0,383;    0,591
281,931;12067,964;    2,890;   -1,318
282,528;12184,046;    4,072;   -0,500
283,124;12982,090;    3,345;   -0,500
283,721;12899,658;    0,709;    1,409
284,317;12731,584;    0,163;    2,500
284,913;13293,732;   -0,110;    0,591
285,510;13517,369;    2,890;   -0,318
286,106;13580,590;    2,345;   -0,955
286,703;13154,688;    0,072;    1,955
287,299;13362,404;    1,254;   -0,591
287,895;13618,462;    0,890;   -1,045
288,491;14300,629;    0,163;    2,136
289,088;13973,762;    0,163;    2,409
289,684;14029,428;    2,890;    1,500
290,280;14054,443;    1,890;    0,682
290,876;14122,024;    0,163;    5,500
291,472;14047,457;    2,163;    2,227
292,068;14150,970;    1,254;    0,227
292,665;13851,676;   -0,564;    0,773
293,261;13373,679;   -1,292;    2,136
293,857;13800,335;    4,072;    2,136
294,453;13775,714;   -0,928;    0,955
295,049;13624,590;    0,253;    1,955
295,644;13628,884;   -1,292;    0,136
296,240;13553,435;    0,162;   -0,136
296,836;13636,704;   -0,747;    0,318
297,432;13943,495;    2,980;   -0,500
298,028;13938,834;    0,435;    0,773
298,624;14405,093;    0,889;    1,864
299,220;14719,075;    0,435;    0,591
299,815;14335,424;    0,526;   -0,409
300,411;14092,499;    0,435;    1,773
301,007;14141,809;    1,889;    0,227
301,602;14241,597;    2,071;   -2,318
302,198;14402,361;    1,435;   -0,773
302,794;14724,381;    1,526;   -0,500
303,389;14933,315;    1,071;    1,045
303,985;14982,398;    1,253;    1,409
304,580;14935,281;    0,889;    1,591
305,176;14923,830;    0,344;    0,136
305,771;14873,939;   -0,929;   -1,227
306,367;14624,419;    3,071;    0,136
306,962;15057,415;    2,889;    1,500
307,558;14772,804;    2,435;    0,136
308,153;14745,657;   -0,383;   -1,136
308,748;15015,755;    0,162;    1,682
309,344;14962,816;    0,253;   -1,318
309,939;15069,046;    2,071;   -1,318
310,534;15413,931;   -2,020;   -1,682
311,130;15365,648;   -0,656;   -2,500
311,725;15054,624;    0,526;   -0,500
312,320;15389,126;    1,253;    0,045
312,915;15241,212;    2,890;   -1,045
313,510;15270,120;    0,526;   -0,500
314,105;15840,388;   -3,565;    1,409
314,700;15248,455;   -1,656;   -1,045
315,295;14830,009;   -0,020;    0,045
315,890;14296,671;   -0,292;    0,864
316,485;14660,004;    0,253;   -0,318
317,080;14807,250;   -0,929;    1,591
317,675;15423,407;    3,071;   -0,682
318,270;14692,221;    6,889;    3,318
318,865;14782,758;    2,435;    3,045
319,460;14552,110;   -1,565;    0,591
320,055;14811,559;   -2,565;   -1,227
320,650;14476,393;   -1,838;   -0,591
321,244;14526,328;    0,889;   -1,409
321,839;15558,844;    0,980;   -0,227
322,434;15461,581;   -0,111;   -1,591
323,029;15051,569;   -0,474;    1,591
323,623;14877,118;    0,798;    0,773
324,218;14568,419;    2,707;    1,409
324,812;14507,025;    0,889;    1,591
325,407;14289,655;   -0,929;    2,045
326,002;14205,275;    0,526;   -0,409
326,596;14531,703;   -0,656;    1,318
327,191;14808,233;   -0,383;   -1,045
327,785;14351,975;   -0,747;   -0,227
328,379;14575,175;   -0,383;    0,136
328,974;14360,936;    1,798;   -3,955
329,568;14594,249;    2,889;   -2,409
330,163;14407,710;    2,435;    1,045
330,757;14801,088;    0,253;    1,591
331,351;14051,755;   -0,292;    0,682
331,945;14365,372;   -0,383;    1,409
332,540;13881,218;    1,617;   -0,591
333,134;14021,344;    3,344;    0,773
333,728;14271,822;    2,799;    0,318
334,322;14675,191;    0,889;   -0,864
334,916;13905,222;    0,344;    0,955
335,510;14237,590;   -0,111;   -0,136
336,105;14503,597;   -0,929;    1,591
336,699;14136,880;   -1,292;    0,591
337,293;14102,263;    1,071;    0,318
337,887;14273,159;    0,071;    1,955
338,481;14351,334;    2,980;    0,591
339,074;14493,577;    2,071;    2,682
339,668;14260,774;   -0,110;    1,227
340,262;14507,476;    7,708;    3,227
340,856;14013,091;    1,708;   -0,682
341,450;13359,497;    0,708;    1,864
342,044;14284,990;    1,799;    0,136
342,637;14025,833;    1,162;   -2,136
343,231;13835,204;   -1,474;    0,682
343,825;13770,053;   -0,747;   -0,591
344,419;13699,968;   -0,474;    0,500
345,012;13383,744;    2,889;    4,045
345,606;13408,660;   -0,656;    1,591
346,199;13318,857;   -0,111;   -0,227
346,793;12769,054;    2,525;    2,045
347,386;13018,802;    0,889;   -1,136
347,980;12977,804;   -0,838;   -0,045
348,573;12693,819;   -1,748;    0,409
349,167;12284,361;    6,161;    4,773
349,760;12623,411;    2,252;    2,682
350,354;12667,140;    1,616;    1,136
350,947;12348,350;    2,798;    1,682
351,540;12002,093;    0,616;   -1,409
352,134;11916,172;   -1,111;    1,136
352,727;11971,944;   -0,657;    1,136
353,320;11783,792;    2,343;    0,591
353,913;11606,603;   -1,929;    1,864
354,507;11784,463;    0,434;   -1,227
355,100;11782,686;    0,071;    0,864
355,693;10898,738;    4,798;    2,409
356,286;10953,800;    0,980;    2,773
356,879;11397,428;   -0,475;    1,227
357,472;10928,396;    0,980;    1,500
358,065;11106,410;    3,161;    2,500
358,658;11052,329;    0,798;    2,318
359,251;10600,891;    0,252;   -0,591
359,844;10019,112;    0,343;   -1,136
360,437;10171,397;    0,252;    0,045
361,030;10482,313;    0,525;   -0,682
361,623;10045,846;    0,434;    0,318
362,215;10059,054;    0,979;    2,045
362,808; 9908,832;   -2,293;   -1,682
363,401;10090,654;    0,798;    0,136
363,994; 9800,909;    3,252;   -1,500
364,586; 9697,880;    0,888;   -1,500
365,179; 9930,398;   -0,203;   -1,136
365,772; 9366,664;   -0,930;    2,045
366,364; 9697,879;    1,524;   -3,227
366,957; 9917,583;    1,342;   -0,045
367,549; 9931,788;   -0,203;   -0,864
368,142; 9555,850;    0,978;   -1,500
368,734; 9766,917;    2,523;   -2,136
369,327; 9703,667;    2,341;   -0,500
369,919; 9626,447;   -1,659;    0,409
370,512; 9356,258;   -1,023;   -0,500
371,104; 9051,229;    2,704;    1,591
371,696; 9226,404;    1,703;   -0,955
372,289; 9344,659;    0,157;    1,136
372,881; 9509,312;    1,156;    1,318
373,473; 9455,347;    4,064;    1,136
374,066; 9203,793;    1,336;    0,500
374,658; 9003,511;    0,879;    1,136
375,250; 9434,049;   -1,668;   -1,409
375,842; 9278,525;   -0,124;   -0,045
376,434; 9108,406;   -2,762;   -0,409
377,026; 9764,077;   -1,855;   -2,500
377,618; 9636,783;    0,779;   -0,682
378,210; 9480,279;    3,141;   -1,955
378,802; 9353,636;    3,412;   -0,591
379,394; 9236,385;    3,411;    0,682
379,986; 9945,346;    1,138;   -0,955
380,578;10067,077;    1,410;    0,773
381,170; 9245,471;    0,320;    0,045
381,762; 9220,466;   -0,224;    1,409
382,354; 9502,269;   -0,223;   -1,318
382,945; 9614,041;    0,870;    0,318
383,537; 9786,765;    1,144;   -1,955
384,129; 9779,946;    0,963;   -1,136
384,721; 9996,756;    0,418;    0,955
385,312; 9918,663;   -1,399;   -0,955
385,904; 9958,650;   -0,945;    1,591
386,496; 9306,728;    0,691;    1,045
387,087; 9454,396;    0,418;    2,500
387,679; 9490,607;   -0,401;    0,045
388,270; 9623,232;   -2,401;    2,045
388,862; 9755,581;   -0,401;   -0,318
389,453; 9647,770;    1,054;    1,045
390,045; 9945,828;    3,236;   -2,682
390,636; 9910,840;    0,144;   -0,591
391,227; 9728,944;    2,054;   -0,045
391,819; 9802,178;    0,781;    0,773
392,410; 9916,074;    0,600;    0,045
393,001; 9842,523;    1,600;   -1,591
393,593;10131,591;    0,600;   -0,045
394,184; 9970,085;    0,873;   -0,409
394,775; 9912,945;    1,146;    2,136
395,366;10118,427;    1,782;    0,773
395,957;10174,124;   -2,400;    0,136
396,548;10528,070;    1,054;    2,682
397,139;10825,188;    2,236;    0,591
397,730;10521,832;    0,873;    0,955
398,321;10596,579;    0,509;    0,955
398,912;10610,134;   -0,764;    0,136
399,503;10718,605;   -1,945;   -1,409
400,094;10115,045;   -1,582;    1,682
400,685; 9967,124;    3,600;    0,045
401,276;10061,511;   -0,400;   -0,955
401,867;10390,216;   -1,127;    0,773
402,458;10509,098;    1,509;   -2,318
403,048;10456,366;    0,146;    0,591
403,639;10051,015;    1,509;    0,864
404,230;10260,689;    0,691;    0,318
404,821;10195,241;   -0,127;    0,045
405,411;10339,517;   -0,763;   -2,591
406,002; 9892,416;    3,237;   -1,136
406,592; 9678,990;    2,691;    0,045
407,183;10023,119;    0,328;   -1,500
407,774; 9914,249;    1,419;   -0,136
408,364;10330,322;    2,600;    0,409
408,954; 9856,291;   -0,036;    1,227
409,545; 9902,538;    1,873;    1,045
410,135; 9359,228;   -1,581;    0,500
410,726; 9557,137;    0,783;    0,318
411,316; 9996,437;    2,237;    0,773
411,906; 9666,564;    0,146;   -0,409
412,497; 9042,832;   -0,490;   -0,045
413,087; 9741,006;    0,783;   -0,227
413,677;10180,897;   -2,490;    3,864
414,267; 9980,648;   -1,035;    1,409
414,857;10007,063;    0,419;    4,227
415,448;10318,535;   -0,763;    0,500
416,038; 9991,429;   -2,945;   -0,591
416,628; 9940,417;    0,965;    0,409
417,218; 9308,411;   -1,762;    3,318
417,808; 9600,825;    0,965;   -0,409
418,398;10135,594;   -1,035;    2,682
418,988;10178,421;   -2,217;    0,591
419,578;10484,278;    3,601;    1,409
420,168;10889,036;    0,692;   -0,955
420,757;10377,387;    0,964;   -1,500
421,347;10024,970;    1,601;   -0,227
421,937;10217,250;    3,329;    1,409
422,527;10138,451;    2,602;   -0,773
423,116; 9915,164;    2,692;   -0,045
423,706;10381,058;    2,965;    0,318
424,296;10356,223;    1,601;    0,682
424,885;10795,860;    1,510;   -3,045
425,475;11121,077;    1,147;   -2,864
426,065;11030,002;   -1,489;   -0,318
426,654;10615,413;    0,329;   -0,318
427,244;10739,507;    1,147;    1,409
427,833;10106,994;    1,056;   -0,500
428,423;10674,560;    0,147;    1,136
429,012;11494,242;    2,420;   -1,136
429,601;10913,666;    2,057;    0,136
430,191;11176,389;    2,511;    4,318
430,780;10770,635;   -1,671;   -0,409
431,369;10667,401;    1,329;   -0,045
431,959;11416,567;    1,693;    0,500
432,548;11153,262;   -1,398;   -0,045
433,137;11352,454;    0,329;   -1,318
433,726;11906,742;    0,148;    0,500
434,315;11185,875;    0,148;    2,409
434,905;11289,518;    0,693;    1,409
435,494;11200,928;    3,148;    0,955
436,083;11693,660;    1,420;   -0,955
436,672;11543,397;    1,148;    0,500
437,261;11066,640;    0,512;   -1,955
437,850;11162,705;   -1,125;    0,682
438,439;11139,528;    2,239;    1,955
439,027;10918,323;    3,421;    1,773
439,616;11359,797;    2,239;    1,227
440,205;11278,968;    0,057;   -2,136
440,794;11345,475;   -0,306;   -0,045
441,383;11601,925;    1,603;   -0,591
441,971;11523,346;   -0,306;    0,591
442,560;11354,127;    0,603;   -1,773
443,149;11141,350;    3,060;   -1,318
443,737;11256,526;    0,968;   -2,318
444,326;11514,607;    0,331;    0,318
444,915;11579,416;   -1,851;    0,864
445,503;11999,596;    0,058;   -0,318
446,092;11207,118;    7,876;    2,136
446,680;11770,608;    1,876;    0,318
447,269;12026,832;   -1,487;   -0,318
447,857;11749,909;    2,240;   -1,773
448,445;11863,910;    2,149;    1,318
449,034;12121,529;    0,876;   -1,136
449,622;12277,901;    1,240;    3,500
450,210;11368,081;    3,149;    2,227
450,799;11946,049;    2,604;   -0,591
451,387;11886,332;    1,786;   -0,591
451,975;11454,421;   -1,305;    0,864
452,563;11577,691;    0,422;    2,318
453,151;11626,026;   -1,032;   -1,227
453,739;11556,610;   -1,577;    0,136
454,328;11370,468;    0,604;   -2,136
454,916;11067,726;    1,150;   -0,136
455,504;11267,179;    3,513;    1,227
456,092;11485,739;    2,150;   -1,591
456,679;11435,913;    0,604;    0,682
457,267;11266,172;    3,604;    1,045
457,855;11516,149;    3,241;    1,409
458,443;11302,169;   -0,304;    1,682
459,031;11373,770;    1,332;    2,409
459,619;11937,082;   -3,577;    2,864
460,206;12090,827;   -0,759;    2,045
460,794;12156,251;   -0,668;   -0,227
461,382;12445,991;    0,878;   -0,864
461,970;11979,561;    0,605;    1,864
462,557;11989,850;    0,878;   -0,682
463,145;12221,179;   -0,304;   -1,682
463,732;12396,266;    2,514;   -1,045
464,320;12299,138;    1,514;   -3,045
464,907;11902,393;    0,423;   -0,773
465,495;11796,672;    2,696;   -1,227
466,082;11940,782;    2,060;   -0,045
466,670;11904,634;    2,605;    1,227
467,257;12339,900;    0,060;    2,045
467,844;12502,281;    1,514;    0,045
468,432;12519,348;   -0,031;    3,500
469,019;11958,278;    1,606;   -1,773
469,606;12432,474;    0,969;    3,682
470,193;12269,380;    2,151;    0,227
470,780;11769,648;    0,333;    0,864
471,368;12149,196;   -1,212;   -0,773
471,955;11892,393;    1,060;   -0,682
472,542;11525,827;   -0,303;   -1,136
473,129;11782,774;   -0,485;    0,136
473,716;11544,137;    0,060;    0,591
474,303;11743,972;    1,333;   -0,864
474,890;12082,855;    2,333;   -0,500
475,477;12043,204;   -0,576;    0,409
476,064;11972,993;    0,697;   -1,591
476,650;11929,957;    2,152;    0,318
477,237;11748,229;    1,879;    0,955
477,824;11910,767;    3,879;    0,864
478,411;11979,552;    0,606;   -0,318
478,997;12170,473;    0,606;   -0,773
479,584;12206,146;   -0,666;   -0,409
480,171;12986,136;    1,243;   -0,773
480,757;12623,397;   -0,848;    0,773
481,344;12941,756;    0,334;    0,409
481,931;12437,587;   -0,393;    1,045
482,517;13506,846;    0,425;    0,318
483,104;14135,659;    1,334;    2,864
483,690;14528,320;    0,243;    0,045
484,276;15027,084;    0,698;    0,227
484,863;14782,066;    2,152;    1,136
485,449;15400,781;    0,152;    0,318
486,035;15383,484;   -0,666;   -0,136
486,622;15883,398;   -2,393;    0,045
487,208;15834,301;    1,334;    1,500
487,794;15722,858;    0,971;    0,318
488,380;15799,561;    0,698;   -1,409
488,967;15835,889;   -1,120;   -0,409
489,553;15883,606;   -1,029;   -1,409
490,139;16098,135;    0,971;    0,773
490,725;15542,996;    0,789;   -0,227
491,311;15010,829;    1,516;    3,045
491,897;14174,127;   -0,665;    1,500
492,483;13950,228;    0,426;    1,227
493,069;13610,492;    5,426;    0,864
493,655;13620,685;    1,789;    0,682
494,241;13497,882;    1,517;   -0,955
494,826;13981,416;    0,335;   -1,045
495,412;13378,449;    0,335;   -0,682
495,998;13560,605;    0,971;   -0,318
496,584;13727,438;    2,244;    1,045
497,169;13704,952;    2,335;   -0,682
497,755;13649,222;    1,244;    1,227
498,341;14211,035;    2,153;    0,318
498,926;13792,318;    2,881;    1,955
499,512;14008,016;   -0,028;    2,955
500,097;14137,366;   -0,574;   -0,318
500,683;14071,265;   -0,028;    2,136
501,268;14444,588;    1,881;   -0,955
501,854;14163,383;   -0,119;    1,227
502,439;14094,164;   -0,573;   -1,773
503,024;14308,871;    1,608;    0,500
503,610;14392,425;    1,335;   -0,682
504,195;14420,732;    1,245;    1,955
504,780;14503,167;    2,335;    1,227
505,366;14320,934;    4,063;    2,864
505,951;13996,432;   -1,119;    1,045
506,536;14022,142;    1,427;   -3,682
507,121;14036,983;    1,699;   -0,318
507,706;14620,190;   -0,392;    1,045
508,291;15021,804;   -2,937;    1,136
508,876;14443,936;   -0,482;    2,591
509,461;13834,850;    1,427;   -0,773
510,046;14308,850;   -0,391;    0,318
510,631;14543,525;   -0,119;   -0,773
511,216;14198,519;   -0,664;   -0,500
511,801;14593,952;   -0,755;    2,591
512,386;14931,377;    0,972;    0,500
512,971;14850,704;    0,427;    0,955
513,555;14357,238;    1,154;   -1,500
514,140;15220,330;    1,336;   -3,136
514,725;15228,566;    1,791;   -1,136
515,309;15347,425;    1,064;    0,318
515,894;14750,838;   -0,300;   -2,227
516,479;15258,922;    1,973;   -0,955
517,063;15097,574;    0,882;    1,227
517,648;15217,244;    0,155;   -1,136
518,232;14829,052;   -1,300;   -1,409
518,817;15170,582;    1,337;    1,682
519,401;15405,680;    0,700;    0,591
519,985;14889,703;    2,700;    1,136
520,570;14778,070;   -0,118;   -1,955
521,154;15100,609;    0,064;    0,591
521,738;15307,390;    1,064;    2,409
522,323;15903,831;   -0,390;    1,682
522,907;15604,786;    2,428;   -0,136
523,491;15320,539;    1,155;    0,955
524,075;15312,795;    0,428;    0,591
524,659;15411,503;    0,973;    0,591
525,243;14793,570;    0,883;    0,409
525,827;15036,680;    0,883;   -0,045
526,411;15931,867;    1,155;   -0,136
526,995;16186,373;    0,337;    1,409
527,579;15773,138;    1,974;   -1,045
528,163;16109,306;    0,428;   -1,500
528,747;16042,173;    1,065;   -0,773
529,331;16342,164;    0,883;   -1,409
529,915;16597,629;    2,338;    0,955
530,499;16517,687;    0,247;    1,227
531,082;16179,122;    1,065;    1,591
531,666;15609,740;    0,520;    0,773
532,250;16296,430;    0,428;    2,682
532,833;16685,119;    0,610;    2,773
533,417;16525,260;    1,247;    0,864
534,001;16504,180;    0,429;   -0,318
534,584;17255,754;    1,974;    0,500
535,168;17063,282;    3,247;    1,409
535,751;17135,145;    4,520;    0,045
536,334;16591,584;    4,520;   -0,409
536,918;17197,501;    1,974;    1,591
537,501;17327,074;    1,520;    1,318
538,085;17286,042;    1,702;    1,045
538,668;17468,116;    0,883;    2,409
539,251;17835,918;    3,156;    3,773
539,834;17878,975;    0,156;    0,773
540,418;17767,244;    3,247;    4,318
541,001;17891,962;    2,702;    1,773
541,584;17867,506;    1,429;    2,227
542,167;17562,129;    0,702;    2,955
542,750;17758,510;    0,793;   -0,773
543,333;17319,846;    1,429;    2,136
543,916;18162,876;   -0,298;    2,500
544,499;18767,018;    2,520;    0,227
545,082;18791,373;    0,248;    3,591
545,665;18966,612;   -0,207;    1,500
546,248;19328,664;    0,520;   -0,318
546,830;18974,680;   -1,752;    1,955
547,413;19387,840;    0,157;   -0,773
547,996;19988,916;    0,157;    0,500
548,579;19704,754;   -0,843;    0,955
549,161;19575,018;    0,884;    2,682
549,744;19331,947;    0,612;    0,409
550,326;19854,600;    0,885;   -1,136
550,909;19557,594;    2,339;    0,591
551,492;20021,095;    0,521;    0,227
552,074;19829,058;   -0,024;   -1,318
552,657;20411,124;    2,430;    0,045
553,239;20146,802;   -3,024;   -0,773
553,821;20091,907;   -1,570;    1,045
554,404;19557,810;   -0,024;    1,136
554,986;19951,910;    2,248;    1,045
555,568;20566,589;    0,430;   -0,955
556,151;19729,027;    4,067;   -0,227
556,733;19923,868;   -1,388;   -0,864
557,315;20450,410;    4,703;    0,500
557,897;20272,525;    0,521;   -0,500
558,479;20393,939;    1,703;    1,318
559,061;20545,646;    1,067;   -0,864
559,643;20883,859;   -0,297;    0,045
560,225;21270,945;   -0,388;    2,864
560,807;21265,404;    0,340;    0,318
561,389;20785,058;   -1,206;    2,318
561,971;21506,105;   -0,660;    2,136
562,553;21293,869;    0,613;    1,591
563,135;21451,423;    1,249;    1,136
563,717;21040,745;    3,158;    1,136
564,298;21795,498;    3,976;   -0,045
564,880;21527,554;    0,340;   -1,409
565,462;21745,827;    1,977;    1,318
566,043;22949,037;   -0,933;    2,318
566,625;22497,301;    4,067;    1,227
567,207;22341,544;    0,704;    1,682
567,788;23528,313;   -0,114;    1,500
568,370;24455,308;   -1,841;   -0,500
568,951;24296,157;   -0,569;    0,227
569,533;25195,699;    0,977;   -0,500
570,114;25707,782;   -0,296;    0,682
570,695;26269,656;   -0,478;   -1,318
571,277;26855,938;   -0,205;   -1,682
571,858;27652,251;    2,704;   -1,136
572,439;28635,836;    0,795;   -1,045
573,021;28842,406;    0,432;   -2,773
573,602;29394,842;    1,795;    0,318
574,183;30389,463;   -0,114;    2,227
574,764;30596,951;    2,068;    0,409
575,345;31207,225;    0,250;   -0,136
575,926;31860,651;    2,704;    0,136
576,507;31882,561;    2,704;   -0,227
577,088;32992,618;    1,704;    1,682
577,669;33036,472;    1,704;    1,955
578,250;33821,736;   -0,750;   -1,045
578,831;34538,444;   -0,841;   -2,227
579,412;34873,638;   -1,205;    0,955
579,993;35793,630;    1,432;    0,227
580,573;36165,126;   -0,023;   -0,955
581,154;35115,241;    1,613;   -0,591
581,735;36019,158;    0,341;    0,773
582,315;35510,067;    0,523;    2,136
582,896;35816,132;   -1,750;    1,227
583,477;35295,516;    0,614;    1,227
584,057;35472,506;    1,159;    0,955
584,638;35717,539;   -2,750;    2,318
585,218;35725,671;    2,886;    2,682
585,799;35840,455;    1,977;   -0,227
586,379;35864,164;    1,250;    1,591
586,959;34587,893;    2,613;    0,318
587,540;33854,410;    0,432;    2,227
588,120;33298,042;   -1,113;   -0,045
588,700;32209,518;    2,977;    2,136
589,281;32521,514;    1,250;   -0,955
589,861;32412,871;   -0,296;   -1,682
590,441;32178,259;   -1,477;   -2,682
591,021;31118,076;    1,432;   -2,591
591,601;31352,865;    0,431;    0,500
592,181;31372,047;   -1,296;   -0,773
592,761;30621,668;    2,250;    1,409
593,341;30489,761;    1,522;    0,045
593,921;30464,767;   -0,569;    1,591
594,501;30250,108;    1,250;    1,318
595,081;30134,147;    0,522;   -0,318
595,661;30501,206;    1,068;    0,955
596,240;31037,080;   -1,023;    0,136
596,820;30596,317;    2,613;    1,955
597,400;30871,760;    1,977;    0,773
597,980;31138,682;   -0,750;    1,045
598,559;31085,916;    0,341;   -0,227
599,139;30779,876;   -0,750;   -1,227
599,718;30692,331;    0,795;   -0,409
600,298;30973,313;   -2,387;    0,682
600,877;31142,617;    4,795;    1,409
601,457;31474,945;    0,340;    1,136
602,036;31356,766;    1,795;    2,045
602,616;31610,765;    2,250;    1,682
603,195;31933,300;    0,431;    3,500
603,774;31448,044;   -0,296;    2,045
604,354;31331,483;    2,522;   -0,500
604,933;30779,113;    0,250;    1,864
605,512;30927,293;    2,340;    0,591
606,091;30973,390;    1,886;    3,773
606,671;31754,193;    0,249;    0,773
607,250;30820,937;    1,431;    3,136
607,829;31082,834;    1,158;    3,227
608,408;30945,522;    4,613;    2,591
608,987;29922,352;    2,704;    3,409
609,566;30236,760;    0,341;   -2,500
610,145;30284,170;    2,885;    0,682
610,723;30742,874;    1,613;    6,864
611,302;29908,458;    1,067;    1,682
611,881;29370,616;    5,158;   11,227
612,460;30239,608;    0,795;    3,955
613,039;30696,018;    1,703;    2,045
613,617;29334,810;    0,886;    4,773
614,196;29570,187;    1,613;    1,227
614,775;29892,423;    1,249;    2,409
615,353;29862,388;   -1,660;    0,864
615,932;29516,017;    0,249;    2,409
616,510;30204,142;    0,158;    0,591
617,089;29609,554;    8,794;   17,591
617,667;29324,025;    4,885;    6,136
618,246;29122,957;   -1,115;    1,318
618,824;29307,685;    1,612;   -0,955
619,402;28823,330;    0,431;   -1,773
619,981;29401,402;    1,067;   -1,045
620,559;29250,385;    0,794;    1,682
621,137;28752,584;    3,067;    1,864
621,715;28676,923;    3,703;   -0,682
622,293;28650,269;    1,885;   -0,773
622,871;29101,592;    0,340;    0,500
623,450;28642,217;    0,430;   -0,864
624,028;28550,409;   -0,388;   -0,955
624,606;28167,168;    2,339;    1,682
625,183;28534,199;   -0,661;   -1,136
625,761;28132,100;    1,885;    1,136
626,339;28430,268;    2,339;    2,591
626,917;28788,014;    0,339;   -0,045
627,495;28909,709;    2,794;    1,318
628,073;28309,070;    5,248;    2,864
628,650;27939,239;    3,067;    2,136
629,228;28428,762;    1,248;    4,409
629,806;27754,983;   -0,024;    1,136
630,383;28075,443;    0,066;   -0,318
630,961;27837,743;   -2,206;   -0,955
631,539;27521,393;   -2,479;    0,227
632,116;26729,834;   12,703;   15,409
632,694;27409,278;    4,885;    6,500
633,271;27712,042;    1,975;    2,682
633,848;27613,887;    1,430;    2,045
634,426;27709,561;    1,521;    1,773
635,003;26787,407;   -0,207;   -0,409
635,580;27116,464;    1,884;    3,682
636,158;27670,030;    3,793;    1,227
636,735;27621,893;    3,339;   -0,500
637,312;27788,623;    0,521;   -0,682
637,889;27863,850;    2,248;   -0,682
638,466;27308,959;    0,066;   -0,409
639,043;27305,294;    1,702;   -1,136
639,620;27626,889;    0,611;   -0,955
640,197;27962,669;    1,612;    1,682
640,774;28125,644;    1,430;    1,136
641,351;28523,074;    0,612;    1,136
641,928;27882,140;    2,794;    1,409
642,505;27525,479;    0,794;   -0,500
643,082;27632,000;    1,885;    1,227
643,658;26621,884;    1,157;    1,500
644,235;27414,859;   -2,479;    2,500
644,812;27703,653;    1,794;    0,773
645,388;27449,901;    1,612;    1,409
645,965;27529,785;    1,521;    1,682
646,542;27581,852;    3,430;   -0,227
647,118;27559,918;    3,703;   -0,955
647,695;27862,530;    0,339;    1,136
648,271;27802,778;   -2,115;    0,500
648,848;28141,662;    0,248;    2,227
649,424;27976,365;    0,976;    1,318
650,000;27706,249;   -0,388;   -1,045
650,577;27533,952;    0,158;   -0,955
651,153;27975,472;   -1,115;    0,955
651,729;28980,993;    0,521;    0,864
652,305;29202,514;    1,339;    2,773
652,881;34056,398;   -1,297;    1,136
653,458;41447,828;    0,249;    0,227
654,034;45645,713;    0,703;    1,591
654,610;47337,597;    0,339;    0,773
655,186;48777,300;    1,612;    3,045
655,762;48489,639;   -1,842;    0,409
656,338;48571,614;    0,703;    0,136
656,913;49677,589;   -0,297;    0,409
657,489;48945,383;    0,249;   -0,318
658,065;48886,995;    0,794;   -1,591
658,641;49426,697;    2,158;   -0,864
659,217;48677,763;    2,067;    0,409
659,792;48148,284;   -1,751;   -0,409
660,368;48466,532;   -0,388;   -0,682
660,944;48099,508;    1,794;    1,227
661,519;43225,846;    0,522;    0,409
662,095;36498,731;   -0,206;    0,591
662,670;31325,252;   -0,206;   -0,136
663,246;30068,409;   -0,660;   -0,409
663,821;29283,657;    0,431;    1,682
664,396;28778,905;    0,613;    1,864
664,972;29056,153;   -0,660;   -0,500
665,547;29343,946;    3,794;    0,136
666,122;29396,740;    1,340;    0,318
666,698;29677,261;    2,431;    0,318
667,273;29006,509;    0,885;    0,136
667,848;29815,211;    0,340;    1,500
668,423;29600,369;    1,795;    2,318
668,998;30232,344;    0,976;   -0,682
669,573;30747,319;    2,067;   -1,500
670,148;30550,204;    1,885;   -0,682
670,723;30412,815;   -0,024;    0,318
671,298;30896,609;   -1,296;    1,045
671,873;31003,221;   -0,296;   -0,136
672,448;30880,741;    1,704;    0,136
673,023;31257,898;    0,249;   -0,227
673,597;31554,692;    2,704;    2,318
674,172;31341,758;    2,431;    0,318
674,747;30820,279;   -0,205;   -1,045
675,321;30635,618;   -0,933;    3,318
675,896;30169,684;    2,158;    1,045
676,471;31196,750;    2,522;    1,591
677,045;30956,271;   -0,296;    0,682
677,620;30987,701;    2,158;    1,136
678,194;31381,858;    0,249;    1,136
678,769;30940,470;    0,886;   -0,318
679,343;31073,082;   -0,023;    1,773
679,917;30981,511;    0,340;    1,955
680,492;31134,214;    0,249;    3,227
681,066;31210,189;    0,613;    0,409
681,640;31246,256;    1,795;   -0,318
682,214;32084,231;    2,340;    0,500
682,788;31587,752;    0,613;   -0,773
683,363;31543,454;    1,977;    1,682
683,937;31253,157;    0,886;   -0,318
684,511;32120,405;   -1,023;   -0,591
685,085;31771,017;   -1,478;    0,318
685,659;31502,992;    1,431;    0,864
686,232;31695,786;    1,159;   -0,318
686,806;31436,124;    2,159;    0,409
687,380;32136,191;   -1,932;    0,591
687,954;32351,893;    2,432;    1,136
688,528;31990,141;    2,613;    1,955
689,101;32812,298;    0,432;    1,045
689,675;32388,001;    0,886;   -0,136
690,249;31646,249;    3,432;    0,409
690,822;32003,952;    1,159;    0,318
691,396;32138,836;    2,068;    1,227
691,969;31566,357;    2,523;    0,136
692,543;32019,605;   -0,568;   -1,955
693,116;31678,762;   -0,659;   -1,409
693,690;31516,010;   -0,296;    0,500
694,263;32098,531;    2,341;    2,955
694,836;32098,234;    2,795;    3,591
695,410;30684,663;    1,159;    1,773
695,983;31165,639;    1,614;    0,591
696,556;31127,705;   -0,750;   -1,045
697,129;31586,771;   -1,114;    1,409
697,703;31197,656;    1,341;    1,955
698,276;31213,995;    1,705;   -0,773
698,849;30968,515;   -1,023;    1,409
699,422;31324,309;    1,250;    0,591
699,995;30988,012;   -0,659;    0,136
700,568;31520,623;   -0,204;    3,045
701,140;31534,417;   -1,841;    1,682
701,713;31247,028;    0,341;    2,409
702,286;31056,276;    0,796;    0,864
702,859;30917,706;    0,614;   -0,591
703,432;30001,318;   -0,841;    0,682
704,004;30579,384;    1,978;    0,318
704,577;30415,450;    1,068;    0,136
705,150;30899,062;    0,887;    2,500
705,722;30731,947;    1,523;   -3,227
706,295;30536,013;    1,432;   -0,591
706,867;30336,988;    0,250;    1,955
707,440;30578,509;   -0,113;   -0,409
708,012;30801,302;   -0,022;    0,591
708,584;30737,460;    2,705;    0,227
709,157;31111,708;    1,160;   -0,591
709,729;30741,683;    1,069;    2,045
710,301;31606,476;   -1,204;    0,045
710,874;31569,725;    0,341;   -0,227
711,446;30450,245;   -0,295;    0,864
712,018;30342,857;   -3,022;    0,500
712,590;30057,741;   -0,204;    1,682
713,162;30610,262;   -0,477;    1,318
713,734;30896,419;    1,796;   -2,045
714,306;30694,304;    0,342;   -0,409
714,878;29333,734;   -0,295;    0,864
715,450;30174,709;   -0,113;    0,864
716,022;30462,412;    2,433;    1,318
716,593;30604,114;    0,978;    0,591
717,165;30551,817;    1,796;   -1,227
717,737;30255,428;    0,796;    0,409
718,309;29900,131;    1,160;   -0,045
718,880;29849,106;   -1,295;   -1,409
719,452;30070,082;    0,887;   -1,591
720,024;29588,512;    1,705;   -0,591
720,595;30136,578;    2,978;    0,955
721,167;29706,008;    1,160;   -2,045
721,738;29230,165;    2,069;   -1,045
722,309;29136,322;    1,251;   -1,227
722,881;28948,934;    2,705;    0,773
723,452;29579,182;    1,251;    2,864
724,023;29758,702;    1,524;    2,682
724,595;29530,587;    2,342;    0,682
725,166;29251,744;    1,524;   -0,409
725,737;28867,719;    1,887;    0,227
726,308;28963,331;    0,797;    0,318
726,879;29396,488;    1,069;    1,227
727,450;29304,282;   -2,022;   -0,045
728,021;29218,257;    1,069;    0,682
728,592;29033,051;    1,160;    0,500
729,163;29426,662;    1,433;   -0,136
729,734;29382,274;    2,160;   -0,227
730,305;29770,795;    0,615;    0,136
730,876;30100,952;    0,888;    2,955
731,447;29775,564;    0,797;    2,682
732,017;29902,902;   -0,840;    1,864
732,588;29380,787;   -0,021;    1,227
733,159;29542,580;    3,615;   -1,045
733,729;29370,192;    1,251;    0,409
734,300;28651,986;    0,160;    0,864
734,870;29086,597;   -1,385;    0,591
735,441;29633,482;    0,888;   -0,591
736,011;29346,002;    1,070;   -1,591
736,582;29356,160;    1,251;    0,045
737,152;28798,499;    0,979;   -2,045
737,722;29269,474;    1,070;   -0,682
738,293;29023,267;   -2,021;    1,318
738,863;28810,152;    1,797;    2,318
739,433;28657,945;    4,524;    0,318
740,003;29294,103;    1,524;   -0,682
740,573;28662,260;    2,252;   -1,591
741,143;28661,780;    3,615;    0,318
741,713;29421,483;    0,252;   -0,500
742,283;29047,367;    1,706;    1,591
742,853;28826,252;    0,524;    1,591
743,423;28251,591;    0,161;    0,045
743,993;28357,384;    1,070;    1,500
744,563;27700,269;    2,524;   -0,864
745,133;27678,153;   -0,112;   -0,864
745,702;28447,583;    2,797;    1,773
746,272;27612,195;    0,434;    0,591
746,842;27343,716;   -0,748;   -0,591
747,411;27782,782;   -0,839;   -0,318
747,981;27970,757;   -0,930;    0,500
748,551;28033,005;   -0,021;   -1,045
749,120;27840,253;   -0,112;   -0,227
749,690;28235,047;    2,161;    2,409
750,259;28631,840;    0,979;    2,955
750,828;28471,906;    4,070;   -1,955
751,398;28696,427;   -0,112;   -0,045
751,967;28164,766;    2,888;    0,409
752,536;28366,923;    1,161;   -0,227
753,105;28879,535;   -1,384;    0,227
753,675;28716,692;   -0,112;    1,773
754,244;28641,758;    0,888;    3,591
754,813;28696,370;    0,979;    1,227
755,382;28299,709;    0,798;    0,955
755,951;28795,684;   -0,112;    3,682
756,520;28327,387;    2,525;    1,864
757,089;28924,544;    1,888;    0,500
757,658;29067,701;    2,434;    1,227
758,227;29062,495;   -1,111;    0,318
758,795;29426,379;   -1,021;    1,136
759,364;29660,082;    0,525;   -0,591
759,933;28597,603;    1,343;   -0,045
760,501;28155,123;    0,252;   -1,318
761,070;28624,280;   -0,293;   -1,409
761,639;29356,165;    1,434;    1,318
762,207;28669,049;    0,889;   -0,955
762,776;28538,479;    2,889;    0,864
763,344;28540,455;    0,071;    0,591
763,913;27641,612;    1,616;    1,409
764,481;28392,405;    1,980;   -0,136
765,049;28152,017;    0,616;    1,409
765,618;28075,447;    1,434;    0,318
766,186;28170,058;    2,434;    0,136
766,754;28281,306;    1,798;    1,864
767,322;27247,555;    1,162;    0,409
767,890;27256,530;    0,525;   -1,773
768,459;27668,778;    2,616;   -0,318
769,027;27805,208;    2,525;    3,409
769,595;26785,183;    2,616;    2,591
770,163;27185,249;    3,344;    2,955
770,730;26939,316;    2,525;   -0,136
771,298;26806,382;    1,162;   -1,409
771,866;26896,539;    0,253;    4,955
772,434;27221,969;    1,162;   -1,864
773,002;27389,581;    2,616;    0,682
773,569;26973,647;    1,071;    1,682
774,137;26795,895;    0,889;   -0,045
774,705;27601,506;   -0,747;   -0,136
775,272;27066,573;    0,253;    0,682
775,840;26841,457;   -0,111;    2,682
776,407;26318,069;   -0,293;    1,955
776,975;25918,499;    1,162;    0,318
777,542;26959,565;    2,162;   -0,045
778,110;26868,268;    0,707;   -0,045
778,677;26483,788;    1,071;   -0,864
779,244;26248,400;   -1,020;    1,045
779,812;26386,921;    0,980;    0,864
780,379;26230,078;    2,435;    1,136
780,946;26431,599;    2,617;   -0,773
781,513;26743,301;   -0,565;    0,318
782,080;26055,186;    1,253;    2,864
782,647;26850,252;    1,708;    3,045
783,214;26420,227;   -0,201;    3,864
783,781;26030,657;    1,708;   -0,682
784,348;25918,451;    0,253;    1,500
784,915;26368,608;   -1,474;    0,318
785,482;26109,129;    2,708;    2,591
786,049;26573,558;    1,071;   -0,591
786,615;26656,897;    1,708;   -0,955
787,182;26413,509;   -3,201;   -0,682
787,749;26102,848;   -2,201;    1,409
788,315;25409,914;    0,253;   -0,409
788,882;25705,253;    0,981;   -1,227
789,448;26347,683;    1,435;   -0,955
790,015;26377,204;    1,799;    3,227
790,581;25944,270;    0,708;    0,227
791,148;25785,791;    1,344;    1,045
791,714;26037,584;   -1,019;    3,136
792,280;25723,196;    3,708;    1,591
792,847;25311,535;   -0,928;    2,500
793,413;25842,056;   -0,110;   -0,318
793,979;25386,122;    1,526;   -1,318
794,545;25421,461;    2,981;    2,682
795,111;24808,709;    2,435;    1,318
795,678;24992,866;    3,526;   -1,682
796,244;24686,569;    2,799;    0,136
796,810;25229,544;    0,799;    0,773
797,375;24947,974;   -0,292;   -2,136
797,941;24945,313;   -1,110;    0,591
798,507;25044,379;    0,254;   -0,955
799,073;24644,445;    2,708;    0,591
799,639;24711,239;    1,435;    3,136
800,205;24753,669;   -1,565;    2,682
800,770;24241,917;    1,345;    1,773
801,336;24280,165;    2,981;   -0,955
801,901;23937,595;    6,072;    3,136
802,467;24555,025;    0,526;    2,045
803,033;23917,091;   -0,019;    0,864
803,598;24067,157;    1,072;   -1,045
804,163;24106,042;    0,708;   -0,318
804,729;24047,199;   -0,110;    1,136
805,294;24491,083;    1,072;    2,227
805,859;24291,695;    0,890;   -0,409
806,425;23705,397;    3,890;    2,682
806,990;23385,009;    1,890;    4,318
807,555;23938,894;   -0,110;    2,591
808,120;23797,414;   -1,292;   -0,409
808,685;23846,662;    1,072;   -2,500
809,250;23305,456;    2,072;   -0,500
809,815;23670,431;   -0,201;    0,682
810,380;24168,316;    0,981;    1,591
810,945;24728,018;    2,890;    2,045
811,510;23918,903;   -0,200;    1,591
812,075;23595,151;    2,800;   -1,409
812,640;23662,308;    3,709;    1,409
813,204;23696,101;    2,163;   -0,227
813,769;24197,349;    0,254;   -0,045
814,334;23548,597;    0,527;    0,864
814,898;23596,573;    1,981;    0,591
815,463;23429,548;    0,981;   -0,773
816,027;23392,796;    1,345;   -2,318
816,592;23514,772;    2,163;   -2,045
817,156;22988,383;   -2,200;    1,136
817,721;22809,268;    0,982;    2,318
818,285;22746,243;    0,618;    1,500
818,849;23415,946;   -0,018;    1,682
819,414;23333,648;    0,073;    2,955
819,978;22906,078;   -0,291;    1,773
820,542;23474,417;    2,891;    0,500
821,106;23179,120;    2,800;    0,682
821,670;23250,913;    2,709;    2,591
822,234;22972,616;    1,073;    1,409
822,798;22381,318;   -0,836;    0,500
823,362;22357,385;    1,527;    4,227
823,926;21664,723;   -0,018;    1,136
824,490;21844,335;    3,527;   -0,682
825,054;22304,129;    2,527;   -1,136
825,618;21916,649;   -1,200;   -1,500
826,181;21790,079;    0,982;   -1,318
826,745;21739,509;   -0,745;   -1,045
827,309;22059,121;    2,255;    1,318
827,872;21454,551;    0,527;    0,955
828,436;22485,253;    1,982;   -0,773
828,999;22566,865;    2,436;    1,227
829,563;21334,204;   -0,654;    1,136
830,126;21170,452;   -0,018;   -0,591
830,690;21177,155;    0,709;    2,864
831,253;20632,312;   -0,473;    2,227
831,816;20816,742;   -0,018;    0,500
832,380;20717,444;    1,164;    0,864
832,943;20902,238;    3,073;   -0,500
833,506;20386,486;    0,255;   -1,227
834,069;21205,734;    2,164;   -0,955
834,632;21292,891;   -2,200;    1,318
835,195;21140,775;    1,346;    0,955
835,758;20329,387;    0,709;    1,955
836,321;20151,362;    1,073;   -1,045
836,884;20301,883;   -1,291;   -0,955
837,447;20321,131;    0,528;    1,773
838,010;20609,288;    1,800;    3,227
838,573;20909,627;    0,528;    0,773
839,135;20830,966;   -0,109;   -0,955
839,698;20223,578;    2,528;    0,409
840,261;19781,099;    0,255;   -0,227
840,823;19686,801;   -0,927;    0,864
841,386;19904,686;   -0,018;   -2,409
841,948;19770,207;    0,255;    1,773
842,511;19527,909;    0,255;    1,682
843,073;19633,157;    2,982;    0,227
843,636;19418,042;    0,619;   -0,227
844,198;19395,835;    1,255;    0,591
844,760;19538,447;    0,619;    1,955
845,322;19190,877;    0,164;    1,136
845,885;19605,125;   -0,290;    0,591
846,447;20017,009;    0,710;    0,227
847,009;19538,439;    3,983;   -0,682
847,571;19908,142;    1,346;   -2,045
848,133;19990,299;   -0,199;   -1,864
848,695;19837,092;    2,346;    1,409
849,257;19395,431;    1,346;   -1,682
849,819;19570,225;    2,983;   -0,409
850,381;19581,109;    1,801;   -0,864
850,942;19943,266;    1,892;   -0,591
851,504;19874,151;    0,983;    0,227
852,066;19934,853;    1,619;   -1,591
852,628;19464,011;    0,165;    1,955
853,189;19016,531;    0,256;    2,682
853,751;19142,961;   -0,654;    1,409
854,312;18956,209;    1,256;   -1,682
854,874;19491,275;   -0,108;   -0,773
855,435;19983,069;    0,528;   -1,682
855,997;20090,226;    3,983;   -0,136
856,558;19368,201;    0,801;    1,773
857,119;19485,086;   -0,744;    2,864
857,681;19161,152;   -0,108;    0,318
858,242;19142,400;    1,347;   -2,136
858,803;19628,375;    1,074;   -0,773
859,364;20235,805;    0,892;   -4,773
859,925;19551,781;   -0,290;   -0,955
860,486;19464,211;    0,529;   -0,955
861,047;19215,459;    0,165;   -1,227
861,608;18996,979;    0,165;   -0,773
862,169;19137,318;   -0,562;   -0,045
862,730;18901,021;   -0,290;    1,409
863,291;19114,814;    0,438;   -0,500
863,852;19458,881;   -0,926;    1,955
864,412;18895,311;   -1,835;   -0,864
864,973;17436,559;    1,892;    0,500
865,534;17297,443;    2,074;    0,227
866,094;18865,782;    2,620;    0,227
866,655;18428,757;    4,711;    3,318
867,215;18755,369;    0,074;    0,136
867,776;18634,435;   -1,199;   -0,136
868,336;18714,865;    1,529;    0,136
868,897;18166,386;    3,438;    1,682
869,457;17908,998;    3,256;    0,318
870,017;18184,337;    2,438;   -1,227
870,578;18708,766;    1,893;    0,773
871,138;18320,378;    2,620;   -0,955
871,698;17861,535;   -0,562;   -1,318
872,258;17746,602;    0,711;   -2,864
872,818;18140,031;    2,347;    0,045
873,378;18106,734;   -2,198;    1,045
873,938;17613,891;    4,984;    0,500
874,498;17977,594;    1,256;   -1,955
875,058;17839,296;    4,347;    1,773
875,618;17660,999;    1,438;   -2,682
876,177;17617,429;   -0,471;    0,136
876,737;17221,677;   -0,289;    1,955
877,297;17198,925;    2,711;    1,955
877,856;17183,537;    2,529;    0,318
878,416;17125,785;    2,438;   -0,136
878,976;17341,124;    3,438;    0,409
879,535;17529,917;    4,529;    3,136
880,095;17266,711;    1,347;    0,045
880,654;17414,868;    0,347;    1,318
881,213;17487,116;    2,347;    1,500
881,773;17125,909;    1,984;    2,682
882,332;17486,612;    6,075;    5,136
882,891;17329,042;    0,711;    2,136
883,451;17768,744;   -2,016;    1,682
884,010;17276,720;   -1,107;   -0,409
884,569;17361,877;   -2,289;   -0,045
885,128;17452,398;   -0,743;   -1,864
885,687;17552,828;   -0,743;    0,682
886,246;17253,348;    2,620;    2,136
886,805;16990,142;    1,620;    2,045
887,364;17336,026;    1,166;   -0,500
887,922;17699,911;   -0,016;    0,045
888,481;17174,795;    1,530;    0,591
889,040;17491,679;    3,711;    2,136
889,599;18165,837;    2,166;    1,409
890,157;18293,357;    2,166;    2,409
890,716;17931,696;    2,166;    0,227
891,274;17709,853;    0,075;   -1,136
891,833;18110,465;    1,166;    0,864
892,391;18016,441;    1,802;    0,500
892,950;18094,870;    0,166;   -0,773
893,508;18470,573;    0,984;   -0,409
894,067;17761,548;   -0,379;    0,136
894,625;17697,887;   -1,016;   -1,500
895,183;17919,044;   -0,198;   -0,682
895,741;17839,292;    2,257;   -1,773
896,299;17648,450;    1,621;   -2,409
896,858;17824,607;    1,530;   -1,591
897,416;17927,946;    0,166;   -1,318
897,974;17657,103;   -2,197;    0,318
898,532;17804,078;    6,530;    2,682
899,089;17710,872;    0,621;   -0,682
899,647;17800,665;    0,530;    1,318
900,205;17556,095;    0,257;    1,045
900,763;17692,343;    2,166;    0,227
901,321;17680,228;    3,530;   -1,409
901,878;17112,021;    3,257;   -0,773
902,436;16984,269;    0,257;    1,318
902,994;17390,881;    6,712;    3,682
903,551;16839,856;    1,439;    0,409
904,109;17248,286;    1,530;   -1,409
904,666;16849,989;    1,439;    1,045
905,224;16651,600;    3,894;   -0,409
905,781;16341,667;   -0,470;   -0,318
906,338;16447,460;    0,167;    1,045
906,895;16370,981;    1,894;    2,045
907,453;16269,047;    2,348;    1,136
908,010;16324,204;    3,348;    0,409
908,567;15937,180;   -0,561;    0,591
909,124;15490,428;    2,439;   -1,500
909,681;15500,857;   -1,288;    0,682
910,238;15661,924;   -0,106;   -1,318
910,795;15996,626;   -1,561;   -1,136
911,352;15625,626;   -0,379;   -2,682
911,909;15013,990;    2,803;   -0,864
912,466;15514,354;    1,985;    1,500
913,022;15024,717;   -0,924;    0,500
913,579;15372,808;   -0,470;    2,045
914,136;15089,444;   -2,561;    0,955
914,692;15469,535;    1,530;   -1,227
915,249;15014,081;    0,530;    0,409
915,806;15218,808;    1,803;    1,955
916,362;14919,899;    0,894;    1,864
916,918;14480,535;    2,439;    1,045
917,475;14466,444;    1,621;    0,955
918,031;14616,081;    0,076;   -0,045
918,587;13998,081;    0,621;   -0,318
919,144;14180,444;   -0,379;    0,227
919,700;14546,717;    0,167;    0,773
920,256;14149,081;    0,439;    0,045
920,812;13716,535;    1,439;   -1,045
921,368;13703,626;    1,348;   -1,045
921,924;13403,626;    0,439;   -0,136
922,480;12909,263;    0,076;    1,227
923,036;13535,263;   -0,652;    1,955
923,592;13489,717;    0,621;    0,318
924,148;13398,354;    1,894;   -0,955
924,704;12701,172;    0,258;   -0,409
925,259;13012,717;   -0,561;    0,591
925,815;12744,808;    3,803;    0,500
926,371;12253,717;    3,530;    1,409
926,926;12152,354;    1,621;    0,591
927,482;11751,444;    1,621;    0,773
928,037;11623,626;   -0,833;    2,045
928,593;11928,444;    0,258;    1,045
929,148;11713,263;    1,167;   -1,500
929,704;11247,535;    2,439;   -0,500
930,259;11474,626;    0,894;   -0,136
930,814;10512,626;    1,803;    1,955
931,369;10183,354;    0,258;   -0,773
931,925;10115,626;   -1,924;    0,136
932,480; 9953,081;    3,076;   -2,591
933,035; 9799,626;    3,985;   -0,318
933,590; 9572,172;   -1,742;   -1,773
934,145; 9245,172;   -1,288;   -0,318
934,700; 9581,626;    0,348;   -0,591
935,255; 9396,444;    4,803;    0,045
935,809; 8618,535;    6,258;    0,864
936,364; 7721,717;    2,167;   -0,136
936,919; 7710,444;    2,348;   -1,773
937,474; 7596,717;    1,348;    0,136
938,028; 7385,081;    3,076;    1,136
938,583; 6791,808;    6,348;    4,682
939,138; 7094,626;    0,167;    2,136
939,692; 6551,172;   -1,015;   -1,136
940,247; 6201,263;    1,167;   -1,045
940,801; 5738,081;    0,621;    0,227
941,355; 5642,263;    0,439;    2,591
941,910; 5328,263;    0,712;   -2,136
942,464; 5393,717;    2,712;   -0,318
943,018; 5171,263;    3,258;   -0,227
943,572; 5114,172;    2,803;   -0,682
944,126; 4507,444;   -0,924;   -0,409
944,681; 4395,172;    0,712;    0,227
945,235; 4375,535;    2,167;   -0,591
945,789; 4314,263;    1,258;   -1,864
946,342; 4377,626;   -0,561;   -0,591
946,896; 4213,172;    0,348;    0,955
947,450; 3975,717;   -0,561;   -0,227
948,004; 4144,808;    1,076;   -0,045
948,558; 4185,263;    1,258;   -0,864
949,111; 4093,081;   -1,197;   -0,318
949,665; 4115,899;   -0,106;   -0,682
950,219; 3972,263;    0,621;   -1,045
950,772; 4052,808;    0,258;    1,864
951,326; 3980,444;   -1,106;   -0,955
951,879; 4095,354;    1,076;   -2,318
952,433; 4106,081;    1,348;    2,227
952,986; 3949,354;    0,348;    0,682
953,539; 3884,990;    1,530;    0,591
954,093; 3832,990;    0,985;   -1,318
954,646; 3967,172;   -0,288;    1,318
955,199; 3765,626;    1,258;   -0,500
955,752; 3635,990;    1,985;    1,773
956,305; 3591,444;    0,894;    2,955
956,858; 3768,263;    0,621;   -0,318
957,411; 3963,626;    3,621;    2,136
957,964; 3770,444;    2,076;    2,136
958,517; 3729,626;    0,985;    3,136
959,070; 3587,808;   -1,197;    1,955
959,623; 3639,081;    1,076;    1,500
960,176; 3412,172;    0,712;    2,045
960,728; 3401,535;    1,712;    0,773
961,281; 3459,263;    2,258;    0,500
961,834; 3501,535;   -0,833;    0,864
962,386; 3421,444;    1,258;    1,045
962,939; 3334,535;    3,439;   -0,318
963,491; 3485,626;    2,621;    1,136
964,043; 3366,081;    0,076;    2,409
964,596; 3478,808;    1,712;    2,227
965,148; 3303,172;   -0,379;    1,773
965,700; 3237,444;   -0,015;   -0,227
966,253; 3393,717;   -0,833;    0,318
966,805; 3220,354;    1,894;    0,773
967,357; 3263,263;    0,439;   -1,500
967,909; 3214,354;    1,167;   -1,227
968,461; 3334,808;    0,894;    3,136
969,013; 3267,717;   -1,561;   -0,864
969,565; 3324,172;    1,803;   -1,136
970,117; 3387,808;    3,803;    1,045
970,669; 3232,899;    3,258;   -0,136
971,220; 3117,990;    2,167;   -1,500
971,772; 3011,444;    1,348;   -0,318
972,324; 3124,263;   -1,197;   -0,500
972,876; 3094,354;    0,167;   -0,045
973,427; 3222,990;   -1,197;   -1,045
973,979; 3199,263;    0,076;   -2,500
974,530; 3224,172;    0,803;    1,318
975,082; 3229,354;    2,167;    1,682
975,633; 3109,626;    2,894;    1,682
976,184; 3269,172;    2,076;    0,773
976,736; 3061,444;    0,348;    0,227
977,287; 2829,535;    0,258;   -0,500
977,838; 3030,354;   -0,924;   -0,318
978,389; 3079,263;    0,803;   -0,500
978,940; 2961,990;    1,258;   -0,409
979,491; 3008,263;    2,258;   -0,500
980,042; 2946,808;   -0,652;    3,045
980,593; 3022,172;    1,894;    0,227
981,144; 3038,990;    3,530;   -0,500
981,695; 3028,263;   -0,470;    1,500
982,246; 2983,990;   -1,833;    1,045
982,797; 3152,899;   -0,561;    0,682
983,347; 3260,444;    2,167;    0,591
983,898; 3419,263;    4,167;    0,409
984,449; 3231,263;    2,530;    0,773
984,999; 3170,081;    1,894;   -1,136
985,550; 2911,626;    3,167;   -0,318
986,100; 2966,899;    0,712;   -0,318
986,651; 3010,263;    0,258;    0,045
987,201; 2966,444;    0,894;   -0,591
987,751; 3061,263;   -0,288;    2,864
988,302; 3037,990;   -0,379;    1,500
988,852; 3054,535;    1,985;   -1,136
989,402; 3114,444;    0,985;    0,682
989,952; 3016,899;    1,621;    0,864
990,502; 3125,172;    1,076;    0,682
991,052; 3117,354;   -0,106;    0,045
991,602; 2957,081;    1,167;    1,318
992,152; 2943,081;    2,803;    0,682
992,702; 2915,172;    1,167;   -0,045
993,252; 2837,354;    0,076;   -0,500
993,802; 2939,808;    1,167;    1,318
994,352; 3177,717;   -0,742;    1,136
994,901; 3296,263;    1,076;    3,227
995,451; 3214,444;   -1,197;    0,318
996,000; 3281,263;    1,076;    0,318
996,550; 2966,444;    2,894;    0,227
997,100; 2987,717;   -0,561;   -0,045
997,649; 3268,717;   -0,197;    0,955
998,198; 2895,717;   -0,288;   -1,500
998,748; 3068,535;    0,348;   -2,318
999,297; 2989,990;    0,985;   -0,409
999,846; 3069,808;    1,894;   -0,773
1000,395; 3126,172;    1,530;    0,500
1000,945; 3070,081;    1,076;   -0,773
1001,494; 3129,990;    0,167;    0,682
1002,043; 3136,535;    0,712;    0,864
1002,592; 2984,626;    3,439;    1,955
1003,141; 3126,990;    2,439;   -0,682
1003,690; 2961,717;    1,258;    0,500
1004,238; 3037,354;   -0,106;   -0,045
1004,787; 2670,626;   -1,288;    1,227
1005,336; 2895,263;    1,621;    0,682
1005,885; 3041,717;   -0,197;   -2,773
1006,433; 3211,717;   -0,470;    0,955
1006,982; 3261,081;    2,167;    1,682
1007,531; 3178,081;    2,712;   -0,227
1008,079; 3125,263;    0,258;    0,500
1008,627; 3289,626;    1,621;    0,409
1009,176; 3018,717;    0,076;   -1,955
1009,724; 3051,263;   -2,742;    0,864
1010,273; 3090,263;    1,076;    0,500
1010,821; 3228,172;    1,076;    1,409
1011,369; 2956,081;    0,076;    1,318
1011,917; 2939,626;   -0,833;   -0,591
1012,465; 3240,808;    2,530;   -1,591
1013,013; 3323,081;    0,439;   -1,682
1013,561; 3208,354;   -1,288;   -0,773
1014,109; 3239,444;   -0,833;    1,682
1014,657; 3112,263;    1,348;    0,591
1015,205; 3243,717;    0,894;   -0,955
1015,753; 3289,535;    0,258;   -1,409
1016,301; 3331,535;    2,621;    3,045
1016,848; 3348,717;    2,167;    0,409
1017,396; 3374,444;    1,621;    0,045
1017,944; 3504,354;    2,621;    1,864
1018,491; 3270,899;   -0,197;    1,409
1019,039; 3405,899;   -0,652;    0,591
1019,586; 3335,717;    0,076;    1,682
1020,134; 3431,626;    0,712;    1,500
1020,681; 3428,899;    2,894;   -1,136
1021,228; 3461,626;   -0,561;   -2,227
1021,776; 3311,899;   -0,833;   -1,136
1022,323; 3511,808;    0,803;    0,773
1022,870; 3433,172;   -0,470;   -0,045
1023,417; 3335,535;    2,076;    1,864
1023,964; 3489,717;    0,621;    1,227
1024,511; 3324,263;   -0,652;    0,773
1025,058; 3085,172;    0,439;   -0,045
1025,605; 3171,990;   -1,742;    3,136
1026,152; 3354,990;   -0,106;   -0,591
1026,699; 3086,626;    0,167;    1,318
1027,245; 3270,354;    2,439;    0,318
1027,792; 3508,354;    0,712;    1,409
1028,339; 3370,354;    4,076;   -0,045
1028,885; 3225,717;    3,621;   -0,227
1029,432; 3167,990;   -0,106;    0,227
1029,978; 3214,172;    1,348;   -1,591
1030,525; 3110,263;    1,621;    0,409
1031,071; 3384,263;    0,348;    1,136
1031,618; 3454,717;    1,258;    1,682
1032,164; 3249,899;    2,076;    3,045
1032,710; 3312,263;    0,076;   -1,500
1033,256; 3231,717;    0,712;   -0,136
1033,803; 3215,717;   -0,288;    1,500
1034,349; 2955,899;    1,803;    0,136
1034,895; 3111,899;    2,621;   -0,318
1035,441; 3083,444;    0,439;    0,318
1035,987; 3089,444;   -2,288;   -0,682
1036,533; 3070,535;   -0,197;   -0,955
1037,078; 3279,172;    4,712;    1,682
1037,624; 3097,717;    2,439;   -0,955
1038,170; 3146,081;    1,712;   -0,318
1038,716; 3000,717;    2,167;   -0,409
1039,261; 2935,172;    2,167;   -0,773
1039,807; 2859,081;   -0,015;    3,409
1040,352; 2919,444;   -1,288;   -0,318
1040,898; 2996,990;    0,167;   -0,682
1041,443; 2888,172;    0,803;   -2,591
1041,989; 2897,535;    3,621;    1,591
1042,534; 2816,263;    0,985;    2,591
1043,079; 2928,081;    1,985;    0,955
1043,625; 2676,808;    0,258;    0,500
1044,170; 2742,081;    2,439;    1,045
1044,715; 2992,899;    0,167;    0,955
1045,260; 2811,172;   -0,833;   -0,955
1045,805; 2865,899;    0,258;   -0,591
1046,350; 2793,990;    0,530;   -0,409
1046,895; 2753,354;    0,803;    1,591
1047,440; 2689,444;    1,530;    0,409
1047,985; 2612,263;   -1,197;   -0,955
1048,530; 2509,808;    1,348;    1,227
1049,074; 2591,808;    2,803;    0,318
1049,619; 2565,626;   -0,924;    1,955
1050,164; 2348,808;    1,076;    0,227
1050,708; 2402,081;    2,621;    0,045
1051,253; 2753,808;    3,258;   -2,227
1051,797; 2473,444;   -0,197;   -1,318
1052,342; 2510,990;    1,348;    1,045
1052,886; 2483,263;    1,803;   -1,409
1053,430; 2372,626;    2,167;    0,136
1053,975; 2389,081;    0,894;   -0,318
1054,519; 2372,990;    1,803;    3,227
1055,063; 2367,990;    3,621;    1,318
1055,607; 2263,444;    1,348;    0,227
1056,151; 2303,717;    0,530;    1,682
1056,695; 2211,899;   -1,833;   -1,136
1057,239; 2287,081;   -1,197;   -0,682
1057,783; 2270,899;    2,258;   -1,500
1058,327; 2213,990;    3,076;    1,409
1058,871; 2437,808;    3,985;    1,318
1059,415; 2132,899;   -0,561;   -0,045
1059,958; 2391,354;    2,985;    2,591
1060,502; 2124,808;    1,348;   -0,773
1061,046; 2036,808;    1,712;   -0,955
1061,589; 2020,354;    2,803;   -1,136
1062,133; 1901,263;    0,985;    1,864
1062,676; 1829,535;    1,439;    0,864
1063,220; 1840,990;    0,985;    0,500
1063,763; 1853,354;    2,985;    1,136
1064,306; 1926,354;    0,985;    1,864
1064,849; 1816,172;    2,076;    0,591
1065,393; 1831,808;    2,894;   -1,500
1065,936; 1940,990;    2,530;   -0,409
1066,479; 1826,444;    2,621;    1,318
1067,022; 1857,081;    1,894;   -0,227
1067,565; 1733,444;   -1,197;   -1,318
1068,108; 1774,444;    1,258;   -0,591
1068,651; 1750,263;   -2,470;    1,409
1069,194; 1678,444;   -1,106;   -1,682
1069,736; 1673,263;    3,803;    0,955
1070,279; 1651,990;   -1,652;   -0,500
1070,822; 1706,990;    1,530;   -0,318
1071,364; 1751,172;    0,530;    1,318
1071,907; 1594,444;    0,348;    3,227
1072,450; 1519,535;    0,258;   -0,045
1072,992; 1514,444;   -0,561;    3,136
1073,535; 1632,444;    0,167;    2,136
1074,077; 1448,808;    2,985;    2,045
1074,619; 1409,263;    0,985;    0,591
1075,161; 1424,717;   -0,561;    1,500
1075,704; 1598,626;    0,258;    1,227
1076,246; 1412,717;    1,530;    0,682
1076,788; 1344,717;   -1,015;    1,773
1077,330; 1431,081;   -2,106;    2,136
1077,872; 1389,263;   -1,924;    0,955
1078,414; 1597,808;    3,712;    0,773
1078,956; 1329,899;    0,167;   -0,227
1079,498; 1584,354;    0,439;    0,318
1080,040; 1295,899;    0,985;   -1,318
1080,581; 1235,808;    0,621;   -0,318
1081,123; 1183,899;   -0,106;   -0,773
1081,665; 1235,535;    3,803;   -0,955
1082,206; 1492,354;    3,258;   -0,500
1082,748; 1365,172;    3,258;    2,045
1083,289; 1273,717;    0,167;    1,318
1083,831; 1171,081;    0,258;    0,227
1084,372; 1182,081;    0,894;    0,591
1084,913; 1183,626;    3,348;    0,864
1085,455; 1161,990;    1,530;   -2,045
1085,996; 1125,626;    0,530;    0,136
1086,537; 1150,899;    0,985;    0,864
1087,078; 1185,535;    0,439;   -2,136
1087,619; 1212,808;   -1,652;    0,227
1088,160; 1134,626;    1,439;    1,318
1088,701; 1125,808;   -0,742;    0,682
1089,242; 1075,808;   -0,561;   -2,227
1089,783; 1157,535;   -0,561;    1,409
1090,324; 1128,444;   -0,833;    0,682
1090,865; 1008,808;   -1,924;   -0,409
1091,405;  998,990;   -0,561;    2,227
1091,946; 1019,717;   -0,197;   -0,955
1092,487;  942,808;   -1,288;   -1,409
1093,027; 1090,990;    1,803;   -1,500
1093,568;  948,354;    2,258;    1,227
1094,108; 1024,990;    0,621;    1,773
1094,649;  976,899;   -0,470;    0,136
1095,189;  913,444;    1,167;   -0,682
1095,729;  872,444;    0,712;    0,955
1096,269;  887,808;    1,258;   -0,955
1096,810; 1181,354;   -0,197;    0,500
1097,350; 1011,808;   -0,561;   -0,773
1097,890;  916,172;    2,985;    1,227
1098,430; 1147,899;    4,985;    2,864
1098,970; 1033,626;    1,894;    1,682
1099,510;  903,354;   -0,833;   -2,318
1100,050;  831,899;    0,258;   -1,591
1100,589;  806,626;    0,076;   -0,318
1101,129;  923,717;    0,894;   -0,955
1101,669; 1057,717;    2,803;    2,136
1102,209;  889,444;    1,530;    2,227
1102,748;  840,899;    3,439;    0,955
1103,288;  833,717;    0,712;   -1,227
1103,827;  861,626;    3,530;   -2,227
1104,367;  737,990;    1,712;   -2,409
1104,906;  703,808;   -1,015;   -1,136
1105,445;  778,263;    0,985;   -1,136
1105,985;  712,263;   -0,652;    1,500
1106,524;  753,808;    1,530;   -0,682
1107,063;  731,808;    1,167;    1,409
1107,602;  715,808;    1,894;   -1,500
1108,141;  646,354;    1,621;    1,500
1108,680;  731,990;    3,985;   -0,591
1109,219;  673,081;    0,167;   -0,500
1109,758;  671,172;    4,167;    0,682
1110,297;  643,263;   -1,106;   -0,682
1110,836;  600,535;    1,439;    0,955
1111,375;  744,354;    0,348;    0,409
1111,913;  754,172;    0,985;    0,773
1112,452;  706,899;    0,894;    0,136
1112,991;  594,172;    1,076;    1,955
1113,529;  549,808;    0,167;   -0,045
1114,068;  608,990;    0,439;    2,955
1114,606;  513,626;   -0,561;   -0,955
1115,144;  672,263;    1,530;    1,045
1115,683;  619,172;    1,985;    0,318
1116,221;  660,081;    2,076;   -0,864
1116,759;  579,808;    1,621;   -0,864
1117,297;  755,808;    1,621;    1,864
1117,836;  572,444;    1,985;   -1,227
1118,374;  574,444;    0,258;   -0,682
1118,912;  519,444;    0,439;    2,682
1119,450;  500,354;    0,985;    0,864
1119,988;  546,263;    3,348;    2,136
1120,525; 1009,626;    7,258;    3,318
1121,063;  707,899;    0,530;    1,864
1121,601;  520,172;    1,076;   -1,227
1122,139;  484,808;    1,076;   -2,045
1122,676;  663,717;   -1,652;    2,773
1123,214;  600,263;    0,712;    4,409
1123,751;  414,990;    0,621;    2,227
1124,289;  549,808;    0,894;   -0,409
1124,826;  418,535;   -0,379;    0,227
1125,364;  358,717;    0,712;   -0,955
1125,901;  542,990;    6,258;    1,227
1126,438;  632,081;    3,530;    0,955
1126,975;  369,626;    2,985;   -0,773
1127,513;  435,172;    2,621;    2,136
1128,050;  350,081;   -0,561;   -0,682
1128,587;  434,535;    1,348;   -0,227
1129,124;  468,899;   -0,015;    1,318
1129,661;  358,899;   -1,924;    0,227
1130,198;  518,172;    2,439;    0,773
1130,734;  459,626;   -0,379;    1,409
1131,271;  326,081;   -1,197;    0,864
1131,808;  501,626;    1,621;    3,045
1132,345;  374,808;    4,530;    0,318
1132,881;  253,535;   -0,561;   -1,864
1133,418;  383,172;    0,348;   -1,136
1133,954;  325,808;    0,712;   -2,682
1134,491;  388,626;    1,712;   -0,773
1135,027;  287,172;    2,167;    0,864
1135,564;  370,990;    1,439;    2,955
1136,100;  352,263;   -0,742;    2,136
1136,636;  257,263;   -1,015;   -1,045
1137,172;  339,172;    0,894;   -1,045
1137,708;  276,354;   -1,561;   -1,045
1138,245;  275,172;    0,803;   -1,227
1138,781;  231,626;    1,803;   -3,318
1139,317;  289,444;    1,894;   -1,409
1139,852;  277,535;    3,076;    0,136
1140,388;  383,172;    2,076;   -0,409
1140,924;  270,081;    1,076;   -2,227
1141,460;  218,899;   -0,288;    0,136
1141,996;  167,444;   -0,652;    2,682
1142,531;  209,081;    1,076;    3,318
1143,067;  404,263;    1,167;    1,045
1143,602;  459,263;    3,439;   -0,318
1144,138;  310,626;    0,803;    1,045
1144,673;  191,444;    1,621;    1,409
1145,209;  260,717;    2,894;   -0,318
1145,744;  177,990;    0,803;    0,864
1146,279;  302,899;    1,530;   -0,136
1146,815;  224,354;    1,530;   -2,682
1147,350;  263,081;   -0,924;    0,045
1147,885;  173,263;   -1,924;   -1,318
1148,420;  177,535;    2,439;    0,773
1148,955;  165,444;   -1,470;    1,864
1149,490;  187,444;   -1,106;   -1,591
1150,025;  171,808;   -1,106;   -1,773
1150,560;  264,081;   -0,288;   -0,955
1151,094;  233,263;    0,258;   -0,591
1151,629;  238,263;   -3,742;    0,864
1152,164;  175,990;   -1,288;    1,318
1152,698;  140,172;    1,258;   -0,136
1153,233;   95,899;   -1,379;   -0,682
1153,767;  142,172;   -0,288;   -2,318
1154,302;  191,626;   -0,379;    1,773
1154,836;  194,354;    0,803;   -2,136
1155,371;  236,626;    2,258;    3,682
1155,905;  195,535;    1,985;    1,682
1156,439;  163,354;    0,530;   -0,500
1156,973;  193,263;    0,439;    0,318
1157,507;  130,172;   -1,742;    0,682
1158,042;  156,808;   -0,652;    1,045
1158,576;  197,626;   -0,561;    1,773
1159,110;  189,990;    0,076;    2,409
1159,643;  165,626;   -2,470;   -0,045
1160,177;  110,808;   -2,015;    1,500

