
Integration time [ms]:   0,050
Averaging Nr. [scans]: 11
Smoothing Nr. [pixels]: 0
Data measured with spectrometer [name]: 7318044SP
Wave   ;Sample   ;Dark     ;Reference
[nm]   ;[counts] ;[counts] ;[counts] 

186,757;   -1,611;   38,161;    1,318
187,357;   23,466;   26,706;    0,955
187,958;    4,831;   17,252;   -1,591
188,558;   54,917;   12,979;   -1,227
189,159;   31,401;   10,070;   -4,500
189,759;    6,996;    5,797;   -3,591
190,360;    3,509;    6,797;   -2,136
190,960;   40,219;    5,706;   -4,136
191,560;   52,425;    2,614;   -6,591
192,161;  281,826;    5,885;   -3,500
192,761;  133,114;    5,520;   -3,227
193,361;   82,260;    3,065;   -3,773
193,962;  123,313;    1,612;   -2,682
194,562;   62,507;   -0,114;   -3,955
195,162;   98,580;   -0,567;   -2,227
195,762;  253,293;    2,433;   -0,045
196,362;  203,758;    1,706;   -2,500
196,963;   85,662;    1,706;   -0,864
197,563;  154,471;    1,252;   -0,955
198,163;  108,709;   -0,111;   -0,682
198,763;  135,144;   -0,020;   -0,500
199,363;  222,500;    3,616;   -0,500
199,963;  194,679;    2,162;    0,409
200,563;  167,913;    6,344;   -1,409
201,163;  141,626;    5,435;   -0,227
201,763;  228,766;    1,435;    0,318
202,363;  174,173;    0,980;    1,500
202,963;  280,101;    1,526;    1,045
203,563;  387,223;    0,344;    0,500
204,162;  243,166;    1,889;   -1,864
204,762;  240,347;    2,071;    0,591
205,362;  213,716;    0,708;    1,955
205,962;  310,345;    3,435;    1,955
206,562;  321,037;    1,889;    2,318
207,161;  289,953;    1,708;    0,318
207,761;  427,979;    4,435;    2,409
208,361;  310,092;    1,889;    1,409
208,960;  403,879;    2,889;    1,500
209,560;  477,555;    0,435;    1,591
210,160;  465,073;    5,071;    1,864
210,759;  441,476;    0,708;    1,227
211,359;  443,772;   -0,474;    1,045
211,958;  712,189;    3,526;    2,045
212,558;  791,502;    0,799;    1,864
213,157;  633,612;   -0,929;    1,500
213,757; 1089,186;    5,617;   -0,227
214,356;  778,266;    1,708;   -0,409
214,956; 1115,534;    3,526;    0,409
215,555;  759,320;    0,617;    2,136
216,154;  689,625;   -0,292;   -0,591
216,754;  716,518;    1,253;    0,773
217,353;  862,671;   -0,383;   -1,045
217,952;  727,464;    2,072;    0,318
218,552;  955,199;    0,254;   -0,773
219,151;  860,788;   -1,110;    0,955
219,750;  870,379;    0,890;   -0,227
220,349; 1035,754;   -2,292;    1,045
220,948; 1084,872;    1,163;    1,136
221,548; 1147,331;    0,617;    1,227
222,147; 1266,140;   -1,292;   -0,409
222,746; 1551,211;    1,254;   -0,955
223,345; 1433,071;   -1,019;    0,500
223,944; 1468,150;    1,163;    0,773
224,543; 1666,859;    4,072;   -1,409
225,142; 1784,298;    1,345;    0,136
225,741; 1708,267;    1,163;    1,045
226,340; 1725,797;    1,254;   -0,955
226,939; 2224,577;    2,708;   -0,136
227,538; 2267,548;    1,163;   -0,773
228,137; 2402,840;    0,435;    0,864
228,735; 2605,377;    0,435;    1,227
229,334; 2325,088;   -0,474;   -0,227
229,933; 2722,807;    0,799;    0,591
230,532; 2879,706;   -1,201;   -0,409
231,131; 2944,581;    1,253;    0,318
231,729; 3140,947;    1,163;   -2,318
232,328; 3340,797;    0,435;   -1,500
232,927; 3471,679;    4,526;   -0,500
233,525; 3625,975;    0,981;    0,045
234,124; 3882,673;    1,890;   -1,591
234,723; 3934,468;    1,617;   -1,045
235,321; 4122,933;    1,163;    0,136
235,920; 4381,319;    2,526;   -1,227
236,518; 4705,694;    1,072;    0,318
237,117; 4953,942;    2,890;   -0,227
237,715; 5178,154;    1,163;   -0,500
238,314; 5209,913;    1,708;   -2,318
238,912; 5300,946;    0,526;   -1,409
239,510; 5406,094;    1,162;   -1,227
240,109; 5597,462;   -0,474;    3,773
240,707; 5682,017;   -0,474;    1,227
241,305; 6169,018;   -0,383;    0,136
241,904; 6426,473;   -0,292;   -2,045
242,502; 6361,498;    3,253;   -0,227
243,100; 6338,773;    3,344;   -0,955
243,698; 6618,803;    2,799;    1,682
244,297; 6841,460;   -0,656;    0,682
244,895; 6644,462;   -0,474;   -2,318
245,493; 7025,968;    2,981;   -0,591
246,091; 7117,901;    5,163;   -1,318
246,689; 7136,620;    2,163;    0,591
247,287; 7340,669;   -0,019;   -1,136
247,885; 7697,383;   -1,019;    1,227
248,483; 7839,355;   -0,201;   -0,500
249,081; 7999,783;    0,981;    1,591
249,679; 8155,237;   -1,019;    1,682
250,277; 8477,779;   -2,292;    0,864
250,875; 8449,055;    0,617;   -1,045
251,473; 8514,711;   -0,019;    0,500
252,071; 8686,446;   -0,383;    1,045
252,669; 8899,059;   -1,565;    0,318
253,267; 9235,165;    1,618;    0,773
253,864; 9216,669;    0,617;    0,682
254,462; 9015,358;    1,526;    1,591
255,060; 9064,134;    0,072;    1,318
255,658; 9445,968;   -3,292;   -0,136
256,255; 9894,842;   -0,201;   -2,045
256,853; 9804,020;    2,345;    1,409
257,451; 9800,042;    1,981;    1,864
258,048;10027,181;    2,072;    1,864
258,646; 9820,168;    0,436;   -1,045
259,243;10030,383;    2,981;    2,227
259,841;10109,580;    1,799;    0,318
260,438; 9992,995;    0,254;    0,864
261,036;10785,138;    0,617;    1,409
261,633;10737,622;    1,526;    2,227
262,231;10478,158;   -0,110;   -0,045
262,828;10596,988;   -0,383;    1,136
263,425;10623,164;   -1,928;   -0,591
264,023;10924,588;    1,436;    0,045
264,620;10453,242;    1,526;   -0,318
265,217;10808,431;    2,890;    3,136
265,815;10948,766;    2,527;    2,136
266,412;10706,357;    0,072;    0,136
267,009;10773,851;    0,526;    0,773
267,606;10624,168;    0,345;   -0,955
268,203;10623,205;   -0,383;   -0,591
268,801;10948,720;   -0,474;    0,591
269,398;11289,896;   -0,564;    2,500
269,995;11294,260;    0,890;    1,591
270,592;11032,666;    0,799;   -0,500
271,189;11314,020;    1,981;    0,409
271,786;11452,024;    2,072;    1,227
272,383;11225,336;   -0,383;    0,227
272,980;11470,926;    1,617;    0,318
273,577;12014,201;    2,162;    1,227
274,174;11551,359;    1,435;    2,591
274,771;11501,605;    1,890;   -0,773
275,367;11679,829;    3,253;    1,409
275,964;11620,360;   -0,565;   -0,500
276,561;11772,539;   -2,474;   -1,045
277,158;12042,601;    1,799;   -1,773
277,755;12167,329;   -0,110;    0,409
278,351;11493,159;    0,436;   -1,500
278,948;11891,833;   -0,201;    0,045
279,545;11930,310;    0,527;    2,318
280,141;12586,372;    1,254;   -2,045
280,738;12436,224;    2,435;   -0,136
281,334;12762,078;   -0,383;    0,591
281,931;12082,415;    2,890;   -1,318
282,528;12172,315;    4,072;   -0,500
283,124;12998,903;    3,345;   -0,500
283,721;12899,744;    0,709;    1,409
284,317;12714,126;    0,163;    2,500
284,913;13317,274;   -0,110;    0,591
285,510;13528,819;    2,890;   -0,318
286,106;13542,585;    2,345;   -0,955
286,703;13090,138;    0,072;    1,955
287,299;13364,489;    1,254;   -0,591
287,895;13622,184;    0,890;   -1,045
288,491;14299,896;    0,163;    2,136
289,088;13970,303;    0,163;    2,409
289,684;14028,514;    2,890;    1,500
290,280;14065,437;    1,890;    0,682
290,876;14133,200;    0,163;    5,500
291,472;14014,270;    2,163;    2,227
292,068;14073,148;    1,254;    0,227
292,665;13838,035;   -0,564;    0,773
293,261;13384,946;   -1,292;    2,136
293,857;13822,148;    4,072;    2,136
294,453;13794,344;   -0,928;    0,955
295,049;13596,310;    0,253;    1,955
295,644;13602,786;   -1,292;    0,136
296,240;13567,791;    0,162;   -0,136
296,836;13656,151;   -0,747;    0,318
297,432;13947,668;    2,980;   -0,500
298,028;13938,734;    0,435;    0,773
298,624;14390,721;    0,889;    1,864
299,220;14727,067;    0,435;    0,591
299,815;14341,780;    0,526;   -0,409
300,411;14091,310;    0,435;    1,773
301,007;14122,345;    1,889;    0,227
301,602;14217,134;    2,071;   -2,318
302,198;14388,534;    1,435;   -0,773
302,794;14724,008;    1,526;   -0,500
303,389;14903,943;    1,071;    1,045
303,985;14980,026;    1,253;    1,409
304,580;14952,091;    0,889;    1,591
305,176;14947,095;    0,344;    0,136
305,771;14892,022;   -0,929;   -1,227
306,367;14645,321;    3,071;    0,136
306,962;15041,225;    2,889;    1,500
307,558;14781,795;    2,435;    0,136
308,153;14744,285;   -0,383;   -1,136
308,748;14983,928;    0,162;    1,682
309,344;14950,627;    0,253;   -1,318
309,939;15042,584;    2,071;   -1,318
310,534;15374,105;   -2,020;   -1,682
311,130;15376,821;   -0,656;   -2,500
311,725;15085,071;    0,526;   -0,500
312,320;15385,209;    1,253;    0,045
312,915;15228,023;    2,890;   -1,045
313,510;15253,567;    0,526;   -0,500
314,105;15841,288;   -3,565;    1,409
314,700;15206,356;   -1,656;   -1,045
315,295;14768,909;   -0,020;    0,045
315,890;14315,481;   -0,292;    0,864
316,485;14674,724;    0,253;   -0,318
317,080;14805,242;   -0,929;    1,591
317,675;15378,127;    3,071;   -0,682
318,270;14659,939;    6,889;    3,318
318,865;14733,931;    2,435;    3,045
319,460;14575,738;   -1,565;    0,591
320,055;14843,731;   -2,565;   -1,227
320,650;14487,019;   -1,838;   -0,591
321,244;14500,773;    0,889;   -1,409
321,839;15557,108;    0,980;   -0,227
322,434;15493,573;   -0,111;   -1,591
323,029;15070,197;   -0,474;    1,591
323,623;14879,292;    0,798;    0,773
324,218;14593,047;    2,707;    1,409
324,812;14499,744;    0,889;    1,591
325,407;14293,738;   -0,929;    2,045
326,002;14188,903;    0,526;   -0,409
326,596;14552,512;   -0,656;    1,318
327,191;14810,315;   -0,383;   -1,045
327,785;14331,421;   -0,747;   -0,227
328,379;14552,712;   -0,383;    0,136
328,974;14318,473;    1,798;   -3,955
329,568;14590,604;    2,889;   -2,409
330,163;14382,610;    2,435;    1,045
330,757;14767,534;    0,253;    1,591
331,351;14044,293;   -0,292;    0,682
331,945;14324,000;   -0,383;    1,409
332,540;13899,119;    1,617;   -0,591
333,134;14020,155;    3,344;    0,773
333,728;14286,541;    2,799;    0,318
334,322;14675,910;    0,889;   -0,864
334,916;13904,669;    0,344;    0,955
335,510;14258,036;   -0,111;   -0,136
336,105;14565,043;   -0,929;    1,591
336,699;14181,781;   -1,292;    0,591
337,293;14082,164;    1,071;    0,318
337,887;14258,969;    0,071;    1,955
338,481;14327,053;    2,980;    0,591
339,074;14507,479;    2,071;    2,682
339,668;14279,949;   -0,110;    1,227
340,262;14510,560;    7,708;    3,227
340,856;13987,447;    1,708;   -0,682
341,450;13291,763;    0,708;    1,864
342,044;14282,528;    1,799;    0,136
342,637;14046,917;    1,162;   -2,136
343,231;13866,199;   -1,474;    0,682
343,825;13792,045;   -0,747;   -0,591
344,419;13697,869;   -0,474;    0,500
345,012;13397,644;    2,889;    4,045
345,606;13429,015;   -0,656;    1,591
346,199;13281,847;   -0,111;   -0,227
346,793;12705,499;    2,525;    2,045
347,386;12939,066;    0,889;   -1,136
347,980;12917,613;   -0,838;   -0,045
348,573;12681,808;   -1,748;    0,409
349,167;12280,623;    6,161;    4,773
349,760;12694,582;    2,252;    2,682
350,354;12679,855;    1,616;    1,136
350,947;12364,338;    2,798;    1,682
351,540;11987,536;    0,616;   -1,409
352,134;11951,979;   -1,111;    1,136
352,727;12003,207;   -0,657;    1,136
353,320;11791,963;    2,343;    0,591
353,913;11613,320;   -1,929;    1,864
354,507;11767,453;    0,434;   -1,227
355,100;11814,766;    0,071;    0,864
355,693;10887,635;    4,798;    2,409
356,286;10963,789;    0,980;    2,773
356,879;11364,599;   -0,475;    1,227
357,472;10915,203;    0,980;    1,500
358,065;11115,035;    3,161;    2,500
358,658;11026,772;    0,798;    2,318
359,251;10620,062;    0,252;   -0,591
359,844;10012,918;    0,343;   -1,136
360,437;10181,750;    0,252;    0,045
361,030;10512,665;    0,525;   -0,682
361,623;10010,380;    0,434;    0,318
362,215;10070,043;    0,979;    2,045
362,808; 9940,548;   -2,293;   -1,682
363,401;10095,279;    0,798;    0,136
363,994; 9801,988;    3,252;   -1,500
364,586; 9708,685;    0,888;   -1,500
365,179; 9959,566;   -0,203;   -1,136
365,772; 9378,198;   -0,930;    2,045
366,364; 9676,593;    1,524;   -3,227
366,957; 9902,205;    1,342;   -0,045
367,549; 9942,500;   -0,203;   -0,864
368,142; 9505,198;    0,978;   -1,500
368,734; 9748,991;    2,523;   -2,136
369,327; 9717,285;    2,341;   -0,500
369,919; 9593,337;   -1,659;    0,409
370,512; 9353,055;   -1,023;   -0,500
371,104; 9026,660;    2,704;    1,591
371,696; 9192,013;    1,703;   -0,955
372,289; 9324,448;    0,157;    1,136
372,881; 9504,279;    1,156;    1,318
373,473; 9456,312;    4,064;    1,136
374,066; 9224,025;    1,336;    0,500
374,658; 9030,008;    0,879;    1,136
375,250; 9447,540;   -1,668;   -1,409
375,842; 9228,190;   -0,124;   -0,045
376,434; 9105,518;   -2,762;   -0,409
377,026; 9784,636;   -1,855;   -2,500
377,618; 9637,334;    0,779;   -0,682
378,210; 9498,822;    3,141;   -1,955
378,802; 9327,719;    3,412;   -0,591
379,394; 9234,101;    3,411;    0,682
379,986; 9946,331;    1,138;   -0,955
380,578;10056,516;    1,410;    0,773
381,170; 9254,368;    0,320;    0,045
381,762; 9253,185;   -0,224;    1,409
382,354; 9511,994;   -0,223;   -1,318
382,945; 9624,862;    0,870;    0,318
383,537; 9794,412;    1,144;   -1,955
384,129; 9797,689;    0,963;   -1,136
384,721; 9983,682;    0,418;    0,955
385,312; 9895,045;   -1,399;   -0,955
385,904;10010,395;   -0,945;    1,591
386,496; 9317,107;    0,691;    1,045
387,087; 9432,865;    0,418;    2,500
387,679; 9524,257;   -0,401;    0,045
388,270; 9663,699;   -2,401;    2,045
388,862; 9775,867;   -0,401;   -0,318
389,453; 9684,146;    1,054;    1,045
390,045; 9949,931;    3,236;   -2,682
390,636; 9909,852;    0,144;   -0,591
391,227; 9781,957;    2,054;   -0,045
391,819; 9844,101;    0,781;    0,773
392,410; 9923,270;    0,600;    0,045
393,001; 9805,812;    1,600;   -1,591
393,593;10164,790;    0,600;   -0,045
394,184; 9972,284;    0,873;   -0,409
394,775; 9947,234;    1,146;    2,136
395,366;10166,806;    1,782;    0,773
395,957;10189,411;   -2,400;    0,136
396,548;10533,085;    1,054;    2,682
397,139;10858,566;    2,236;    0,591
397,730;10525,483;    0,873;    0,955
398,321;10615,959;    0,509;    0,955
398,912;10679,969;   -0,764;    0,136
399,503;10757,076;   -1,945;   -1,409
400,094;10101,698;   -1,582;    1,682
400,685; 9971,413;    3,600;    0,045
401,276;10047,163;   -0,400;   -0,955
401,867;10398,142;   -1,127;    0,773
402,458;10491,568;    1,509;   -2,318
403,048;10491,474;    0,146;    0,591
403,639;10049,485;    1,509;    0,864
404,230;10254,797;    0,691;    0,318
404,821;10167,076;   -0,127;    0,045
405,411;10320,170;   -0,763;   -2,591
406,002; 9895,433;    3,237;   -1,136
406,592; 9658,462;    2,691;    0,045
407,183;10025,047;    0,328;   -1,500
407,774; 9933,995;    1,419;   -0,136
408,364;10327,522;    2,600;    0,409
408,954; 9858,218;   -0,036;    1,227
409,545; 9903,193;    1,873;    1,045
410,135; 9370,793;   -1,581;    0,500
410,726; 9556,884;    0,783;    0,318
411,316; 9984,911;    2,237;    0,773
411,906; 9629,948;    0,146;   -0,409
412,497; 9045,396;   -0,490;   -0,045
413,087; 9725,752;    0,783;   -0,227
413,677;10212,009;   -2,490;    3,864
414,267; 9988,942;   -1,035;    1,409
414,857;10020,265;    0,419;    4,227
415,448;10338,645;   -0,763;    0,500
416,038; 9974,721;   -2,945;   -0,591
416,628; 9936,710;    0,965;    0,409
417,218; 9330,977;   -1,762;    3,318
417,808; 9627,664;    0,965;   -0,409
418,398;10177,615;   -1,035;    2,682
418,988;10176,897;   -2,217;    0,591
419,578;10456,753;    3,601;    1,409
420,168;10851,783;    0,692;   -0,955
420,757;10375,224;    0,964;   -1,500
421,347;10054,174;    1,601;   -0,227
421,937;10209,727;    3,329;    1,409
422,527;10118,655;    2,602;   -0,773
423,116; 9920,003;    2,692;   -0,045
423,706;10389,807;    2,965;    0,318
424,296;10357,154;    1,601;    0,682
424,885;10796,790;    1,510;   -3,045
425,475;11091,644;    1,147;   -2,864
426,065;11012,297;   -1,489;   -0,318
426,654;10617,255;    0,329;   -0,318
427,244;10723,348;    1,147;    1,409
427,833;10101,652;    1,056;   -0,500
428,423;10646,311;    0,147;    1,136
429,012;11496,539;    2,420;   -1,136
429,601;10923,054;    2,057;    0,136
430,191;11201,322;    2,511;    4,318
430,780;10800,022;   -1,671;   -0,409
431,369;10669,062;    1,329;   -0,045
431,959;11403,501;    1,693;    0,500
432,548;11153,650;   -1,398;   -0,045
433,137;11341,115;    0,329;   -1,318
433,726;11945,585;    0,148;    0,500
434,315;11222,991;    0,148;    2,409
434,905;11303,726;    0,693;    1,409
435,494;11186,863;    3,148;    0,955
436,083;11687,685;    1,420;   -0,955
436,672;11510,332;    1,148;    0,500
437,261;11054,757;    0,512;   -1,955
437,850;11162,094;   -1,125;    0,682
438,439;11139,464;    2,239;    1,955
439,027;10937,804;    3,421;    1,773
439,616;11355,461;    2,239;    1,227
440,205;11257,631;    0,057;   -2,136
440,794;11313,594;   -0,306;   -0,045
441,383;11588,681;    1,603;   -0,591
441,971;11471,557;   -0,306;    0,591
442,560;11342,156;    0,603;   -1,773
443,149;11133,752;    3,060;   -1,318
443,737;11264,831;    0,968;   -2,318
444,326;11516,909;    0,331;    0,318
444,915;11543,627;   -1,851;    0,864
445,503;11990,170;    0,058;   -0,318
446,092;11184,147;    7,876;    2,136
446,680;11782,364;    1,876;    0,318
447,269;12006,680;   -1,487;   -0,318
447,857;11747,213;    2,240;   -1,773
448,445;11855,668;    2,149;    1,318
449,034;12125,014;    0,876;   -1,136
449,622;12261,932;    1,240;    3,500
450,210;11342,931;    3,149;    2,227
450,799;11964,263;    2,604;   -0,591
451,387;11905,000;    1,786;   -0,591
451,975;11462,544;   -1,305;    0,864
452,563;11592,813;    0,422;    2,318
453,151;11670,604;   -1,032;   -1,227
453,739;11596,826;   -1,577;    0,136
454,328;11382,410;    0,604;   -2,136
454,916;11035,487;    1,150;   -0,136
455,504;11264,758;    3,513;    1,227
456,092;11483,135;    2,150;   -1,591
456,679;11456,673;    0,604;    0,682
457,267;11290,387;    3,604;    1,045
457,855;11543,365;    3,241;    1,409
458,443;11282,295;   -0,304;    1,682
459,031;11393,895;    1,332;    2,409
459,619;11935,025;   -3,577;    2,864
460,206;12096,134;   -0,759;    2,045
460,794;12171,013;   -0,668;   -0,227
461,382;12449,481;    0,878;   -0,864
461,970;11995,051;    0,605;    1,864
462,557;12023,795;    0,878;   -0,682
463,145;12214,032;   -0,304;   -1,682
463,732;12365,303;    2,514;   -1,045
464,320;12322,720;    1,514;   -3,045
464,907;11917,702;    0,423;   -0,773
465,495;11766,074;    2,696;   -1,227
466,082;11921,546;    2,060;   -0,045
466,670;11871,580;    2,605;    1,227
467,257;12344,937;    0,060;    2,045
467,844;12532,046;    1,514;    0,045
468,432;12510,840;   -0,031;    3,500
469,019;11962,044;    1,606;   -1,773
469,606;12449,330;    0,969;    3,682
470,193;12247,055;    2,151;    0,227
470,780;11769,232;    0,333;    0,864
471,368;12128,963;   -1,212;   -0,773
471,955;11919,159;    1,060;   -0,682
472,542;11514,867;   -0,303;   -1,136
473,129;11779,268;   -0,485;    0,136
473,716;11494,903;    0,060;    0,591
474,303;11742,102;    1,333;   -0,864
474,890;12042,532;    2,333;   -0,500
475,477;12024,790;   -0,576;    0,409
476,064;11925,580;    0,697;   -1,591
476,650;11903,179;    2,152;    0,318
477,237;11718,633;    1,879;    0,955
477,824;11924,081;    3,879;    0,864
478,411;11957,411;    0,606;   -0,318
478,997;12170,332;    0,606;   -0,773
479,584;12237,189;   -0,666;   -0,409
480,171;12967,360;    1,243;   -0,773
480,757;12625,985;   -0,848;    0,773
481,344;12950,253;    0,334;    0,409
481,931;12470,631;   -0,393;    1,045
482,517;13526,799;    0,425;    0,318
483,104;14178,065;    1,334;    2,864
483,690;14567,090;    0,243;    0,045
484,276;15022,764;    0,698;    0,227
484,863;14741,108;    2,152;    1,136
485,449;15381,825;    0,152;    0,318
486,035;15379,528;   -0,666;   -0,136
486,622;15879,896;   -2,393;    0,045
487,208;15865,981;    1,334;    1,500
487,794;15671,084;    0,971;    0,318
488,380;15748,242;    0,698;   -1,409
488,967;15856,117;   -1,120;   -0,409
489,553;15916,561;   -1,029;   -1,409
490,139;16103,908;    0,971;    0,773
490,725;15508,496;    0,789;   -0,227
491,311;15002,329;    1,516;    3,045
491,897;14136,264;   -0,665;    1,500
492,483;13898,455;    0,426;    1,227
493,069;13591,174;    5,426;    0,864
493,655;13584,913;    1,789;    0,682
494,241;13529,474;    1,517;   -0,955
494,826;13971,007;    0,335;   -1,045
495,412;13357,040;    0,335;   -0,682
495,998;13530,743;    0,971;   -0,318
496,584;13716,121;    2,244;    1,045
497,169;13689,635;    2,335;   -0,682
497,755;13642,361;    1,244;    1,227
498,341;14249,718;    2,153;    0,318
498,926;13748,547;    2,881;    1,955
499,512;13987,611;   -0,028;    2,955
500,097;14133,687;   -0,574;   -0,318
500,683;14104,768;   -0,028;    2,136
501,268;14499,000;    1,881;   -0,955
501,854;14179,068;   -0,119;    1,227
502,439;14115,941;   -0,573;   -1,773
503,024;14279,193;    1,608;    0,500
503,610;14380,201;    1,335;   -0,682
504,195;14428,418;    1,245;    1,955
504,780;14508,670;    2,335;    1,227
505,366;14319,619;    4,063;    2,864
505,951;14017,846;   -1,119;    1,045
506,536;14041,738;    1,427;   -3,682
507,121;14037,578;    1,699;   -0,318
507,706;14591,604;   -0,392;    1,045
508,291;15002,218;   -2,937;    1,136
508,876;14448,443;   -0,482;    2,591
509,461;13861,902;    1,427;   -0,773
510,046;14294,265;   -0,391;    0,318
510,631;14579,758;   -0,119;   -0,773
511,216;14214,025;   -0,664;   -0,500
511,801;14570,639;   -0,755;    2,591
512,386;14888,883;    0,972;    0,500
512,971;14868,483;    0,427;    0,955
513,555;14353,744;    1,154;   -1,500
514,140;15199,018;    1,336;   -3,136
514,725;15199,164;    1,791;   -1,136
515,309;15355,386;    1,064;    0,318
515,894;14737,799;   -0,300;   -2,227
516,479;15191,338;    1,973;   -0,955
517,063;15044,990;    0,882;    1,227
517,648;15224,933;    0,155;   -1,136
518,232;14862,652;   -1,300;   -1,409
518,817;15165,454;    1,337;    1,682
519,401;15391,370;    0,700;    0,591
519,985;14896,121;    2,700;    1,136
520,570;14761,761;   -0,118;   -1,955
521,154;15089,391;    0,064;    0,591
521,738;15285,900;    1,064;    2,409
522,323;15893,340;   -0,390;    1,682
522,907;15628,478;    2,428;   -0,136
523,491;15319,958;    1,155;    0,955
524,075;15294,578;    0,428;    0,591
524,659;15384,650;    0,973;    0,591
525,243;14775,626;    0,883;    0,409
525,827;15011,190;    0,883;   -0,045
526,411;15962,468;    1,155;   -0,136
526,995;16222,701;    0,337;    1,409
527,579;15772,741;    1,974;   -1,045
528,163;16097,182;    0,428;   -1,500
528,747;15987,230;    1,065;   -0,773
529,331;16355,312;    0,883;   -1,409
529,915;16540,050;    2,338;    0,955
530,499;16500,471;    0,247;    1,227
531,082;16173,178;    1,065;    1,591
531,666;15569,162;    0,520;    0,773
532,250;16324,850;    0,428;    2,682
532,833;16706,268;    0,610;    2,773
533,417;16551,318;    1,247;    0,864
534,001;16492,875;    0,429;   -0,318
534,584;17229,904;    1,974;    0,500
535,168;17054,978;    3,247;    1,409
535,751;17124,658;    4,520;    0,045
536,334;16539,006;    4,520;   -0,409
536,918;17227,741;    1,974;    1,591
537,501;17335,769;    1,520;    1,318
538,085;17290,010;    1,702;    1,045
538,668;17492,812;    0,883;    2,409
539,251;17812,886;    3,156;    3,773
539,834;17806,762;    0,156;    0,773
540,418;17719,395;    3,247;    4,318
541,001;17874,567;    2,702;    1,773
541,584;17919,385;    1,429;    2,227
542,167;17629,371;    0,702;    2,955
542,750;17789,298;    0,793;   -0,773
543,333;17317,725;    1,429;    2,136
543,916;18155,300;   -0,298;    2,500
544,499;18823,260;    2,520;    0,227
545,082;18836,525;    0,248;    3,591
545,665;18999,946;   -0,207;    1,500
546,248;19368,180;    0,520;   -0,318
546,830;18984,741;   -1,752;    1,955
547,413;19406,448;    0,157;   -0,773
547,996;19954,524;    0,157;    0,500
548,579;19698,362;   -0,843;    0,955
549,161;19542,900;    0,884;    2,682
549,744;19324,465;    0,612;    0,409
550,326;19852,209;    0,885;   -1,136
550,909;19632,021;    2,339;    0,591
551,492;20076,431;    0,521;    0,227
552,074;19810,667;   -0,024;   -1,318
552,657;20436,188;    2,430;    0,045
553,239;20193,412;   -3,024;   -0,773
553,821;20107,425;   -1,570;    1,045
554,404;19543,965;   -0,024;    1,136
554,986;19920,884;    2,248;    1,045
555,568;20561,835;    0,430;   -0,955
556,151;19728,910;    4,067;   -0,227
556,733;19933,842;   -1,388;   -0,864
557,315;20470,749;    4,703;    0,500
557,897;20260,682;    0,521;   -0,500
558,479;20406,459;    1,703;    1,318
559,061;20490,167;    1,067;   -0,864
559,643;20873,379;   -0,297;    0,045
560,225;21307,737;   -0,388;    2,864
560,807;21329,652;    0,340;    0,318
561,389;20767,033;   -1,206;    2,318
561,971;21555,990;   -0,660;    2,136
562,553;21371,663;    0,613;    1,591
563,135;21531,762;    1,249;    1,136
563,717;21093,175;    3,158;    1,136
564,298;21848,928;    3,976;   -0,045
564,880;21542,168;    0,340;   -1,409
565,462;21731,077;    1,977;    1,318
566,043;22965,286;   -0,933;    2,318
566,625;22522,823;    4,067;    1,227
567,207;22360,975;    0,704;    1,682
567,788;23533,017;   -0,114;    1,500
568,370;24446,286;   -1,841;   -0,500
568,951;24273,406;   -0,569;    0,227
569,533;25181,677;    0,977;   -0,500
570,114;25727,667;   -0,296;    0,682
570,695;26262,633;   -0,478;   -1,318
571,277;26858,371;   -0,205;   -1,682
571,858;27655,229;    2,704;   -1,136
572,439;28686,086;    0,795;   -1,045
573,021;28868,021;    0,432;   -2,773
573,602;29356,820;    1,795;    0,318
574,183;30395,442;   -0,114;    2,227
574,764;30618,293;    2,068;    0,409
575,345;31211,386;    0,250;   -0,136
575,926;31843,084;    2,704;    0,136
576,507;31836,085;    2,704;   -0,227
577,088;32985,688;    1,704;    1,682
577,669;33040,088;    1,704;    1,955
578,250;33856,442;   -0,750;   -1,045
578,831;34572,605;   -0,841;   -2,227
579,412;34768,435;   -1,205;    0,955
579,993;35812,973;    1,432;    0,227
580,573;36168,833;   -0,023;   -0,955
581,154;35088,584;    1,613;   -0,591
581,735;36035,501;    0,341;    0,773
582,315;35529,228;    0,523;    2,136
582,896;35784,293;   -1,750;    1,227
583,477;35249,677;    0,614;    1,227
584,057;35420,394;    1,159;    0,955
584,638;35704,064;   -2,750;    2,318
585,218;35690,650;    2,886;    2,682
585,799;35923,616;    1,977;   -0,227
586,379;35908,051;    1,250;    1,591
586,959;34601,600;    2,613;    0,318
587,540;33850,481;    0,432;    2,227
588,120;33289,659;   -1,113;   -0,045
588,700;32181,680;    2,977;    2,136
589,281;32519,403;    1,250;   -0,955
589,861;32426,487;   -0,296;   -1,682
590,441;32233,147;   -1,477;   -2,682
591,021;31096,237;    1,432;   -2,591
591,601;31336,298;    0,431;    0,500
592,181;31336,843;   -1,296;   -0,773
592,761;30586,830;    2,250;    1,409
593,341;30470,285;    1,522;    0,045
593,921;30416,564;   -0,569;    1,591
594,501;30303,360;    1,250;    1,318
595,081;30205,762;    0,522;   -0,318
595,661;30516,367;    1,068;    0,955
596,240;31022,968;   -1,023;    0,136
596,820;30645,749;    2,613;    1,955
597,400;30868,284;    1,977;    0,773
597,980;31115,751;   -0,750;    1,045
598,559;31092,440;    0,341;   -0,227
599,139;30798,127;   -0,750;   -1,227
599,718;30732,491;    0,795;   -0,409
600,298;30971,837;   -2,387;    0,682
600,877;31179,140;    4,795;    1,409
601,457;31460,468;    0,340;    1,136
602,036;31391,290;    1,795;    2,045
602,616;31580,561;    2,250;    1,682
603,195;31919,005;    0,431;    3,500
603,774;31411,840;   -0,296;    2,045
604,354;31345,279;    2,522;   -0,500
604,933;30748,909;    0,250;    1,864
605,512;30896,180;    2,340;    0,591
606,091;30905,640;    1,886;    3,773
606,671;31759,807;    0,249;    0,773
607,250;30800,551;    1,431;    3,136
607,829;31073,447;    1,158;    3,227
608,408;30915,590;    4,613;    2,591
608,987;29947,237;    2,704;    3,409
609,566;30252,466;    0,341;   -2,500
610,145;30253,692;    2,885;    0,682
610,723;30718,214;    1,613;    6,864
611,302;29906,979;    1,067;    1,682
611,881;29400,592;    5,158;   11,227
612,460;30218,857;    0,795;    3,955
613,039;30663,358;    1,703;    2,045
613,617;29384,787;    0,886;    4,773
614,196;29583,436;    1,613;    1,227
614,775;29878,671;    1,249;    2,409
615,353;29853,909;   -1,660;    0,864
615,932;29541,628;    0,249;    2,409
616,510;30173,027;    0,158;    0,591
617,089;29591,893;    8,794;   17,591
617,667;29320,728;    4,885;    6,136
618,246;29110,932;   -1,115;    1,318
618,824;29306,842;    1,612;   -0,955
619,402;28873,032;    0,431;   -1,773
619,981;29344,195;    1,067;   -1,045
620,559;29266,450;    0,794;    1,682
621,137;28776,286;    3,067;    1,864
621,715;28744,352;    3,703;   -0,682
622,293;28688,062;    1,885;   -0,773
622,871;29169,839;    0,340;    0,500
623,450;28698,191;    0,430;   -0,864
624,028;28605,111;   -0,388;   -0,955
624,606;28182,051;    2,339;    1,682
625,183;28577,354;   -0,661;   -1,136
625,761;28098,346;    1,885;    1,136
626,339;28470,060;    2,339;    2,591
626,917;28863,532;    0,339;   -0,045
627,495;28905,500;    2,794;    1,318
628,073;28306,406;    5,248;    2,864
628,650;27940,667;    3,067;    2,136
629,228;28383,372;    1,248;    4,409
629,806;27765,956;   -0,024;    1,136
630,383;28012,234;    0,066;   -0,318
630,961;27805,535;   -2,206;   -0,955
631,539;27506,002;   -2,479;    0,227
632,116;26731,535;   12,703;   15,409
632,694;27394,160;    4,885;    6,500
633,271;27740,559;    1,975;    2,682
633,848;27625,587;    1,430;    2,045
634,426;27702,351;    1,521;    1,773
635,003;26780,923;   -0,207;   -0,409
635,580;27090,071;    1,884;    3,682
636,158;27650,092;    3,793;    1,227
636,735;27631,047;    3,339;   -0,500
637,312;27758,050;    0,521;   -0,682
637,889;27844,912;    2,248;   -0,682
638,466;27335,384;    0,066;   -0,409
639,043;27321,990;    1,702;   -1,136
639,620;27655,312;    0,611;   -0,955
640,197;28001,277;    1,612;    1,682
640,774;28105,343;    1,430;    1,136
641,351;28519,319;    0,612;    1,136
641,928;27887,840;    2,794;    1,409
642,505;27588,179;    0,794;   -0,500
643,082;27696,063;    1,885;    1,227
643,658;26646,129;    1,157;    1,500
644,235;27426,468;   -2,479;    2,500
644,812;27703,807;    1,794;    0,773
645,388;27441,601;    1,612;    1,409
645,965;27532,395;    1,521;    1,682
646,542;27640,279;    3,430;   -0,227
647,118;27564,891;    3,703;   -0,955
647,695;27909,594;    0,339;    1,136
648,271;27806,751;   -2,115;    0,500
648,848;28129,181;    0,248;    2,227
649,424;27961,611;    0,976;    1,318
650,000;27703,041;   -0,388;   -1,045
650,577;27534,016;    0,158;   -0,955
651,153;28082,991;   -1,115;    0,955
651,729;29003,694;    0,521;    0,864
652,305;29196,851;    1,339;    2,773
652,881;34006,645;   -1,297;    1,136
653,458;41475,529;    0,249;    0,227
654,034;45698,959;    0,703;    1,591
654,610;47369,571;    0,339;    0,773
655,186;48764,274;    1,612;    3,045
655,762;48506,067;   -1,842;    0,409
656,338;48550,316;    0,703;    0,136
656,913;49608,291;   -0,297;    0,409
657,489;48942,175;    0,249;   -0,318
658,065;48892,424;    0,794;   -1,591
658,641;49483,126;    2,158;   -0,864
659,217;48770,193;    2,067;    0,409
659,792;48128,895;   -1,751;   -0,409
660,368;48448,962;   -0,388;   -0,682
660,944;48083,755;    1,794;    1,227
661,519;43174,458;    0,522;    0,409
662,095;36500,888;   -0,206;    0,591
662,670;31301,409;   -0,206;   -0,136
663,246;30048,566;   -0,660;   -0,409
663,821;29286,723;    0,431;    1,682
664,396;28757,153;    0,613;    1,864
664,972;28978,856;   -0,660;   -0,500
665,547;29360,286;    3,794;    0,136
666,122;29383,443;    1,340;    0,318
666,698;29705,237;    2,431;    0,318
667,273;28953,848;    0,885;    0,136
667,848;29814,006;    0,340;    1,500
668,423;29548,345;    1,795;    2,318
668,998;30198,320;    0,976;   -0,682
669,573;30775,295;    2,067;   -1,500
670,148;30582,725;    1,885;   -0,682
670,723;30378,337;   -0,024;    0,318
671,298;30838,131;   -1,296;    1,045
671,873;31004,561;   -0,296;   -0,136
672,448;30920,445;    1,704;    0,136
673,023;31289,239;    0,249;   -0,227
673,597;31641,487;    2,704;    2,318
674,172;31312,190;    2,431;    0,318
674,747;30817,074;   -0,205;   -1,045
675,321;30673,595;   -0,933;    3,318
675,896;30242,116;    2,158;    1,045
676,471;31246,455;    2,522;    1,591
677,045;30986,521;   -0,296;    0,682
677,620;31003,224;    2,158;    1,136
678,194;31383,290;    0,249;    1,136
678,769;30891,811;    0,886;   -0,318
679,343;31126,423;   -0,023;    1,773
679,917;30968,580;    0,340;    1,955
680,492;31099,283;    0,249;    3,227
681,066;31297,440;    0,613;    0,409
681,640;31283,961;    1,795;   -0,318
682,214;32136,209;    2,340;    0,500
682,788;31595,457;    0,613;   -0,773
683,363;31540,432;    1,977;    1,682
683,937;31225,044;    0,886;   -0,318
684,511;32064,020;   -1,023;   -0,591
685,085;31721,722;   -1,478;    0,318
685,659;31469,152;    1,431;    0,864
686,232;31717,764;    1,159;   -0,318
686,806;31475,012;    2,159;    0,409
687,380;32145,715;   -1,932;    0,591
687,954;32403,236;    2,432;    1,136
688,528;31976,211;    2,613;    1,955
689,101;32807,459;    0,432;    1,045
689,675;32343,435;    0,886;   -0,136
690,249;31702,319;    3,432;    0,409
690,822;32049,567;    1,159;    0,318
691,396;32125,452;    2,068;    1,227
691,969;31569,336;    2,523;    0,136
692,543;32031,857;   -0,568;   -1,955
693,116;31695,378;   -0,659;   -1,409
693,690;31490,899;   -0,296;    0,500
694,263;32070,874;    2,341;    2,955
694,836;32083,031;    2,795;    3,591
695,410;30745,734;    1,159;    1,773
695,983;31200,346;    1,614;    0,591
696,556;31137,776;   -0,750;   -1,045
697,129;31557,297;   -1,114;    1,409
697,703;31207,818;    1,341;    1,955
698,276;31155,338;    1,705;   -0,773
698,849;30979,677;   -1,023;    1,409
699,422;31354,380;    1,250;    0,591
699,995;31028,537;   -0,659;    0,136
700,568;31531,967;   -0,204;    3,045
701,140;31621,488;   -1,841;    1,682
701,713;31299,736;    0,341;    2,409
702,286;31080,712;    0,796;    0,864
702,859;30889,142;    0,614;   -0,591
703,432;29999,844;   -0,841;    0,682
704,004;30583,456;    1,978;    0,318
704,577;30432,704;    1,068;    0,136
705,150;30973,225;    0,887;    2,500
705,722;30776,019;    1,523;   -3,227
706,295;30514,085;    1,432;   -0,591
706,867;30342,697;    0,250;    1,955
707,440;30583,854;   -0,113;   -0,409
708,012;30841,284;   -0,022;    0,591
708,584;30754,078;    2,705;    0,227
709,157;31083,144;    1,160;   -0,591
709,729;30712,119;    1,069;    2,045
710,301;31585,913;   -1,204;    0,045
710,874;31567,888;    0,341;   -0,227
711,446;30462,955;   -0,295;    0,864
712,018;30320,839;   -3,022;    0,500
712,590;30003,542;   -0,204;    1,682
713,162;30572,790;   -0,477;    1,318
713,734;30882,129;    1,796;   -2,045
714,306;30653,013;    0,342;   -0,409
714,878;29333,352;   -0,295;    0,864
715,450;30173,328;   -0,113;    0,864
716,022;30411,212;    2,433;    1,318
716,593;30611,824;    0,978;    0,591
717,165;30564,527;    1,796;   -1,227
717,737;30256,502;    0,796;    0,409
718,309;29964,932;    1,160;   -0,045
718,880;29885,817;   -1,295;   -1,409
719,452;30111,610;    0,887;   -1,591
720,024;29588,131;    1,705;   -0,591
720,595;30171,743;    2,978;    0,955
721,167;29645,536;    1,160;   -2,045
721,738;29183,057;    2,069;   -1,045
722,309;29097,396;    1,251;   -1,227
722,881;28909,099;    2,705;    0,773
723,452;29637,074;    1,251;    2,864
724,023;29800,232;    1,524;    2,682
724,595;29557,116;    2,342;    0,682
725,166;29260,455;    1,524;   -0,409
725,737;28822,521;    1,887;    0,227
726,308;28972,951;    0,797;    0,318
726,879;29426,381;    1,069;    1,227
727,450;29313,175;   -2,022;   -0,045
728,021;29290,696;    1,069;    0,682
728,592;29051,399;    1,160;    0,500
729,163;29425,010;    1,433;   -0,136
729,734;29390,440;    2,160;   -0,227
730,305;29716,416;    0,615;    0,136
730,876;30086,664;    0,888;    2,955
731,447;29814,821;    0,797;    2,682
732,017;29913,705;   -0,840;    1,864
732,588;29452,226;   -0,021;    1,227
733,159;29576,384;    3,615;   -1,045
733,729;29382,541;    1,251;    0,409
734,300;28668,607;    0,160;    0,864
734,870;29082,855;   -1,385;    0,591
735,441;29628,012;    0,888;   -0,591
736,011;29322,442;    1,070;   -1,591
736,582;29310,509;    1,251;    0,045
737,152;28823,484;    0,979;   -2,045
737,722;29249,732;    1,070;   -0,682
738,293;28963,344;   -2,021;    1,318
738,863;28852,865;    1,797;    2,318
739,433;28613,022;    4,524;    0,318
740,003;29313,088;    1,524;   -0,682
740,573;28651,337;    2,252;   -1,591
741,143;28612,221;    3,615;    0,318
741,713;29394,742;    0,252;   -0,500
742,283;29070,536;    1,706;    1,591
742,853;28875,056;    0,524;    1,591
743,423;28296,305;    0,161;    0,045
743,993;28428,280;    1,070;    1,500
744,563;27725,437;    2,524;   -0,864
745,133;27662,049;   -0,112;   -0,864
745,702;28424,388;    2,797;    1,773
746,272;27593,909;    0,434;    0,591
746,842;27315,430;   -0,748;   -0,591
747,411;27781,223;   -0,839;   -0,318
747,981;27998,471;   -0,930;    0,500
748,551;28037,356;   -0,021;   -1,045
749,120;27898,604;   -0,112;   -0,227
749,690;28238,852;    2,161;    2,409
750,259;28580,828;    0,979;    2,955
750,828;28493,439;    4,070;   -1,955
751,398;28735,778;   -0,112;   -0,045
751,967;28198,663;    2,888;    0,409
752,536;28459,456;    1,161;   -0,227
753,105;28893,523;   -1,384;    0,227
753,675;28736,498;   -0,112;    1,773
754,244;28640,565;    0,888;    3,591
754,813;28693,449;    0,979;    1,227
755,382;28278,697;    0,798;    0,955
755,951;28834,309;   -0,112;    3,682
756,520;28368,012;    2,525;    1,864
757,089;28904,169;    1,888;    0,500
757,658;29022,599;    2,434;    1,227
758,227;29010,392;   -1,111;    0,318
758,795;29319,550;   -1,021;    1,136
759,364;29580,252;    0,525;   -0,591
759,933;28592,137;    1,343;   -0,045
760,501;28096,294;    0,252;   -1,318
761,070;28583,178;   -0,293;   -1,409
761,639;29344,881;    1,434;    1,318
762,207;28591,402;    0,889;   -0,955
762,776;28551,105;    2,889;    0,864
763,344;28534,262;    0,071;    0,591
763,913;27612,783;    1,616;    1,409
764,481;28376,758;    1,980;   -0,136
765,049;28155,552;    0,616;    1,409
765,618;28030,618;    1,434;    0,318
766,186;28109,230;    2,434;    0,136
766,754;28256,205;    1,798;    1,864
767,322;27247,544;    1,162;    0,409
767,890;27269,338;    0,525;   -1,773
768,459;27626,313;    2,616;   -0,318
769,027;27816,561;    2,525;    3,409
769,595;26832,537;    2,616;    2,591
770,163;27238,967;    3,344;    2,955
770,730;26951,669;    2,525;   -0,136
771,298;26830,099;    1,162;   -1,409
771,866;26894,166;    0,253;    4,955
772,434;27178,414;    1,162;   -1,864
773,002;27375,480;    2,616;    0,682
773,569;27024,637;    1,071;    1,682
774,137;26816,976;    0,889;   -0,045
774,705;27585,588;   -0,747;   -0,136
775,272;27055,473;    0,253;    0,682
775,840;26824,266;   -0,111;    2,682
776,407;26270,605;   -0,293;    1,955
776,975;25925,490;    1,162;    0,318
777,542;26984,738;    2,162;   -0,045
778,110;26832,350;    0,707;   -0,045
778,677;26441,871;    1,071;   -0,864
779,244;26203,028;   -1,020;    1,045
779,812;26364,276;    0,980;    0,864
780,379;26197,070;    2,435;    1,136
780,946;26497,409;    2,617;   -0,773
781,513;26745,384;   -0,565;    0,318
782,080;26019,450;    1,253;    2,864
782,647;26802,153;    1,708;    3,045
783,214;26394,219;   -0,201;    3,864
783,781;26008,740;    1,708;   -0,682
784,348;25905,625;    0,253;    1,500
784,915;26375,418;   -1,474;    0,318
785,482;26125,939;    2,708;    2,591
786,049;26568,005;    1,071;   -0,591
786,615;26707,072;    1,708;   -0,955
787,182;26428,502;   -3,201;   -0,682
787,749;26083,477;   -2,201;    1,409
788,315;25386,998;    0,253;   -0,409
788,882;25687,701;    0,981;   -1,227
789,448;26349,131;    1,435;   -0,955
790,015;26423,924;    1,799;    3,227
790,581;25973,990;    0,708;    0,227
791,148;25861,602;    1,344;    1,045
791,714;26082,487;   -1,019;    3,136
792,280;25725,371;    3,708;    1,591
792,847;25314,165;   -0,928;    2,500
793,413;25874,958;   -0,110;   -0,318
793,979;25394,843;    1,526;   -1,318
794,545;25448,636;    2,981;    2,682
795,111;24810,976;    2,435;    1,318
795,678;25011,224;    3,526;   -1,682
796,244;24665,745;    2,799;    0,136
796,810;25267,265;    0,799;    0,773
797,375;24998,332;   -0,292;   -2,136
797,941;24949,489;   -1,110;    0,591
798,507;25088,646;    0,254;   -0,955
799,073;24657,076;    2,708;    0,591
799,639;24737,779;    1,435;    3,136
800,205;24743,572;   -1,565;    2,682
800,770;24225,457;    1,345;    1,773
801,336;24249,705;    2,981;   -0,955
801,901;23959,044;    6,072;    3,136
802,467;24590,747;    0,526;    2,045
803,033;23895,268;   -0,019;    0,864
803,598;24084,970;    1,072;   -1,045
804,163;24150,127;    0,708;   -0,318
804,729;24090,012;   -0,110;    1,136
805,294;24469,169;    1,072;    2,227
805,859;24283,599;    0,890;   -0,409
806,425;23747,847;    3,890;    2,682
806,990;23419,914;    1,890;    4,318
807,555;24015,616;   -0,110;    2,591
808,120;23846,955;   -1,292;   -0,409
808,685;23829,840;    1,072;   -2,500
809,250;23331,270;    2,072;   -0,500
809,815;23637,518;   -0,201;    0,682
810,380;24165,857;    0,981;    1,591
810,945;24659,469;    2,890;    2,045
811,510;23892,444;   -0,200;    1,591
812,075;23617,965;    2,800;   -1,409
812,640;23637,940;    3,709;    1,409
813,204;23674,189;    2,163;   -0,227
813,769;24135,709;    0,254;   -0,045
814,334;23506,048;    0,527;    0,864
814,898;23555,660;    1,981;    0,591
815,463;23451,545;    0,981;   -0,773
816,027;23413,702;    1,345;   -2,318
816,592;23562,132;    2,163;   -2,045
817,156;23017,835;   -2,200;    1,136
817,721;22807,628;    0,982;    2,318
818,285;22786,604;    0,618;    1,500
818,849;23449,033;   -0,018;    1,682
819,414;23315,191;    0,073;    2,955
819,978;22892,439;   -0,291;    1,773
820,542;23527,687;    2,891;    0,500
821,106;23261,935;    2,800;    0,682
821,670;23346,729;    2,709;    2,591
822,234;23029,522;    1,073;    1,409
822,798;22410,952;   -0,836;    0,500
823,362;22381,200;    1,527;    4,227
823,926;21655,721;   -0,018;    1,136
824,490;21867,333;    3,527;   -0,682
825,054;22329,672;    2,527;   -1,136
825,618;21908,829;   -1,200;   -1,500
826,181;21875,805;    0,982;   -1,318
826,745;21758,235;   -0,745;   -1,045
827,309;22128,574;    2,255;    1,318
827,872;21494,095;    0,527;    0,955
828,436;22491,161;    1,982;   -0,773
828,999;22562,227;    2,436;    1,227
829,563;21420,839;   -0,654;    1,136
830,126;21131,360;   -0,018;   -0,591
830,690;21149,881;    0,709;    2,864
831,253;20677,311;   -0,473;    2,227
831,816;20751,831;   -0,018;    0,500
832,380;20686,170;    1,164;    0,864
832,943;20920,510;    3,073;   -0,500
833,506;20412,849;    0,255;   -1,227
834,069;21257,369;    2,164;   -0,955
834,632;21290,072;   -2,200;    1,318
835,195;21151,775;    1,346;    0,955
835,758;20358,568;    0,709;    1,955
836,321;20207,817;    1,073;   -1,045
836,884;20283,701;   -1,291;   -0,955
837,447;20328,949;    0,528;    1,773
838,010;20573,925;    1,800;    3,227
838,573;20919,900;    0,528;    0,773
839,135;20818,603;   -0,109;   -0,955
839,698;20235,305;    2,528;    0,409
840,261;19753,372;    0,255;   -0,227
840,823;19668,620;   -0,927;    0,864
841,386;19901,232;   -0,018;   -2,409
841,948;19794,752;    0,255;    1,773
842,511;19490,273;    0,255;    1,682
843,073;19662,703;    2,982;    0,227
843,636;19494,951;    0,619;   -0,227
844,198;19353,927;    1,255;    0,591
844,760;19550,448;    0,619;    1,955
845,322;19141,787;    0,164;    1,136
845,885;19609,307;   -0,290;    0,591
846,447;20057,101;    0,710;    0,227
847,009;19578,622;    3,983;   -0,682
847,571;19915,506;    1,346;   -2,045
848,133;19975,118;   -0,199;   -1,864
848,695;19811,548;    2,346;    1,409
849,257;19359,251;    1,346;   -1,682
849,819;19552,499;    2,983;   -0,409
850,381;19597,020;    1,801;   -0,864
850,942;19972,904;    1,892;   -0,591
851,504;19851,334;    0,983;    0,227
852,066;19922,491;    1,619;   -1,591
852,628;19457,558;    0,165;    1,955
853,189;19020,988;    0,256;    2,682
853,751;19166,236;   -0,654;    1,409
854,312;19014,120;    1,256;   -1,682
854,874;19498,550;   -0,108;   -0,773
855,435;19977,162;    0,528;   -1,682
855,997;20099,319;    3,983;   -0,136
856,558;19310,204;    0,801;    1,773
857,119;19463,179;   -0,744;    2,864
857,681;19130,700;   -0,108;    0,318
858,242;19190,221;    1,347;   -2,136
858,803;19683,560;    1,074;   -0,773
859,364;20241,626;    0,892;   -4,773
859,925;19564,965;   -0,290;   -0,955
860,486;19487,213;    0,529;   -0,955
861,047;19190,007;    0,165;   -1,227
861,608;18963,346;    0,165;   -0,773
862,169;19171,322;   -0,562;   -0,045
862,730;18919,661;   -0,290;    1,409
863,291;19131,727;    0,438;   -0,500
863,852;19462,157;   -0,926;    1,955
864,412;18955,223;   -1,835;   -0,864
864,973;17445,199;    1,892;    0,500
865,534;17294,538;    2,074;    0,227
866,094;18848,240;    2,620;    0,227
866,655;18489,579;    4,711;    3,318
867,215;18787,282;    0,074;    0,136
867,776;18661,439;   -1,199;   -0,136
868,336;18720,869;    1,529;    0,136
868,897;18157,481;    3,438;    1,682
869,457;17933,002;    3,256;    0,318
870,017;18178,704;    2,438;   -1,227
870,578;18672,407;    1,893;    0,773
871,138;18354,019;    2,620;   -0,955
871,698;17873,449;   -0,562;   -1,318
872,258;17706,333;    0,711;   -2,864
872,818;18121,672;    2,347;    0,045
873,378;18105,193;   -2,198;    1,045
873,938;17645,078;    4,984;    0,500
874,498;17975,144;    1,256;   -1,955
875,058;17854,483;    4,347;    1,773
875,618;17685,368;    1,438;   -2,682
876,177;17691,070;   -0,471;    0,136
876,737;17202,955;   -0,289;    1,955
877,297;17149,385;    2,711;    1,955
877,856;17183,542;    2,529;    0,318
878,416;17128,517;    2,438;   -0,136
878,976;17362,129;    3,438;    0,409
879,535;17589,650;    4,529;    3,136
880,095;17312,080;    1,347;    0,045
880,654;17435,601;    0,347;    1,318
881,213;17489,485;    2,347;    1,500
881,773;17089,915;    1,984;    2,682
882,332;17463,345;    6,075;    5,136
882,891;17345,321;    0,711;    2,136
883,451;17788,114;   -2,016;    1,682
884,010;17294,726;   -1,107;   -0,409
884,569;17372,610;   -2,289;   -0,045
885,128;17479,404;   -0,743;   -1,864
885,687;17596,016;   -0,743;    0,682
886,246;17247,173;    2,620;    2,136
886,805;16993,603;    1,620;    2,045
887,364;17367,851;    1,166;   -0,500
887,922;17692,463;   -0,016;    0,045
888,481;17178,802;    1,530;    0,591
889,040;17490,868;    3,711;    2,136
889,599;18195,571;    2,166;    1,409
890,157;18262,819;    2,166;    2,409
890,716;17955,158;    2,166;    0,227
891,274;17703,952;    0,075;   -1,136
891,833;18126,745;    1,166;    0,864
892,391;18000,630;    1,802;    0,500
892,950;18123,060;    0,166;   -0,773
893,508;18422,762;    0,984;   -0,409
894,067;17811,011;   -0,379;    0,136
894,625;17733,713;   -1,016;   -1,500
895,183;17921,689;   -0,198;   -0,682
895,741;17832,028;    2,257;   -1,773
896,299;17663,367;    1,621;   -2,409
896,858;17824,524;    1,530;   -1,591
897,416;17929,681;    0,166;   -1,318
897,974;17722,475;   -2,197;    0,318
898,532;17826,450;    6,530;    2,682
899,089;17729,607;    0,621;   -0,682
899,647;17814,310;    0,530;    1,318
900,205;17527,558;    0,257;    1,045
900,763;17699,534;    2,166;    0,227
901,321;17710,873;    3,530;   -1,409
901,878;17167,848;    3,257;   -0,773
902,436;16985,642;    0,257;    1,318
902,994;17400,799;    6,712;    3,682
903,551;16837,320;    1,439;    0,409
904,109;17235,022;    1,530;   -1,409
904,666;16833,725;    1,439;    1,045
905,224;16614,610;    3,894;   -0,409
905,781;16320,585;   -0,470;   -0,318
906,338;16444,379;    0,167;    1,045
906,895;16357,899;    1,894;    2,045
907,453;16261,966;    2,348;    1,136
908,010;16326,759;    3,348;    0,409
908,567;15943,917;   -0,561;    0,591
909,124;15423,074;    2,439;   -1,500
909,681;15487,867;   -1,288;    0,682
910,238;15653,570;   -0,106;   -1,318
910,795;15943,364;   -1,561;   -1,136
911,352;15625,909;   -0,379;   -2,682
911,909;15055,182;    2,803;   -0,864
912,466;15536,182;    1,985;    1,500
913,022;15058,000;   -0,924;    0,500
913,579;15432,455;   -0,470;    2,045
914,136;15120,182;   -2,561;    0,955
914,692;15466,727;    1,530;   -1,227
915,249;14981,727;    0,530;    0,409
915,806;15208,182;    1,803;    1,955
916,362;14933,727;    0,894;    1,864
916,918;14515,182;    2,439;    1,045
917,475;14501,909;    1,621;    0,955
918,031;14602,818;    0,076;   -0,045
918,587;14062,818;    0,621;   -0,318
919,144;14240,000;   -0,379;    0,227
919,700;14547,000;    0,167;    0,773
920,256;14113,364;    0,439;    0,045
920,812;13731,545;    1,439;   -1,045
921,368;13709,727;    1,348;   -1,045
921,924;13353,364;    0,439;   -0,136
922,480;12928,455;    0,076;    1,227
923,036;13536,182;   -0,652;    1,955
923,592;13528,909;    0,621;    0,318
924,148;13434,182;    1,894;   -0,955
924,704;12732,455;    0,258;   -0,409
925,259;13042,727;   -0,561;    0,591
925,815;12761,091;    3,803;    0,500
926,371;12280,455;    3,530;    1,409
926,926;12104,818;    1,621;    0,591
927,482;11738,455;    1,621;    0,773
928,037;11611,091;   -0,833;    2,045
928,593;11918,182;    0,258;    1,045
929,148;11718,364;    1,167;   -1,500
929,704;11250,818;    2,439;   -0,500
930,259;11458,636;    0,894;   -0,136
930,814;10499,000;    1,803;    1,955
931,369;10203,727;    0,258;   -0,773
931,925;10090,364;   -1,924;    0,136
932,480; 9984,727;    3,076;   -2,591
933,035; 9840,182;    3,985;   -0,318
933,590; 9571,273;   -1,742;   -1,773
934,145; 9222,000;   -1,288;   -0,318
934,700; 9596,364;    0,348;   -0,591
935,255; 9382,909;    4,803;    0,045
935,809; 8644,727;    6,258;    0,864
936,364; 7762,909;    2,167;   -0,136
936,919; 7707,182;    2,348;   -1,773
937,474; 7601,364;    1,348;    0,136
938,028; 7340,545;    3,076;    1,136
938,583; 6777,273;    6,348;    4,682
939,138; 7072,727;    0,167;    2,136
939,692; 6569,364;   -1,015;   -1,136
940,247; 6229,636;    1,167;   -1,045
940,801; 5746,545;    0,621;    0,227
941,355; 5650,545;    0,439;    2,591
941,910; 5321,909;    0,712;   -2,136
942,464; 5397,273;    2,712;   -0,318
943,018; 5157,273;    3,258;   -0,227
943,572; 5114,455;    2,803;   -0,682
944,126; 4514,182;   -0,924;   -0,409
944,681; 4390,909;    0,712;    0,227
945,235; 4380,273;    2,167;   -0,591
945,789; 4331,273;    1,258;   -1,864
946,342; 4416,364;   -0,561;   -0,591
946,896; 4226,636;    0,348;    0,955
947,450; 3976,273;   -0,561;   -0,227
948,004; 4163,364;    1,076;   -0,045
948,558; 4207,455;    1,258;   -0,864
949,111; 4105,273;   -1,197;   -0,318
949,665; 4130,818;   -0,106;   -0,682
950,219; 3997,091;    0,621;   -1,045
950,772; 4080,182;    0,258;    1,864
951,326; 3998,364;   -1,106;   -0,955
951,879; 4101,091;    1,076;   -2,318
952,433; 4091,000;    1,348;    2,227
952,986; 3926,455;    0,348;    0,682
953,539; 3881,545;    1,530;    0,591
954,093; 3817,818;    0,985;   -1,318
954,646; 3947,364;   -0,288;    1,318
955,199; 3761,273;    1,258;   -0,500
955,752; 3628,636;    1,985;    1,773
956,305; 3592,273;    0,894;    2,955
956,858; 3776,909;    0,621;   -0,318
957,411; 3969,545;    3,621;    2,136
957,964; 3765,364;    2,076;    2,136
958,517; 3768,818;    0,985;    3,136
959,070; 3603,000;   -1,197;    1,955
959,623; 3647,545;    1,076;    1,500
960,176; 3432,273;    0,712;    2,045
960,728; 3400,182;    1,712;    0,773
961,281; 3472,818;    2,258;    0,500
961,834; 3501,727;   -0,833;    0,864
962,386; 3426,000;    1,258;    1,045
962,939; 3355,636;    3,439;   -0,318
963,491; 3484,909;    2,621;    1,136
964,043; 3362,091;    0,076;    2,409
964,596; 3469,455;    1,712;    2,227
965,148; 3289,545;   -0,379;    1,773
965,700; 3232,636;   -0,015;   -0,227
966,253; 3386,091;   -0,833;    0,318
966,805; 3224,273;    1,894;    0,773
967,357; 3277,545;    0,439;   -1,500
967,909; 3209,091;    1,167;   -1,227
968,461; 3339,909;    0,894;    3,136
969,013; 3266,182;   -1,561;   -0,864
969,565; 3341,000;    1,803;   -1,136
970,117; 3403,364;    3,803;    1,045
970,669; 3241,909;    3,258;   -0,136
971,220; 3100,091;    2,167;   -1,500
971,772; 3024,000;    1,348;   -0,318
972,324; 3131,000;   -1,197;   -0,500
972,876; 3087,000;    0,167;   -0,045
973,427; 3209,636;   -1,197;   -1,045
973,979; 3205,455;    0,076;   -2,500
974,530; 3237,727;    0,803;    1,318
975,082; 3234,273;    2,167;    1,682
975,633; 3131,000;    2,894;    1,682
976,184; 3289,727;    2,076;    0,773
976,736; 3065,000;    0,348;    0,227
977,287; 2834,909;    0,258;   -0,500
977,838; 3045,091;   -0,924;   -0,318
978,389; 3098,000;    0,803;   -0,500
978,940; 2989,455;    1,258;   -0,409
979,491; 2996,000;    2,258;   -0,500
980,042; 2946,818;   -0,652;    3,045
980,593; 3027,091;    1,894;    0,227
981,144; 3068,455;    3,530;   -0,500
981,695; 3028,273;   -0,470;    1,500
982,246; 2984,909;   -1,833;    1,045
982,797; 3162,455;   -0,561;    0,682
983,347; 3277,091;    2,167;    0,591
983,898; 3418,182;    4,167;    0,409
984,449; 3235,273;    2,530;    0,773
984,999; 3159,000;    1,894;   -1,136
985,550; 2914,091;    3,167;   -0,318
986,100; 2969,545;    0,712;   -0,318
986,651; 3007,455;    0,258;    0,045
987,201; 2980,273;    0,894;   -0,591
987,751; 3055,000;   -0,288;    2,864
988,302; 3042,273;   -0,379;    1,500
988,852; 3062,364;    1,985;   -1,136
989,402; 3121,000;    0,985;    0,682
989,952; 3032,364;    1,621;    0,864
990,502; 3134,000;    1,076;    0,682
991,052; 3089,909;   -0,106;    0,045
991,602; 2955,727;    1,167;    1,318
992,152; 2953,636;    2,803;    0,682
992,702; 2917,545;    1,167;   -0,045
993,252; 2859,000;    0,076;   -0,500
993,802; 2934,455;    1,167;    1,318
994,352; 3186,364;   -0,742;    1,136
994,901; 3296,636;    1,076;    3,227
995,451; 3200,909;   -1,197;    0,318
996,000; 3271,909;    1,076;    0,318
996,550; 2980,364;    2,894;    0,227
997,100; 2994,000;   -0,561;   -0,045
997,649; 3288,000;   -0,197;    0,955
998,198; 2905,636;   -0,288;   -1,500
998,748; 3074,818;    0,348;   -2,318
999,297; 2997,727;    0,985;   -0,409
999,846; 3093,909;    1,894;   -0,773
1000,395; 3129,455;    1,530;    0,500
1000,945; 3063,091;    1,076;   -0,773
1001,494; 3133,818;    0,167;    0,682
1002,043; 3142,364;    0,712;    0,864
1002,592; 2979,000;    3,439;    1,955
1003,141; 3120,273;    2,439;   -0,682
1003,690; 2947,273;    1,258;    0,500
1004,238; 3023,636;   -0,106;   -0,045
1004,787; 2677,545;   -1,288;    1,227
1005,336; 2909,818;    1,621;    0,682
1005,885; 3063,727;   -0,197;   -2,773
1006,433; 3201,727;   -0,470;    0,955
1006,982; 3256,636;    2,167;    1,682
1007,531; 3185,091;    2,712;   -0,227
1008,079; 3148,818;    0,258;    0,500
1008,627; 3306,091;    1,621;    0,409
1009,176; 3032,636;    0,076;   -1,955
1009,724; 3057,182;   -2,742;    0,864
1010,273; 3101,273;    1,076;    0,500
1010,821; 3250,636;    1,076;    1,409
1011,369; 2952,364;    0,076;    1,318
1011,917; 2935,000;   -0,833;   -0,591
1012,465; 3224,727;    2,530;   -1,591
1013,013; 3348,727;    0,439;   -1,682
1013,561; 3197,909;   -1,288;   -0,773
1014,109; 3243,818;   -0,833;    1,682
1014,657; 3118,727;    1,348;    0,591
1015,205; 3236,818;    0,894;   -0,955
1015,753; 3305,000;    0,258;   -1,409
1016,301; 3330,273;    2,621;    3,045
1016,848; 3333,091;    2,167;    0,409
1017,396; 3381,182;    1,621;    0,045
1017,944; 3511,273;    2,621;    1,864
1018,491; 3258,273;   -0,197;    1,409
1019,039; 3405,727;   -0,652;    0,591
1019,586; 3337,091;    0,076;    1,682
1020,134; 3447,727;    0,712;    1,500
1020,681; 3442,545;    2,894;   -1,136
1021,228; 3463,818;   -0,561;   -2,227
1021,776; 3292,364;   -0,833;   -1,136
1022,323; 3491,091;    0,803;    0,773
1022,870; 3441,364;   -0,470;   -0,045
1023,417; 3341,364;    2,076;    1,864
1023,964; 3485,000;    0,621;    1,227
1024,511; 3315,818;   -0,652;    0,773
1025,058; 3099,364;    0,439;   -0,045
1025,605; 3153,364;   -1,742;    3,136
1026,152; 3353,818;   -0,106;   -0,591
1026,699; 3090,182;    0,167;    1,318
1027,245; 3296,000;    2,439;    0,318
1027,792; 3531,273;    0,712;    1,409
1028,339; 3374,364;    4,076;   -0,045
1028,885; 3223,727;    3,621;   -0,227
1029,432; 3159,091;   -0,106;    0,227
1029,978; 3212,545;    1,348;   -1,591
1030,525; 3108,909;    1,621;    0,409
1031,071; 3370,364;    0,348;    1,136
1031,618; 3469,091;    1,258;    1,682
1032,164; 3247,818;    2,076;    3,045
1032,710; 3306,455;    0,076;   -1,500
1033,256; 3233,000;    0,712;   -0,136
1033,803; 3220,091;   -0,288;    1,500
1034,349; 2950,909;    1,803;    0,136
1034,895; 3095,909;    2,621;   -0,318
1035,441; 3079,818;    0,439;    0,318
1035,987; 3100,545;   -2,288;   -0,682
1036,533; 3084,182;   -0,197;   -0,955
1037,078; 3284,091;    4,712;    1,682
1037,624; 3094,545;    2,439;   -0,955
1038,170; 3122,273;    1,712;   -0,318
1038,716; 2996,364;    2,167;   -0,409
1039,261; 2932,909;    2,167;   -0,773
1039,807; 2883,364;   -0,015;    3,409
1040,352; 2945,273;   -1,288;   -0,318
1040,898; 2981,364;    0,167;   -0,682
1041,443; 2888,091;    0,803;   -2,591
1041,989; 2906,636;    3,621;    1,591
1042,534; 2794,091;    0,985;    2,591
1043,079; 2929,818;    1,985;    0,955
1043,625; 2695,455;    0,258;    0,500
1044,170; 2737,636;    2,439;    1,045
1044,715; 2994,727;    0,167;    0,955
1045,260; 2812,818;   -0,833;   -0,955
1045,805; 2877,000;    0,258;   -0,591
1046,350; 2810,364;    0,530;   -0,409
1046,895; 2774,273;    0,803;    1,591
1047,440; 2692,727;    1,530;    0,409
1047,985; 2592,273;   -1,197;   -0,955
1048,530; 2504,727;    1,348;    1,227
1049,074; 2580,273;    2,803;    0,318
1049,619; 2542,455;   -0,924;    1,955
1050,164; 2342,182;    1,076;    0,227
1050,708; 2396,727;    2,621;    0,045
1051,253; 2760,727;    3,258;   -2,227
1051,797; 2473,727;   -0,197;   -1,318
1052,342; 2516,727;    1,348;    1,045
1052,886; 2483,273;    1,803;   -1,409
1053,430; 2377,909;    2,167;    0,136
1053,975; 2392,818;    0,894;   -0,318
1054,519; 2347,091;    1,803;    3,227
1055,063; 2362,364;    3,621;    1,318
1055,607; 2262,909;    1,348;    0,227
1056,151; 2286,091;    0,530;    1,682
1056,695; 2226,909;   -1,833;   -1,136
1057,239; 2265,364;   -1,197;   -0,682
1057,783; 2266,545;    2,258;   -1,500
1058,327; 2216,364;    3,076;    1,409
1058,871; 2451,182;    3,985;    1,318
1059,415; 2144,818;   -0,561;   -0,045
1059,958; 2399,000;    2,985;    2,591
1060,502; 2142,364;    1,348;   -0,773
1061,046; 2041,636;    1,712;   -0,955
1061,589; 2015,273;    2,803;   -1,136
1062,133; 1911,364;    0,985;    1,864
1062,676; 1845,636;    1,439;    0,864
1063,220; 1831,818;    0,985;    0,500
1063,763; 1838,455;    2,985;    1,136
1064,306; 1930,000;    0,985;    1,864
1064,849; 1819,636;    2,076;    0,591
1065,393; 1823,091;    2,894;   -1,500
1065,936; 1941,091;    2,530;   -0,409
1066,479; 1841,727;    2,621;    1,318
1067,022; 1861,636;    1,894;   -0,227
1067,565; 1757,091;   -1,197;   -1,318
1068,108; 1786,455;    1,258;   -0,591
1068,651; 1745,455;   -2,470;    1,409
1069,194; 1684,364;   -1,106;   -1,682
1069,736; 1684,000;    3,803;    0,955
1070,279; 1679,818;   -1,652;   -0,500
1070,822; 1718,364;    1,530;   -0,318
1071,364; 1783,182;    0,530;    1,318
1071,907; 1600,364;    0,348;    3,227
1072,450; 1524,909;    0,258;   -0,045
1072,992; 1507,000;   -0,561;    3,136
1073,535; 1637,273;    0,167;    2,136
1074,077; 1440,273;    2,985;    2,045
1074,619; 1402,818;    0,985;    0,591
1075,161; 1425,091;   -0,561;    1,500
1075,704; 1607,273;    0,258;    1,227
1076,246; 1415,636;    1,530;    0,682
1076,788; 1348,091;   -1,015;    1,773
1077,330; 1438,636;   -2,106;    2,136
1077,872; 1379,636;   -1,924;    0,955
1078,414; 1604,000;    3,712;    0,773
1078,956; 1335,636;    0,167;   -0,227
1079,498; 1573,545;    0,439;    0,318
1080,040; 1279,182;    0,985;   -1,318
1080,581; 1241,545;    0,621;   -0,318
1081,123; 1185,818;   -0,106;   -0,773
1081,665; 1224,545;    3,803;   -0,955
1082,206; 1493,727;    3,258;   -0,500
1082,748; 1366,545;    3,258;    2,045
1083,289; 1259,545;    0,167;    1,318
1083,831; 1164,091;    0,258;    0,227
1084,372; 1192,636;    0,894;    0,591
1084,913; 1186,273;    3,348;    0,864
1085,455; 1176,455;    1,530;   -2,045
1085,996; 1129,455;    0,530;    0,136
1086,537; 1151,455;    0,985;    0,864
1087,078; 1188,455;    0,439;   -2,136
1087,619; 1227,364;   -1,652;    0,227
1088,160; 1138,636;    1,439;    1,318
1088,701; 1118,545;   -0,742;    0,682
1089,242; 1068,000;   -0,561;   -2,227
1089,783; 1156,636;   -0,561;    1,409
1090,324; 1126,727;   -0,833;    0,682
1090,865;  998,727;   -1,924;   -0,409
1091,405;  983,727;   -0,561;    2,227
1091,946; 1019,727;   -0,197;   -0,955
1092,487;  942,727;   -1,288;   -1,409
1093,027; 1085,182;    1,803;   -1,500
1093,568;  950,182;    2,258;    1,227
1094,108; 1018,909;    0,621;    1,773
1094,649;  980,636;   -0,470;    0,136
1095,189;  931,727;    1,167;   -0,682
1095,729;  869,909;    0,712;    0,955
1096,269;  882,182;    1,258;   -0,955
1096,810; 1175,000;   -0,197;    0,500
1097,350; 1010,636;   -0,561;   -0,773
1097,890;  896,455;    2,985;    1,227
1098,430; 1152,455;    4,985;    2,864
1098,970; 1035,727;    1,894;    1,682
1099,510;  916,273;   -0,833;   -2,318
1100,050;  831,727;    0,258;   -1,591
1100,589;  788,455;    0,076;   -0,318
1101,129;  908,727;    0,894;   -0,955
1101,669; 1049,364;    2,803;    2,136
1102,209;  890,727;    1,530;    2,227
1102,748;  840,818;    3,439;    0,955
1103,288;  826,545;    0,712;   -1,227
1103,827;  849,727;    3,530;   -2,227
1104,367;  747,727;    1,712;   -2,409
1104,906;  709,727;   -1,015;   -1,136
1105,445;  783,364;    0,985;   -1,136
1105,985;  717,545;   -0,652;    1,500
1106,524;  765,545;    1,530;   -0,682
1107,063;  731,455;    1,167;    1,409
1107,602;  713,364;    1,894;   -1,500
1108,141;  639,545;    1,621;    1,500
1108,680;  729,273;    3,985;   -0,591
1109,219;  667,091;    0,167;   -0,500
1109,758;  677,455;    4,167;    0,682
1110,297;  646,727;   -1,106;   -0,682
1110,836;  595,636;    1,439;    0,955
1111,375;  744,091;    0,348;    0,409
1111,913;  767,636;    0,985;    0,773
1112,452;  702,364;    0,894;    0,136
1112,991;  599,182;    1,076;    1,955
1113,529;  549,455;    0,167;   -0,045
1114,068;  610,727;    0,439;    2,955
1114,606;  521,273;   -0,561;   -0,955
1115,144;  674,727;    1,530;    1,045
1115,683;  616,182;    1,985;    0,318
1116,221;  666,818;    2,076;   -0,864
1116,759;  577,364;    1,621;   -0,864
1117,297;  758,545;    1,621;    1,864
1117,836;  568,636;    1,985;   -1,227
1118,374;  574,273;    0,258;   -0,682
1118,912;  533,909;    0,439;    2,682
1119,450;  517,545;    0,985;    0,864
1119,988;  558,364;    3,348;    2,136
1120,525; 1007,909;    7,258;    3,318
1121,063;  699,727;    0,530;    1,864
1121,601;  522,727;    1,076;   -1,227
1122,139;  481,909;    1,076;   -2,045
1122,676;  663,273;   -1,652;    2,773
1123,214;  603,455;    0,712;    4,409
1123,751;  428,182;    0,621;    2,227
1124,289;  542,364;    0,894;   -0,409
1124,826;  419,364;   -0,379;    0,227
1125,364;  354,273;    0,712;   -0,955
1125,901;  538,545;    6,258;    1,227
1126,438;  628,091;    3,530;    0,955
1126,975;  369,273;    2,985;   -0,773
1127,513;  435,727;    2,621;    2,136
1128,050;  349,909;   -0,561;   -0,682
1128,587;  442,091;    1,348;   -0,227
1129,124;  481,182;   -0,015;    1,318
1129,661;  354,364;   -1,924;    0,227
1130,198;  518,727;    2,439;    0,773
1130,734;  461,000;   -0,379;    1,409
1131,271;  333,636;   -1,197;    0,864
1131,808;  494,273;    1,621;    3,045
1132,345;  363,455;    4,530;    0,318
1132,881;  256,909;   -0,561;   -1,864
1133,418;  382,091;    0,348;   -1,136
1133,954;  323,909;    0,712;   -2,682
1134,491;  388,000;    1,712;   -0,773
1135,027;  298,636;    2,167;    0,864
1135,564;  373,273;    1,439;    2,955
1136,100;  356,909;   -0,742;    2,136
1136,636;  263,091;   -1,015;   -1,045
1137,172;  338,909;    0,894;   -1,045
1137,708;  273,273;   -1,561;   -1,045
1138,245;  275,000;    0,803;   -1,227
1138,781;  239,909;    1,803;   -3,318
1139,317;  305,545;    1,894;   -1,409
1139,852;  283,727;    3,076;    0,136
1140,388;  388,364;    2,076;   -0,409
1140,924;  274,545;    1,076;   -2,227
1141,460;  212,727;   -0,288;    0,136
1141,996;  166,545;   -0,652;    2,682
1142,531;  205,727;    1,076;    3,318
1143,067;  409,636;    1,167;    1,045
1143,602;  455,818;    3,439;   -0,318
1144,138;  309,909;    0,803;    1,045
1144,673;  192,727;    1,621;    1,409
1145,209;  260,727;    2,894;   -0,318
1145,744;  182,545;    0,803;    0,864
1146,279;  299,909;    1,530;   -0,136
1146,815;  218,909;    1,530;   -2,682
1147,350;  258,818;   -0,924;    0,045
1147,885;  179,636;   -1,924;   -1,318
1148,420;  182,455;    2,439;    0,773
1148,955;  165,545;   -1,470;    1,864
1149,490;  188,455;   -1,106;   -1,591
1150,025;  169,818;   -1,106;   -1,773
1150,560;  276,273;   -0,288;   -0,955
1151,094;  250,636;    0,258;   -0,591
1151,629;  241,273;   -3,742;    0,864
1152,164;  178,273;   -1,288;    1,318
1152,698;  144,182;    1,258;   -0,136
1153,233;   99,091;   -1,379;   -0,682
1153,767;  147,455;   -0,288;   -2,318
1154,302;  194,364;   -0,379;    1,773
1154,836;  192,727;    0,803;   -2,136
1155,371;  238,455;    2,258;    3,682
1155,905;  194,818;    1,985;    1,682
1156,439;  169,273;    0,530;   -0,500
1156,973;  192,909;    0,439;    0,318
1157,507;  133,000;   -1,742;    0,682
1158,042;  163,000;   -0,652;    1,045
1158,576;  200,455;   -0,561;    1,773
1159,110;  184,182;    0,076;    2,409
1159,643;  161,909;   -2,470;   -0,045
1160,177;  108,818;   -2,015;    1,500

