
Integration time [ms]:   0,050
Averaging Nr. [scans]: 11
Smoothing Nr. [pixels]: 0
Data measured with spectrometer [name]: 7318044SP
Wave   ;Sample   ;Dark     ;Reference
[nm]   ;[counts] ;[counts] ;[counts] 

186,757;  -23,579;   38,161;    1,318
187,357;   -3,190;   26,706;    0,955
187,958;  -12,818;   17,252;   -1,591
188,558;   17,854;   12,979;   -1,227
189,159;   -8,522;   10,070;   -4,500
189,759;  -29,294;    5,797;   -3,591
190,360;  -28,411;    6,797;   -2,136
190,960;   -2,060;    5,706;   -4,136
191,560;   -9,590;    2,614;   -6,591
192,161;  171,960;    5,885;   -3,500
192,761;   53,510;    5,520;   -3,227
193,361;    8,801;    3,065;   -3,773
193,962;   48,705;    1,612;   -2,682
194,562;   -8,782;   -0,114;   -3,955
195,162;   -1,099;   -0,567;   -2,227
195,762;  108,911;    2,433;   -0,045
196,362;   62,218;    1,706;   -2,500
196,963;   -5,390;    1,706;   -0,864
197,563;   31,865;    1,252;   -0,955
198,163;  -11,738;   -0,111;   -0,682
198,763;   -6,790;   -0,020;   -0,500
199,363;   40,753;    3,616;   -0,500
199,963;   14,177;    2,162;    0,409
200,563;    3,164;    6,344;   -1,409
201,163;  -12,636;    5,435;   -0,227
201,763;   21,312;    1,435;    0,318
202,363;   -6,538;    0,980;    1,500
202,963;   27,514;    1,526;    1,045
203,563;   62,706;    0,344;    0,500
204,162;    3,930;    1,889;   -1,864
204,762;   -1,078;    2,071;    0,591
205,362;  -13,197;    0,708;    1,955
205,962;   13,717;    3,435;    1,955
206,562;    8,652;    1,889;    2,318
207,161;   -5,725;    1,708;    0,318
207,761;   53,322;    4,435;    2,409
208,361;   -1,958;    1,889;    1,409
208,960;   17,122;    2,889;    1,500
209,560;   15,408;    0,435;    1,591
210,160;   20,717;    5,071;    1,864
210,759;    4,920;    0,708;    1,227
211,359;   -4,345;   -0,474;    1,045
211,958;   81,021;    3,526;    2,045
212,558;   81,504;    0,799;    1,864
213,157;   19,912;   -0,929;    1,500
213,757;  153,535;    5,617;   -0,227
214,356;   54,766;    1,708;   -0,409
214,956;  132,977;    3,526;    0,409
215,555;   31,496;    0,617;    2,136
216,154;   -1,288;   -0,292;   -0,591
216,754;    5,509;    1,253;    0,773
217,353;   13,075;   -0,383;   -1,045
217,952;  -31,047;    2,072;    0,318
218,552;   25,964;    0,254;   -0,773
219,151;   -5,332;   -1,110;    0,955
219,750;   -5,976;    0,890;   -0,227
220,349;  -15,563;   -2,292;    1,045
220,948;   32,309;    1,163;    1,136
221,548;   -3,099;    0,617;    1,227
222,147;    9,883;   -1,292;   -0,409
222,746;   67,551;    1,254;   -0,955
223,345;   22,512;   -1,019;    0,500
223,944;   19,372;    1,163;    0,773
224,543;   16,964;    4,072;   -1,409
225,142;   10,686;    1,345;    0,136
225,741;   13,956;    1,163;    1,045
226,340;    9,405;    1,254;   -0,955
226,939;   50,317;    2,708;   -0,136
227,538;   11,504;    1,163;   -0,773
228,137;   63,564;    0,435;    0,864
228,735;   37,462;    0,435;    1,227
229,334;  -21,013;   -0,474;   -0,227
229,933;   62,712;    0,799;    0,591
230,532;   50,587;   -1,201;   -0,409
231,131;   97,083;    1,253;    0,318
231,729;   39,205;    1,163;   -2,318
232,328;   16,140;    0,435;   -1,500
232,927;   19,533;    4,526;   -0,500
233,525;    9,912;    0,981;    0,045
234,124;   23,281;    1,890;   -1,591
234,723;   -6,636;    1,617;   -1,045
235,321;  -19,504;    1,163;    0,136
235,920;   -4,693;    2,526;   -1,227
236,518;   59,621;    1,072;    0,318
237,117;    1,424;    2,890;   -0,227
237,715;    8,600;    1,163;   -0,500
238,314;   17,800;    1,708;   -2,318
238,912;   58,925;    0,526;   -1,409
239,510;   23,247;    1,162;   -1,227
240,109;   67,120;   -0,474;    3,773
240,707;   58,592;   -0,474;    1,227
241,305;   -9,210;   -0,383;    0,136
241,904;   23,517;   -0,292;   -2,045
242,502;   79,730;    3,253;   -0,227
243,100;   33,307;    3,344;   -0,955
243,698;   -6,335;    2,799;    1,682
244,297;   11,725;   -0,656;    0,682
244,895;   14,930;   -0,474;   -2,318
245,493;   69,364;    2,981;   -0,591
246,091;   75,743;    5,163;   -1,318
246,689;   34,733;    2,163;    0,591
247,287;   27,598;   -0,019;   -1,136
247,885;   17,169;   -1,019;    1,227
248,483;   -1,356;   -0,201;   -0,500
249,081;   39,333;    0,981;    1,591
249,679;   35,052;   -1,019;    1,682
250,277;   -2,995;   -2,292;    0,864
250,875;   32,408;    0,617;   -1,045
251,473;   -1,078;   -0,019;    0,500
252,071;   38,553;   -0,383;    1,045
252,669;    6,735;   -1,565;    0,318
253,267;    6,270;    1,618;    0,773
253,864;   11,234;    0,617;    0,682
254,462;   51,592;    1,526;    1,591
255,060;   -8,641;    0,072;    1,318
255,658;    1,917;   -3,292;   -0,136
256,255;    9,496;   -0,201;   -2,045
256,853;   26,624;    2,345;    1,409
257,451;    7,979;    1,981;    1,864
258,048;  152,473;    2,072;    1,864
258,646;   53,582;    0,436;   -1,045
259,243;   91,533;    2,981;    2,227
259,841;   45,257;    1,799;    0,318
260,438;   -8,309;    0,254;    0,864
261,036;   31,133;    0,617;    1,409
261,633;    2,301;    1,526;    2,227
262,231;   -4,262;   -0,110;   -0,045
262,828;  -19,576;   -0,383;    1,136
263,425;   -8,821;   -1,928;   -0,591
264,023;   -5,005;    1,436;    0,045
264,620;   34,470;    1,526;   -0,318
265,217;   73,927;    2,890;    3,136
265,815;    6,585;    2,527;    2,136
266,412;   27,585;    0,072;    0,136
267,009;   20,242;    0,526;    0,773
267,606;   48,946;    0,345;   -0,955
268,203;    7,753;   -0,383;   -0,591
268,801;   11,940;   -0,474;    0,591
269,398;   -5,039;   -0,564;    2,500
269,995;   24,333;    0,890;    1,591
270,592;   15,021;    0,799;   -0,500
271,189;   -8,460;    1,981;    0,409
271,786;  -17,049;    2,072;    1,227
272,383;   38,608;   -0,383;    0,227
272,980;   11,229;    1,617;    0,318
273,577;  -11,377;    2,162;    1,227
274,174;  -15,392;    1,435;    2,591
274,771;   29,553;    1,890;   -0,773
275,367;  160,704;    3,253;    1,409
275,964;   64,351;   -0,565;   -0,500
276,561;   10,494;   -2,474;   -1,045
277,158;  -19,857;    1,799;   -1,773
277,755;   59,696;   -0,110;    0,409
278,351;   24,935;    0,436;   -1,500
278,948;   33,834;   -0,201;    0,045
279,545;   20,289;    0,527;    2,318
280,141;   61,120;    1,254;   -2,045
280,738;   74,533;    2,435;   -0,136
281,334;   14,052;   -0,383;    0,591
281,931;   -3,911;    2,890;   -1,318
282,528;   42,070;    4,072;   -0,500
283,124;   60,774;    3,345;   -0,500
283,721;   57,047;    0,709;    1,409
284,317;   23,712;    0,163;    2,500
284,913;   54,670;   -0,110;    0,591
285,510;  115,307;    2,890;   -0,318
286,106;   76,683;    2,345;   -0,955
286,703;   32,042;    0,072;    1,955
287,299;    9,439;    1,254;   -0,591
287,895;    5,686;    0,890;   -1,045
288,491;    5,870;    0,163;    2,136
289,088;   21,021;    0,163;    2,409
289,684;   23,553;    2,890;    1,500
290,280;   76,998;    1,890;    0,682
290,876;   61,881;    0,163;    5,500
291,472;   45,904;    2,163;    2,227
292,068;   52,431;    1,254;    0,227
292,665;   12,166;   -0,564;    0,773
293,261;   -6,075;   -1,292;    2,136
293,857;   42,613;    4,072;    2,136
294,453;   12,611;   -0,928;    0,955
295,049;   83,379;    0,253;    1,955
295,644;   39,273;   -1,292;    0,136
296,240;   -8,029;    0,162;   -0,136
296,836;   22,834;   -0,747;    0,318
297,432;   51,862;    2,980;   -0,500
298,028;   49,475;    0,435;    0,773
298,624;   19,047;    0,889;    1,864
299,220;   16,283;    0,435;    0,591
299,815;   15,657;    0,526;   -0,409
300,411;   41,016;    0,435;    1,773
301,007;   65,535;    1,889;    0,227
301,602;    3,003;    2,071;   -2,318
302,198;   60,886;    1,435;   -0,773
302,794;   13,764;    1,526;   -0,500
303,389;  -11,751;    1,071;    1,045
303,985;    4,338;    1,253;    1,409
304,580;   65,662;    0,889;    1,591
305,176;   21,164;    0,344;    0,136
305,771;  -20,436;   -0,929;   -1,227
306,367;  134,330;    3,071;    0,136
306,962;   45,003;    2,889;    1,500
307,558;   62,390;    2,435;    0,136
308,153;   41,356;   -0,383;   -1,136
308,748;   -8,649;    0,162;    1,682
309,344;  113,273;    0,253;   -1,318
309,939;  110,940;    2,071;   -1,318
310,534;   30,743;   -2,020;   -1,682
311,130;   14,792;   -0,656;   -2,500
311,725;    2,603;    0,526;   -0,500
312,320;   11,444;    1,253;    0,045
312,915;   38,844;    2,890;   -1,045
313,510;  117,101;    0,526;   -0,500
314,105;   23,031;   -3,565;    1,409
314,700;   -0,158;   -1,656;   -1,045
315,295;    8,208;   -0,020;    0,045
315,890;    1,800;   -0,292;    0,864
316,485;   34,260;    0,253;   -0,318
317,080;    0,114;   -0,929;    1,591
317,675;  110,727;    3,071;   -0,682
318,270;  205,029;    6,889;    3,318
318,865;  127,836;    2,435;    3,045
319,460;   76,060;   -1,565;    0,591
320,055;   16,527;   -2,565;   -1,227
320,650;   14,351;   -1,838;   -0,591
321,244;   12,852;    0,889;   -1,409
321,839;   11,600;    0,980;   -0,227
322,434;   26,353;   -0,111;   -1,591
323,029;    4,478;   -0,474;    1,591
323,623;    0,442;    0,798;    0,773
324,218;   78,587;    2,707;    1,409
324,812;   43,592;    0,889;    1,591
325,407;   39,514;   -0,929;    2,045
326,002;  102,138;    0,526;   -0,409
326,596;   67,265;   -0,656;    1,318
327,191;   12,268;   -0,383;   -1,045
327,785;   18,356;   -0,747;   -0,227
328,379;   11,119;   -0,383;    0,136
328,974;   18,608;    1,798;   -3,955
329,568;   39,182;    2,889;   -2,409
330,163;   69,078;    2,435;    1,045
330,757;   11,621;    0,253;    1,591
331,351;  -11,187;   -0,292;    0,682
331,945;  -10,156;   -0,383;    1,409
332,540;   34,642;    1,617;   -0,591
333,134;   31,426;    3,344;    0,773
333,728;   36,608;    2,799;    0,318
334,322;    3,042;    0,889;   -0,864
334,916;    0,052;    0,344;    0,955
335,510;   63,826;   -0,111;   -0,136
336,105;   51,813;   -0,929;    1,591
336,699;   11,946;   -1,292;    0,591
337,293;   41,088;    1,071;    0,318
337,887;   16,660;    0,071;    1,955
338,481;   72,665;    2,980;    0,591
339,074;  121,133;    2,071;    2,682
339,668;  115,047;   -0,110;    1,227
340,262;  435,834;    7,708;    3,227
340,856;  211,849;    1,708;   -0,682
341,450;   61,727;    0,708;    1,864
342,044;  104,997;    1,799;    0,136
342,637;  179,120;    1,162;   -2,136
343,231;  147,956;   -1,474;    0,682
343,825;  121,844;   -0,747;   -0,591
344,419;  128,907;   -0,474;    0,500
345,012;  506,301;    2,889;    4,045
345,606;  368,660;   -0,656;    1,591
346,199;  169,922;   -0,111;   -0,227
346,793;  274,291;    2,525;    2,045
347,386;  159,275;    0,889;   -1,136
347,980;  104,564;   -0,838;   -0,045
348,573;  188,727;   -1,748;    0,409
349,167;  445,052;    6,161;    4,773
349,760;  343,197;    2,252;    2,682
350,354;  319,106;    1,616;    1,136
350,947;  367,995;    2,798;    1,682
351,540;  271,735;    0,616;   -1,409
352,134;  174,595;   -1,111;    1,136
352,727;  204,875;   -0,657;    1,136
353,320;  231,680;    2,343;    0,591
353,913;  180,049;   -1,929;    1,864
354,507;  364,010;    0,434;   -1,227
355,100;  260,403;    0,071;    0,864
355,693;  629,200;    4,798;    2,409
356,286;  410,857;    0,980;    2,773
356,879;  292,673;   -0,475;    1,227
357,472;  285,828;    0,980;    1,500
358,065;  328,265;    3,161;    2,500
358,658;  202,662;    0,798;    2,318
359,251;  168,865;    0,252;   -0,591
359,844;  320,779;    0,343;   -1,136
360,437;  391,480;    0,252;    0,045
361,030;  238,377;    0,525;   -0,682
361,623;  242,130;    0,434;    0,318
362,215;  442,358;    0,979;    2,045
362,808;  308,421;   -2,293;   -1,682
363,401;  236,740;    0,798;    0,136
363,994;  417,522;    3,252;   -1,500
364,586;  235,800;    0,888;   -1,500
365,179;  187,374;   -0,203;   -1,136
365,772;   69,865;   -0,930;    2,045
366,364;  186,057;    1,524;   -3,227
366,957;  228,943;    1,342;   -0,045
367,549;  188,852;   -0,203;   -0,864
368,142;  198,410;    0,978;   -1,500
368,734;  157,379;    2,523;   -2,136
369,327;  107,363;    2,341;   -0,500
369,919;  141,532;   -1,659;    0,409
370,512;  142,067;   -1,023;   -0,500
371,104;  368,776;    2,704;    1,591
371,696;  384,204;    1,703;   -0,955
372,289;  254,516;    0,157;    1,136
372,881;  197,671;    1,156;    1,318
373,473;  108,523;    4,064;    1,136
374,066;  184,897;    1,336;    0,500
374,658;  154,619;    0,879;    1,136
375,250;   81,636;   -1,668;   -1,409
375,842;  120,444;   -0,124;   -0,045
376,434;   79,940;   -2,762;   -0,409
377,026;   62,448;   -1,855;   -2,500
377,618;   95,650;    0,779;   -0,682
378,210;   31,881;    3,141;   -1,955
378,802;   12,559;    3,412;   -0,591
379,394;  395,595;    3,411;    0,682
379,986;  151,088;    1,138;   -0,955
380,578;   57,673;    1,410;    0,773
381,170;  303,169;    0,320;    0,045
381,762;  212,964;   -0,224;    1,409
382,354;  180,037;   -0,223;   -1,318
382,945;   95,084;    0,870;    0,318
383,537;   58,669;    1,144;   -1,955
384,129;   67,261;    0,963;   -1,136
384,721;  174,184;    0,418;    0,955
385,312;  112,350;   -1,399;   -0,955
385,904;  186,186;   -0,945;    1,591
386,496;  108,378;    0,691;    1,045
387,087;  235,835;    0,418;    2,500
387,679;  172,261;   -0,401;    0,045
388,270;  147,386;   -2,401;    2,045
388,862;  117,040;   -0,401;   -0,318
389,453;   90,573;    1,054;    1,045
390,045;  102,994;    3,236;   -2,682
390,636;    1,225;    0,144;   -0,591
391,227;   58,669;    2,054;   -0,045
391,819;   39,664;    0,781;    0,773
392,410;  288,879;    0,600;    0,045
393,001;  111,651;    1,600;   -1,591
393,593;  169,477;    0,600;   -0,045
394,184;  211,490;    0,873;   -0,409
394,775;   88,989;    1,146;    2,136
395,366;   23,399;    1,782;    0,773
395,957;  189,116;   -2,400;    0,136
396,548;   87,477;    1,054;    2,682
397,139;  191,698;    2,236;    0,591
397,730;  108,708;    0,873;    0,955
398,321;  117,412;    0,509;    0,955
398,912;   66,893;   -0,764;    0,136
399,503;   72,815;   -1,945;   -1,409
400,094;  111,560;   -1,582;    1,682
400,685;   90,950;    3,600;    0,045
401,276;   48,321;   -0,400;   -0,955
401,867;   31,519;   -1,127;    0,773
402,458;   -5,188;    1,509;   -2,318
403,048;  128,682;    0,146;    0,591
403,639;   66,451;    1,509;    0,864
404,230;  177,373;    0,691;    0,318
404,821;  231,360;   -0,127;    0,045
405,411;  138,490;   -0,763;   -2,591
406,002;   53,919;    3,237;   -1,136
406,592;  265,815;    2,691;    0,045
407,183;  127,828;    0,328;   -1,500
407,774;   96,750;    1,419;   -0,136
408,364;   55,350;    2,600;    0,409
408,954;  157,976;   -0,036;    1,227
409,545;  163,581;    1,873;    1,045
410,135;  115,145;   -1,581;    0,500
410,726;   61,334;    0,783;    0,318
411,316;  235,381;    2,237;    0,773
411,906;   76,462;    0,146;   -0,409
412,497;   74,202;   -0,490;   -0,045
413,087;   29,836;    0,783;   -0,227
413,677;  -24,723;   -2,490;    3,864
414,267;  -37,616;   -1,035;    1,409
414,857;  -54,190;    0,419;    4,227
415,448;  -54,533;   -0,763;    0,500
416,038;  -32,811;   -2,945;   -0,591
416,628;    4,973;    0,965;    0,409
417,218;   50,358;   -1,762;    3,318
417,808;  176,966;    0,965;   -0,409
418,398;   65,010;   -1,035;    2,682
418,988;  -28,699;   -2,217;    0,591
419,578;   48,397;    3,601;    1,409
420,168;  -14,790;    0,692;   -0,955
420,757;  110,955;    0,964;   -1,500
421,347;   10,166;    1,601;   -0,227
421,937;  -22,286;    3,329;    1,409
422,527;   95,303;    2,602;   -0,773
423,116;  219,760;    2,692;   -0,045
423,706;   -8,956;    2,965;    0,318
424,296;  -61,250;    1,601;    0,682
424,885;   54,295;    1,510;   -3,045
425,475;   19,542;    1,147;   -2,864
426,065;  -67,536;   -1,489;   -0,318
426,654;  -82,406;    0,329;   -0,318
427,244;  149,890;    1,147;    1,409
427,833;  106,636;    1,056;   -0,500
428,423;    0,901;    0,147;    1,136
429,012;    5,272;    2,420;   -1,136
429,601;  111,815;    2,057;    0,136
430,191;   18,033;    2,511;    4,318
430,780;  -64,840;   -1,671;   -0,409
431,369;   99,916;    1,329;   -0,045
431,959;    5,457;    1,693;    0,500
432,548;  -47,751;   -1,398;   -0,045
433,137;  -95,445;    0,329;   -1,318
433,726;  -38,447;    0,148;    0,500
434,315;  -20,478;    0,148;    2,409
434,905;   70,607;    0,693;    1,409
435,494;   59,979;    3,148;    0,955
436,083;  -47,429;    1,420;   -0,955
436,672;   36,696;    1,148;    0,500
437,261;    0,527;    0,512;   -1,955
437,850;  187,935;   -1,125;    0,682
438,439;  233,922;    2,239;    1,955
439,027;  334,823;    3,421;    1,773
439,616;  255,792;    2,239;    1,227
440,205;   58,197;    0,057;   -2,136
440,794;   23,571;   -0,306;   -0,045
441,383;  -28,203;    1,603;   -0,591
441,971;  -50,699;   -0,306;    0,591
442,560;  -39,598;    0,603;   -1,773
443,149; -128,543;    3,060;   -1,318
443,737;  -90,865;    0,968;   -2,318
444,326;  -65,385;    0,331;    0,318
444,915;  -15,948;   -1,851;    0,864
445,503;   -9,153;    0,058;   -0,318
446,092;  222,202;    7,876;    2,136
446,680;  152,813;    1,876;    0,318
447,269;   61,054;   -1,487;   -0,318
447,857;   54,262;    2,240;   -1,773
448,445;   12,005;    2,149;    1,318
449,034;  -38,024;    0,876;   -1,136
449,622;  -28,195;    1,240;    3,500
450,210;  211,161;    3,149;    2,227
450,799;  140,052;    2,604;   -0,591
451,387;  101,169;    1,786;   -0,591
451,975;   80,418;   -1,305;    0,864
452,563;  150,743;    0,422;    2,318
453,151;    7,408;   -1,032;   -1,227
453,739;   41,073;   -1,577;    0,136
454,328;  124,268;    0,604;   -2,136
454,916;   69,104;    1,150;   -0,136
455,504;   91,073;    3,513;    1,227
456,092;  -13,574;    2,150;   -1,591
456,679;  -39,486;    0,604;    0,682
457,267;  344,449;    3,604;    1,045
457,855;   54,177;    3,241;    1,409
458,443;  -76,210;   -0,304;    1,682
459,031;   49,997;    1,332;    2,409
459,619;   19,010;   -3,577;    2,864
460,206;  -53,135;   -0,759;    2,045
460,794;  -45,047;   -0,668;   -0,227
461,382;   -5,610;    0,878;   -0,864
461,970;  -12,769;    0,605;    1,864
462,557;  -65,483;    0,878;   -0,682
463,145;   25,096;   -0,304;   -1,682
463,732;  240,883;    2,514;   -1,045
464,320;   44,894;    1,514;   -3,045
464,907;  158,675;    0,423;   -0,773
465,495;   81,595;    2,696;   -1,227
466,082;   13,260;    2,060;   -0,045
466,670;   33,574;    2,605;    1,227
467,257;  -49,686;    0,060;    2,045
467,844;   39,169;    1,514;    0,045
468,432;   11,426;   -0,031;    3,500
469,019;  -14,408;    1,606;   -1,773
469,606;   49,574;    0,969;    3,682
470,193;   80,733;    2,151;    0,227
470,780;   48,943;    0,333;    0,864
471,368;   -9,109;   -1,212;   -0,773
471,955;   74,616;    1,060;   -0,682
472,542;   38,374;   -0,303;   -1,136
473,129;  -57,628;   -0,485;    0,136
473,716;  -52,917;    0,060;    0,591
474,303;  -19,350;    1,333;   -0,864
474,890;  -17,465;    2,333;   -0,500
475,477;   74,273;   -0,576;    0,409
476,064;  -11,880;    0,697;   -1,591
476,650;   92,122;    2,152;    0,318
477,237;    9,486;    1,879;    0,955
477,824;   -3,327;    3,879;    0,864
478,411;  -74,732;    0,606;   -0,318
478,997;  -79,039;    0,606;   -0,773
479,584; -118,124;   -0,666;   -0,409
480,171;   20,933;    1,243;   -0,773
480,757;   79,429;   -0,848;    0,773
481,344;  -14,535;    0,334;    0,409
481,931;  -96,181;   -0,393;    1,045
482,517;   10,011;    0,425;    0,318
483,104;   88,478;    1,334;    2,864
483,690;  -23,854;    0,243;    0,045
484,276;  -45,955;    0,698;    0,227
484,863;  145,273;    2,152;    1,136
485,449;    3,504;    0,152;    0,318
486,035;  -38,057;   -0,666;   -0,136
486,622;   49,089;   -2,393;    0,045
487,208;  -21,436;    1,334;    1,500
487,794;  -87,659;    0,971;    0,318
488,380;  -82,667;    0,698;   -1,409
488,967;  -85,262;   -1,120;   -0,409
489,553;  -60,394;   -1,029;   -1,409
490,139;    8,593;    0,971;    0,773
490,725;  -58,446;    0,789;   -0,227
491,311;  -21,895;    1,516;    3,045
491,897;  -45,864;   -0,665;    1,500
492,483;  -30,566;    0,426;    1,227
493,069;  384,053;    5,426;    0,864
493,655;  100,466;    1,789;    0,682
494,241;  -18,893;    1,517;   -0,955
494,826;   -7,405;    0,335;   -1,045
495,412;   49,720;    0,335;   -0,682
495,998;  -27,841;    0,971;   -0,318
496,584;   24,512;    2,244;    1,045
497,169;   37,320;    2,335;   -0,682
497,755;  -17,521;    1,244;    1,227
498,341;   94,673;    2,153;    0,318
498,926;  203,988;    2,881;    1,955
499,512;  -22,976;   -0,028;    2,955
500,097;  -20,965;   -0,574;   -0,318
500,683;    1,546;   -0,028;    2,136
501,268;  -39,763;    1,881;   -0,955
501,854;  -16,763;   -0,119;    1,227
502,439;  -25,745;   -0,573;   -1,773
503,024;  -15,350;    1,608;    0,500
503,610;    6,016;    1,335;   -0,682
504,195;  -35,290;    1,245;    1,955
504,780;   43,642;    2,335;    1,227
505,366;  107,489;    4,063;    2,864
505,951;   51,663;   -1,119;    1,045
506,536;  -14,274;    1,427;   -3,682
507,121;   32,362;    1,699;   -0,318
507,706;   -5,061;   -0,392;    1,045
508,291;  -49,145;   -2,937;    1,136
508,876;  -45,994;   -0,482;    2,591
509,461;  -12,939;    1,427;   -0,773
510,046;   18,326;   -0,391;    0,318
510,631;   28,422;   -0,119;   -0,773
511,216;  -34,285;   -0,664;   -0,500
511,801;   12,905;   -0,755;    2,591
512,386;   29,107;    0,972;    0,500
512,971;   39,398;    0,427;    0,955
513,555;   64,258;    1,154;   -1,500
514,140;   28,001;    1,336;   -3,136
514,725;  143,754;    1,791;   -1,136
515,309;   69,692;    1,064;    0,318
515,894;   -3,080;   -0,300;   -2,227
516,479;   30,752;    1,973;   -0,955
517,063;   42,022;    0,882;    1,227
517,648;   14,518;    0,155;   -1,136
518,232;    8,243;   -1,300;   -1,409
518,817;  109,048;    1,337;    1,682
519,401;  253,224;    0,700;    0,591
519,985;  266,778;    2,700;    1,136
520,570;  165,635;   -0,118;   -1,955
521,154;  345,747;    0,064;    0,591
521,738;  630,492;    1,064;    2,409
522,323;  531,502;   -0,390;    1,682
522,907;  614,518;    2,428;   -0,136
523,491;  621,095;    1,155;    0,955
524,075;  707,354;    0,428;    0,591
524,659; 1071,302;    0,973;    0,591
525,243; 1118,014;    0,883;    0,409
525,827; 1283,604;    0,883;   -0,045
526,411; 1665,030;    1,155;   -0,136
526,995; 2161,100;    0,337;    1,409
527,579; 2406,030;    1,974;   -1,045
528,163; 2789,775;    0,428;   -1,500
528,747; 3305,723;    1,065;   -0,773
529,331; 3781,160;    0,883;   -1,409
529,915; 4180,103;    2,338;    0,955
530,499; 4676,069;    0,247;    1,227
531,082; 5039,736;    1,065;    1,591
531,666; 5273,261;    0,520;    0,773
532,250; 6135,256;    0,428;    2,682
532,833; 6841,812;    0,610;    2,773
533,417; 7251,048;    1,247;    0,864
534,001; 7673,188;    0,429;   -0,318
534,584; 8731,077;    1,974;    0,500
535,168; 9091,238;    3,247;    1,409
535,751; 9580,032;    4,520;    0,045
536,334; 9535,126;    4,520;   -0,409
536,918;10541,492;    1,974;    1,591
537,501;11003,092;    1,520;    1,318
538,085;11390,529;    1,702;    1,045
538,668;11861,334;    0,883;    2,409
539,251;12520,412;    3,156;    3,773
539,834;12926,461;    0,156;    0,773
540,418;13189,786;    3,247;    4,318
541,001;13566,396;    2,702;    1,773
541,584;13879,942;    1,429;    2,227
542,167;13834,407;    0,702;    2,955
542,750;14167,716;    0,793;   -0,773
543,333;13944,207;    1,429;    2,136
543,916;14959,466;   -0,298;    2,500
544,499;15761,627;    2,520;    0,227
545,082;15974,261;    0,248;    3,591
545,665;16316,303;   -0,207;    1,500
546,248;16801,025;    0,520;   -0,318
546,830;16599,848;   -1,752;    1,955
547,413;17173,417;    0,157;   -0,773
547,996;17825,791;    0,157;    0,500
548,579;17723,025;   -0,843;    0,955
549,161;17691,477;    0,884;    2,682
549,744;17588,256;    0,612;    0,409
550,326;18228,368;    0,885;   -1,136
550,909;18040,934;    2,339;    0,591
551,492;18577,487;    0,521;    0,227
552,074;18417,960;   -0,024;   -1,318
552,657;19073,937;    2,430;    0,045
553,239;18942,625;   -3,024;   -0,773
553,821;18940,326;   -1,570;    1,045
554,404;18444,256;   -0,024;    1,136
554,986;18890,563;    2,248;    1,045
555,568;19563,796;    0,430;   -0,955
556,151;18785,783;    4,067;   -0,227
556,733;19063,147;   -1,388;   -0,864
557,315;19616,389;    4,703;    0,500
557,897;19464,313;    0,521;   -0,500
558,479;19653,641;    1,703;    1,318
559,061;19773,498;    1,067;   -0,864
559,643;20156,319;   -0,297;    0,045
560,225;20588,976;   -0,388;    2,864
560,807;20665,410;    0,340;    0,318
561,389;20186,074;   -1,206;    2,318
561,971;20924,833;   -0,660;    2,136
562,553;20788,178;    0,613;    1,591
563,135;20938,999;    1,249;    1,136
563,717;20581,864;    3,158;    1,136
564,298;21332,638;    3,976;   -0,045
564,880;21047,142;    0,340;   -1,409
565,462;21222,869;    1,977;    1,318
566,043;22442,924;   -0,933;    2,318
566,625;21978,186;    4,067;    1,227
567,207;21877,010;    0,704;    1,682
567,788;23032,062;   -0,114;    1,500
568,370;23897,469;   -1,841;   -0,500
568,951;23708,464;   -0,569;    0,227
569,533;24649,706;    0,977;   -0,500
570,114;25185,506;   -0,296;    0,682
570,695;25725,456;   -0,478;   -1,318
571,277;26289,854;   -0,205;   -1,682
571,858;27032,784;    2,704;   -1,136
572,439;28034,615;    0,795;   -1,045
573,021;28242,018;    0,432;   -2,773
573,602;28767,610;    1,795;    0,318
574,183;29713,893;   -0,114;    2,227
574,764;29950,555;    2,068;    0,409
575,345;30521,851;    0,250;   -0,136
575,926;31138,137;    2,704;    0,136
576,507;31202,599;    2,704;   -0,227
577,088;32296,929;    1,704;    1,682
577,669;32368,911;    1,704;    1,955
578,250;33112,984;   -0,750;   -1,045
578,831;33781,576;   -0,841;   -2,227
579,412;34097,171;   -1,205;    0,955
579,993;35093,623;    1,432;    0,227
580,573;35437,758;   -0,023;   -0,955
581,154;34409,319;    1,613;   -0,591
581,735;35333,594;    0,341;    0,773
582,315;34787,231;    0,523;    2,136
582,896;35154,373;   -1,750;    1,227
583,477;34620,623;    0,614;    1,227
584,057;34809,134;    1,159;    0,955
584,638;35170,986;   -2,750;    2,318
585,218;35183,205;    2,886;    2,682
585,799;35348,701;    1,977;   -0,227
586,379;35349,838;    1,250;    1,591
586,959;34049,506;    2,613;    0,318
587,540;33397,171;    0,432;    2,227
588,120;32908,314;   -1,113;   -0,045
588,700;31859,199;    2,977;    2,136
589,281;32144,327;    1,250;   -0,955
589,861;32106,241;   -0,296;   -1,682
590,441;31915,347;   -1,477;   -2,682
591,021;30865,521;    1,432;   -2,591
591,601;31135,527;    0,431;    0,500
592,181;31140,973;   -1,296;   -0,773
592,761;30418,181;    2,250;    1,409
593,341;30299,916;    1,522;    0,045
593,921;30278,895;   -0,569;    1,591
594,501;30149,631;    1,250;    1,318
595,081;29976,545;    0,522;   -0,318
595,661;30374,989;    1,068;    0,955
596,240;30899,288;   -1,023;    0,136
596,820;30500,578;    2,613;    1,955
597,400;30743,446;    1,977;    0,773
597,980;30983,329;   -0,750;    1,045
598,559;31001,324;    0,341;   -0,227
599,139;30711,568;   -0,750;   -1,227
599,718;30611,841;    0,795;   -0,409
600,298;30876,267;   -2,387;    0,682
600,877;31155,906;    4,795;    1,409
601,457;31465,288;    0,340;    1,136
602,036;31352,243;    1,795;    2,045
602,616;31579,319;    2,250;    1,682
603,195;31901,277;    0,431;    3,500
603,774;31409,215;   -0,296;    2,045
604,354;31324,656;    2,522;   -0,500
604,933;30768,405;    0,250;    1,864
605,512;30929,290;    2,340;    0,591
606,091;31011,989;    1,886;    3,773
606,671;31793,810;    0,249;    0,773
607,250;30830,103;    1,431;    3,136
607,829;31169,773;    1,158;    3,227
608,408;31033,571;    4,613;    2,591
608,987;30008,158;    2,704;    3,409
609,566;30324,090;    0,341;   -2,500
610,145;30431,075;    2,885;    0,682
610,723;30843,877;    1,613;    6,864
611,302;30059,882;    1,067;    1,682
611,881;29547,511;    5,158;   11,227
612,460;30384,236;    0,795;    3,955
613,039;30846,607;    1,703;    2,045
613,617;29539,030;    0,886;    4,773
614,196;29674,906;    1,613;    1,227
614,775;30053,643;    1,249;    2,409
615,353;30078,041;   -1,660;    0,864
615,932;29747,584;    0,249;    2,409
616,510;30308,906;    0,158;    0,591
617,089;29835,854;    8,794;   17,591
617,667;29546,685;    4,885;    6,136
618,246;29394,594;   -1,115;    1,318
618,824;29610,784;    1,612;   -0,955
619,402;29091,430;    0,431;   -1,773
619,981;29665,477;    1,067;   -1,045
620,559;29562,986;    0,794;    1,682
621,137;29087,924;    3,067;    1,864
621,715;29021,181;    3,703;   -0,682
622,293;28913,516;    1,885;   -0,773
622,871;29427,480;    0,340;    0,500
623,450;28981,059;    0,430;   -0,864
624,028;28916,282;   -0,388;   -0,955
624,606;28518,656;    2,339;    1,682
625,183;28926,932;   -0,661;   -1,136
625,761;28527,830;    1,885;    1,136
626,339;28842,220;    2,339;    2,591
626,917;29153,339;    0,339;   -0,045
627,495;29258,495;    2,794;    1,318
628,073;28704,100;    5,248;    2,864
628,650;28384,043;    3,067;    2,136
629,228;28807,687;    1,248;    4,409
629,806;28169,519;   -0,024;    1,136
630,383;28499,399;    0,066;   -0,318
630,961;28218,734;   -2,206;   -0,955
631,539;27940,799;   -2,479;    0,227
632,116;27215,098;   12,703;   15,409
632,694;27853,874;    4,885;    6,500
633,271;28186,030;    1,975;    2,682
633,848;28121,539;    1,430;    2,045
634,426;28162,165;    1,521;    1,773
635,003;27231,212;   -0,207;   -0,409
635,580;27524,625;    1,884;    3,682
636,158;28111,246;    3,793;    1,227
636,735;28108,609;    3,339;   -0,500
637,312;28242,194;    0,521;   -0,682
637,889;28402,534;    2,248;   -0,682
638,466;27823,653;    0,066;   -0,409
639,043;27844,295;    1,702;   -1,136
639,620;28121,342;    0,611;   -0,955
640,197;28486,220;    1,612;    1,682
640,774;28654,564;    1,430;    1,136
641,351;29054,635;    0,612;    1,136
641,928;28425,979;    2,794;    1,409
642,505;28053,777;    0,794;   -0,500
643,082;28187,849;    1,885;    1,227
643,658;27162,829;    1,157;    1,500
644,235;27924,445;   -2,479;    2,500
644,812;28217,789;    1,794;    0,773
645,388;27969,133;    1,612;    1,409
645,965;28055,204;    1,521;    1,682
646,542;28154,730;    3,430;   -0,227
647,118;28116,620;    3,703;   -0,955
647,695;28435,054;    0,339;    1,136
648,271;28316,307;   -2,115;    0,500
648,848;28685,379;    0,248;    2,227
649,424;28467,268;    0,976;    1,318
650,000;28211,521;   -0,388;   -1,045
650,577;28135,319;    0,158;   -0,955
651,153;28572,663;   -1,115;    0,955
651,729;29523,825;    0,521;    0,864
652,305;29723,624;    1,339;    2,773
652,881;34351,513;   -1,297;    1,136
653,458;41437,039;    0,249;    0,227
654,034;45429,655;    0,703;    1,591
654,610;47068,181;    0,339;    0,773
655,186;48431,343;    1,612;    3,045
655,762;48262,233;   -1,842;    0,409
656,338;48330,304;    0,703;    0,136
656,913;49385,830;   -0,297;    0,409
657,489;48713,719;    0,249;   -0,318
658,065;48652,972;    0,794;   -1,591
658,641;49136,589;    2,158;   -0,864
659,217;48522,660;    2,067;    0,409
659,792;47945,276;   -1,751;   -0,409
660,368;48333,075;   -0,388;   -0,682
660,944;48023,691;    1,794;    1,227
661,519;43250,490;    0,522;    0,409
662,095;36767,743;   -0,206;    0,591
662,670;31823,814;   -0,206;   -0,136
663,246;30551,976;   -0,660;   -0,409
663,821;29830,865;    0,431;    1,682
664,396;29403,846;    0,613;    1,864
664,972;29658,917;   -0,660;   -0,500
665,547;30022,261;    3,794;    0,136
666,122;29979,877;    1,340;    0,318
666,698;30281,221;    2,431;    0,318
667,273;29611,656;    0,885;    0,136
667,848;30434,273;    0,340;    1,500
668,423;30207,344;    1,795;    2,318
668,998;30833,688;    0,976;   -0,682
669,573;31381,577;    2,067;   -1,500
670,148;31159,376;    1,885;   -0,682
670,723;31052,720;   -0,024;    0,318
671,298;31438,973;   -1,296;    1,045
671,873;31541,317;   -0,296;   -0,136
672,448;31509,660;    1,704;    0,136
673,023;31891,368;    0,249;   -0,227
673,597;32198,712;    2,704;    2,318
674,172;31963,601;    2,431;    0,318
674,747;31467,763;   -0,205;   -1,045
675,321;31338,653;   -0,933;    3,318
675,896;30852,724;    2,158;    1,045
676,471;31853,431;    2,522;    1,591
677,045;31587,775;   -0,296;    0,682
677,620;31670,392;    2,158;    1,136
678,194;32039,827;    0,249;    1,136
678,769;31517,898;    0,886;   -0,318
679,343;31801,605;   -0,023;    1,773
679,917;31604,858;    0,340;    1,955
680,492;31693,293;    0,249;    3,227
681,066;31828,274;    0,613;    0,409
681,640;31867,890;    1,795;   -0,318
682,214;32706,961;    2,340;    0,500
682,788;32158,942;    0,613;   -0,773
683,363;32158,286;    1,977;    1,682
683,937;31860,175;    0,886;   -0,318
684,511;32633,792;   -1,023;   -0,591
685,085;32360,772;   -1,478;    0,318
685,659;32098,843;    1,431;    0,864
686,232;32273,732;    1,159;   -0,318
686,806;32070,894;    2,159;    0,409
687,380;32762,147;   -1,932;    0,591
687,954;32981,219;    2,432;    1,136
688,528;32677,744;    2,613;    1,955
689,101;33469,270;    0,432;    1,045
689,675;33018,887;    0,886;   -0,136
690,249;32337,867;    3,432;    0,409
690,822;32692,211;    1,159;    0,318
691,396;32736,009;    2,068;    1,227
691,969;32213,990;    2,523;    0,136
692,543;32687,970;   -0,568;   -1,955
693,116;32331,041;   -0,659;   -1,409
693,690;32179,839;   -0,296;    0,500
694,263;32717,183;    2,341;    2,955
694,836;32750,345;    2,795;    3,591
695,410;31329,962;    1,159;    1,773
695,983;31817,397;    1,614;    0,591
696,556;31759,923;   -0,750;   -1,045
697,129;32203,630;   -1,114;    1,409
697,703;31779,610;    1,341;    1,955
698,276;31783,591;    1,705;   -0,773
698,849;31618,116;   -1,023;    1,409
699,422;31998,460;    1,250;    0,591
699,995;31622,441;   -0,659;    0,136
700,568;32110,785;   -0,204;    3,045
701,140;32124,219;   -1,841;    1,682
701,713;31865,836;    0,341;    2,409
702,286;31612,816;    0,796;    0,864
702,859;31536,342;    0,614;   -0,591
703,432;30618,049;   -0,841;    0,682
704,004;31169,939;    1,978;    0,318
704,577;31022,283;    1,068;    0,136
705,150;31641,899;    0,887;    2,500
705,722;31422,607;    1,523;   -3,227
706,295;31210,860;    1,432;   -0,591
706,867;31010,840;    0,250;    1,955
707,440;31239,093;   -0,113;   -0,409
708,012;31472,892;   -0,022;    0,591
708,584;31347,781;    2,705;    0,227
709,157;31658,943;    1,160;   -0,591
709,729;31350,014;    1,069;    2,045
710,301;32207,358;   -1,204;    0,045
710,874;32209,066;    0,341;   -0,227
711,446;31049,046;   -0,295;    0,864
712,018;30919,663;   -3,022;    0,500
712,590;30621,461;   -0,204;    1,682
713,162;31207,623;   -0,477;    1,318
713,734;31480,240;    1,796;   -2,045
714,306;31369,038;    0,342;   -0,409
714,878;29971,291;   -0,295;    0,864
715,450;30760,544;   -0,113;    0,864
716,022;31046,979;    2,433;    1,318
716,593;31206,232;    0,978;    0,591
717,165;31087,758;    1,796;   -1,227
717,737;30846,920;    0,796;    0,409
718,309;30535,627;    1,160;   -0,045
718,880;30429,971;   -1,295;   -1,409
719,452;30658,406;    0,887;   -1,591
720,024;30182,841;    1,705;   -0,591
720,595;30741,003;    2,978;    0,955
721,167;30224,438;    1,160;   -2,045
721,738;29769,054;    2,069;   -1,045
722,309;29687,762;    1,251;   -1,227
722,881;29506,833;    2,705;    0,773
723,452;30220,813;    1,251;    2,864
724,023;30409,885;    1,524;    2,682
724,595;30161,319;    2,342;    0,682
725,166;29878,209;    1,524;   -0,409
725,737;29495,007;    1,887;    0,227
726,308;29592,624;    0,797;    0,318
726,879;30012,786;    1,069;    1,227
727,450;29871,494;   -2,022;   -0,045
728,021;29846,383;    1,069;    0,682
728,592;29653,272;    1,160;    0,500
729,163;30012,162;    1,433;   -0,136
729,734;29923,142;    2,160;   -0,227
730,305;30305,849;    0,615;    0,136
730,876;30685,102;    0,888;    2,955
731,447;30346,264;    0,797;    2,682
732,017;30421,972;   -0,840;    1,864
732,588;29911,043;   -0,021;    1,227
733,159;30111,569;    3,615;   -1,045
733,729;29910,640;    1,251;    0,409
734,300;29122,439;    0,160;    0,864
734,870;29592,510;   -1,385;    0,591
735,441;30133,217;    0,888;   -0,591
736,011;29876,743;    1,070;   -1,591
736,582;29868,087;    1,251;    0,045
737,152;29283,522;    0,979;   -2,045
737,722;29803,775;    1,070;   -0,682
738,293;29500,028;   -2,021;    1,318
738,863;29356,553;    1,797;    2,318
739,433;29148,079;    4,524;    0,318
740,003;29852,878;    1,524;   -0,682
740,573;29218,312;    2,252;   -1,591
741,143;29180,020;    3,615;    0,318
741,713;29941,182;    0,252;   -0,500
742,283;29582,890;    1,706;    1,591
742,853;29383,415;    0,524;    1,591
743,423;28803,850;    0,161;    0,045
743,993;28933,921;    1,070;    1,500
744,563;28251,174;    2,524;   -0,864
745,133;28241,245;   -0,112;   -0,864
745,702;28979,317;    2,797;    1,773
746,272;28100,751;    0,434;    0,591
746,842;27828,004;   -0,748;   -0,591
747,411;28358,894;   -0,839;   -0,318
747,981;28532,147;   -0,930;    0,500
748,551;28547,127;   -0,021;   -1,045
749,120;28404,744;   -0,112;   -0,227
749,690;28815,088;    2,161;    2,409
750,259;29179,432;    0,979;    2,955
750,828;29019,775;    4,070;   -1,955
751,398;29269,665;   -0,112;   -0,045
751,967;28731,372;    2,888;    0,409
752,536;28985,898;    1,161;   -0,227
753,105;29427,606;   -1,384;    0,227
753,675;29216,677;   -0,112;    1,773
754,244;29156,112;    0,888;    3,591
754,813;29181,274;    0,979;    1,227
755,382;28806,527;    0,798;    0,955
755,951;29333,689;   -0,112;    3,682
756,520;28865,669;    2,525;    1,864
757,089;29436,831;    1,888;    0,500
757,658;29583,630;    2,434;    1,227
758,227;29523,155;   -1,111;    0,318
758,795;29870,954;   -1,021;    1,136
759,364;30158,570;    0,525;   -0,591
759,933;29093,642;    1,343;   -0,045
760,501;28591,258;    0,252;   -1,318
761,070;29079,602;   -0,293;   -1,409
761,639;29756,764;    1,434;    1,318
762,207;29067,472;    0,889;   -0,955
762,776;29040,361;    2,889;    0,864
763,344;28933,978;    0,071;    0,591
763,913;28067,776;    1,616;    1,409
764,481;28889,302;    1,980;   -0,136
765,049;28702,918;    0,616;    1,409
765,618;28598,990;    1,434;    0,318
766,186;28611,879;    2,434;    0,136
766,754;28732,859;    1,798;    1,864
767,322;27698,658;    1,162;    0,409
767,890;27736,002;    0,525;   -1,773
768,459;28136,891;    2,616;   -0,318
769,027;28319,235;    2,525;    3,409
769,595;27268,306;    2,616;    2,591
770,163;27689,923;    3,344;    2,955
770,730;27482,630;    2,525;   -0,136
771,298;27338,247;    1,162;   -1,409
771,866;27364,409;    0,253;    4,955
772,434;27730,844;    1,162;   -1,864
773,002;27878,733;    2,616;    0,682
773,569;27481,713;    1,071;    1,682
774,137;27363,966;    0,889;   -0,045
774,705;28134,401;   -0,747;   -0,136
775,272;27585,927;    0,253;    0,682
775,840;27403,635;   -0,111;    2,682
776,407;26821,251;   -0,293;    1,955
776,975;26384,050;    1,162;    0,318
777,542;27515,212;    2,162;   -0,045
778,110;27344,465;    0,707;   -0,045
778,677;26988,990;    1,071;   -0,864
779,244;26732,425;   -1,020;    1,045
779,812;26892,769;    0,980;    0,864
780,379;26705,931;    2,435;    1,136
780,946;26922,821;    2,617;   -0,773
781,513;27270,437;   -0,565;    0,318
782,080;26601,599;    1,253;    2,864
782,647;27329,670;    1,708;    3,045
783,214;26904,469;   -0,201;    3,864
783,781;26519,995;    1,708;   -0,682
784,348;26418,429;    0,253;    1,500
784,915;26861,228;   -1,474;    0,318
785,482;26571,390;    2,708;    2,591
786,049;27026,461;    1,071;   -0,591
786,615;27087,987;    1,708;   -0,955
787,182;26949,967;   -3,201;   -0,682
787,749;26606,766;   -2,201;    1,409
788,315;25893,564;    0,253;   -0,409
788,882;26184,999;    0,981;   -1,227
789,448;26849,706;    1,435;   -0,955
790,015;26912,596;    1,799;    3,227
790,581;26421,394;    0,708;    0,227
791,148;26252,374;    1,344;    1,045
791,714;26545,173;   -1,019;    3,136
792,280;26218,426;    3,708;    1,591
792,847;25747,406;   -0,928;    2,500
793,413;26321,205;   -0,110;   -0,318
793,979;25801,458;    1,526;   -1,318
794,545;25899,529;    2,981;    2,682
795,111;25330,418;    2,435;    1,318
795,678;25493,671;    3,526;   -1,682
796,244;25141,197;    2,799;    0,136
796,810;25744,723;    0,799;    0,773
797,375;25345,885;   -0,292;   -2,136
797,941;25417,683;   -1,110;    0,591
798,507;25562,845;    0,254;   -0,955
799,073;25100,826;    2,708;    0,591
799,639;25177,079;    1,435;    3,136
800,205;25223,422;   -1,565;    2,682
800,770;24715,312;    1,345;    1,773
801,336;24733,383;    2,981;   -0,955
801,901;24421,818;    6,072;    3,136
802,467;25042,434;    0,526;    2,045
803,033;24362,233;   -0,019;    0,864
803,598;24568,577;    1,072;   -1,045
804,163;24629,739;    0,708;   -0,318
804,729;24515,628;   -0,110;    1,136
805,294;24954,154;    1,072;    2,227
805,859;24736,134;    0,890;   -0,409
806,425;24194,114;    3,890;    2,682
806,990;23855,095;    1,890;    4,318
807,555;24412,711;   -0,110;    2,591
808,120;24255,510;   -1,292;   -0,409
808,685;24275,945;    1,072;   -2,500
809,250;23794,561;    2,072;   -0,500
809,815;24171,632;   -0,201;    0,682
810,380;24660,704;    0,981;    1,591
810,945;25194,775;    2,890;    2,045
811,510;24385,391;   -0,200;    1,591
812,075;24065,190;    2,800;   -1,409
812,640;24070,988;    3,709;    1,409
813,204;24156,696;    2,163;   -0,227
813,769;24680,676;    0,254;   -0,045
814,334;23996,384;    0,527;    0,864
814,898;24030,455;    1,981;    0,591
815,463;23901,072;    0,981;   -0,773
816,027;23909,324;    1,345;   -2,318
816,592;23961,032;    2,163;   -2,045
817,156;23440,921;   -2,200;    1,136
817,721;23220,993;    0,982;    2,318
818,285;23209,064;    0,618;    1,500
818,849;23922,135;   -0,018;    1,682
819,414;23801,297;    0,073;    2,955
819,978;23326,732;   -0,291;    1,773
820,542;23978,985;    2,891;    0,500
821,106;23665,056;    2,800;    0,682
821,670;23781,491;    2,709;    2,591
822,234;23460,926;    1,073;    1,409
822,798;22845,088;   -0,836;    0,500
823,362;22861,432;    1,527;    4,227
823,926;22094,139;   -0,018;    1,136
824,490;22281,029;    3,527;   -0,682
825,054;22770,282;    2,527;   -1,136
825,618;22361,080;   -1,200;   -1,500
826,181;22308,333;    0,982;   -1,318
826,745;22151,677;   -0,745;   -1,045
827,309;22525,839;    2,255;    1,318
827,872;21929,728;    0,527;    0,955
828,436;22936,981;    1,982;   -0,773
828,999;22986,689;    2,436;    1,227
829,563;21799,396;   -0,654;    1,136
830,126;21573,740;   -0,018;   -0,591
830,690;21570,721;    0,709;    2,864
831,253;21073,246;   -0,473;    2,227
831,816;21242,136;   -0,018;    0,500
832,380;21158,116;    1,164;    0,864
832,943;21351,278;    3,073;   -0,500
833,506;20904,986;    0,255;   -1,227
834,069;21656,239;    2,164;   -0,955
834,632;21726,673;   -2,200;    1,318
835,195;21596,108;    1,346;    0,955
835,758;20800,361;    0,709;    1,955
836,321;20615,069;    1,073;   -1,045
836,884;20704,958;   -1,291;   -0,955
837,447;20743,847;    0,528;    1,773
838,010;21011,100;    1,800;    3,227
838,573;21360,808;    0,528;    0,773
839,135;21264,334;   -0,109;   -0,955
839,698;20730,859;    2,528;    0,409
840,261;20225,203;    0,255;   -0,227
840,823;20124,456;   -0,927;    0,864
841,386;20370,164;   -0,018;   -2,409
841,948;20226,962;    0,255;    1,773
842,511;19943,397;    0,255;    1,682
843,073;20072,832;    2,982;    0,227
843,636;19883,630;    0,619;   -0,227
844,198;19813,247;    1,255;    0,591
844,760;19943,136;    0,619;    1,955
845,322;19562,753;    0,164;    1,136
845,885;20002,097;   -0,290;    0,591
846,447;20467,804;    0,710;    0,227
847,009;19973,057;    3,983;   -0,682
847,571;20363,856;    1,346;   -2,045
848,133;20448,473;   -0,199;   -1,864
848,695;20279,998;    2,346;    1,409
849,257;19803,706;    1,346;   -1,682
849,819;19961,504;    2,983;   -0,409
850,381;20016,939;    1,801;   -0,864
850,942;20386,192;    1,892;   -0,591
851,504;20296,718;    0,983;    0,227
852,066;20327,244;    1,619;   -1,591
852,628;19844,133;    0,165;    1,955
853,189;19409,295;    0,256;    2,682
853,751;19530,093;   -0,654;    1,409
854,312;19359,346;    1,256;   -1,682
854,874;19859,054;   -0,108;   -0,773
855,435;20338,943;    0,528;   -1,682
855,997;20507,742;    3,983;   -0,136
856,558;19706,449;    0,801;    1,773
857,119;19863,611;   -0,744;    2,864
857,681;19517,319;   -0,108;    0,318
858,242;19545,754;    1,347;   -2,136
858,803;20034,098;    1,074;   -0,773
859,364;20623,260;    0,892;   -4,773
859,925;19983,240;   -0,290;   -0,955
860,486;19872,766;    0,529;   -0,955
861,047;19566,746;    0,165;   -1,227
861,608;19364,454;    0,165;   -0,773
862,169;19535,525;   -0,562;   -0,045
862,730;19323,596;   -0,290;    1,409
863,291;19563,485;    0,438;   -0,500
863,852;19866,556;   -0,926;    1,955
864,412;19342,173;   -1,835;   -0,864
864,973;17874,426;    1,892;    0,500
865,534;17713,679;    2,074;    0,227
866,094;19236,841;    2,620;    0,227
866,655;18895,458;    4,711;    3,318
867,215;19140,438;    0,074;    0,136
867,776;19041,146;   -1,199;   -0,136
868,336;19141,126;    1,529;    0,136
868,897;18540,379;    3,438;    1,682
869,457;18273,086;    3,256;    0,318
870,017;18562,158;    2,438;   -1,227
870,578;19125,047;    1,893;    0,773
871,138;18711,391;    2,620;   -0,955
871,698;18258,098;   -0,562;   -1,318
872,258;18147,806;    0,711;   -2,864
872,818;18491,604;    2,347;    0,045
873,378;18451,039;   -2,198;    1,045
873,938;17979,838;    4,984;    0,500
874,498;18365,909;    1,256;   -1,955
875,058;18210,707;    4,347;    1,773
875,618;18077,597;    1,438;   -2,682
876,177;18008,213;   -0,471;    0,136
876,737;17556,194;   -0,289;    1,955
877,297;17535,992;    2,711;    1,955
877,856;17572,245;    2,529;    0,318
878,416;17509,407;    2,438;   -0,136
878,976;17753,842;    3,438;    0,409
879,535;17923,277;    4,529;    3,136
880,095;17637,530;    1,347;    0,045
880,654;17771,510;    0,347;    1,318
881,213;17847,581;    2,347;    1,500
881,773;17501,561;    1,984;    2,682
882,332;17858,723;    6,075;    5,136
882,891;17694,340;    0,711;    2,136
883,451;18185,957;   -2,016;    1,682
884,010;17653,937;   -1,107;   -0,409
884,569;17726,190;   -2,289;   -0,045
885,128;17841,807;   -0,743;   -1,864
885,687;17893,060;   -0,743;    0,682
886,246;17585,949;    2,620;    2,136
886,805;17358,566;    1,620;    2,045
887,364;17721,000;    1,166;   -0,500
887,922;18079,526;   -0,016;    0,045
888,481;17552,688;    1,530;    0,591
889,040;17858,850;    3,711;    2,136
889,599;18585,285;    2,166;    1,409
890,157;18622,902;    2,166;    2,409
890,716;18279,246;    2,166;    0,227
891,274;18038,771;    0,075;   -1,136
891,833;18491,933;    1,166;    0,864
892,391;18384,732;    1,802;    0,500
892,950;18492,258;    0,166;   -0,773
893,508;18846,329;    0,984;   -0,409
894,067;18206,582;   -0,379;    0,136
894,625;18096,835;   -1,016;   -1,500
895,183;18282,815;   -0,198;   -0,682
895,741;18194,432;    2,257;   -1,773
896,299;18039,503;    1,621;   -2,409
896,858;18252,210;    1,530;   -1,591
897,416;18340,827;    0,166;   -1,318
897,974;18101,535;   -2,197;    0,318
898,532;18241,969;    6,530;    2,682
899,089;18058,768;    0,621;   -0,682
899,647;18170,112;    0,530;    1,318
900,205;17869,819;    0,257;    1,045
900,763;18100,254;    2,166;    0,227
901,321;18111,144;    3,530;   -1,409
901,878;17530,033;    3,257;   -0,773
902,436;17386,650;    0,257;    1,318
902,994;17767,903;    6,712;    3,682
903,551;17190,883;    1,439;    0,409
904,109;17623,954;    1,530;   -1,409
904,666;17178,025;    1,439;    1,045
905,224;16950,005;    3,894;   -0,409
905,781;16665,349;   -0,470;   -0,318
906,338;16777,330;    0,167;    1,045
906,895;16694,764;    1,894;    2,045
907,453;16584,563;    2,348;    1,136
908,010;16614,089;    3,348;    0,409
908,567;16244,432;   -0,561;    0,591
909,124;15778,595;    2,439;   -1,500
909,681;15839,484;   -1,288;    0,682
910,238;16007,010;   -0,106;   -1,318
910,795;16318,444;   -1,561;   -1,136
911,352;15942,899;   -0,379;   -2,682
911,909;15326,172;    2,803;   -0,864
912,466;15785,172;    1,985;    1,500
913,022;15346,263;   -0,924;    0,500
913,579;15721,808;   -0,470;    2,045
914,136;15428,808;   -2,561;    0,955
914,692;15741,626;    1,530;   -1,227
915,249;15281,081;    0,530;    0,409
915,806;15540,626;    1,803;    1,955
916,362;15274,081;    0,894;    1,864
916,918;14816,172;    2,439;    1,045
917,475;14796,172;    1,621;    0,955
918,031;14903,808;    0,076;   -0,045
918,587;14333,535;    0,621;   -0,318
919,144;14537,354;   -0,379;    0,227
919,700;14884,263;    0,167;    0,773
920,256;14460,444;    0,439;    0,045
920,812;14053,172;    1,439;   -1,045
921,368;14036,263;    1,348;   -1,045
921,924;13717,899;    0,439;   -0,136
922,480;13262,354;    0,076;    1,227
923,036;13827,535;   -0,652;    1,955
923,592;13805,899;    0,621;    0,318
924,148;13691,717;    1,894;   -0,955
924,704;13003,626;    0,258;   -0,409
925,259;13300,717;   -0,561;    0,591
925,815;13012,899;    3,803;    0,500
926,371;12522,990;    3,530;    1,409
926,926;12419,081;    1,621;    0,591
927,482;12000,899;    1,621;    0,773
928,037;11887,808;   -0,833;    2,045
928,593;12184,354;    0,258;    1,045
929,148;11989,081;    1,167;   -1,500
929,704;11509,081;    2,439;   -0,500
930,259;11694,717;    0,894;   -0,136
930,814;10754,354;    1,803;    1,955
931,369;10417,444;    0,258;   -0,773
931,925;10322,081;   -1,924;    0,136
932,480;10173,535;    3,076;   -2,591
933,035;10057,717;    3,985;   -0,318
933,590; 9791,808;   -1,742;   -1,773
934,145; 9438,899;   -1,288;   -0,318
934,700; 9837,354;    0,348;   -0,591
935,255; 9590,263;    4,803;    0,045
935,809; 8809,172;    6,258;    0,864
936,364; 7922,535;    2,167;   -0,136
936,919; 7893,172;    2,348;   -1,773
937,474; 7760,990;    1,348;    0,136
938,028; 7515,172;    3,076;    1,136
938,583; 6919,535;    6,348;    4,682
939,138; 7229,081;    0,167;    2,136
939,692; 6702,808;   -1,015;   -1,136
940,247; 6355,626;    1,167;   -1,045
940,801; 5856,808;    0,621;    0,227
941,355; 5786,990;    0,439;    2,591
941,910; 5443,626;    0,712;   -2,136
942,464; 5501,808;    2,712;   -0,318
943,018; 5299,535;    3,258;   -0,227
943,572; 5236,444;    2,803;   -0,682
944,126; 4602,990;   -0,924;   -0,409
944,681; 4479,990;    0,712;    0,227
945,235; 4477,081;    2,167;   -0,591
945,789; 4422,172;    1,258;   -1,864
946,342; 4482,808;   -0,561;   -0,591
946,896; 4311,626;    0,348;    0,955
947,450; 4065,535;   -0,561;   -0,227
948,004; 4231,808;    1,076;   -0,045
948,558; 4262,990;    1,258;   -0,864
949,111; 4174,263;   -1,197;   -0,318
949,665; 4187,354;   -0,106;   -0,682
950,219; 4065,808;    0,621;   -1,045
950,772; 4142,626;    0,258;    1,864
951,326; 4081,081;   -1,106;   -0,955
951,879; 4185,535;    1,076;   -2,318
952,433; 4189,626;    1,348;    2,227
952,986; 4041,354;    0,348;    0,682
953,539; 3975,899;    1,530;    0,591
954,093; 3890,808;    0,985;   -1,318
954,646; 4032,717;   -0,288;    1,318
955,199; 3833,263;    1,258;   -0,500
955,752; 3693,263;    1,985;    1,773
956,305; 3660,717;    0,894;    2,955
956,858; 3840,444;    0,621;   -0,318
957,411; 4027,263;    3,621;    2,136
957,964; 3827,081;    2,076;    2,136
958,517; 3832,354;    0,985;    3,136
959,070; 3675,990;   -1,197;    1,955
959,623; 3722,626;    1,076;    1,500
960,176; 3505,263;    0,712;    2,045
960,728; 3463,444;    1,712;    0,773
961,281; 3547,081;    2,258;    0,500
961,834; 3578,263;   -0,833;    0,864
962,386; 3485,626;    1,258;    1,045
962,939; 3406,535;    3,439;   -0,318
963,491; 3561,535;    2,621;    1,136
964,043; 3409,808;    0,076;    2,409
964,596; 3553,626;    1,712;    2,227
965,148; 3364,354;   -0,379;    1,773
965,700; 3325,444;   -0,015;   -0,227
966,253; 3459,081;   -0,833;    0,318
966,805; 3283,354;    1,894;    0,773
967,357; 3338,535;    0,439;   -1,500
967,909; 3268,899;    1,167;   -1,227
968,461; 3416,263;    0,894;    3,136
969,013; 3319,626;   -1,561;   -0,864
969,565; 3412,354;    1,803;   -1,136
970,117; 3453,081;    3,803;    1,045
970,669; 3309,354;    3,258;   -0,136
971,220; 3180,717;    2,167;   -1,500
971,772; 3093,354;    1,348;   -0,318
972,324; 3205,808;   -1,197;   -0,500
972,876; 3155,808;    0,167;   -0,045
973,427; 3268,626;   -1,197;   -1,045
973,979; 3256,535;    0,076;   -2,500
974,530; 3303,717;    0,803;    1,318
975,082; 3301,263;    2,167;    1,682
975,633; 3196,899;    2,894;    1,682
976,184; 3367,354;    2,076;    0,773
976,736; 3137,990;    0,348;    0,227
977,287; 2909,081;    0,258;   -0,500
977,838; 3096,990;   -0,924;   -0,318
978,389; 3137,172;    0,803;   -0,500
978,940; 3043,626;    1,258;   -0,409
979,491; 3067,626;    2,258;   -0,500
980,042; 3012,444;   -0,652;    3,045
980,593; 3078,626;    1,894;    0,227
981,144; 3127,081;    3,530;   -0,500
981,695; 3086,354;   -0,470;    1,500
982,246; 3040,081;   -1,833;    1,045
982,797; 3207,808;   -0,561;    0,682
983,347; 3343,626;    2,167;    0,591
983,898; 3485,808;    4,167;    0,409
984,449; 3313,263;    2,530;    0,773
984,999; 3237,444;    1,894;   -1,136
985,550; 2986,263;    3,167;   -0,318
986,100; 3035,990;    0,712;   -0,318
986,651; 3081,263;    0,258;    0,045
987,201; 3051,626;    0,894;   -0,591
987,751; 3139,081;   -0,288;    2,864
988,302; 3111,172;   -0,379;    1,500
988,852; 3147,444;    1,985;   -1,136
989,402; 3176,990;    0,985;    0,682
989,952; 3060,990;    1,621;    0,864
990,502; 3176,444;    1,076;    0,682
991,052; 3169,990;   -0,106;    0,045
991,602; 3034,535;    1,167;    1,318
992,152; 3020,899;    2,803;    0,682
992,702; 2984,172;    1,167;   -0,045
993,252; 2896,081;    0,076;   -0,500
993,802; 2988,354;    1,167;    1,318
994,352; 3263,717;   -0,742;    1,136
994,901; 3370,535;    1,076;    3,227
995,451; 3267,081;   -1,197;    0,318
996,000; 3328,626;    1,076;    0,318
996,550; 3026,717;    2,894;    0,227
997,100; 3049,990;   -0,561;   -0,045
997,649; 3355,717;   -0,197;    0,955
998,198; 2955,444;   -0,288;   -1,500
998,748; 3143,535;    0,348;   -2,318
999,297; 3055,717;    0,985;   -0,409
999,846; 3145,899;    1,894;   -0,773
1000,395; 3173,172;    1,530;    0,500
1000,945; 3098,808;    1,076;   -0,773
1001,494; 3197,081;    0,167;    0,682
1002,043; 3196,808;    0,712;    0,864
1002,592; 3047,535;    3,439;    1,955
1003,141; 3194,626;    2,439;   -0,682
1003,690; 3016,081;    1,258;    0,500
1004,238; 3105,626;   -0,106;   -0,045
1004,787; 2751,444;   -1,288;    1,227
1005,336; 2979,535;    1,621;    0,682
1005,885; 3108,444;   -0,197;   -2,773
1006,433; 3275,626;   -0,470;    0,955
1006,982; 3312,172;    2,167;    1,682
1007,531; 3255,626;    2,712;   -0,227
1008,079; 3201,899;    0,258;    0,500
1008,627; 3360,990;    1,621;    0,409
1009,176; 3069,444;    0,076;   -1,955
1009,724; 3122,717;   -2,742;    0,864
1010,273; 3160,717;    1,076;    0,500
1010,821; 3307,717;    1,076;    1,409
1011,369; 3027,899;    0,076;    1,318
1011,917; 3005,899;   -0,833;   -0,591
1012,465; 3305,626;    2,530;   -1,591
1013,013; 3442,626;    0,439;   -1,682
1013,561; 3291,263;   -1,288;   -0,773
1014,109; 3303,808;   -0,833;    1,682
1014,657; 3175,354;    1,348;    0,591
1015,205; 3320,081;    0,894;   -0,955
1015,753; 3378,717;    0,258;   -1,409
1016,301; 3397,899;    2,621;    3,045
1016,848; 3410,263;    2,167;    0,409
1017,396; 3433,444;    1,621;    0,045
1017,944; 3574,263;    2,621;    1,864
1018,491; 3330,899;   -0,197;    1,409
1019,039; 3475,808;   -0,652;    0,591
1019,586; 3390,626;    0,076;    1,682
1020,134; 3508,444;    0,712;    1,500
1020,681; 3501,990;    2,894;   -1,136
1021,228; 3545,535;   -0,561;   -2,227
1021,776; 3379,990;   -0,833;   -1,136
1022,323; 3566,172;    0,803;    0,773
1022,870; 3523,354;   -0,470;   -0,045
1023,417; 3406,808;    2,076;    1,864
1023,964; 3567,444;    0,621;    1,227
1024,511; 3395,808;   -0,652;    0,773
1025,058; 3164,626;    0,439;   -0,045
1025,605; 3221,535;   -1,742;    3,136
1026,152; 3427,354;   -0,106;   -0,591
1026,699; 3167,535;    0,167;    1,318
1027,245; 3334,899;    2,439;    0,318
1027,792; 3588,172;    0,712;    1,409
1028,339; 3440,263;    4,076;   -0,045
1028,885; 3283,808;    3,621;   -0,227
1029,432; 3217,172;   -0,106;    0,227
1029,978; 3271,808;    1,348;   -1,591
1030,525; 3168,263;    1,621;    0,409
1031,071; 3448,535;    0,348;    1,136
1031,618; 3533,808;    1,258;    1,682
1032,164; 3320,081;    2,076;    3,045
1032,710; 3368,172;    0,076;   -1,500
1033,256; 3297,808;    0,712;   -0,136
1033,803; 3291,263;   -0,288;    1,500
1034,349; 3012,444;    1,803;    0,136
1034,895; 3183,354;    2,621;   -0,318
1035,441; 3142,899;    0,439;    0,318
1035,987; 3163,717;   -2,288;   -0,682
1036,533; 3145,444;   -0,197;   -0,955
1037,078; 3324,354;    4,712;    1,682
1037,624; 3161,354;    2,439;   -0,955
1038,170; 3186,172;    1,712;   -0,318
1038,716; 3061,808;    2,167;   -0,409
1039,261; 2995,899;    2,167;   -0,773
1039,807; 2928,899;   -0,015;    3,409
1040,352; 3003,172;   -1,288;   -0,318
1040,898; 3038,990;    0,167;   -0,682
1041,443; 2946,717;    0,803;   -2,591
1041,989; 2960,354;    3,621;    1,591
1042,534; 2852,172;    0,985;    2,591
1043,079; 2984,172;    1,985;    0,955
1043,625; 2729,717;    0,258;    0,500
1044,170; 2775,354;    2,439;    1,045
1044,715; 3044,444;    0,167;    0,955
1045,260; 2853,899;   -0,833;   -0,955
1045,805; 2916,808;    0,258;   -0,591
1046,350; 2857,990;    0,530;   -0,409
1046,895; 2797,899;    0,803;    1,591
1047,440; 2747,899;    1,530;    0,409
1047,985; 2639,535;   -1,197;   -0,955
1048,530; 2572,263;    1,348;    1,227
1049,074; 2640,808;    2,803;    0,318
1049,619; 2609,354;   -0,924;    1,955
1050,164; 2400,081;    1,076;    0,227
1050,708; 2456,172;    2,621;    0,045
1051,253; 2807,535;    3,258;   -2,227
1051,797; 2539,172;   -0,197;   -1,318
1052,342; 2564,899;    1,348;    1,045
1052,886; 2544,354;    1,803;   -1,409
1053,430; 2432,081;    2,167;    0,136
1053,975; 2439,808;    0,894;   -0,318
1054,519; 2406,717;    1,803;    3,227
1055,063; 2400,990;    3,621;    1,318
1055,607; 2302,990;    1,348;    0,227
1056,151; 2335,808;    0,530;    1,682
1056,695; 2250,717;   -1,833;   -1,136
1057,239; 2312,717;   -1,197;   -0,682
1057,783; 2310,626;    2,258;   -1,500
1058,327; 2246,081;    3,076;    1,409
1058,871; 2487,263;    3,985;    1,318
1059,415; 2175,717;   -0,561;   -0,045
1059,958; 2423,263;    2,985;    2,591
1060,502; 2160,354;    1,348;   -0,773
1061,046; 2079,354;    1,712;   -0,955
1061,589; 2070,263;    2,803;   -1,136
1062,133; 1943,535;    0,985;    1,864
1062,676; 1866,263;    1,439;    0,864
1063,220; 1868,444;    0,985;    0,500
1063,763; 1878,899;    2,985;    1,136
1064,306; 1946,444;    0,985;    1,864
1064,849; 1824,081;    2,076;    0,591
1065,393; 1839,263;    2,894;   -1,500
1065,936; 1974,263;    2,530;   -0,409
1066,479; 1877,081;    2,621;    1,318
1067,022; 1895,172;    1,894;   -0,227
1067,565; 1783,717;   -1,197;   -1,318
1068,108; 1813,081;    1,258;   -0,591
1068,651; 1793,990;   -2,470;    1,409
1069,194; 1717,172;   -1,106;   -1,682
1069,736; 1712,626;    3,803;    0,955
1070,279; 1689,444;   -1,652;   -0,500
1070,822; 1726,990;    1,530;   -0,318
1071,364; 1789,444;    0,530;    1,318
1071,907; 1631,081;    0,348;    3,227
1072,450; 1560,990;    0,258;   -0,045
1072,992; 1542,172;   -0,561;    3,136
1073,535; 1659,990;    0,167;    2,136
1074,077; 1471,808;    2,985;    2,045
1074,619; 1433,081;    0,985;    0,591
1075,161; 1457,808;   -0,561;    1,500
1075,704; 1619,717;    0,258;    1,227
1076,246; 1433,263;    1,530;    0,682
1076,788; 1373,535;   -1,015;    1,773
1077,330; 1473,081;   -2,106;    2,136
1077,872; 1419,444;   -1,924;    0,955
1078,414; 1618,990;    3,712;    0,773
1078,956; 1355,172;    0,167;   -0,227
1079,498; 1598,444;    0,439;    0,318
1080,040; 1295,990;    0,985;   -1,318
1080,581; 1253,354;    0,621;   -0,318
1081,123; 1202,444;   -0,106;   -0,773
1081,665; 1249,808;    3,803;   -0,955
1082,206; 1524,444;    3,258;   -0,500
1082,748; 1400,354;    3,258;    2,045
1083,289; 1290,354;    0,167;    1,318
1083,831; 1176,808;    0,258;    0,227
1084,372; 1196,263;    0,894;    0,591
1084,913; 1194,626;    3,348;    0,864
1085,455; 1176,354;    1,530;   -2,045
1085,996; 1133,535;    0,530;    0,136
1086,537; 1164,626;    0,985;    0,864
1087,078; 1187,899;    0,439;   -2,136
1087,619; 1238,626;   -1,652;    0,227
1088,160; 1157,444;    1,439;    1,318
1088,701; 1147,263;   -0,742;    0,682
1089,242; 1083,354;   -0,561;   -2,227
1089,783; 1171,808;   -0,561;    1,409
1090,324; 1139,263;   -0,833;    0,682
1090,865; 1018,081;   -1,924;   -0,409
1091,405; 1005,354;   -0,561;    2,227
1091,946; 1029,081;   -0,197;   -0,955
1092,487;  957,172;   -1,288;   -1,409
1093,027; 1103,899;    1,803;   -1,500
1093,568;  972,354;    2,258;    1,227
1094,108; 1049,354;    0,621;    1,773
1094,649;  995,444;   -0,470;    0,136
1095,189;  933,626;    1,167;   -0,682
1095,729;  883,535;    0,712;    0,955
1096,269;  906,808;    1,258;   -0,955
1096,810; 1205,263;   -0,197;    0,500
1097,350; 1019,990;   -0,561;   -0,773
1097,890;  931,172;    2,985;    1,227
1098,430; 1164,990;    4,985;    2,864
1098,970; 1043,444;    1,894;    1,682
1099,510;  923,899;   -0,833;   -2,318
1100,050;  850,172;    0,258;   -1,591
1100,589;  808,808;    0,076;   -0,318
1101,129;  930,263;    0,894;   -0,955
1101,669; 1058,354;    2,803;    2,136
1102,209;  890,626;    1,530;    2,227
1102,748;  853,990;    3,439;    0,955
1103,288;  845,899;    0,712;   -1,227
1103,827;  873,717;    3,530;   -2,227
1104,367;  749,990;    1,712;   -2,409
1104,906;  718,081;   -1,015;   -1,136
1105,445;  787,990;    0,985;   -1,136
1105,985;  727,172;   -0,652;    1,500
1106,524;  768,717;    1,530;   -0,682
1107,063;  738,444;    1,167;    1,409
1107,602;  715,354;    1,894;   -1,500
1108,141;  648,717;    1,621;    1,500
1108,680;  738,535;    3,985;   -0,591
1109,219;  681,535;    0,167;   -0,500
1109,758;  689,717;    4,167;    0,682
1110,297;  662,717;   -1,106;   -0,682
1110,836;  605,535;    1,439;    0,955
1111,375;  755,354;    0,348;    0,409
1111,913;  765,263;    0,985;    0,773
1112,452;  714,717;    0,894;    0,136
1112,991;  611,899;    1,076;    1,955
1113,529;  560,535;    0,167;   -0,045
1114,068;  615,172;    0,439;    2,955
1114,606;  524,899;   -0,561;   -0,955
1115,144;  682,808;    1,530;    1,045
1115,683;  625,172;    1,985;    0,318
1116,221;  671,172;    2,076;   -0,864
1116,759;  584,717;    1,621;   -0,864
1117,297;  762,081;    1,621;    1,864
1117,836;  577,717;    1,985;   -1,227
1118,374;  573,808;    0,258;   -0,682
1118,912;  528,626;    0,439;    2,682
1119,450;  511,081;    0,985;    0,864
1119,988;  567,263;    3,348;    2,136
1120,525; 1012,354;    7,258;    3,318
1121,063;  707,990;    0,530;    1,864
1121,601;  519,808;    1,076;   -1,227
1122,139;  482,263;    1,076;   -2,045
1122,676;  667,990;   -1,652;    2,773
1123,214;  619,172;    0,712;    4,409
1123,751;  427,717;    0,621;    2,227
1124,289;  547,899;    0,894;   -0,409
1124,826;  425,263;   -0,379;    0,227
1125,364;  358,263;    0,712;   -0,955
1125,901;  536,354;    6,258;    1,227
1126,438;  630,808;    3,530;    0,955
1126,975;  381,899;    2,985;   -0,773
1127,513;  441,172;    2,621;    2,136
1128,050;  356,808;   -0,561;   -0,682
1128,587;  445,626;    1,348;   -0,227
1129,124;  482,081;   -0,015;    1,318
1129,661;  363,354;   -1,924;    0,227
1130,198;  518,899;    2,439;    0,773
1130,734;  462,354;   -0,379;    1,409
1131,271;  329,717;   -1,197;    0,864
1131,808;  498,626;    1,621;    3,045
1132,345;  369,717;    4,530;    0,318
1132,881;  253,899;   -0,561;   -1,864
1133,418;  385,717;    0,348;   -1,136
1133,954;  333,990;    0,712;   -2,682
1134,491;  391,444;    1,712;   -0,773
1135,027;  302,535;    2,167;    0,864
1135,564;  379,263;    1,439;    2,955
1136,100;  363,717;   -0,742;    2,136
1136,636;  264,081;   -1,015;   -1,045
1137,172;  340,808;    0,894;   -1,045
1137,708;  269,808;   -1,561;   -1,045
1138,245;  280,081;    0,803;   -1,227
1138,781;  245,172;    1,803;   -3,318
1139,317;  296,717;    1,894;   -1,409
1139,852;  286,172;    3,076;    0,136
1140,388;  394,354;    2,076;   -0,409
1140,924;  284,808;    1,076;   -2,227
1141,460;  219,535;   -0,288;    0,136
1141,996;  167,899;   -0,652;    2,682
1142,531;  205,808;    1,076;    3,318
1143,067;  410,535;    1,167;    1,045
1143,602;  461,081;    3,439;   -0,318
1144,138;  321,172;    0,803;    1,045
1144,673;  192,808;    1,621;    1,409
1145,209;  248,444;    2,894;   -0,318
1145,744;  178,354;    0,803;    0,864
1146,279;  301,808;    1,530;   -0,136
1146,815;  219,990;    1,530;   -2,682
1147,350;  261,081;   -0,924;    0,045
1147,885;  186,808;   -1,924;   -1,318
1148,420;  183,717;    2,439;    0,773
1148,955;  170,263;   -1,470;    1,864
1149,490;  194,990;   -1,106;   -1,591
1150,025;  166,990;   -1,106;   -1,773
1150,560;  271,808;   -0,288;   -0,955
1151,094;  237,808;    0,258;   -0,591
1151,629;  241,354;   -3,742;    0,864
1152,164;  184,626;   -1,288;    1,318
1152,698;  147,899;    1,258;   -0,136
1153,233;   97,626;   -1,379;   -0,682
1153,767;  146,535;   -0,288;   -2,318
1154,302;  184,354;   -0,379;    1,773
1154,836;  186,626;    0,803;   -2,136
1155,371;  234,535;    2,258;    3,682
1155,905;  188,172;    1,985;    1,682
1156,439;  167,081;    0,530;   -0,500
1156,973;  188,444;    0,439;    0,318
1157,507;  132,717;   -1,742;    0,682
1158,042;  161,444;   -0,652;    1,045
1158,576;  207,808;   -0,561;    1,773
1159,110;  194,444;    0,076;    2,409
1159,643;  173,626;   -2,470;   -0,045
1160,177;  115,717;   -2,015;    1,500

