
Integration time [ms]:   0,040
Averaging Nr. [scans]: 11
Smoothing Nr. [pixels]: 0
Data measured with spectrometer [name]: 7318044SP
Wave   ;Sample   ;Dark     ;Reference
[nm]   ;[counts] ;[counts] ;[counts] 

186,757;   35,648;   38,161;    1,318
187,357;   62,427;   26,706;    0,955
187,958;   45,864;   17,252;   -1,591
188,558;   71,145;   12,979;   -1,227
189,159;   49,908;   10,070;   -4,500
189,759;   24,815;    5,797;   -3,591
190,360;   17,706;    6,797;   -2,136
190,960;   57,389;    5,706;   -4,136
191,560;   73,495;    2,614;   -6,591
192,161;  284,672;    5,885;   -3,500
192,761;  151,842;    5,520;   -3,227
193,361;   95,906;    3,065;   -3,773
193,962;  137,410;    1,612;   -2,682
194,562;   76,084;   -0,114;   -3,955
195,162;  101,476;   -0,567;   -2,227
195,762;  252,700;    2,433;   -0,045
196,362;  204,172;    1,706;   -2,500
196,963;   82,925;    1,706;   -0,864
197,563;  152,124;    1,252;   -0,955
198,163;   96,221;   -0,111;   -0,682
198,763;  117,969;   -0,020;   -0,500
199,363;  220,428;    3,616;   -0,500
199,963;  179,839;    2,162;    0,409
200,563;  156,313;    6,344;   -1,409
201,163;  138,451;    5,435;   -0,227
201,763;  221,466;    1,435;    0,318
202,363;  162,070;    0,980;    1,500
202,963;  261,322;    1,526;    1,045
203,563;  371,033;    0,344;    0,500
204,162;  229,584;    1,889;   -1,864
204,762;  209,398;    2,071;    0,591
205,362;  180,191;    0,708;    1,955
205,962;  278,745;    3,435;    1,955
206,562;  268,860;    1,889;    2,318
207,161;  233,414;    1,708;    0,318
207,761;  382,065;    4,435;    2,409
208,361;  260,906;    1,889;    1,409
208,960;  361,194;    2,889;    1,500
209,560;  426,698;    0,435;    1,591
210,160;  403,086;    5,071;    1,864
210,759;  364,504;    0,708;    1,227
211,359;  373,379;   -0,474;    1,045
211,958;  627,659;    3,526;    2,045
212,558;  701,514;    0,799;    1,864
213,157;  543,692;   -0,929;    1,500
213,757;  955,070;    5,617;   -0,227
214,356;  658,251;    1,708;   -0,409
214,956;  985,935;    3,526;    0,409
215,555;  620,964;    0,617;    2,136
216,154;  560,532;   -0,292;   -0,591
216,754;  563,757;    1,253;    0,773
217,353;  696,271;   -0,383;   -1,045
217,952;  539,040;    2,072;    0,318
218,552;  777,836;    0,254;   -0,773
219,151;  669,332;   -1,110;    0,955
219,750;  670,884;    0,890;   -0,227
220,349;  767,343;   -2,292;    1,045
220,948;  851,591;    1,163;    1,136
221,548;  829,328;    0,617;    1,227
222,147;  937,275;   -1,292;   -0,409
222,746; 1214,564;    1,254;   -0,955
223,345; 1081,094;   -1,019;    0,500
223,944; 1086,384;    1,163;    0,773
224,543; 1243,569;    4,072;   -1,409
225,142; 1357,101;    1,345;    0,136
225,741; 1254,394;    1,163;    1,045
226,340; 1270,038;    1,254;   -0,955
226,939; 1695,772;    2,708;   -0,136
227,538; 1622,208;    1,163;   -0,773
228,137; 1782,919;    0,435;    0,864
228,735; 1869,395;    0,435;    1,227
229,334; 1642,346;   -0,474;   -0,227
229,933; 2003,078;    0,799;    0,591
230,532; 2112,060;   -1,201;   -0,409
231,131; 2168,617;    1,253;    0,318
231,729; 2259,729;    1,163;   -2,318
232,328; 2339,497;    0,435;   -1,500
232,927; 2406,994;    4,526;   -0,500
233,525; 2503,397;    0,981;    0,045
234,124; 2688,309;    1,890;   -1,591
234,723; 2702,685;    1,617;   -1,045
235,321; 2841,049;    1,163;    0,136
235,920; 3046,708;    2,526;   -1,227
236,518; 3287,436;    1,072;    0,318
237,117; 3414,738;    2,890;   -0,227
237,715; 3567,211;    1,163;   -0,500
238,314; 3599,542;    1,708;   -2,318
238,912; 3700,565;    0,526;   -1,409
239,510; 3751,923;    1,162;   -1,227
240,109; 3912,278;   -0,474;    3,773
240,707; 3932,603;   -0,474;    1,227
241,305; 4260,023;   -0,383;    0,136
241,904; 4455,750;   -0,292;   -2,045
242,502; 4414,141;    3,253;   -0,227
243,100; 4342,617;    3,344;   -0,955
243,698; 4565,091;    2,799;    1,682
244,297; 4729,871;   -0,656;    0,682
244,895; 4579,273;   -0,474;   -2,318
245,493; 4888,674;    2,981;   -0,591
246,091; 4921,008;    5,163;   -1,318
246,689; 4873,484;    2,163;    0,591
247,287; 5027,300;   -0,019;   -1,136
247,885; 5275,421;   -1,019;    1,227
248,483; 5356,026;   -0,201;   -0,500
249,081; 5456,721;    0,981;    1,591
249,679; 5584,284;   -1,019;    1,682
250,277; 5841,570;   -2,292;    0,864
250,875; 5821,778;    0,617;   -1,045
251,473; 5857,376;   -0,019;    0,500
252,071; 6021,480;   -0,383;    1,045
252,669; 6166,566;   -1,565;    0,318
253,267; 6385,207;    1,618;    0,773
253,864; 6326,573;    0,617;    0,682
254,462; 6244,848;    1,526;    1,591
255,060; 6173,955;    0,072;    1,318
255,658; 6455,657;   -3,292;   -0,136
256,255; 6870,140;   -0,201;   -2,045
256,853; 6741,512;    2,345;    1,409
257,451; 6721,807;    1,981;    1,864
258,048; 6986,641;    2,072;    1,864
258,646; 6765,960;    0,436;   -1,045
259,243; 6911,512;    2,981;    2,227
259,841; 6950,521;    1,799;    0,318
260,438; 6831,286;    0,254;    0,864
261,036; 7493,145;    0,617;    1,409
261,633; 7445,614;    1,526;    2,227
262,231; 7211,835;   -0,110;   -0,045
262,828; 7265,476;   -0,383;    1,136
263,425; 7306,592;   -1,928;   -0,591
264,023; 7544,318;    1,436;    0,045
264,620; 7120,548;    1,526;   -0,318
265,217; 7447,363;    2,890;    3,136
265,815; 7563,855;    2,527;    2,136
266,412; 7380,047;    0,072;    0,136
267,009; 7393,010;    0,526;    0,773
267,606; 7328,324;    0,345;   -0,955
268,203; 7283,993;   -0,383;   -0,591
268,801; 7580,701;   -0,474;    0,591
269,398; 7834,744;   -0,564;    2,500
269,995; 7793,931;    0,890;    1,591
270,592; 7581,733;    0,799;   -0,500
271,189; 7777,495;    1,981;    0,409
271,786; 7899,685;    2,072;    1,227
272,383; 7771,376;   -0,383;    0,227
272,980; 7922,399;    1,617;    0,318
273,577; 8340,625;    2,162;    1,227
274,174; 7948,745;    1,435;    2,591
274,771; 7915,929;    1,890;   -0,773
275,367; 8068,010;    3,253;    1,409
275,964; 8021,437;   -0,565;   -0,500
276,561; 8092,411;   -2,474;   -1,045
277,158; 8287,102;    1,799;   -1,773
277,755; 8416,994;   -0,110;    0,409
278,351; 7855,982;    0,436;   -1,500
278,948; 8161,628;   -0,201;    0,045
279,545; 8156,270;    0,527;    2,318
280,141; 8759,529;    1,254;   -2,045
280,738; 8622,335;    2,435;   -0,136
281,334; 8804,471;   -0,383;    0,591
281,931; 8217,110;    2,890;   -1,318
282,528; 8347,876;    4,072;   -0,500
283,124; 8977,303;    3,345;   -0,500
283,721; 8887,923;    0,709;    1,409
284,317; 8702,681;    0,163;    2,500
284,913; 9197,857;   -0,110;    0,591
285,510; 9359,584;    2,890;   -0,318
286,106; 9426,746;    2,345;   -0,955
286,703; 9019,487;    0,072;    1,955
287,299; 9219,612;    1,254;   -0,591
287,895; 9405,753;    0,890;   -1,045
288,491; 9943,380;    0,163;    2,136
289,088; 9705,984;    0,163;    2,409
289,684; 9746,566;    2,890;    1,500
290,280; 9755,683;    1,890;    0,682
290,876; 9834,092;    0,163;    5,500
291,472; 9737,762;    2,163;    2,227
292,068; 9824,613;    1,254;    0,227
292,665; 9543,249;   -0,564;    0,773
293,261; 9203,452;   -1,292;    2,136
293,857; 9576,635;    4,072;    2,136
294,453; 9506,372;   -0,928;    0,955
295,049; 9409,405;    0,253;    1,955
295,644; 9412,150;   -1,292;    0,136
296,240; 9324,398;    0,162;   -0,136
296,836; 9378,138;   -0,747;    0,318
297,432; 9607,907;    2,980;   -0,500
298,028; 9657,045;    0,435;    0,773
298,624; 9999,801;    0,889;    1,864
299,220;10229,242;    0,435;    0,591
299,815; 9886,306;    0,526;   -0,409
300,411; 9720,860;    0,435;    1,773
301,007; 9728,563;    1,889;    0,227
301,602; 9754,890;    2,071;   -2,318
302,198; 9903,048;    1,435;   -0,773
302,794;10237,919;    1,526;   -0,500
303,389;10326,764;    1,071;    1,045
303,985;10404,859;    1,253;    1,409
304,580;10353,486;    0,889;    1,591
305,176;10335,473;    0,344;    0,136
305,771;10298,850;   -0,929;   -1,227
306,367;10149,315;    3,071;    0,136
306,962;10492,618;    2,889;    1,500
307,558;10211,207;    2,435;    0,136
308,153;10128,724;   -0,383;   -1,136
308,748;10374,010;    0,162;    1,682
309,344;10320,701;    0,253;   -1,318
309,939;10447,370;    2,071;   -1,318
310,534;10699,672;   -2,020;   -1,682
311,130;10603,217;   -0,656;   -2,500
311,725;10355,138;    0,526;   -0,500
312,320;10648,279;    1,253;    0,045
312,915;10535,833;    2,890;   -1,045
313,510;10621,413;    0,526;   -0,500
314,105;11102,387;   -3,565;    1,409
314,700;10493,853;   -1,656;   -1,045
315,295;10154,577;   -0,020;    0,045
315,890; 9737,933;   -0,292;    0,864
316,485;10075,641;    0,253;   -0,318
317,080;10186,757;   -0,929;    1,591
317,675;10663,258;    3,071;   -0,682
318,270;10144,033;    6,889;    3,318
318,865;10157,145;    2,435;    3,045
319,460; 9989,049;   -1,565;    0,591
320,055;10212,586;   -2,565;   -1,227
320,650; 9893,850;   -1,838;   -0,591
321,244; 9933,752;    0,889;   -1,409
321,839;10838,244;    0,980;   -0,227
322,434;10718,370;   -0,111;   -1,591
323,029;10381,131;   -0,474;    1,591
323,623;10231,283;    0,798;    0,773
324,218;10051,917;    2,707;    1,409
324,812; 9964,989;    0,889;    1,591
325,407; 9802,322;   -0,929;    2,045
326,002; 9724,983;    0,526;   -0,409
326,596;10030,190;   -0,656;    1,318
327,191;10233,635;   -0,383;   -1,045
327,785; 9837,826;   -0,747;   -0,227
328,379;10086,476;   -0,383;    0,136
328,974; 9880,863;    1,798;   -3,955
329,568;10076,082;    2,889;   -2,409
330,163; 9922,112;    2,435;    1,045
330,757;10246,009;    0,253;    1,591
331,351; 9624,629;   -0,292;    0,682
331,945; 9914,849;   -0,383;    1,409
332,540; 9524,790;    1,617;   -0,591
333,134; 9654,761;    3,344;    0,773
333,728; 9891,039;    2,799;    0,318
334,322;10206,724;    0,889;   -0,864
334,916; 9522,322;    0,344;    0,955
335,510; 9818,604;   -0,111;   -0,136
336,105;10059,817;   -0,929;    1,591
336,699; 9770,363;   -1,292;    0,591
337,293; 9683,705;    1,071;    0,318
337,887; 9830,211;    0,071;    1,955
338,481; 9883,743;    2,980;    0,591
339,074;10036,980;    2,071;    2,682
339,668; 9886,245;   -0,110;    1,227
340,262;10099,945;    7,708;    3,227
340,856; 9614,905;    1,708;   -0,682
341,450; 9059,963;    0,708;    1,864
342,044; 9857,342;    1,799;    0,136
342,637; 9651,914;    1,162;   -2,136
343,231; 9516,581;   -1,474;    0,682
343,825; 9437,293;   -0,747;   -0,591
344,419; 9415,449;   -0,474;    0,500
345,012; 9243,209;    2,889;    4,045
345,606; 9235,131;   -0,656;    1,591
346,199; 9116,158;   -0,111;   -0,227
346,793; 8712,241;    2,525;    2,045
347,386; 8879,896;    0,889;   -1,136
347,980; 8871,610;   -0,838;   -0,045
348,573; 8720,473;   -1,748;    0,409
349,167; 8446,196;    6,161;    4,773
349,760; 8785,085;    2,252;    2,682
350,354; 8736,562;    1,616;    1,136
350,947; 8501,957;    2,798;    1,682
351,540; 8218,477;    0,616;   -1,409
352,134; 8163,290;   -1,111;    1,136
352,727; 8216,717;   -0,657;    1,136
353,320; 8034,935;    2,343;    0,591
353,913; 7886,103;   -1,929;    1,864
354,507; 8098,270;    0,434;   -1,227
355,100; 8110,215;    0,071;    0,864
355,693; 7435,547;    4,798;    2,409
356,286; 7464,221;    0,980;    2,773
356,879; 7797,225;   -0,475;    1,227
357,472; 7442,002;    0,980;    1,500
358,065; 7617,319;    3,161;    2,500
358,658; 7567,155;    0,798;    2,318
359,251; 7245,931;    0,252;   -0,591
359,844; 6790,201;    0,343;   -1,136
360,437; 6967,150;    0,252;    0,045
361,030; 7216,362;    0,525;   -0,682
361,623; 6840,686;    0,434;    0,318
362,215; 6905,406;    0,979;    2,045
362,808; 6737,279;   -2,293;   -1,682
363,401; 6919,924;    0,798;    0,136
363,994; 6709,183;    3,252;   -1,500
364,586; 6630,731;    0,888;   -1,500
365,179; 6826,228;   -0,203;   -1,136
365,772; 6331,487;   -0,930;    2,045
366,364; 6573,130;    1,524;   -3,227
366,957; 6774,380;    1,342;   -0,045
367,549; 6774,385;   -0,203;   -0,864
368,142; 6484,917;    0,978;   -1,500
368,734; 6672,275;    2,523;   -2,136
369,327; 6612,679;    2,341;   -0,500
369,919; 6555,721;   -1,659;    0,409
370,512; 6377,127;   -1,023;   -0,500
371,104; 6156,932;    2,704;    1,591
371,696; 6311,304;    1,703;   -0,955
372,289; 6388,711;    0,157;    1,136
372,881; 6521,180;    1,156;    1,318
373,473; 6438,065;    4,064;    1,136
374,066; 6271,853;    1,336;    0,500
374,658; 6134,880;    0,879;    1,136
375,250; 6437,582;   -1,668;   -1,409
375,842; 6309,446;   -0,124;   -0,045
376,434; 6199,273;   -2,762;   -0,409
377,026; 6716,380;   -1,855;   -2,500
377,618; 6600,822;    0,779;   -0,682
378,210; 6460,011;    3,141;   -1,955
378,802; 6312,912;    3,412;   -0,591
379,394; 6294,447;    3,411;    0,682
379,986; 6821,597;    1,138;   -0,955
380,578; 6903,260;    1,410;    0,773
381,170; 6322,676;    0,320;    0,045
381,762; 6254,480;   -0,224;    1,409
382,354; 6432,158;   -0,223;   -1,318
382,945; 6541,250;    0,870;    0,318
383,537; 6679,439;    1,144;   -1,955
384,129; 6708,360;    0,963;   -1,136
384,721; 6850,217;    0,418;    0,955
385,312; 6775,866;   -1,399;   -0,955
385,904; 6875,662;   -0,945;    1,591
386,496; 6321,748;    0,691;    1,045
387,087; 6439,953;    0,418;    2,500
387,679; 6445,297;   -0,401;    0,045
388,270; 6580,786;   -2,401;    2,045
388,862; 6677,196;   -0,401;   -0,318
389,453; 6540,863;    1,054;    1,045
390,045; 6799,567;    3,236;   -2,682
390,636; 6728,391;    0,144;   -0,591
391,227; 6587,668;    2,054;   -0,045
391,819; 6701,761;    0,781;    0,773
392,410; 6768,046;    0,600;    0,045
393,001; 6712,561;    1,600;   -1,591
393,593; 6944,902;    0,600;   -0,045
394,184; 6795,609;    0,873;   -0,409
394,775; 6728,066;    1,146;    2,136
395,366; 6917,807;    1,782;    0,773
395,957; 6885,118;   -2,400;    0,136
396,548; 7148,747;    1,054;    2,682
397,139; 7462,688;    2,236;    0,591
397,730; 7210,463;    0,873;    0,955
398,321; 7263,135;    0,509;    0,955
398,912; 7273,443;   -0,764;    0,136
399,503; 7353,418;   -1,945;   -1,409
400,094; 6850,737;   -1,582;    1,682
400,685; 6723,880;    3,600;    0,045
401,276; 6774,686;   -0,400;   -0,955
401,867; 7078,555;   -1,127;    0,773
402,458; 7152,887;    1,509;   -2,318
403,048; 7148,042;    0,146;    0,591
403,639; 6796,247;    1,509;    0,864
404,230; 7024,841;    0,691;    0,318
404,821; 6970,690;   -0,127;    0,045
405,411; 7058,331;   -0,763;   -2,591
406,002; 6668,660;    3,237;   -1,136
406,592; 6583,765;    2,691;    0,045
407,183; 6841,268;    0,328;   -1,500
407,774; 6757,885;    1,419;   -0,136
408,364; 7052,235;    2,600;    0,409
408,954; 6692,251;   -0,036;    1,227
409,545; 6755,314;    1,873;    1,045
410,135; 6300,810;   -1,581;    0,500
410,726; 6474,407;    0,783;    0,318
411,316; 6818,695;    2,237;    0,773
411,906; 6509,978;    0,146;   -0,409
412,497; 6055,242;   -0,490;   -0,045
413,087; 6626,246;    0,783;   -0,227
413,677; 6956,158;   -2,490;    3,864
414,267; 6801,583;   -1,035;    1,409
414,857; 6810,092;    0,419;    4,227
415,448; 7085,163;   -0,763;    0,500
416,038; 6795,898;   -2,945;   -0,591
416,628; 6758,040;    0,965;    0,409
417,218; 6307,992;   -1,762;    3,318
417,808; 6546,137;    0,965;   -0,409
418,398; 6931,775;   -1,035;    2,682
418,988; 6917,191;   -2,217;    0,591
419,578; 7134,916;    3,601;    1,409
420,168; 7456,753;    0,692;   -0,955
420,757; 7079,913;    0,964;   -1,500
421,347; 6767,088;    1,601;   -0,227
421,937; 6923,902;    3,329;    1,409
422,527; 6880,262;    2,602;   -0,773
423,116; 6707,274;    2,692;   -0,045
423,706; 7025,793;    2,965;    0,318
424,296; 6989,927;    1,601;    0,682
424,885; 7354,018;    1,510;   -3,045
425,475; 7643,153;    1,147;   -2,864
426,065; 7532,583;   -1,489;   -0,318
426,654; 7237,485;    0,329;   -0,318
427,244; 7319,728;    1,147;    1,409
427,833; 6796,149;    1,056;   -0,500
428,423; 7199,877;    0,147;    1,136
429,012; 7901,395;    2,420;   -1,136
429,601; 7454,484;    2,057;    0,136
430,191; 7649,423;    2,511;    4,318
430,780; 7299,994;   -1,671;   -0,409
431,369; 7277,917;    1,329;   -0,045
431,959; 7819,925;    1,693;    0,500
432,548; 7600,885;   -1,398;   -0,045
433,137; 7722,630;    0,329;   -1,318
433,726; 8228,003;    0,148;    0,500
434,315; 7634,243;    0,148;    2,409
434,905; 7727,416;    0,693;    1,409
435,494; 7659,591;    3,148;    0,955
436,083; 8071,237;    1,420;   -0,955
436,672; 7949,800;    1,148;    0,500
437,261; 7559,400;    0,512;   -1,955
437,850; 7666,771;   -1,125;    0,682
438,439; 7641,507;    2,239;    1,955
439,027; 7511,155;    3,421;    1,773
439,616; 7821,026;    2,239;    1,227
440,205; 7689,498;    0,057;   -2,136
440,794; 7709,829;   -0,306;   -0,045
441,383; 7946,002;    1,603;   -0,591
441,971; 7818,178;   -0,306;    0,591
442,560; 7673,600;    0,603;   -1,773
443,149; 7444,449;    3,060;   -1,318
443,737; 7579,372;    0,968;   -2,318
444,326; 7825,900;    0,331;    0,318
444,915; 7864,575;   -1,851;    0,864
445,503; 8181,991;    0,058;   -0,318
446,092; 7536,184;    7,876;    2,136
446,680; 8055,320;    1,876;    0,318
447,269; 8204,015;   -1,487;   -0,318
447,857; 7968,862;    2,240;   -1,773
448,445; 8100,646;    2,149;    1,318
449,034; 8308,433;    0,876;   -1,136
449,622; 8396,230;    1,240;    3,500
450,210; 7732,225;    3,149;    2,227
450,799; 8243,440;    2,604;   -0,591
451,387; 8170,839;    1,786;   -0,591
451,975; 7855,164;   -1,305;    0,864
452,563; 7947,796;    0,422;    2,318
453,151; 7972,634;   -1,032;   -1,227
453,739; 7870,739;   -1,577;    0,136
454,328; 7771,174;    0,604;   -2,136
454,916; 7537,767;    1,150;   -0,136
455,504; 7698,745;    3,513;    1,227
456,092; 7837,681;    2,150;   -1,591
456,679; 7785,594;    0,604;    0,682
457,267; 7782,078;    3,604;    1,045
457,855; 7892,072;    3,241;    1,409
458,443; 7649,199;   -0,304;    1,682
459,031; 7795,790;    1,332;    2,409
459,619; 8225,225;   -3,577;    2,864
460,206; 8308,421;   -0,759;    2,045
460,794; 8386,419;   -0,668;   -0,227
461,382; 8591,805;    0,878;   -0,864
461,970; 8173,577;    0,605;    1,864
462,557; 8206,006;    0,878;   -0,682
463,145; 8376,307;   -0,304;   -1,682
463,732; 8526,446;    2,514;   -1,045
464,320; 8439,050;    1,514;   -3,045
464,907; 8137,400;    0,423;   -0,773
465,495; 8020,084;    2,696;   -1,227
466,082; 8166,046;    2,060;   -0,045
466,670; 8097,597;    2,605;    1,227
467,257; 8485,930;    0,060;    2,045
467,844; 8614,307;    1,514;    0,045
468,432; 8626,155;   -0,031;    3,500
469,019; 8195,627;    1,606;   -1,773
469,606; 8613,671;    0,969;    3,682
470,193; 8464,429;    2,151;    0,227
470,780; 8079,385;    0,333;    0,864
471,368; 8417,844;   -1,212;   -0,773
471,955; 8203,490;    1,060;   -0,682
472,542; 7861,779;   -0,303;   -1,136
473,129; 8064,612;   -0,485;    0,136
473,716; 7850,010;    0,060;    0,591
474,303; 8010,059;    1,333;   -0,864
474,890; 8248,629;    2,333;   -0,500
475,477; 8279,238;   -0,576;    0,409
476,064; 8202,986;    0,697;   -1,591
476,650; 8113,175;    2,152;    0,318
477,237; 7967,175;    1,879;    0,955
477,824; 8114,798;    3,879;    0,864
478,411; 8147,519;    0,606;   -0,318
478,997; 8328,848;    0,606;   -0,773
479,584; 8357,097;   -0,666;   -0,409
480,171; 8966,624;    1,243;   -0,773
480,757; 8704,074;   -0,848;    0,773
481,344; 8922,104;    0,334;    0,409
481,931; 8429,178;   -0,393;    1,045
482,517; 9310,809;    0,425;    0,318
483,104; 9790,619;    1,334;    2,864
483,690;10015,737;    0,243;    0,045
484,276;10304,656;    0,698;    0,227
484,863;10041,660;    2,152;    1,136
485,449;10607,638;    0,152;    0,318
486,035;10581,394;   -0,666;   -0,136
486,622;10983,113;   -2,393;    0,045
487,208;10914,701;    1,334;    1,500
487,794;10770,321;    0,971;    0,318
488,380;10907,878;    0,698;   -1,409
488,967;10947,867;   -1,120;   -0,409
489,553;11001,322;   -1,029;   -1,409
490,139;11204,165;    0,971;    0,773
490,725;10723,150;    0,789;   -0,227
491,311;10348,596;    1,516;    3,045
491,897; 9733,896;   -0,665;    1,500
492,483; 9596,931;    0,426;    1,227
493,069; 9445,242;    5,426;    0,864
493,655; 9357,407;    1,789;    0,682
494,241; 9310,672;    1,517;   -0,955
494,826; 9663,070;    0,335;   -1,045
495,412; 9180,002;    0,335;   -0,682
495,998; 9328,919;    0,971;   -0,318
496,584; 9417,945;    2,244;    1,045
497,169; 9403,598;    2,335;   -0,682
497,755; 9351,355;    1,244;    1,227
498,341; 9846,073;    2,153;    0,318
498,926; 9464,801;    2,881;    1,955
499,512; 9625,964;   -0,028;    2,955
500,097; 9683,232;   -0,574;   -0,318
500,683; 9633,668;   -0,028;    2,136
501,268; 9988,649;    1,881;   -0,955
501,854; 9755,189;   -0,119;    1,227
502,439; 9666,412;   -0,573;   -1,773
503,024; 9818,360;    1,608;    0,500
503,610; 9846,901;    1,335;   -0,682
504,195; 9856,327;    1,245;    1,955
504,780; 9994,928;    2,335;    1,227
505,366; 9832,146;    4,063;    2,864
505,951; 9606,585;   -1,119;    1,045
506,536; 9622,463;    1,427;   -3,682
507,121; 9598,105;    1,699;   -0,318
507,706;10065,859;   -0,392;    1,045
508,291;10391,564;   -2,937;    1,136
508,876; 9877,236;   -0,482;    2,591
509,461; 9364,774;    1,427;   -0,773
510,046; 9786,973;   -0,391;    0,318
510,631;10009,425;   -0,119;   -0,773
511,216; 9683,468;   -0,664;   -0,500
511,801;10036,558;   -0,755;    2,591
512,386;10286,959;    0,972;    0,500
512,971;10231,546;    0,427;    0,955
513,555; 9834,835;    1,154;   -1,500
514,140;10539,164;    1,336;   -3,136
514,725;10487,098;    1,791;   -1,136
515,309;10611,589;    1,064;    0,318
515,894;10138,041;   -0,300;   -2,227
516,479;10560,465;    1,973;   -0,955
517,063;10372,656;    0,882;    1,227
517,648;10501,753;    0,155;   -1,136
518,232;10105,644;   -1,300;   -1,409
518,817;10441,942;    1,337;    1,682
519,401;10655,410;    0,700;    0,591
519,985;10204,944;    2,700;    1,136
520,570;10071,039;   -0,118;   -1,955
521,154;10328,627;    0,064;    0,591
521,738;10486,123;    1,064;    2,409
522,323;11024,846;   -0,390;    1,682
522,907;10740,164;    2,428;   -0,136
523,491;10520,827;    1,155;    0,955
524,075;10487,034;    0,428;    0,591
524,659;10541,964;    0,973;    0,591
525,243;10080,357;    0,883;    0,409
525,827;10317,626;    0,883;   -0,045
526,411;11074,782;    1,155;   -0,136
526,995;11251,819;    0,337;    1,409
527,579;10874,579;    1,974;   -1,045
528,163;11160,171;    0,428;   -1,500
528,747;11067,459;    1,065;   -0,773
529,331;11337,952;    0,883;   -1,409
529,915;11498,424;    2,338;    0,955
530,499;11436,765;    0,247;    1,227
531,082;11155,803;    1,065;    1,591
531,666;10665,369;    0,520;    0,773
532,250;11255,666;    0,428;    2,682
532,833;11546,725;    0,610;    2,773
533,417;11447,887;    1,247;    0,864
534,001;11354,598;    0,429;   -0,318
534,584;11991,629;    1,974;    0,500
535,168;11852,308;    3,247;    1,409
535,751;11875,644;    4,520;    0,045
536,334;11346,361;    4,520;   -0,409
536,918;11892,630;    1,974;    1,591
537,501;11983,878;    1,520;    1,318
538,085;11985,911;    1,702;    1,045
538,668;12084,573;    0,883;    2,409
539,251;12394,871;    3,156;    3,773
539,834;12420,138;    0,156;    0,773
540,418;12324,748;    3,247;    4,318
541,001;12384,167;    2,702;    1,773
541,584;12356,509;    1,429;    2,227
542,167;12082,231;    0,702;    2,955
542,750;12180,063;    0,793;   -0,773
543,333;11804,430;    1,429;    2,136
543,916;12524,557;   -0,298;    2,500
544,499;13030,957;    2,520;    0,227
545,082;13052,234;    0,248;    3,591
545,665;13134,155;   -0,207;    1,500
546,248;13400,975;    0,520;   -0,318
546,830;13097,876;   -1,752;    1,955
547,413;13475,273;    0,157;   -0,773
547,996;13934,610;    0,157;    0,500
548,579;13733,680;   -0,843;    0,955
549,161;13539,684;    0,884;    2,682
549,744;13315,754;    0,612;    0,409
550,326;13754,621;    0,885;   -1,136
550,909;13573,028;    2,339;    0,591
551,492;13928,930;    0,521;    0,227
552,074;13737,699;   -0,024;   -1,318
552,657;14224,109;    2,430;    0,045
553,239;14041,821;   -3,024;   -0,773
553,821;13954,155;   -1,570;    1,045
554,404;13488,471;   -0,024;    1,136
554,986;13821,307;    2,248;    1,045
555,568;14339,655;    0,430;   -0,955
556,151;13651,771;    4,067;   -0,227
556,733;13819,595;   -1,388;   -0,864
557,315;14225,733;    4,703;    0,500
557,897;13999,522;    0,521;   -0,500
558,479;14121,957;    1,703;    1,318
559,061;14256,774;    1,067;   -0,864
559,643;14536,503;   -0,297;    0,045
560,225;14839,750;   -0,388;    2,864
560,807;14856,958;    0,340;    0,318
561,389;14423,989;   -1,206;    2,318
561,971;15046,818;   -0,660;    2,136
562,553;14851,140;    0,613;    1,591
563,135;14960,590;    1,249;    1,136
563,717;14611,225;    3,158;    1,136
564,298;15238,399;    3,976;   -0,045
564,880;14963,371;    0,340;   -1,409
565,462;15047,826;    1,977;    1,318
566,043;16091,096;   -0,933;    2,318
566,625;15652,390;    4,067;    1,227
567,207;15475,462;    0,704;    1,682
567,788;16368,901;   -0,114;    1,500
568,370;17076,983;   -1,841;   -0,500
568,951;16854,638;   -0,569;    0,227
569,533;17604,413;    0,977;   -0,500
570,114;17965,655;   -0,296;    0,682
570,695;18367,372;   -0,478;   -1,318
571,277;18707,571;   -0,205;   -1,682
571,858;19331,262;    2,704;   -1,136
572,439;20098,424;    0,795;   -1,045
573,021;20129,412;    0,432;   -2,773
573,602;20543,779;    1,795;    0,318
574,183;21344,207;   -0,114;    2,227
574,764;21363,611;    2,068;    0,409
575,345;21759,650;    0,250;   -0,136
575,926;22293,726;    2,704;    0,136
576,507;22279,164;    2,704;   -0,227
577,088;23277,959;    1,704;    1,682
577,669;23259,532;    1,704;    1,955
578,250;23797,570;   -0,750;   -1,045
578,831;24357,097;   -0,841;   -2,227
579,412;24481,920;   -1,205;    0,955
579,993;25309,652;    1,432;    0,227
580,573;25641,472;   -0,023;   -0,955
581,154;24651,443;    1,613;   -0,591
581,735;25442,075;    0,341;    0,773
582,315;24943,711;    0,523;    2,136
582,896;25246,793;   -1,750;    1,227
583,477;24789,101;    0,614;    1,227
584,057;24945,265;    1,159;    0,955
584,638;25220,924;   -2,750;    2,318
585,218;25194,671;    2,886;    2,682
585,799;25363,228;    1,977;   -0,227
586,379;25392,595;    1,250;    1,591
586,959;24352,526;    2,613;    0,318
587,540;23790,364;    0,432;    2,227
588,120;23368,338;   -1,113;   -0,045
588,700;22543,941;    2,977;    2,136
589,281;22819,698;    1,250;   -0,955
589,861;22757,957;   -0,296;   -1,682
590,441;22626,565;   -1,477;   -2,682
591,021;21699,855;    1,432;   -2,591
591,601;21976,767;    0,431;    0,500
592,181;22020,693;   -1,296;   -0,773
592,761;21389,155;    2,250;    1,409
593,341;21367,160;    1,522;    0,045
593,921;21342,572;   -0,569;    1,591
594,501;21179,276;    1,250;    1,318
595,081;21050,728;    0,522;   -0,318
595,661;21447,199;    1,068;    0,955
596,240;21885,063;   -1,023;    0,136
596,820;21456,763;    2,613;    1,955
597,400;21573,195;    1,977;    0,773
597,980;21769,074;   -0,750;    1,045
598,559;21856,804;    0,341;   -0,227
599,139;21611,222;   -0,750;   -1,227
599,718;21446,858;    0,795;   -0,409
600,298;21769,009;   -2,387;    0,682
600,877;21976,647;    4,795;    1,409
601,457;22207,801;    0,340;    1,136
602,036;22128,697;    1,795;    2,045
602,616;22218,914;    2,250;    1,682
603,195;22550,368;    0,431;    3,500
603,774;22089,581;   -0,296;    2,045
604,354;21964,879;    2,522;   -0,500
604,933;21572,831;    0,250;    1,864
605,512;21687,337;    2,340;    0,591
606,091;21771,675;    1,886;    3,773
606,671;22512,302;    0,249;    0,773
607,250;21716,896;    1,431;    3,136
607,829;21876,385;    1,158;    3,227
608,408;21779,513;    4,613;    2,591
608,987;20896,990;    2,704;    3,409
609,566;21132,177;    0,341;   -2,500
610,145;21281,427;    2,885;    0,682
610,723;21666,456;    1,613;    6,864
611,302;20927,454;    1,067;    1,682
611,881;20552,647;    5,158;   11,227
612,460;21283,833;    0,795;    3,955
613,039;21660,190;    1,703;    2,045
613,617;20487,505;    0,886;    4,773
614,196;20659,129;    1,613;    1,227
614,775;21004,119;    1,249;    2,409
615,353;20957,329;   -1,660;    0,864
615,932;20719,060;    0,249;    2,409
616,510;21243,049;    0,158;    0,591
617,089;20832,610;    8,794;   17,591
617,667;20643,312;    4,885;    6,136
618,246;20490,772;   -1,115;    1,318
618,824;20636,573;    1,612;   -0,955
619,402;20252,552;    0,431;   -1,773
619,981;20683,100;    1,067;   -1,045
620,559;20588,996;    0,794;    1,682
621,137;20160,300;    3,067;    1,864
621,715;20102,056;    3,703;   -0,682
622,293;20083,752;    1,885;   -0,773
622,871;20519,915;    0,340;    0,500
623,450;20204,403;    0,430;   -0,864
624,028;20077,404;   -0,388;   -0,955
624,606;19705,570;    2,339;    1,682
625,183;20044,844;   -0,661;   -1,136
625,761;19765,684;    1,885;    1,136
626,339;20006,077;    2,339;    2,591
626,917;20369,948;    0,339;   -0,045
627,495;20384,544;    2,794;    1,318
628,073;19856,250;    5,248;    2,864
628,650;19597,080;    3,067;    2,136
629,228;19966,512;    1,248;    4,409
629,806;19437,310;   -0,024;    1,136
630,383;19697,012;    0,066;   -0,318
630,961;19508,061;   -2,206;   -0,955
631,539;19234,849;   -2,479;    0,227
632,116;18661,152;   12,703;   15,409
632,694;19218,697;    4,885;    6,500
633,271;19479,673;    1,975;    2,682
633,848;19408,921;    1,430;    2,045
634,426;19422,589;    1,521;    1,773
635,003;18717,967;   -0,207;   -0,409
635,580;18926,416;    1,884;    3,682
636,158;19421,889;    3,793;    1,227
636,735;19410,514;    3,339;   -0,500
637,312;19520,518;    0,521;   -0,682
637,889;19612,581;    2,248;   -0,682
638,466;19148,180;    0,066;   -0,409
639,043;19152,637;    1,702;   -1,136
639,620;19440,454;    0,611;   -0,955
640,197;19668,940;    1,612;    1,682
640,774;19831,750;    1,430;    1,136
641,351;20179,288;    0,612;    1,136
641,928;19652,280;    2,794;    1,409
642,505;19309,181;    0,794;   -0,500
643,082;19445,537;    1,885;    1,227
643,658;18565,711;    1,157;    1,500
644,235;19209,248;   -2,479;    2,500
644,812;19457,695;    1,794;    0,773
645,388;19236,505;    1,612;    1,409
645,965;19327,043;    1,521;    1,682
646,542;19387,944;    3,430;   -0,227
647,118;19372,664;    3,703;   -0,955
647,695;19621,928;    0,339;    1,136
648,271;19542,012;   -2,115;    0,500
648,848;19778,186;    0,248;    2,227
649,424;19705,269;    0,976;    1,318
650,000;19427,170;   -0,388;   -1,045
650,577;19288,980;    0,158;   -0,955
651,153;19652,609;   -1,115;    0,955
651,729;20471,510;    0,521;    0,864
652,305;20579,138;    1,339;    2,773
652,881;23933,676;   -1,297;    1,136
653,458;29326,214;    0,249;    0,227
654,034;32296,024;    0,703;    1,591
654,610;33481,380;    0,339;    0,773
655,186;34648,554;    1,612;    3,045
655,762;34279,637;   -1,842;    0,409
656,338;34344,447;    0,703;    0,136
656,913;35355,257;   -0,297;    0,409
657,489;34710,977;    0,249;   -0,318
658,065;34631,787;    0,794;   -1,591
658,641;35186,961;    2,158;   -0,864
659,217;34586,862;    2,067;    0,409
659,792;34045,946;   -1,751;   -0,409
660,368;34370,665;   -0,388;   -0,682
660,944;34336,839;    1,794;    1,227
661,519;30710,013;    0,522;    0,409
662,095;25917,278;   -0,206;    0,591
662,670;22143,361;   -0,206;   -0,136
663,246;21267,626;   -0,660;   -0,409
663,821;20699,709;    0,431;    1,682
664,396;20160,246;    0,613;    1,864
664,972;20396,148;   -0,660;   -0,500
665,547;20689,049;    3,794;    0,136
666,122;20693,405;    1,340;    0,318
666,698;20969,851;    2,431;    0,318
667,273;20378,298;    0,885;    0,136
667,848;21069,836;    0,340;    1,500
668,423;20874,282;    1,795;    2,318
668,998;21321,002;    0,976;   -0,682
669,573;21755,176;    2,067;   -1,500
670,148;21604,622;    1,885;   -0,682
670,723;21382,433;   -0,024;    0,318
671,298;21735,970;   -1,296;    1,045
671,873;21798,144;   -0,296;   -0,136
672,448;21723,955;    1,704;    0,136
673,023;22055,038;    0,249;   -0,227
673,597;22380,575;    2,704;    2,318
674,172;22156,204;    2,431;    0,318
674,747;21702,378;   -0,205;   -1,045
675,321;21518,916;   -0,933;    3,318
675,896;21184,089;    2,158;    1,045
676,471;22012,173;    2,522;    1,591
677,045;21796,074;   -0,296;    0,682
677,620;21815,066;    2,158;    1,136
678,194;22150,785;    0,249;    1,136
678,769;21774,505;    0,886;   -0,318
679,343;21996,588;   -0,023;    1,773
679,917;21822,762;    0,340;    1,955
680,492;21823,481;    0,249;    3,227
681,066;21987,473;    0,613;    0,409
681,640;22013,738;    1,795;   -0,318
682,214;22721,003;    2,340;    0,500
682,788;22275,450;    0,613;   -0,773
683,363;22246,351;    1,977;    1,682
683,937;21930,252;    0,886;   -0,318
684,511;22630,154;   -1,023;   -0,591
685,085;22408,964;   -1,478;    0,318
685,659;22142,047;    1,431;    0,864
686,232;22352,857;    1,159;   -0,318
686,806;22055,395;    2,159;    0,409
687,380;22662,296;   -1,932;    0,591
687,954;22894,925;    2,432;    1,136
688,528;22540,462;    2,613;    1,955
689,101;23269,000;    0,432;    1,045
689,675;22884,083;    0,886;   -0,136
690,249;22327,439;    3,432;    0,409
690,822;22658,795;    1,159;    0,318
691,396;22749,787;    2,068;    1,227
691,969;22275,415;    2,523;    0,136
692,543;22676,135;   -0,568;   -1,955
693,116;22378,581;   -0,659;   -1,409
693,690;22240,937;   -0,296;    0,500
694,263;22780,657;    2,341;    2,955
694,836;22732,012;    2,795;    3,591
695,410;21517,095;    1,159;    1,773
695,983;21923,178;    1,614;    0,591
696,556;21921,171;   -0,750;   -1,045
697,129;22276,708;   -1,114;    1,409
697,703;21932,428;    1,341;    1,955
698,276;21978,965;    1,705;   -0,773
698,849;21759,503;   -1,023;    1,409
699,422;22110,495;    1,250;    0,591
699,995;21867,124;   -0,659;    0,136
700,568;22265,207;   -0,204;    3,045
701,140;22264,653;   -1,841;    1,682
701,713;22094,191;    0,341;    2,409
702,286;21907,910;    0,796;    0,864
702,859;21719,539;    0,614;   -0,591
703,432;21038,440;   -0,841;    0,682
704,004;21470,887;    1,978;    0,318
704,577;21320,606;    1,068;    0,136
705,150;21821,144;    0,887;    2,500
705,722;21662,681;    1,523;   -3,227
706,295;21465,855;    1,432;   -0,591
706,867;21330,302;    0,250;    1,955
707,440;21512,658;   -0,113;   -0,409
708,012;21744,650;   -0,022;    0,591
708,584;21609,915;    2,705;    0,227
709,157;21909,453;    1,160;   -0,591
709,729;21619,354;    1,069;    2,045
710,301;22373,073;   -1,204;    0,045
710,874;22370,247;    0,341;   -0,227
711,446;21330,421;   -0,295;    0,864
712,018;21204,232;   -3,022;    0,500
712,590;21010,860;   -0,204;    1,682
713,162;21555,489;   -0,477;    1,318
713,734;21780,299;    1,796;   -2,045
714,306;21657,109;    0,342;   -0,409
714,878;20475,374;   -0,295;    0,864
715,450;21263,730;   -0,113;    0,864
716,022;21496,995;    2,433;    1,318
716,593;21649,351;    0,978;    0,591
717,165;21533,252;    1,796;   -1,227
717,737;21284,789;    0,796;    0,409
718,309;20982,963;    1,160;   -0,045
718,880;20962,865;   -1,295;   -1,409
719,452;21232,311;    0,887;   -1,591
720,024;20842,758;    1,705;   -0,591
720,595;21380,114;    2,978;    0,955
721,167;20945,379;    1,160;   -2,045
721,738;20481,644;    2,069;   -1,045
722,309;20513,454;    1,251;   -1,227
722,881;20282,901;    2,705;    0,773
723,452;20850,075;    1,251;    2,864
724,023;21055,976;    1,524;    2,682
724,595;20884,513;    2,342;    0,682
725,166;20633,960;    1,524;   -0,409
725,737;20250,225;    1,887;    0,227
726,308;20378,035;    0,797;    0,318
726,879;20737,937;    1,069;    1,227
727,450;20636,838;   -2,022;   -0,045
728,021;20577,012;    1,069;    0,682
728,592;20426,549;    1,160;    0,500
729,163;20714,723;    1,433;   -0,136
729,734;20658,352;    2,160;   -0,227
730,305;21025,344;    0,615;    0,136
730,876;21319,518;    0,888;    2,955
731,447;21073,601;    0,797;    2,682
732,017;21137,866;   -0,840;    1,864
732,588;20722,222;   -0,021;    1,227
733,159;20851,578;    3,615;   -1,045
733,729;20634,570;    1,251;    0,409
734,300;20037,107;    0,160;    0,864
734,870;20442,009;   -1,385;    0,591
735,441;20927,546;    0,888;   -0,591
736,011;20710,993;    1,070;   -1,591
736,582;20646,349;    1,251;    0,045
737,152;20167,886;    0,979;   -2,045
737,722;20579,697;    1,070;   -0,682
738,293;20365,780;   -2,021;    1,318
738,863;20245,135;    1,797;    2,318
739,433;20097,219;    4,524;    0,318
740,003;20700,211;    1,524;   -0,682
740,573;20120,294;    2,252;   -1,591
741,143;20114,468;    3,615;    0,318
741,713;20818,460;    0,252;   -0,500
742,283;20561,361;    1,706;    1,591
742,853;20356,535;    0,524;    1,591
743,423;19864,527;    0,161;    0,045
743,993;19945,792;    1,070;    1,500
744,563;19438,330;    2,524;   -0,864
745,133;19361,140;   -0,112;   -0,864
745,702;20009,405;    2,797;    1,773
746,272;19261,215;    0,434;    0,591
746,842;19094,935;   -0,748;   -0,591
747,411;19500,836;   -0,839;   -0,318
747,981;19626,919;   -0,930;    0,500
748,551;19726,729;   -0,021;   -1,045
749,120;19570,994;   -0,112;   -0,227
749,690;19892,350;    2,161;    2,409
750,259;20201,524;    0,979;    2,955
750,828;20047,425;    4,070;   -1,955
751,398;20289,599;   -0,112;   -0,045
751,967;19906,319;    2,888;    0,409
752,536;20069,584;    1,161;   -0,227
753,105;20466,030;   -1,384;    0,227
753,675;20217,931;   -0,112;    1,773
754,244;20168,742;    0,888;    3,591
754,813;20245,552;    0,979;    1,227
755,382;19843,635;    0,798;    0,955
755,951;20271,082;   -0,112;    3,682
756,520;19859,256;    2,525;    1,864
757,089;20371,157;    1,888;    0,500
757,658;20458,786;    2,434;    1,227
758,227;20460,051;   -1,111;    0,318
758,795;20753,315;   -1,021;    1,136
759,364;21045,853;    0,525;   -0,591
759,933;20128,936;    1,343;   -0,045
760,501;19749,110;    0,252;   -1,318
761,070;20137,648;   -0,293;   -1,409
761,639;20736,913;    1,434;    1,318
762,207;20137,632;    0,889;   -0,955
762,776;20054,351;    2,889;    0,864
763,344;20062,707;    0,071;    0,591
763,913;19215,699;    1,616;    1,409
764,481;19896,055;    1,980;   -0,136
765,049;19745,320;    0,616;    1,409
765,618;19611,585;    1,434;    0,318
766,186;19741,304;    2,434;    0,136
766,754;19959,387;    1,798;    1,864
767,322;19010,925;    1,162;    0,409
767,890;19007,463;    0,525;   -1,773
768,459;19399,273;    2,616;   -0,318
769,027;19543,538;    2,525;    3,409
769,595;18627,985;    2,616;    2,591
770,163;19042,340;    3,344;    2,955
770,730;18839,787;    2,525;   -0,136
771,298;18714,143;    1,162;   -1,409
771,866;18862,680;    0,253;    4,955
772,434;19096,400;    1,162;   -1,864
773,002;19234,392;    2,616;    0,682
773,569;18943,475;    1,071;    1,682
774,137;18767,831;    0,889;   -0,045
774,705;19495,278;   -0,747;   -0,136
775,272;19066,815;    0,253;    0,682
775,840;18884,353;   -0,111;    2,682
776,407;18420,709;   -0,293;    1,955
776,975;18083,701;    1,162;    0,318
777,542;19007,784;    2,162;   -0,045
778,110;18904,140;    0,707;   -0,045
778,677;18551,041;    1,071;   -0,864
779,244;18327,124;   -1,020;    1,045
779,812;18401,934;    0,980;    0,864
780,379;18321,472;    2,435;    1,136
780,946;18532,737;    2,617;   -0,773
781,513;18825,911;   -0,565;    0,318
782,080;18255,539;    1,253;    2,864
782,647;18879,804;    1,708;    3,045
783,214;18551,160;   -0,201;    3,864
783,781;18240,788;    1,708;   -0,682
784,348;18087,690;    0,253;    1,500
784,915;18482,682;   -1,474;    0,318
785,482;18328,856;    2,708;    2,591
786,049;18755,030;    1,071;   -0,591
786,615;18844,204;    1,708;   -0,955
787,182;18608,923;   -3,201;   -0,682
787,749;18294,370;   -2,201;    1,409
788,315;17661,453;    0,253;   -0,409
788,882;17995,263;    0,981;   -1,227
789,448;18625,255;    1,435;   -0,955
790,015;18646,520;    1,799;    3,227
790,581;18209,331;    0,708;    0,227
791,148;18121,777;    1,344;    1,045
791,714;18356,497;   -1,019;    3,136
792,280;18070,034;    3,708;    1,591
792,847;17695,754;   -0,928;    2,500
793,413;18181,382;   -0,110;   -0,318
793,979;17808,102;    1,526;   -1,318
794,545;17828,003;    2,981;    2,682
795,111;17357,904;    2,435;    1,318
795,678;17545,533;    3,526;   -1,682
796,244;17230,252;    2,799;    0,136
796,810;17717,699;    0,799;    0,773
797,375;17430,600;   -0,292;   -2,136
797,941;17439,047;   -1,110;    0,591
798,507;17588,130;    0,254;   -0,955
799,073;17184,577;    2,708;    0,591
799,639;17258,569;    1,435;    3,136
800,205;17323,652;   -1,565;    2,682
800,770;16905,371;    1,345;    1,773
801,336;16889,091;    2,981;   -0,955
801,901;16663,719;    6,072;    3,136
802,467;17245,529;    0,526;    2,045
803,033;16604,703;   -0,019;    0,864
803,598;16794,059;    1,072;   -1,045
804,163;16870,142;    0,708;   -0,318
804,729;16808,771;   -0,110;    1,136
805,294;17164,036;    1,072;    2,227
805,859;16980,119;    0,890;   -0,409
806,425;16536,747;    3,890;    2,682
806,990;16234,558;    1,890;    4,318
807,555;16608,732;   -0,110;    2,591
808,120;16556,360;   -1,292;   -0,409
808,685;16642,080;    1,072;   -2,500
809,250;16186,890;    2,072;   -0,500
809,815;16450,609;   -0,201;    0,682
810,380;16944,601;    0,981;    1,591
810,945;17361,048;    2,890;    2,045
811,510;16702,677;   -0,200;    1,591
812,075;16418,214;    2,800;   -1,409
812,640;16407,297;    3,709;    1,409
813,204;16506,199;    2,163;   -0,227
813,769;16938,100;    0,254;   -0,045
814,334;16460,910;    0,527;    0,864
814,898;16511,993;    1,981;    0,591
815,463;16319,167;    0,981;   -0,773
816,027;16337,887;    1,345;   -2,318
816,592;16460,515;    2,163;   -2,045
817,156;16045,235;   -2,200;    1,136
817,721;15901,590;    0,982;    2,318
818,285;15894,219;    0,618;    1,500
818,849;16473,756;   -0,018;    1,682
819,414;16396,203;    0,073;    2,955
819,978;16003,923;   -0,291;    1,773
820,542;16509,824;    2,891;    0,500
821,106;16306,634;    2,800;    0,682
821,670;16389,445;    2,709;    2,591
822,234;16125,982;    1,073;    1,409
822,798;15585,429;   -0,836;    0,500
823,362;15572,603;    1,527;    4,227
823,926;15029,322;   -0,018;    1,136
824,490;15197,405;    3,527;   -0,682
825,054;15577,852;    2,527;   -1,136
825,618;15315,571;   -1,200;   -1,500
826,181;15249,109;    0,982;   -1,318
826,745;15193,374;   -0,745;   -1,045
827,309;15484,093;    2,255;    1,318
827,872;14991,176;    0,527;    0,955
828,436;15883,532;    1,982;   -0,773
828,999;15982,888;    2,436;    1,227
829,563;14954,698;   -0,654;    1,136
830,126;14745,145;   -0,018;   -0,591
830,690;14767,228;    0,709;    2,864
831,253;14361,129;   -0,473;    2,227
831,816;14483,121;   -0,018;    0,500
832,380;14419,750;    1,164;    0,864
832,943;14654,742;    3,073;   -0,500
833,506;14199,007;    0,255;   -1,227
834,069;14897,454;    2,164;   -0,955
834,632;14967,809;   -2,200;    1,318
835,195;14866,438;    1,346;    0,955
835,758;14182,248;    0,709;    1,955
836,321;14028,877;    1,073;   -1,045
836,884;14157,414;   -1,291;   -0,955
837,447;14164,588;    0,528;    1,773
838,010;14375,035;    1,800;    3,227
838,573;14683,300;    0,528;    0,773
839,135;14677,747;   -0,109;   -0,955
839,698;14172,103;    2,528;    0,409
840,261;13741,640;    0,255;   -0,227
840,823;13633,269;   -0,927;    0,864
841,386;13900,443;   -0,018;   -2,409
841,948;13816,617;    0,255;    1,773
842,511;13591,791;    0,255;    1,682
843,073;13687,874;    2,982;    0,227
843,636;13536,775;    0,619;   -0,227
844,198;13490,949;    1,255;    0,591
844,760;13598,941;    0,619;    1,955
845,322;13287,570;    0,164;    1,136
845,885;13640,198;   -0,290;    0,591
846,447;14058,281;    0,710;    0,227
847,009;13705,728;    3,983;   -0,682
847,571;13923,902;    1,346;   -2,045
848,133;14050,348;   -0,199;   -1,864
848,695;13868,250;    2,346;    1,409
849,257;13454,333;    1,346;   -1,682
849,819;13678,598;    2,983;   -0,409
850,381;13692,590;    1,801;   -0,864
850,942;13966,037;    1,892;   -0,591
851,504;13876,665;    0,983;    0,227
852,066;13885,839;    1,619;   -1,591
852,628;13605,013;    0,165;    1,955
853,189;13178,641;    0,256;    2,682
853,751;13299,634;   -0,654;    1,409
854,312;13082,353;    1,256;   -1,682
854,874;13550,345;   -0,108;   -0,773
855,435;13971,792;    0,528;   -1,682
855,997;14124,693;    3,983;   -0,136
856,558;13431,867;    0,801;    1,773
857,119;13541,223;   -0,744;    2,864
857,681;13322,124;   -0,108;    0,318
858,242;13348,480;    1,347;   -2,136
858,803;13774,927;    1,074;   -0,773
859,364;14304,101;    0,892;   -4,773
859,925;13704,547;   -0,290;   -0,955
860,486;13588,994;    0,529;   -0,955
861,047;13328,168;    0,165;   -1,227
861,608;13159,524;    0,165;   -0,773
862,169;13342,334;   -0,562;   -0,045
862,730;13121,781;   -0,290;    1,409
863,291;13369,864;    0,438;   -0,500
863,852;13643,401;   -0,926;    1,955
864,412;13174,030;   -1,835;   -0,864
864,973;11957,386;    1,892;    0,500
865,534;11836,196;    2,074;    0,227
866,094;13112,643;    2,620;    0,227
866,655;12820,271;    4,711;    3,318
867,215;13110,809;    0,074;    0,136
867,776;12982,619;   -1,199;   -0,136
868,336;13073,884;    1,529;    0,136
868,897;12646,240;    3,438;    1,682
869,457;12440,687;    3,256;    0,318
870,017;12636,406;    2,438;   -1,227
870,578;13064,580;    1,893;    0,773
871,138;12728,936;    2,620;   -0,955
871,698;12358,473;   -0,562;   -1,318
872,258;12253,738;    0,711;   -2,864
872,818;12622,912;    2,347;    0,045
873,378;12589,904;   -2,198;    1,045
873,938;12215,351;    4,984;    0,500
874,498;12462,162;    1,256;   -1,955
875,058;12396,972;    4,347;    1,773
875,618;12236,964;    1,438;   -2,682
876,177;12207,593;   -0,471;    0,136
876,737;11857,585;   -0,289;    1,955
877,297;11910,577;    2,711;    1,955
877,856;11919,569;    2,529;    0,318
878,416;11846,743;    2,438;   -0,136
878,976;12066,190;    3,438;    0,409
879,535;12235,273;    4,529;    3,136
880,095;12040,265;    1,347;    0,045
880,654;12115,802;    0,347;    1,318
881,213;12224,249;    2,347;    1,500
881,773;11912,332;    1,984;    2,682
882,332;12213,052;    6,075;    5,136
882,891;12094,317;    0,711;    2,136
883,451;12450,672;   -2,016;    1,682
884,010;11947,119;   -1,107;   -0,409
884,569;12040,657;   -2,289;   -0,045
885,128;12189,012;   -0,743;   -1,864
885,687;12257,732;   -0,743;    0,682
886,246;12008,542;    2,620;    2,136
886,805;11766,353;    1,620;    2,045
887,364;11999,254;    1,166;   -0,500
887,922;12307,700;   -0,016;    0,045
888,481;11818,511;    1,530;    0,591
889,040;12126,685;    3,711;    2,136
889,599;12672,950;    2,166;    1,409
890,157;12759,578;    2,166;    2,409
890,716;12390,934;    2,166;    0,227
891,274;12215,290;    0,075;   -1,136
891,833;12592,282;    1,166;    0,864
892,391;12470,910;    1,802;    0,500
892,950;12532,084;    0,166;   -0,773
893,508;12877,167;    0,984;   -0,409
894,067;12263,887;   -0,379;    0,136
894,625;12197,879;   -1,016;   -1,500
895,183;12403,235;   -0,198;   -0,682
895,741;12318,136;    2,257;   -1,773
896,299;12146,492;    1,621;   -2,409
896,858;12319,848;    1,530;   -1,591
897,416;12438,476;    0,166;   -1,318
897,974;12246,832;   -2,197;    0,318
898,532;12393,460;    6,530;    2,682
899,089;12324,907;    0,621;   -0,682
899,647;12399,263;    0,530;    1,318
900,205;12192,619;    0,257;    1,045
900,763;12344,247;    2,166;    0,227
901,321;12349,694;    3,530;   -1,409
901,878;11855,141;    3,257;   -0,773
902,436;11792,860;    0,257;    1,318
902,994;12146,489;    6,712;    3,682
903,551;11632,390;    1,439;    0,409
904,109;12009,200;    1,530;   -1,409
904,666;11673,920;    1,439;    1,045
905,224;11537,094;    3,894;   -0,409
905,781;11299,358;   -0,470;   -0,318
906,338;11340,623;    0,167;    1,045
906,895;11330,343;    1,894;    2,045
907,453;11281,244;    2,348;    1,136
908,010;11279,600;    3,348;    0,409
908,567;11006,319;   -0,561;    0,591
909,124;10602,221;    2,439;   -1,500
909,681;10646,031;   -1,288;    0,682
910,238;10829,114;   -0,106;   -1,318
910,795;11149,197;   -1,561;   -1,136
911,352;10808,288;   -0,379;   -2,682
911,909;10321,470;    2,803;   -0,864
912,466;10780,470;    1,985;    1,500
913,022;10366,015;   -0,924;    0,500
913,579;10693,561;   -0,470;    2,045
914,136;10443,833;   -2,561;    0,955
914,692;10759,288;    1,530;   -1,227
915,249;10415,288;    0,530;    0,409
915,806;10588,197;    1,803;    1,955
916,362;10440,833;    0,894;    1,864
916,918;10019,924;    2,439;    1,045
917,475;10034,288;    1,621;    0,955
918,031;10090,742;    0,076;   -0,045
918,587; 9667,742;    0,621;   -0,318
919,144; 9907,924;   -0,379;    0,227
919,700;10138,288;    0,167;    0,773
920,256; 9749,561;    0,439;    0,045
920,812; 9458,106;    1,439;   -1,045
921,368; 9539,470;    1,348;   -1,045
921,924; 9180,106;    0,439;   -0,136
922,480; 8864,470;    0,076;    1,227
923,036; 9420,288;   -0,652;    1,955
923,592; 9371,197;    0,621;    0,318
924,148; 9316,561;    1,894;   -0,955
924,704; 8755,288;    0,258;   -0,409
925,259; 9041,652;   -0,561;    0,591
925,815; 8838,652;    3,803;    0,500
926,371; 8422,742;    3,530;    1,409
926,926; 8380,742;    1,621;    0,591
927,482; 8082,015;    1,621;    0,773
928,037; 8006,652;   -0,833;    2,045
928,593; 8271,924;    0,258;    1,045
929,148; 8135,652;    1,167;   -1,500
929,704; 7702,015;    2,439;   -0,500
930,259; 7875,652;    0,894;   -0,136
930,814; 7164,833;    1,803;    1,955
931,369; 6964,197;    0,258;   -0,773
931,925; 6922,470;   -1,924;    0,136
932,480; 6799,652;    3,076;   -2,591
933,035; 6793,015;    3,985;   -0,318
933,590; 6581,106;   -1,742;   -1,773
934,145; 6311,379;   -1,288;   -0,318
934,700; 6606,652;    0,348;   -0,591
935,255; 6469,470;    4,803;    0,045
935,809; 5954,015;    6,258;    0,864
936,364; 5265,015;    2,167;   -0,136
936,919; 5312,742;    2,348;   -1,773
937,474; 5204,833;    1,348;    0,136
938,028; 5021,379;    3,076;    1,136
938,583; 4691,015;    6,348;    4,682
939,138; 4903,106;    0,167;    2,136
939,692; 4465,924;   -1,015;   -1,136
940,247; 4246,742;    1,167;   -1,045
940,801; 3933,833;    0,621;    0,227
941,355; 3863,561;    0,439;    2,591
941,910; 3599,379;    0,712;   -2,136
942,464; 3709,288;    2,712;   -0,318
943,018; 3619,015;    3,258;   -0,227
943,572; 3553,106;    2,803;   -0,682
944,126; 3136,833;   -0,924;   -0,409
944,681; 3031,288;    0,712;    0,227
945,235; 3009,652;    2,167;   -0,591
945,789; 2952,833;    1,258;   -1,864
946,342; 3141,379;   -0,561;   -0,591
946,896; 2910,288;    0,348;    0,955
947,450; 2695,197;   -0,561;   -0,227
948,004; 2945,288;    1,076;   -0,045
948,558; 2899,470;    1,258;   -0,864
949,111; 2827,561;   -1,197;   -0,318
949,665; 2928,379;   -0,106;   -0,682
950,219; 2828,379;    0,621;   -1,045
950,772; 2845,379;    0,258;    1,864
951,326; 2780,652;   -1,106;   -0,955
951,879; 2819,652;    1,076;   -2,318
952,433; 2883,652;    1,348;    2,227
952,986; 2720,924;    0,348;    0,682
953,539; 2663,288;    1,530;    0,591
954,093; 2619,197;    0,985;   -1,318
954,646; 2755,379;   -0,288;    1,318
955,199; 2590,833;    1,258;   -0,500
955,752; 2576,379;    1,985;    1,773
956,305; 2493,833;    0,894;    2,955
956,858; 2614,833;    0,621;   -0,318
957,411; 2776,379;    3,621;    2,136
957,964; 2618,561;    2,076;    2,136
958,517; 2586,924;    0,985;    3,136
959,070; 2451,288;   -1,197;    1,955
959,623; 2622,106;    1,076;    1,500
960,176; 2432,833;    0,712;    2,045
960,728; 2404,561;    1,712;    0,773
961,281; 2456,379;    2,258;    0,500
961,834; 2461,015;   -0,833;    0,864
962,386; 2382,106;    1,258;    1,045
962,939; 2310,924;    3,439;   -0,318
963,491; 2441,561;    2,621;    1,136
964,043; 2328,470;    0,076;    2,409
964,596; 2459,015;    1,712;    2,227
965,148; 2301,561;   -0,379;    1,773
965,700; 2247,197;   -0,015;   -0,227
966,253; 2397,015;   -0,833;    0,318
966,805; 2269,106;    1,894;    0,773
967,357; 2289,379;    0,439;   -1,500
967,909; 2287,924;    1,167;   -1,227
968,461; 2301,652;    0,894;    3,136
969,013; 2253,742;   -1,561;   -0,864
969,565; 2352,288;    1,803;   -1,136
970,117; 2536,106;    3,803;    1,045
970,669; 2306,379;    3,258;   -0,136
971,220; 2138,379;    2,167;   -1,500
971,772; 2097,015;    1,348;   -0,318
972,324; 2229,924;   -1,197;   -0,500
972,876; 2143,197;    0,167;   -0,045
973,427; 2298,470;   -1,197;   -1,045
973,979; 2294,379;    0,076;   -2,500
974,530; 2235,833;    0,803;    1,318
975,082; 2260,470;    2,167;    1,682
975,633; 2178,106;    2,894;    1,682
976,184; 2318,742;    2,076;    0,773
976,736; 2181,833;    0,348;    0,227
977,287; 2035,379;    0,258;   -0,500
977,838; 2158,470;   -0,924;   -0,318
978,389; 2192,288;    0,803;   -0,500
978,940; 2051,924;    1,258;   -0,409
979,491; 2087,379;    2,258;   -0,500
980,042; 2079,742;   -0,652;    3,045
980,593; 2101,833;    1,894;    0,227
981,144; 2182,742;    3,530;   -0,500
981,695; 2199,833;   -0,470;    1,500
982,246; 2149,652;   -1,833;    1,045
982,797; 2206,924;   -0,561;    0,682
983,347; 2328,742;    2,167;    0,591
983,898; 2515,561;    4,167;    0,409
984,449; 2379,742;    2,530;    0,773
984,999; 2239,288;    1,894;   -1,136
985,550; 2079,106;    3,167;   -0,318
986,100; 2047,924;    0,712;   -0,318
986,651; 2064,742;    0,258;    0,045
987,201; 2066,561;    0,894;   -0,591
987,751; 2121,833;   -0,288;    2,864
988,302; 2147,924;   -0,379;    1,500
988,852; 2152,742;    1,985;   -1,136
989,402; 2234,742;    0,985;    0,682
989,952; 2186,015;    1,621;    0,864
990,502; 2184,742;    1,076;    0,682
991,052; 2124,197;   -0,106;    0,045
991,602; 2044,924;    1,167;    1,318
992,152; 2079,561;    2,803;    0,682
992,702; 2049,561;    1,167;   -0,045
993,252; 1984,197;    0,076;   -0,500
993,802; 2100,288;    1,167;    1,318
994,352; 2261,015;   -0,742;    1,136
994,901; 2294,652;    1,076;    3,227
995,451; 2234,106;   -1,197;    0,318
996,000; 2295,652;    1,076;    0,318
996,550; 2074,742;    2,894;    0,227
997,100; 2097,197;   -0,561;   -0,045
997,649; 2334,924;   -0,197;    0,955
998,198; 2037,833;   -0,288;   -1,500
998,748; 2216,288;    0,348;   -2,318
999,297; 2121,106;    0,985;   -0,409
999,846; 2231,288;    1,894;   -0,773
1000,395; 2223,561;    1,530;    0,500
1000,945; 2243,742;    1,076;   -0,773
1001,494; 2295,652;    0,167;    0,682
1002,043; 2263,924;    0,712;    0,864
1002,592; 2092,652;    3,439;    1,955
1003,141; 2201,652;    2,439;   -0,682
1003,690; 2145,106;    1,258;    0,500
1004,238; 2135,197;   -0,106;   -0,045
1004,787; 1847,561;   -1,288;    1,227
1005,336; 2117,197;    1,621;    0,682
1005,885; 2201,652;   -0,197;   -2,773
1006,433; 2256,470;   -0,470;    0,955
1006,982; 2416,015;    2,167;    1,682
1007,531; 2279,288;    2,712;   -0,227
1008,079; 2191,015;    0,258;    0,500
1008,627; 2302,924;    1,621;    0,409
1009,176; 2104,288;    0,076;   -1,955
1009,724; 2117,470;   -2,742;    0,864
1010,273; 2231,924;    1,076;    0,500
1010,821; 2272,197;    1,076;    1,409
1011,369; 2060,742;    0,076;    1,318
1011,917; 2053,470;   -0,833;   -0,591
1012,465; 2309,197;    2,530;   -1,591
1013,013; 2368,015;    0,439;   -1,682
1013,561; 2315,561;   -1,288;   -0,773
1014,109; 2377,833;   -0,833;    1,682
1014,657; 2262,561;    1,348;    0,591
1015,205; 2307,833;    0,894;   -0,955
1015,753; 2300,924;    0,258;   -1,409
1016,301; 2330,742;    2,621;    3,045
1016,848; 2351,561;    2,167;    0,409
1017,396; 2409,742;    1,621;    0,045
1017,944; 2485,742;    2,621;    1,864
1018,491; 2271,833;   -0,197;    1,409
1019,039; 2534,561;   -0,652;    0,591
1019,586; 2351,379;    0,076;    1,682
1020,134; 2401,379;    0,712;    1,500
1020,681; 2440,833;    2,894;   -1,136
1021,228; 2415,197;   -0,561;   -2,227
1021,776; 2290,652;   -0,833;   -1,136
1022,323; 2544,197;    0,803;    0,773
1022,870; 2476,288;   -0,470;   -0,045
1023,417; 2421,561;    2,076;    1,864
1023,964; 2451,015;    0,621;    1,227
1024,511; 2353,652;   -0,652;    0,773
1025,058; 2200,288;    0,439;   -0,045
1025,605; 2244,379;   -1,742;    3,136
1026,152; 2493,924;   -0,106;   -0,591
1026,699; 2209,924;    0,167;    1,318
1027,245; 2312,924;    2,439;    0,318
1027,792; 2458,015;    0,712;    1,409
1028,339; 2461,833;    4,076;   -0,045
1028,885; 2319,742;    3,621;   -0,227
1029,432; 2231,288;   -0,106;    0,227
1029,978; 2332,106;    1,348;   -1,591
1030,525; 2233,833;    1,621;    0,409
1031,071; 2393,197;    0,348;    1,136
1031,618; 2583,379;    1,258;    1,682
1032,164; 2344,015;    2,076;    3,045
1032,710; 2394,924;    0,076;   -1,500
1033,256; 2304,742;    0,712;   -0,136
1033,803; 2238,742;   -0,288;    1,500
1034,349; 2025,561;    1,803;    0,136
1034,895; 2176,379;    2,621;   -0,318
1035,441; 2162,652;    0,439;    0,318
1035,987; 2185,015;   -2,288;   -0,682
1036,533; 2216,288;   -0,197;   -0,955
1037,078; 2429,561;    4,712;    1,682
1037,624; 2233,470;    2,439;   -0,955
1038,170; 2216,379;    1,712;   -0,318
1038,716; 2174,561;    2,167;   -0,409
1039,261; 2057,652;    2,167;   -0,773
1039,807; 2017,379;   -0,015;    3,409
1040,352; 2100,561;   -1,288;   -0,318
1040,898; 2118,288;    0,167;   -0,682
1041,443; 2027,561;    0,803;   -2,591
1041,989; 2172,924;    3,621;    1,591
1042,534; 2004,742;    0,985;    2,591
1043,079; 2042,924;    1,985;    0,955
1043,625; 1925,379;    0,258;    0,500
1044,170; 1990,833;    2,439;    1,045
1044,715; 2235,742;    0,167;    0,955
1045,260; 2063,833;   -0,833;   -0,955
1045,805; 2050,833;    0,258;   -0,591
1046,350; 1989,652;    0,530;   -0,409
1046,895; 2044,833;    0,803;    1,591
1047,440; 2017,652;    1,530;    0,409
1047,985; 1892,742;   -1,197;   -0,955
1048,530; 1804,379;    1,348;    1,227
1049,074; 1874,833;    2,803;    0,318
1049,619; 1833,924;   -0,924;    1,955
1050,164; 1694,742;    1,076;    0,227
1050,708; 1750,288;    2,621;    0,045
1051,253; 2137,924;    3,258;   -2,227
1051,797; 1849,015;   -0,197;   -1,318
1052,342; 1789,470;    1,348;    1,045
1052,886; 1821,197;    1,803;   -1,409
1053,430; 1672,652;    2,167;    0,136
1053,975; 1721,106;    0,894;   -0,318
1054,519; 1714,015;    1,803;    3,227
1055,063; 1773,833;    3,621;    1,318
1055,607; 1699,742;    1,348;    0,227
1056,151; 1701,742;    0,530;    1,682
1056,695; 1586,197;   -1,833;   -1,136
1057,239; 1657,197;   -1,197;   -0,682
1057,783; 1676,742;    2,258;   -1,500
1058,327; 1678,742;    3,076;    1,409
1058,871; 1905,288;    3,985;    1,318
1059,415; 1642,015;   -0,561;   -0,045
1059,958; 1913,379;    2,985;    2,591
1060,502; 1616,652;    1,348;   -0,773
1061,046; 1486,833;    1,712;   -0,955
1061,589; 1461,652;    2,803;   -1,136
1062,133; 1375,379;    0,985;    1,864
1062,676; 1346,742;    1,439;    0,864
1063,220; 1358,015;    0,985;    0,500
1063,763; 1403,379;    2,985;    1,136
1064,306; 1494,015;    0,985;    1,864
1064,849; 1393,924;    2,076;    0,591
1065,393; 1388,652;    2,894;   -1,500
1065,936; 1467,379;    2,530;   -0,409
1066,479; 1329,288;    2,621;    1,318
1067,022; 1367,924;    1,894;   -0,227
1067,565; 1298,652;   -1,197;   -1,318
1068,108; 1311,652;    1,258;   -0,591
1068,651; 1268,015;   -2,470;    1,409
1069,194; 1216,106;   -1,106;   -1,682
1069,736; 1233,288;    3,803;    0,955
1070,279; 1191,106;   -1,652;   -0,500
1070,822; 1281,470;    1,530;   -0,318
1071,364; 1404,470;    0,530;    1,318
1071,907; 1211,833;    0,348;    3,227
1072,450; 1079,470;    0,258;   -0,045
1072,992; 1111,833;   -0,561;    3,136
1073,535; 1264,742;    0,167;    2,136
1074,077; 1058,742;    2,985;    2,045
1074,619; 1037,470;    0,985;    0,591
1075,161; 1080,470;   -0,561;    1,500
1075,704; 1277,197;    0,258;    1,227
1076,246; 1051,288;    1,530;    0,682
1076,788;  973,106;   -1,015;    1,773
1077,330; 1032,288;   -2,106;    2,136
1077,872; 1033,015;   -1,924;    0,955
1078,414; 1268,652;    3,712;    0,773
1078,956; 1019,924;    0,167;   -0,227
1079,498; 1264,833;    0,439;    0,318
1080,040;  989,742;    0,985;   -1,318
1080,581;  929,288;    0,621;   -0,318
1081,123;  855,106;   -0,106;   -0,773
1081,665;  893,742;    3,803;   -0,955
1082,206; 1193,106;    3,258;   -0,500
1082,748; 1056,561;    3,258;    2,045
1083,289;  927,288;    0,167;    1,318
1083,831;  865,470;    0,258;    0,227
1084,372;  918,833;    0,894;    0,591
1084,913;  918,652;    3,348;    0,864
1085,455;  866,288;    1,530;   -2,045
1085,996;  849,106;    0,530;    0,136
1086,537;  884,652;    0,985;    0,864
1087,078;  900,652;    0,439;   -2,136
1087,619;  950,197;   -1,652;    0,227
1088,160;  878,561;    1,439;    1,318
1088,701;  853,379;   -0,742;    0,682
1089,242;  806,742;   -0,561;   -2,227
1089,783;  903,015;   -0,561;    1,409
1090,324;  874,833;   -0,833;    0,682
1090,865;  763,379;   -1,924;   -0,409
1091,405;  720,379;   -0,561;    2,227
1091,946;  754,379;   -0,197;   -0,955
1092,487;  684,833;   -1,288;   -1,409
1093,027;  860,106;    1,803;   -1,500
1093,568;  723,924;    2,258;    1,227
1094,108;  814,561;    0,621;    1,773
1094,649;  758,197;   -0,470;    0,136
1095,189;  690,561;    1,167;   -0,682
1095,729;  659,015;    0,712;    0,955
1096,269;  644,470;    1,258;   -0,955
1096,810;  954,924;   -0,197;    0,500
1097,350;  801,924;   -0,561;   -0,773
1097,890;  700,106;    2,985;    1,227
1098,430;  954,379;    4,985;    2,864
1098,970;  837,742;    1,894;    1,682
1099,510;  692,833;   -0,833;   -2,318
1100,050;  627,106;    0,258;   -1,591
1100,589;  598,924;    0,076;   -0,318
1101,129;  723,106;    0,894;   -0,955
1101,669;  890,288;    2,803;    2,136
1102,209;  709,106;    1,530;    2,227
1102,748;  660,197;    3,439;    0,955
1103,288;  660,924;    0,712;   -1,227
1103,827;  680,015;    3,530;   -2,227
1104,367;  569,561;    1,712;   -2,409
1104,906;  541,561;   -1,015;   -1,136
1105,445;  615,197;    0,985;   -1,136
1105,985;  565,106;   -0,652;    1,500
1106,524;  606,742;    1,530;   -0,682
1107,063;  584,561;    1,167;    1,409
1107,602;  538,833;    1,894;   -1,500
1108,141;  481,833;    1,621;    1,500
1108,680;  590,288;    3,985;   -0,591
1109,219;  532,288;    0,167;   -0,500
1109,758;  535,015;    4,167;    0,682
1110,297;  505,833;   -1,106;   -0,682
1110,836;  452,106;    1,439;    0,955
1111,375;  594,652;    0,348;    0,409
1111,913;  624,652;    0,985;    0,773
1112,452;  565,197;    0,894;    0,136
1112,991;  454,924;    1,076;    1,955
1113,529;  416,106;    0,167;   -0,045
1114,068;  485,015;    0,439;    2,955
1114,606;  397,379;   -0,561;   -0,955
1115,144;  548,742;    1,530;    1,045
1115,683;  492,015;    1,985;    0,318
1116,221;  530,652;    2,076;   -0,864
1116,759;  460,379;    1,621;   -0,864
1117,297;  638,924;    1,621;    1,864
1117,836;  450,561;    1,985;   -1,227
1118,374;  462,561;    0,258;   -0,682
1118,912;  419,561;    0,439;    2,682
1119,450;  405,652;    0,985;    0,864
1119,988;  449,470;    3,348;    2,136
1120,525;  880,379;    7,258;    3,318
1121,063;  603,015;    0,530;    1,864
1121,601;  425,652;    1,076;   -1,227
1122,139;  377,742;    1,076;   -2,045
1122,676;  566,742;   -1,652;    2,773
1123,214;  510,106;    0,712;    4,409
1123,751;  336,652;    0,621;    2,227
1124,289;  448,288;    0,894;   -0,409
1124,826;  340,742;   -0,379;    0,227
1125,364;  272,288;    0,712;   -0,955
1125,901;  453,197;    6,258;    1,227
1126,438;  537,379;    3,530;    0,955
1126,975;  292,379;    2,985;   -0,773
1127,513;  359,652;    2,621;    2,136
1128,050;  276,106;   -0,561;   -0,682
1128,587;  367,106;    1,348;   -0,227
1129,124;  401,742;   -0,015;    1,318
1129,661;  276,833;   -1,924;    0,227
1130,198;  440,561;    2,439;    0,773
1130,734;  388,288;   -0,379;    1,409
1131,271;  255,106;   -1,197;    0,864
1131,808;  420,288;    1,621;    3,045
1132,345;  305,742;    4,530;    0,318
1132,881;  189,742;   -0,561;   -1,864
1133,418;  311,561;    0,348;   -1,136
1133,954;  249,288;    0,712;   -2,682
1134,491;  320,015;    1,712;   -0,773
1135,027;  230,470;    2,167;    0,864
1135,564;  315,561;    1,439;    2,955
1136,100;  295,561;   -0,742;    2,136
1136,636;  199,924;   -1,015;   -1,045
1137,172;  284,106;    0,894;   -1,045
1137,708;  213,470;   -1,561;   -1,045
1138,245;  222,470;    0,803;   -1,227
1138,781;  182,924;    1,803;   -3,318
1139,317;  244,197;    1,894;   -1,409
1139,852;  243,924;    3,076;    0,136
1140,388;  334,197;    2,076;   -0,409
1140,924;  232,015;    1,076;   -2,227
1141,460;  169,561;   -0,288;    0,136
1141,996;  125,197;   -0,652;    2,682
1142,531;  166,652;    1,076;    3,318
1143,067;  349,561;    1,167;    1,045
1143,602;  399,470;    3,439;   -0,318
1144,138;  261,652;    0,803;    1,045
1144,673;  154,015;    1,621;    1,409
1145,209;  213,106;    2,894;   -0,318
1145,744;  139,833;    0,803;    0,864
1146,279;  253,197;    1,530;   -0,136
1146,815;  182,379;    1,530;   -2,682
1147,350;  218,924;   -0,924;    0,045
1147,885;  143,561;   -1,924;   -1,318
1148,420;  149,015;    2,439;    0,773
1148,955;  137,742;   -1,470;    1,864
1149,490;  150,924;   -1,106;   -1,591
1150,025;  129,652;   -1,106;   -1,773
1150,560;  238,197;   -0,288;   -0,955
1151,094;  207,924;    0,258;   -0,591
1151,629;  202,924;   -3,742;    0,864
1152,164;  148,197;   -1,288;    1,318
1152,698;  113,197;    1,258;   -0,136
1153,233;   78,197;   -1,379;   -0,682
1153,767;  118,833;   -0,288;   -2,318
1154,302;  160,197;   -0,379;    1,773
1154,836;  160,015;    0,803;   -2,136
1155,371;  200,833;    2,258;    3,682
1155,905;  164,561;    1,985;    1,682
1156,439;  138,561;    0,530;   -0,500
1156,973;  161,924;    0,439;    0,318
1157,507;  100,106;   -1,742;    0,682
1158,042;  127,652;   -0,652;    1,045
1158,576;  170,470;   -0,561;    1,773
1159,110;  165,561;    0,076;    2,409
1159,643;  133,742;   -2,470;   -0,045
1160,177;   86,106;   -2,015;    1,500

