
Integration time [ms]:   0,050
Averaging Nr. [scans]: 11
Smoothing Nr. [pixels]: 0
Data measured with spectrometer [name]: 7318044SP
Wave   ;Sample   ;Dark     ;Reference
[nm]   ;[counts] ;[counts] ;[counts] 

186,757;   -2,734;   38,161;    1,318
187,357;   36,980;   26,706;    0,955
187,958;   10,799;   17,252;   -1,591
188,558;   58,249;   12,979;   -1,227
189,159;   32,278;   10,070;   -4,500
189,759;    6,236;    5,797;   -3,591
190,360;    8,385;    6,797;   -2,136
190,960;   44,822;    5,706;   -4,136
191,560;   54,570;    2,614;   -6,591
192,161;  279,603;    5,885;   -3,500
192,761;  121,614;    5,520;   -3,227
193,361;   75,304;    3,065;   -3,773
193,962;  136,451;    1,612;   -2,682
194,562;   62,379;   -0,114;   -3,955
195,162;  101,363;   -0,567;   -2,227
195,762;  266,805;    2,433;   -0,045
196,362;  207,907;    1,706;   -2,500
196,963;   79,539;    1,706;   -0,864
197,563;  144,894;    1,252;   -0,955
198,163;  102,224;   -0,111;   -0,682
198,763;  125,567;   -0,020;   -0,500
199,363;  227,196;    3,616;   -0,500
199,963;  193,194;    2,162;    0,409
200,563;  169,338;    6,344;   -1,409
201,163;  152,415;    5,435;   -0,227
201,763;  243,555;    1,435;    0,318
202,363;  175,961;    0,980;    1,500
202,963;  291,709;    1,526;    1,045
203,563;  408,103;    0,344;    0,500
204,162;  246,228;    1,889;   -1,864
204,762;  232,319;    2,071;    0,591
205,362;  212,324;    0,708;    1,955
205,962;  311,225;    3,435;    1,955
206,562;  319,190;    1,889;    2,318
207,161;  292,652;    1,708;    0,318
207,761;  436,769;    4,435;    2,409
208,361;  327,336;    1,889;    1,409
208,960;  412,669;    2,889;    1,500
209,560;  492,617;    0,435;    1,591
210,160;  470,681;    5,071;    1,864
210,759;  450,902;    0,708;    1,227
211,359;  452,926;   -0,474;    1,045
211,958;  723,706;    3,526;    2,045
212,558;  803,473;    0,799;    1,864
213,157;  639,765;   -0,929;    1,500
213,757; 1096,977;    5,617;   -0,227
214,356;  792,238;    1,708;   -0,409
214,956; 1143,505;    3,526;    0,409
215,555;  784,565;    0,617;    2,136
216,154;  709,143;   -0,292;   -0,591
216,754;  728,490;    1,253;    0,773
217,353;  870,370;   -0,383;   -1,045
217,952;  737,528;    2,072;    0,318
218,552;  958,900;    0,254;   -0,773
219,151;  871,216;   -1,110;    0,955
219,750;  894,807;    0,890;   -0,227
220,349; 1056,909;   -2,292;    1,045
220,948; 1084,573;    1,163;    1,136
221,548; 1149,758;    0,617;    1,227
222,147; 1281,931;   -1,292;   -0,409
222,746; 1570,457;    1,254;   -0,955
223,345; 1444,317;   -1,019;    0,500
223,944; 1485,214;    1,163;    0,773
224,543; 1685,286;    4,072;   -1,409
225,142; 1804,999;    1,345;    0,136
225,741; 1714,968;    1,163;    1,045
226,340; 1756,861;    1,254;   -0,955
226,939; 2267,550;    2,708;   -0,136
227,538; 2313,248;    1,163;   -0,773
228,137; 2430,904;    0,435;    0,864
228,735; 2641,077;    0,435;    1,227
229,334; 2384,878;   -0,474;   -0,227
229,933; 2768,507;    0,799;    0,591
230,532; 2907,315;   -1,201;   -0,409
231,131; 2965,916;    1,253;    0,318
231,729; 3149,647;    1,163;   -2,318
232,328; 3353,043;    0,435;   -1,500
232,927; 3491,287;    4,526;   -0,500
233,525; 3664,948;    0,981;    0,045
234,124; 3887,645;    1,890;   -1,591
234,723; 3946,440;    1,617;   -1,045
235,321; 4168,361;    1,163;    0,136
235,920; 4449,291;    2,526;   -1,227
236,518; 4729,848;    1,072;    0,318
237,117; 5030,006;    2,890;   -0,227
237,715; 5219,763;    1,163;   -0,500
238,314; 5256,613;    1,708;   -2,318
238,912; 5338,646;    0,526;   -1,409
239,510; 5435,885;    1,162;   -1,227
240,109; 5640,889;   -0,474;    3,773
240,707; 5735,807;   -0,474;    1,227
241,305; 6236,263;   -0,383;    0,136
241,904; 6432,808;   -0,292;   -2,045
242,502; 6410,107;    3,253;   -0,227
243,100; 6384,837;    3,344;   -0,955
243,698; 6645,048;    2,799;    1,682
244,297; 6859,887;   -0,656;    0,682
244,895; 6683,253;   -0,474;   -2,318
245,493; 7063,668;    2,981;   -0,591
246,091; 7149,419;    5,163;   -1,318
246,689; 7176,502;    2,163;    0,591
247,287; 7356,369;   -0,019;   -1,136
247,885; 7719,448;   -1,019;    1,227
248,483; 7852,600;   -0,201;   -0,500
249,081; 8008,212;    0,981;    1,591
249,679; 8208,938;   -1,019;    1,682
250,277; 8495,297;   -2,292;    0,864
250,875; 8480,664;    0,617;   -1,045
251,473; 8573,957;   -0,019;    0,500
252,071; 8764,328;   -0,383;    1,045
252,669; 8948,760;   -1,565;    0,318
253,267; 9273,866;    1,618;    0,773
253,864; 9268,551;    0,617;    0,682
254,462; 9076,240;    1,526;    1,591
255,060; 9128,289;    0,072;    1,318
255,658; 9523,578;   -3,292;   -0,136
256,255; 9945,815;   -0,201;   -2,045
256,853; 9795,720;    2,345;    1,409
257,451; 9803,651;    1,981;    1,864
258,048;10031,972;    2,072;    1,864
258,646; 9825,868;    0,436;   -1,045
259,243;10076,811;    2,981;    2,227
259,841;10126,190;    1,799;    0,318
260,438;10012,423;    0,254;    0,864
261,036;10879,292;    0,617;    1,409
261,633;10789,504;    1,526;    2,227
262,231;10511,949;   -0,110;   -0,045
262,828;10619,142;   -0,383;    1,136
263,425;10653,410;   -1,928;   -0,591
264,023;10929,653;    1,436;    0,045
264,620;10452,215;    1,526;   -0,318
265,217;10817,586;    2,890;    3,136
265,815;10982,013;    2,527;    2,136
266,412;10702,512;    0,072;    0,136
267,009;10767,643;    0,526;    0,773
267,606;10648,959;    0,345;   -0,955
268,203;10667,723;   -0,383;   -0,591
268,801;11017,148;   -0,474;    0,591
269,398;11320,415;   -0,564;    2,500
269,995;11332,415;    0,890;    1,591
270,592;11071,184;    0,799;   -0,500
271,189;11341,085;    1,981;    0,409
271,786;11461,997;    2,072;    1,227
272,383;11262,855;   -0,383;    0,227
272,980;11508,536;    1,617;    0,318
273,577;12063,719;    2,162;    1,227
274,174;11559,968;    1,435;    2,591
274,771;11577,760;    1,890;   -0,773
275,367;11718,983;    3,253;    1,409
275,964;11679,515;   -0,565;   -0,500
276,561;11823,331;   -2,474;   -1,045
277,158;12071,120;    1,799;   -1,773
277,755;12159,394;   -0,110;    0,409
278,351;11480,496;    0,436;   -1,500
278,948;11880,352;   -0,201;    0,045
279,545;11925,920;    0,527;    2,318
280,141;12562,435;    1,254;   -2,045
280,738;12459,288;    2,435;   -0,136
281,334;12762,688;   -0,383;    0,591
281,931;12087,298;    2,890;   -1,318
282,528;12206,380;    4,072;   -0,500
283,124;13031,422;    3,345;   -0,500
283,721;12927,446;    0,709;    1,409
284,317;12750,282;    0,163;    2,500
284,913;13350,793;   -0,110;    0,591
285,510;13586,248;    2,890;   -0,318
286,106;13605,832;    2,345;   -0,955
286,703;13160,930;    0,072;    1,955
287,299;13386,917;    1,254;   -0,591
287,895;13683,703;    0,890;   -1,045
288,491;14348,324;    0,163;    2,136
289,088;14001,095;    0,163;    2,409
289,684;14026,851;    2,890;    1,500
290,280;14086,774;    1,890;    0,682
290,876;14133,628;    0,163;    5,500
291,472;14047,517;    2,163;    2,227
292,068;14139,031;    1,254;    0,227
292,665;13849,008;   -0,564;    0,773
293,261;13373,465;   -1,292;    2,136
293,857;13828,393;    4,072;    2,136
294,453;13827,953;   -0,928;    0,955
295,049;13673,554;    0,253;    1,955
295,644;13666,576;   -1,292;    0,136
296,240;13606,490;    0,162;   -0,136
296,836;13647,212;   -0,747;    0,318
297,432;13964,911;    2,980;   -0,500
298,028;13959,159;    0,435;    0,773
298,624;14470,783;    0,889;    1,864
299,220;14800,765;    0,435;    0,591
299,815;14394,569;    0,526;   -0,409
300,411;14160,554;    0,435;    1,773
301,007;14194,043;    1,889;    0,227
301,602;14254,287;    2,071;   -2,318
302,198;14405,140;    1,435;   -0,773
302,794;14749,343;    1,526;   -0,500
303,389;14968,277;    1,071;    1,045
303,985;15024,451;    1,253;    1,409
304,580;14964,152;    0,889;    1,591
305,176;14982,066;    0,344;    0,136
305,771;14930,812;   -0,929;   -1,227
306,367;14695,565;    3,071;    0,136
306,962;15096,651;    2,889;    1,500
307,558;14796,221;    2,435;    0,136
308,153;14725,893;   -0,383;   -1,136
308,748;15002,627;    0,162;    1,682
309,344;14971,507;    0,253;   -1,318
309,939;15064,373;    2,071;   -1,318
310,534;15418,349;   -2,020;   -1,682
311,130;15351,702;   -0,656;   -2,500
311,725;15071,042;    0,526;   -0,500
312,320;15403,544;    1,253;    0,045
312,915;15234,812;    2,890;   -1,045
313,510;15307,175;    0,526;   -0,500
314,105;15858,622;   -3,565;    1,409
314,700;15229,508;   -1,656;   -1,045
315,295;14805,243;   -0,020;    0,045
315,890;14321,816;   -0,292;    0,864
316,485;14681,514;    0,253;   -0,318
317,080;14816,213;   -0,929;    1,591
317,675;15435,098;    3,071;   -0,682
318,270;14720,001;    6,889;    3,318
318,865;14765,629;    2,435;    3,045
319,460;14591,163;   -1,565;    0,591
320,055;14887,428;   -2,565;   -1,227
320,650;14506,171;   -1,838;   -0,591
321,244;14544,743;    0,889;   -1,409
321,839;15582,261;    0,980;   -0,227
322,434;15475,544;   -0,111;   -1,591
323,029;15043,804;   -0,474;    1,591
323,623;14837,718;    0,798;    0,773
324,218;14603,926;    2,707;    1,409
324,812;14553,351;    0,889;    1,591
325,407;14314,709;   -0,929;    2,045
326,002;14178,965;    0,526;   -0,409
326,596;14532,665;   -0,656;    1,318
327,191;14801,832;   -0,383;   -1,045
327,785;14311,392;   -0,747;   -0,227
328,379;14586,865;   -0,383;    0,136
328,974;14383,898;    1,798;   -3,955
329,568;14612,938;    2,889;   -2,409
330,163;14385,854;    2,435;    1,045
330,757;14774,960;    0,253;    1,591
331,351;14069,173;   -0,292;    0,682
331,945;14354,425;   -0,383;    1,409
332,540;13912,909;    1,617;   -0,591
333,134;14057,308;    3,344;    0,773
333,728;14304,785;    2,799;    0,318
334,322;14668,154;    0,889;   -0,864
334,916;13904,732;    0,344;    0,955
335,510;14271,007;   -0,111;   -0,136
336,105;14531,105;   -0,929;    1,591
336,699;14152,843;   -1,292;    0,591
337,293;14079,863;    1,071;    0,318
337,887;14287,486;    0,071;    1,955
338,481;14344,024;    2,980;    0,591
339,074;14510,087;    2,071;    2,682
339,668;14255,557;   -0,110;    1,227
340,262;14537,804;    7,708;    3,227
340,856;14021,510;    1,708;   -0,682
341,450;13350,190;    0,708;    1,864
342,044;14316,500;    1,799;    0,136
342,637;14030,798;    1,162;   -2,136
343,231;13868,354;   -1,474;    0,682
343,825;13812,562;   -0,747;   -0,591
344,419;13755,112;   -0,474;    0,500
345,012;13436,069;    2,889;    4,045
345,606;13433,258;   -0,656;    1,591
346,199;13291,817;   -0,111;   -0,227
346,793;12744,015;    2,525;    2,045
347,386;12974,582;    0,889;   -1,136
347,980;12953,128;   -0,838;   -0,045
348,573;12706,869;   -1,748;    0,409
349,167;12298,865;    6,161;    4,773
349,760;12682,279;    2,252;    2,682
350,354;12666,732;    1,616;    1,136
350,947;12360,397;    2,798;    1,682
351,540;12020,686;    0,616;   -1,409
352,134;11948,312;   -1,111;    1,136
352,727;12013,540;   -0,657;    1,136
353,320;11789,842;    2,343;    0,591
353,913;11625,016;   -1,929;    1,864
354,507;11775,786;    0,434;   -1,227
355,100;11795,099;    0,071;    0,864
355,693;10882,422;    4,798;    2,409
356,286;10936,121;    0,980;    2,773
356,879;11346,932;   -0,475;    1,227
357,472;10930,081;    0,980;    1,500
358,065;11121,276;    3,161;    2,500
358,658;11057,378;    0,798;    2,318
359,251;10669,758;    0,252;   -0,591
359,844;10033,614;    0,343;   -1,136
360,437;10174,810;    0,252;    0,045
361,030;10520,089;    0,525;   -0,682
361,623;10020,530;    0,434;    0,318
362,215;10076,102;    0,979;    2,045
362,808; 9936,880;   -2,293;   -1,682
363,401;10118,156;    0,798;    0,136
363,994; 9819,047;    3,252;   -1,500
364,586; 9727,562;    0,888;   -1,500
365,179; 9985,442;   -0,203;   -1,136
365,772; 9406,803;   -0,930;    2,045
366,364; 9708,651;    1,524;   -3,227
366,957; 9943,807;    1,342;   -0,045
367,549; 9946,193;   -0,203;   -0,864
368,142; 9580,709;    0,978;   -1,500
368,734; 9793,682;    2,523;   -2,136
369,327; 9736,976;    2,341;   -0,500
369,919; 9620,390;   -1,659;    0,409
370,512; 9332,653;   -1,023;   -0,500
371,104; 9045,347;    2,704;    1,591
371,696; 9243,607;    1,703;   -0,955
372,289; 9372,586;    0,157;    1,136
372,881; 9531,141;    1,156;    1,318
373,473; 9461,263;    4,064;    1,136
374,066; 9229,880;    1,336;    0,500
374,658; 9024,859;    0,879;    1,136
375,250; 9446,385;   -1,668;   -1,409
375,842; 9272,301;   -0,124;   -0,045
376,434; 9129,716;   -2,762;   -0,409
377,026; 9804,737;   -1,855;   -2,500
377,618; 9674,247;    0,779;   -0,682
378,210; 9517,002;    3,141;   -1,955
378,802; 9355,714;    3,412;   -0,591
379,394; 9267,729;    3,411;    0,682
379,986; 9954,502;    1,138;   -0,955
380,578;10099,050;    1,410;    0,773
381,170; 9276,722;    0,320;    0,045
381,762; 9268,360;   -0,224;    1,409
382,354; 9490,174;   -0,223;   -1,318
382,945; 9636,138;    0,870;    0,318
383,537; 9785,601;    1,144;   -1,955
384,129; 9775,155;    0,963;   -1,136
384,721;10018,331;    0,418;    0,955
385,312; 9936,240;   -1,399;   -0,955
385,904; 9963,135;   -0,945;    1,591
386,496; 9336,665;    0,691;    1,045
387,087; 9461,239;    0,418;    2,500
387,679; 9527,903;   -0,401;    0,045
388,270; 9627,617;   -2,401;    2,045
388,862; 9763,786;   -0,401;   -0,318
389,453; 9664,610;    1,054;    1,045
390,045; 9970,668;    3,236;   -2,682
390,636; 9917,315;    0,144;   -0,591
391,227; 9742,603;    2,054;   -0,045
391,819; 9843,747;    0,781;    0,773
392,410; 9914,008;    0,600;    0,045
393,001; 9864,006;    1,600;   -1,591
393,593;10153,712;    0,600;   -0,045
394,184; 9975,387;    0,873;   -0,409
394,775; 9936,974;    1,146;    2,136
395,366;10143,272;    1,782;    0,773
395,957;10183,149;   -2,400;    0,136
396,548;10553,369;    1,054;    2,682
397,139;10853,394;    2,236;    0,591
397,730;10542,859;    0,873;    0,955
398,321;10619,789;    0,509;    0,955
398,912;10617,890;   -0,764;    0,136
399,503;10715,088;   -1,945;   -1,409
400,094;10096,257;   -1,582;    1,682
400,685; 9993,879;    3,600;    0,045
401,276;10073,357;   -0,400;   -0,955
401,867;10383,700;   -1,127;    0,773
402,458;10516,943;    1,509;   -2,318
403,048;10496,850;    0,146;    0,591
403,639;10057,951;    1,509;    0,864
404,230;10303,445;    0,691;    0,318
404,821;10228,724;   -0,127;    0,045
405,411;10332,364;   -0,763;   -2,591
406,002; 9875,264;    3,237;   -1,136
406,592; 9660,021;    2,691;    0,045
407,183;10039,970;    0,328;   -1,500
407,774; 9937,736;    1,419;   -0,136
408,364;10365,354;    2,600;    0,409
408,954; 9872,141;   -0,036;    1,227
409,545; 9913,934;    1,873;    1,045
410,135; 9373,716;   -1,581;    0,500
410,726; 9603,809;    0,783;    0,318
411,316;10035,198;    2,237;    0,773
411,906; 9662,600;    0,146;   -0,409
412,497; 9063,138;   -0,490;   -0,045
413,087; 9700,857;    0,783;   -0,227
413,677;10151,933;   -2,490;    3,864
414,267; 9985,230;   -1,035;    1,409
414,857; 9999,553;    0,419;    4,227
415,448;10305,751;   -0,763;    0,500
416,038; 9961,917;   -2,945;   -0,591
416,628; 9944,271;    0,965;    0,409
417,218; 9324,629;   -1,762;    3,318
417,808; 9630,680;    0,965;   -0,409
418,398;10209,722;   -1,035;    2,682
418,988;10229,367;   -2,217;    0,591
419,578;10504,223;    3,601;    1,409
420,168;10849,798;    0,692;   -0,955
420,757;10387,966;    0,964;   -1,500
421,347;10051,917;    1,601;   -0,227
421,937;10227,561;    3,329;    1,409
422,527;10144,762;    2,602;   -0,773
423,116; 9932,928;    2,692;   -0,045
423,706;10331,733;    2,965;    0,318
424,296;10362,261;    1,601;    0,682
424,885;10807,807;    1,510;   -3,045
425,475;11120,115;    1,147;   -2,864
426,065;11045,222;   -1,489;   -0,318
426,654;10630,363;    0,329;   -0,318
427,244;10737,637;    1,147;    1,409
427,833;10072,669;    1,056;   -0,500
428,423;10649,782;    0,147;    1,136
429,012;11521,375;    2,420;   -1,136
429,601;10944,799;    2,057;    0,136
430,191;11219,612;    2,511;    4,318
430,780;10793,857;   -1,671;   -0,409
431,369;10652,262;    1,329;   -0,045
431,959;11400,065;    1,693;    0,500
432,548;11185,669;   -1,398;   -0,045
433,137;11389,952;    0,329;   -1,318
433,726;11911,240;    0,148;    0,500
434,315;11239,283;    0,148;    2,409
434,905;11320,564;    0,693;    1,409
435,494;11166,518;    3,148;    0,955
436,083;11705,249;    1,420;   -0,955
436,672;11556,169;    1,148;    0,500
437,261;11058,958;    0,512;   -1,955
437,850;11176,931;   -1,125;    0,682
438,439;11154,575;    2,239;    1,955
439,027;10967,188;    3,421;    1,773
439,616;11402,573;    2,239;    1,227
440,205;11308,742;    0,057;   -2,136
440,794;11352,251;   -0,306;   -0,045
441,383;11661,157;    1,603;   -0,591
441,971;11504,669;   -0,306;    0,591
442,560;11325,269;    0,603;   -1,773
443,149;11103,963;    3,060;   -1,318
443,737;11254,764;    0,968;   -2,318
444,326;11519,749;    0,331;    0,318
444,915;11561,830;   -1,851;    0,864
445,503;12015,101;    0,058;   -0,318
446,092;11211,078;    7,876;    2,136
446,680;11821,023;    1,876;    0,318
447,269;12047,339;   -1,487;   -0,318
447,857;11757,054;    2,240;   -1,773
448,445;11867,691;    2,149;    1,318
449,034;12119,219;    0,876;   -1,136
449,622;12261,500;    1,240;    3,500
450,210;11383,410;    3,149;    2,227
450,799;11959,106;    2,604;   -0,591
451,387;11914,388;    1,786;   -0,591
451,975;11489,477;   -1,305;    0,864
452,563;11617,291;    0,422;    2,318
453,151;11671,355;   -1,032;   -1,227
453,739;11601,669;   -1,577;    0,136
454,328;11383,253;    0,604;   -2,136
454,916;11029,149;    1,150;   -0,136
455,504;11259,237;    3,513;    1,227
456,092;11463,706;    2,150;   -1,591
456,679;11464,698;    0,604;    0,682
457,267;11307,958;    3,604;    1,045
457,855;11538,299;    3,241;    1,409
458,443;11289,321;   -0,304;    1,682
459,031;11404,648;    1,332;    2,409
459,619;11963,141;   -3,577;    2,864
460,206;12106,160;   -0,759;    2,045
460,794;12175,493;   -0,668;   -0,227
461,382;12432,235;    0,878;   -0,864
461,970;11985,169;    0,605;    1,864
462,557;12029,640;    0,878;   -0,682
463,145;12229,513;   -0,304;   -1,682
463,732;12380,421;    2,514;   -1,045
464,320;12325,384;    1,514;   -3,045
464,907;11956,911;    0,423;   -0,773
465,495;11819,830;    2,696;   -1,227
466,082;12009,028;    2,060;   -0,045
466,670;11881,699;    2,605;    1,227
467,257;12353,056;    0,060;    2,045
467,844;12541,620;    1,514;    0,045
468,432;12552,778;   -0,031;    3,500
469,019;11993,436;    1,606;   -1,773
469,606;12475,904;    0,969;    3,682
470,193;12262,903;    2,151;    0,227
470,780;11789,715;    0,333;    0,864
471,368;12182,174;   -1,212;   -0,773
471,955;11927,734;    1,060;   -0,682
472,542;11555,351;   -0,303;   -1,136
473,129;11767,115;   -0,485;    0,136
473,716;11498,568;    0,060;    0,591
474,303;11729,040;    1,333;   -0,864
474,890;12086,380;    2,333;   -0,500
475,477;12052,639;   -0,576;    0,409
476,064;11976,611;    0,697;   -1,591
476,650;11902,846;    2,152;    0,318
477,237;11762,391;    1,879;    0,955
477,824;11921,293;    3,879;    0,864
478,411;11986,896;    0,606;   -0,318
478,997;12194,909;    0,606;   -0,773
479,584;12234,675;   -0,666;   -0,409
480,171;13006,755;    1,243;   -0,773
480,757;12680,381;   -0,848;    0,773
481,344;13004,103;    0,334;    0,409
481,931;12485,937;   -0,393;    1,045
482,517;13541,740;    0,425;    0,318
483,104;14208,551;    1,334;    2,864
483,690;14621,577;    0,243;    0,045
484,276;15054,251;    0,698;    0,227
484,863;14745,413;    2,152;    1,136
485,449;15445,676;    0,152;    0,318
486,035;15395,470;   -0,666;   -0,136
486,622;15861,928;   -2,393;    0,045
487,208;15849,559;    1,334;    1,500
487,794;15707,390;    0,971;    0,318
488,380;15789,185;    0,698;   -1,409
488,967;15881,242;   -1,120;   -0,409
489,553;15912,776;   -1,029;   -1,409
490,139;16119,487;    0,971;    0,773
490,725;15533,712;    0,789;   -0,227
491,311;15027,182;    1,516;    3,045
491,897;14179,298;   -0,665;    1,500
492,483;13933,581;    0,426;    1,227
493,069;13637,844;    5,426;    0,864
493,655;13622,311;    1,789;    0,682
494,241;13524,781;    1,517;   -0,955
494,826;13980,859;    0,335;   -1,045
495,412;13395,074;    0,335;   -0,682
495,998;13555,778;    0,971;   -0,318
496,584;13711,429;    2,244;    1,045
497,169;13703,852;    2,335;   -0,682
497,755;13656,306;    1,244;    1,227
498,341;14259,571;    2,153;    0,318
498,926;13772,401;    2,881;    1,955
499,512;14003,557;   -0,028;    2,955
500,097;14165,451;   -0,574;   -0,318
500,683;14121,168;   -0,028;    2,136
501,268;14500,491;    1,881;   -0,955
501,854;14196,741;   -0,119;    1,227
502,439;14124,614;   -0,573;   -1,773
503,024;14319,957;    1,608;    0,500
503,610;14397,874;    1,335;   -0,682
504,195;14438,000;    1,245;    1,955
504,780;14502,524;    2,335;    1,227
505,366;14302,928;    4,063;    2,864
505,951;14008,884;   -1,119;    1,045
506,536;14026,503;    1,427;   -3,682
507,121;14028,798;    1,699;   -0,318
507,706;14592,278;   -0,392;    1,045
508,291;15028,711;   -2,937;    1,136
508,876;14455,209;   -0,482;    2,591
509,461;13848,032;    1,427;   -0,773
510,046;14298,394;   -0,391;    0,318
510,631;14580,160;   -0,119;   -0,773
511,216;14246,336;   -0,664;   -0,500
511,801;14610,858;   -0,755;    2,591
512,386;14910,012;    0,972;    0,500
512,971;14848,795;    0,427;    0,955
513,555;14361,601;    1,154;   -1,500
514,140;15227,330;    1,336;   -3,136
514,725;15253,113;    1,791;   -1,136
515,309;15386,880;    1,064;    0,318
515,894;14763,021;   -0,300;   -2,227
516,479;15255,742;    1,973;   -0,955
517,063;15099,302;    0,882;    1,227
517,648;15251,699;    0,155;   -1,136
518,232;14854,693;   -1,300;   -1,409
518,817;15178,858;    1,337;    1,682
519,401;15413,138;    0,700;    0,591
519,985;14911,979;    2,700;    1,136
520,570;14784,165;   -0,118;   -1,955
521,154;15112,978;    0,064;    0,591
521,738;15279,760;    1,064;    2,409
522,323;15906,654;   -0,390;    1,682
522,907;15646,702;    2,428;   -0,136
523,491;15303,727;    1,155;    0,955
524,075;15270,893;    0,428;    0,591
524,659;15407,782;    0,973;    0,591
525,243;14782,667;    0,883;    0,409
525,827;15038,141;    0,883;   -0,045
526,411;15980,237;    1,155;   -0,136
526,995;16225,288;    0,337;    1,409
527,579;15785,056;    1,974;   -1,045
528,163;16103,952;    0,428;   -1,500
528,747;16000,091;    1,065;   -0,773
529,331;16327,173;    0,883;   -1,409
529,915;16569,275;    2,338;    0,955
530,499;16526,423;    0,247;    1,227
531,082;16155,221;    1,065;    1,591
531,666;15567,387;    0,520;    0,773
532,250;16315,166;    0,428;    2,682
532,833;16675,402;    0,610;    2,773
533,417;16542,725;    1,247;    0,864
534,001;16527,556;    0,429;   -0,318
534,584;17291,221;    1,974;    0,500
535,168;17092,659;    3,247;    1,409
535,751;17166,065;    4,520;    0,045
536,334;16544,141;    4,520;   -0,409
536,918;17204,058;    1,974;    1,591
537,501;17339,086;    1,520;    1,318
538,085;17290,508;    1,702;    1,045
538,668;17481,401;    0,883;    2,409
539,251;17831,385;    3,156;    3,773
539,834;17836,442;    0,156;    0,773
540,418;17728,258;    3,247;    4,318
541,001;17896,702;    2,702;    1,773
541,584;17951,158;    1,429;    2,227
542,167;17645,325;    0,702;    2,955
542,750;17788,798;    0,793;   -0,773
543,333;17311,226;    1,429;    2,136
543,916;18177,255;   -0,298;    2,500
544,499;18819,670;    2,520;    0,227
545,082;18799,844;    0,248;    3,591
545,665;19002,991;   -0,207;    1,500
546,248;19355,499;    0,520;   -0,318
546,830;18983,332;   -1,752;    1,955
547,413;19445,039;    0,157;   -0,773
547,996;20010,026;    0,157;    0,500
548,579;19763,136;   -0,843;    0,955
549,161;19547,401;    0,884;    2,682
549,744;19368,785;    0,612;    0,409
550,326;19934,893;    0,885;   -1,136
550,909;19613,251;    2,339;    0,591
551,492;20056,933;    0,521;    0,227
552,074;19827,715;   -0,024;   -1,318
552,657;20413,600;    2,430;    0,045
553,239;20181,915;   -3,024;   -0,773
553,821;20091,200;   -1,570;    1,045
554,404;19555,013;   -0,024;    1,136
554,986;19924,751;    2,248;    1,045
555,568;20598,884;    0,430;   -0,955
556,151;19746,322;    4,067;   -0,227
556,733;19972,527;   -1,388;   -0,864
557,315;20461,252;    4,703;    0,500
557,897;20288,458;    0,521;   -0,500
558,479;20414,599;    1,703;    1,318
559,061;20545,217;    1,067;   -0,864
559,643;20894,338;   -0,297;    0,045
560,225;21301,876;   -0,388;    2,864
560,807;21352,519;    0,340;    0,318
561,389;20790,355;   -1,206;    2,318
561,971;21536,677;   -0,660;    2,136
562,553;21306,985;    0,613;    1,591
563,135;21469,902;    1,249;    1,136
563,717;21096,224;    3,158;    1,136
564,298;21842,160;    3,976;   -0,045
564,880;21559,491;    0,340;   -1,409
565,462;21736,582;    1,977;    1,318
566,043;22972,336;   -0,933;    2,318
566,625;22501,509;    4,067;    1,227
567,207;22382,480;    0,704;    1,682
567,788;23554,159;   -0,114;    1,500
568,370;24431,883;   -1,841;   -0,500
568,951;24303,457;   -0,569;    0,227
569,533;25223,456;    0,977;   -0,500
570,114;25770,991;   -0,296;    0,682
570,695;26323,230;   -0,478;   -1,318
571,277;26889,786;   -0,205;   -1,682
571,858;27650,371;    2,704;   -1,136
572,439;28680,319;    0,795;   -1,045
573,021;28844,437;    0,432;   -2,773
573,602;29407,691;    1,795;    0,318
574,183;30395,949;   -0,114;    2,227
574,764;30629,073;    2,068;    0,409
575,345;31240,893;    0,250;   -0,136
575,926;31917,136;    2,704;    0,136
576,507;31935,773;    2,704;   -0,227
577,088;33021,558;    1,704;    1,682
577,669;33026,686;    1,704;    1,955
578,250;33821,677;   -0,750;   -1,045
578,831;34575,840;   -0,841;   -2,227
579,412;34823,033;   -1,205;    0,955
579,993;35851,025;    1,432;    0,227
580,573;36185,703;   -0,023;   -0,955
581,154;35097,182;    1,613;   -0,591
581,735;35991,735;    0,341;    0,773
582,315;35459,099;    0,523;    2,136
582,896;35820,709;   -1,750;    1,227
583,477;35336,094;    0,614;    1,227
584,057;35462,265;    1,159;    0,955
584,638;35779,844;   -2,750;    2,318
585,218;35782,248;    2,886;    2,682
585,799;35959,577;    1,977;   -0,227
586,379;35902,285;    1,250;    1,591
586,959;34642,743;    2,613;    0,318
587,540;33898,261;    0,432;    2,227
588,120;33304,077;   -1,113;   -0,045
588,700;32190,461;    2,977;    2,136
589,281;32508,728;    1,250;   -0,955
589,861;32434,267;   -0,296;   -1,682
590,441;32235,018;   -1,477;   -2,682
591,021;31130,835;    1,432;   -2,591
591,601;31354,077;    0,431;    0,500
592,181;31310,622;   -1,296;   -0,773
592,761;30620,974;    2,250;    1,409
593,341;30478,701;    1,522;    0,045
593,921;30458,525;   -0,569;    1,591
594,501;30326,958;    1,250;    1,318
595,081;30183,087;    0,522;   -0,318
595,661;30574,783;    1,068;    0,955
596,240;31097,474;   -1,023;    0,136
596,820;30654,074;    2,613;    1,955
597,400;30885,972;    1,977;    0,773
597,980;31173,621;   -0,750;    1,045
598,559;31146,583;    0,341;   -0,227
599,139;30779,271;   -0,750;   -1,227
599,718;30733,907;    0,795;   -0,409
600,298;30946,253;   -2,387;    0,682
600,877;31193,556;    4,795;    1,409
601,457;31489,883;    0,340;    1,136
602,036;31372,796;    1,795;    2,045
602,616;31650,067;    2,250;    1,682
603,195;31986,238;    0,431;    3,500
603,774;31444,528;   -0,296;    2,045
604,354;31338,330;    2,522;   -0,500
604,933;30838,597;    0,250;    1,864
605,512;30960,595;    2,340;    0,591
606,091;30942,691;    1,886;    3,773
606,671;31812,040;    0,249;    0,773
607,250;30805,329;    1,431;    3,136
607,829;31116,771;    1,158;    3,227
608,408;30930,459;    4,613;    2,591
608,987;29944,651;    2,704;    3,409
609,566;30245,246;    0,341;   -2,500
610,145;30325,197;    2,885;    0,682
610,723;30755,719;    1,613;    6,864
611,302;29912,120;    1,067;    1,682
611,881;29368,733;    5,158;   11,227
612,460;30239,635;    0,795;    3,955
613,039;30687,771;    1,703;    2,045
613,617;29352,747;    0,886;    4,773
614,196;29531,031;    1,613;    1,227
614,775;29849,721;    1,249;    2,409
615,353;29853,231;   -1,660;    0,864
615,932;29483,769;    0,249;    2,409
616,510;30147,985;    0,158;    0,591
617,089;29619,943;    8,794;   17,591
617,667;29280,596;    4,885;    6,136
618,246;29124,436;   -1,115;    1,318
618,824;29329,528;    1,612;   -0,955
619,402;28926,627;    0,431;   -1,773
619,981;29418,881;    1,067;   -1,045
620,559;29249,953;    0,794;    1,682
621,137;28826,062;    3,067;    1,864
621,715;28756,038;    3,703;   -0,682
622,293;28605,566;    1,885;   -0,773
622,871;29162,161;    0,340;    0,500
623,450;28668,421;    0,430;   -0,864
624,028;28555,887;   -0,388;   -0,955
624,606;28140,372;    2,339;    1,682
625,183;28541,948;   -0,661;   -1,136
625,761;28164,394;    1,885;    1,136
626,339;28427,200;    2,339;    2,591
626,917;28876,125;    0,339;   -0,045
627,495;28881,820;    2,794;    1,318
628,073;28333,272;    5,248;    2,864
628,650;27956,533;    3,067;    2,136
629,228;28440,329;    1,248;    4,409
629,806;27798,823;   -0,024;    1,136
630,383;28078,736;    0,066;   -0,318
630,961;27842,128;   -2,206;   -0,955
631,539;27579,595;   -2,479;    0,227
632,116;26726,219;   12,703;   15,409
632,694;27406,662;    4,885;    6,500
633,271;27707,788;    1,975;    2,682
633,848;27618,816;    1,430;    2,045
634,426;27717,489;    1,521;    1,773
635,003;26771,332;   -0,207;   -0,409
635,580;27090,571;    1,884;    3,682
636,158;27671,048;    3,793;    1,227
636,735;27603,458;    3,339;   -0,500
637,312;27790,643;    0,521;   -0,682
637,889;27880,959;    2,248;   -0,682
638,466;27379,066;    0,066;   -0,409
639,043;27390,672;    1,702;   -1,136
639,620;27669,903;    0,611;   -0,955
640,197;27960,324;    1,612;    1,682
640,774;28101,481;    1,430;    1,136
641,351;28516,821;    0,612;    1,136
641,928;27941,978;    2,794;    1,409
642,505;27574,590;    0,794;   -0,500
643,082;27720,020;    1,885;    1,227
643,658;26662,722;    1,157;    1,500
644,235;27428,425;   -2,479;    2,500
644,812;27717,128;    1,794;    0,773
645,388;27444,649;    1,612;    1,409
645,965;27519,170;    1,521;    1,682
646,542;27647,600;    3,430;   -0,227
647,118;27608,030;    3,703;   -0,955
647,695;27926,278;    0,339;    1,136
648,271;27816,890;   -2,115;    0,500
648,848;28138,774;    0,248;    2,227
649,424;27976,750;    0,976;    1,318
650,000;27707,271;   -0,388;   -1,045
650,577;27563,337;    0,158;   -0,955
651,153;28046,767;   -1,115;    0,955
651,729;29046,470;    0,521;    0,864
652,305;29222,536;    1,339;    2,773
652,881;34017,784;   -1,297;    1,136
653,458;41474,396;    0,249;    0,227
654,034;45734,190;    0,703;    1,591
654,610;47437,529;    0,339;    0,773
655,186;48850,959;    1,612;    3,045
655,762;48539,934;   -1,842;    0,409
656,338;48601,001;    0,703;    0,136
656,913;49598,704;   -0,297;    0,409
657,489;48950,770;    0,249;   -0,318
658,065;48962,109;    0,794;   -1,591
658,641;49444,903;    2,158;   -0,864
659,217;48671,787;    2,067;    0,409
659,792;48129,945;   -1,751;   -0,409
660,368;48469,556;   -0,388;   -0,682
660,944;48151,259;    1,794;    1,227
661,519;43265,689;    0,522;    0,409
662,095;36524,756;   -0,206;    0,591
662,670;31372,095;   -0,206;   -0,136
663,246;30084,252;   -0,660;   -0,409
663,821;29296,955;    0,431;    1,682
664,396;28773,657;    0,613;    1,864
664,972;29056,633;   -0,660;   -0,500
665,547;29407,608;    3,794;    0,136
666,122;29369,402;    1,340;    0,318
666,698;29683,559;    2,431;    0,318
667,273;28988,807;    0,885;    0,136
667,848;29800,056;    0,340;    1,500
668,423;29613,304;    1,795;    2,318
668,998;30214,461;    0,976;   -0,682
669,573;30756,891;    2,067;   -1,500
670,148;30567,412;    1,885;   -0,682
670,723;30389,115;   -0,024;    0,318
671,298;30836,636;   -1,296;    1,045
671,873;30933,975;   -0,296;   -0,136
672,448;30880,587;    1,704;    0,136
673,023;31224,289;    0,249;   -0,227
673,597;31560,992;    2,704;    2,318
674,172;31334,695;    2,431;    0,318
674,747;30803,216;   -0,205;   -1,045
675,321;30720,646;   -0,933;    3,318
675,896;30243,803;    2,158;    1,045
676,471;31234,324;    2,522;    1,591
677,045;31012,299;   -0,296;    0,682
677,620;31039,639;    2,158;    1,136
678,194;31433,432;    0,249;    1,136
678,769;30893,680;    0,886;   -0,318
679,343;31133,474;   -0,023;    1,773
679,917;30985,268;    0,340;    1,955
680,492;31097,789;    0,249;    3,227
681,066;31245,491;    0,613;    0,409
681,640;31250,830;    1,795;   -0,318
682,214;32091,715;    2,340;    0,500
682,788;31594,781;    0,613;   -0,773
683,363;31596,302;    1,977;    1,682
683,937;31209,369;    0,886;   -0,318
684,511;32074,253;   -1,023;   -0,591
685,085;31774,229;   -1,478;    0,318
685,659;31506,113;    1,431;    0,864
686,232;31722,543;    1,159;   -0,318
686,806;31436,519;    2,159;    0,409
687,380;32121,403;   -1,932;    0,591
687,954;32360,924;    2,432;    1,136
688,528;32067,718;    2,613;    1,955
689,101;32832,602;    0,432;    1,045
689,675;32396,487;    0,886;   -0,136
690,249;31794,008;    3,432;    0,409
690,822;32127,892;    1,159;    0,318
691,396;32160,777;    2,068;    1,227
691,969;31620,207;    2,523;    0,136
692,543;32065,001;   -0,568;   -1,955
693,116;31651,612;   -0,659;   -1,409
693,690;31553,406;   -0,296;    0,500
694,263;32086,927;    2,341;    2,955
694,836;32087,266;    2,795;    3,591
695,410;30715,878;    1,159;    1,773
695,983;31215,308;    1,614;    0,591
696,556;31169,465;   -0,750;   -1,045
697,129;31606,713;   -1,114;    1,409
697,703;31210,053;    1,341;    1,955
698,276;31229,664;    1,705;   -0,773
698,849;31003,367;   -1,023;    1,409
699,422;31315,434;    1,250;    0,591
699,995;31010,591;   -0,659;    0,136
700,568;31629,384;   -0,204;    3,045
701,140;31585,542;   -1,841;    1,682
701,713;31298,790;    0,341;    2,409
702,286;31009,402;    0,796;    0,864
702,859;30943,377;    0,614;   -0,591
703,432;30016,807;   -0,841;    0,682
704,004;30623,874;    1,978;    0,318
704,577;30463,667;    1,068;    0,136
705,150;30989,734;    0,887;    2,500
705,722;30782,982;    1,523;   -3,227
706,295;30506,048;    1,432;   -0,591
706,867;30334,478;    0,250;    1,955
707,440;30583,817;   -0,113;   -0,409
708,012;30825,884;   -0,022;    0,591
708,584;30760,677;    2,705;    0,227
709,157;31057,198;    1,160;   -0,591
709,729;30720,356;    1,069;    2,045
710,301;31585,695;   -1,204;    0,045
710,874;31561,125;    0,341;   -0,227
711,446;30479,191;   -0,295;    0,864
712,018;30323,621;   -3,022;    0,500
712,590;30027,506;   -0,204;    1,682
713,162;30556,572;   -0,477;    1,318
713,734;30858,638;    1,796;   -2,045
714,306;30729,614;    0,342;   -0,409
714,878;29372,862;   -0,295;    0,864
715,450;30163,928;   -0,113;    0,864
716,022;30495,086;    2,433;    1,318
716,593;30615,970;    0,978;    0,591
717,165;30537,037;    1,796;   -1,227
717,737;30249,921;    0,796;    0,409
718,309;29922,260;    1,160;   -0,045
718,880;29857,236;   -1,295;   -1,409
719,452;30120,757;    0,887;   -1,591
720,024;29600,823;    1,705;   -0,591
720,595;30174,708;    2,978;    0,955
721,167;29697,865;    1,160;   -2,045
721,738;29198,295;    2,069;   -1,045
722,309;29098,634;    1,251;   -1,227
722,881;28876,700;    2,705;    0,773
723,452;29639,312;    1,251;    2,864
724,023;29768,379;    1,524;    2,682
724,595;29588,899;    2,342;    0,682
725,166;29302,420;    1,524;   -0,409
725,737;28933,669;    1,887;    0,227
726,308;29050,735;    0,797;    0,318
726,879;29453,619;    1,069;    1,227
727,450;29283,868;   -2,022;   -0,045
728,021;29273,025;    1,069;    0,682
728,592;29146,455;    1,160;    0,500
729,163;29459,067;    1,433;   -0,136
729,734;29354,042;    2,160;   -0,227
730,305;29706,563;    0,615;    0,136
730,876;30019,630;    0,888;    2,955
731,447;29827,787;    0,797;    2,682
732,017;29926,035;   -0,840;    1,864
732,588;29411,010;   -0,021;    1,227
733,159;29588,350;    3,615;   -1,045
733,729;29404,780;    1,251;    0,409
734,300;28686,573;    0,160;    0,864
734,870;29107,276;   -1,385;    0,591
735,441;29660,797;    0,888;   -0,591
736,011;29384,954;    1,070;   -1,591
736,582;29339,930;    1,251;    0,045
737,152;28830,269;    0,979;   -2,045
737,722;29325,244;    1,070;   -0,682
738,293;29013,674;   -2,021;    1,318
738,863;28912,832;    1,797;    2,318
739,433;28672,352;    4,524;    0,318
740,003;29324,601;    1,524;   -0,682
740,573;28661,122;    2,252;   -1,591
741,143;28651,097;    3,615;    0,318
741,713;29398,618;    0,252;   -0,500
742,283;29069,775;    1,706;    1,591
742,853;28868,569;    0,524;    1,591
743,423;28278,363;    0,161;    0,045
743,993;28412,338;    1,070;    1,500
744,563;27726,223;    2,524;   -0,864
745,133;27633,743;   -0,112;   -0,864
745,702;28390,628;    2,797;    1,773
746,272;27594,876;    0,434;    0,591
746,842;27314,670;   -0,748;   -0,591
747,411;27814,827;   -0,839;   -0,318
747,981;27980,075;   -0,930;    0,500
748,551;28035,960;   -0,021;   -1,045
749,120;27922,481;   -0,112;   -0,227
749,690;28285,911;    2,161;    2,409
750,259;28594,159;    0,979;    2,955
750,828;28493,134;    4,070;   -1,955
751,398;28730,564;   -0,112;   -0,045
751,967;28260,994;    2,888;    0,409
752,536;28441,970;    1,161;   -0,227
753,105;28873,036;   -1,384;    0,227
753,675;28741,375;   -0,112;    1,773
754,244;28618,260;    0,888;    3,591
754,813;28681,963;    0,979;    1,227
755,382;28289,484;    0,798;    0,955
755,951;28790,550;   -0,112;    3,682
756,520;28351,525;    2,525;    1,864
757,089;28963,410;    1,888;    0,500
757,658;29058,386;    2,434;    1,227
758,227;29012,179;   -1,111;    0,318
758,795;29345,609;   -1,021;    1,136
759,364;29620,221;    0,525;   -0,591
759,933;28561,287;    1,343;   -0,045
760,501;28113,445;    0,252;   -1,318
761,070;28596,966;   -0,293;   -1,409
761,639;29348,668;    1,434;    1,318
762,207;28619,280;    0,889;   -0,955
762,776;28582,619;    2,889;    0,864
763,344;28523,867;    0,071;    0,591
763,913;27647,479;    1,616;    1,409
764,481;28404,364;    1,980;   -0,136
765,049;28163,248;    0,616;    1,409
765,618;28024,497;    1,434;    0,318
766,186;28160,563;    2,434;    0,136
766,754;28261,175;    1,798;    1,864
767,322;27238,968;    1,162;    0,409
767,890;27282,126;    0,525;   -1,773
768,459;27685,465;    2,616;   -0,318
769,027;27875,713;    2,525;    3,409
769,595;26818,325;    2,616;    2,591
770,163;27230,482;    3,344;    2,955
770,730;26959,912;    2,525;   -0,136
771,298;26791,069;    1,162;   -1,409
771,866;26955,409;    0,253;    4,955
772,434;27231,566;    1,162;   -1,864
773,002;27404,541;    2,616;    0,682
773,569;26970,971;    1,071;    1,682
774,137;26821,674;    0,889;   -0,045
774,705;27616,922;   -0,747;   -0,136
775,272;27061,352;    0,253;    0,682
775,840;26866,964;   -0,111;    2,682
776,407;26387,758;   -0,293;    1,955
776,975;25979,733;    1,162;    0,318
777,542;26999,345;    2,162;   -0,045
778,110;26881,866;    0,707;   -0,045
778,677;26559,114;    1,071;   -0,864
779,244;26228,271;   -1,020;    1,045
779,812;26376,338;    0,980;    0,864
780,379;26205,677;    2,435;    1,136
780,946;26465,471;    2,617;   -0,773
781,513;26734,991;   -0,565;    0,318
782,080;26025,512;    1,253;    2,864
782,647;26834,124;    1,708;    3,045
783,214;26450,645;   -0,201;    3,864
783,781;26039,257;    1,708;   -0,682
784,348;25931,505;    0,253;    1,500
784,915;26401,117;   -1,474;    0,318
785,482;26076,547;    2,708;    2,591
786,049;26544,613;    1,071;   -0,591
786,615;26686,043;    1,708;   -0,955
787,182;26487,564;   -3,201;   -0,682
787,749;26115,267;   -2,201;    1,409
788,315;25387,424;    0,253;   -0,409
788,882;25699,854;    0,981;   -1,227
789,448;26426,830;    1,435;   -0,955
790,015;26434,260;    1,799;    3,227
790,581;25972,144;    0,708;    0,227
791,148;25849,211;    1,344;    1,045
791,714;26086,732;   -1,019;    3,136
792,280;25771,343;    3,708;    1,591
792,847;25307,137;   -0,928;    2,500
793,413;25911,113;   -0,110;   -0,318
793,979;25421,906;    1,526;   -1,318
794,545;25441,518;    2,981;    2,682
795,111;24834,948;    2,435;    1,318
795,678;25043,833;    3,526;   -1,682
796,244;24669,081;    2,799;    0,136
796,810;25258,602;    0,799;    0,773
797,375;24955,759;   -0,292;   -2,136
797,941;24964,644;   -1,110;    0,591
798,507;25133,892;    0,254;   -0,955
799,073;24620,049;    2,708;    0,591
799,639;24740,388;    1,435;    3,136
800,205;24761,909;   -1,565;    2,682
800,770;24241,430;    1,345;    1,773
801,336;24276,587;    2,981;   -0,955
801,901;23969,290;    6,072;    3,136
802,467;24632,265;    0,526;    2,045
803,033;23892,786;   -0,019;    0,864
803,598;24101,671;    1,072;   -1,045
804,163;24185,283;    0,708;   -0,318
804,729;24105,804;   -0,110;    1,136
805,294;24493,052;    1,072;    2,227
805,859;24290,300;    0,890;   -0,409
806,425;23695,730;    3,890;    2,682
806,990;23373,615;    1,890;    4,318
807,555;23957,863;   -0,110;    2,591
808,120;23828,384;   -1,292;   -0,409
808,685;23851,905;    1,072;   -2,500
809,250;23306,244;    2,072;   -0,500
809,815;23661,947;   -0,201;    0,682
810,380;24191,922;    0,981;    1,591
810,945;24720,352;    2,890;    2,045
811,510;23956,691;   -0,200;    1,591
812,075;23639,848;    2,800;   -1,409
812,640;23629,824;    3,709;    1,409
813,204;23657,890;    2,163;   -0,227
813,769;24146,320;    0,254;   -0,045
814,334;23558,387;    0,527;    0,864
814,898;23590,998;    1,981;    0,591
815,463;23464,519;    0,981;   -0,773
816,027;23435,404;    1,345;   -2,318
816,592;23499,470;    2,163;   -2,045
817,156;23039,718;   -2,200;    1,136
817,721;22790,148;    0,982;    2,318
818,285;22772,760;    0,618;    1,500
818,849;23471,372;   -0,018;    1,682
819,414;23335,439;    0,073;    2,955
819,978;22850,959;   -0,291;    1,773
820,542;23502,571;    2,891;    0,500
821,106;23259,001;    2,800;    0,682
821,670;23393,249;    2,709;    2,591
822,234;23021,952;    1,073;    1,409
822,798;22406,837;   -0,836;    0,500
823,362;22391,449;    1,527;    4,227
823,926;21665,424;   -0,018;    1,136
824,490;21865,672;    3,527;   -0,682
825,054;22313,920;    2,527;   -1,136
825,618;21966,623;   -1,200;   -1,500
826,181;21897,508;    0,982;   -1,318
826,745;21738,847;   -0,745;   -1,045
827,309;22071,459;    2,255;    1,318
827,872;21482,616;    0,527;    0,955
828,436;22467,046;    1,982;   -0,773
828,999;22526,021;    2,436;    1,227
829,563;21306,633;   -0,654;    1,136
830,126;21182,427;   -0,018;   -0,591
830,690;21176,766;    0,709;    2,864
831,253;20659,560;   -0,473;    2,227
831,816;20810,535;   -0,018;    0,500
832,380;20704,602;    1,164;    0,864
832,943;20923,032;    3,073;   -0,500
833,506;20418,098;    0,255;   -1,227
834,069;21231,982;    2,164;   -0,955
834,632;21315,867;   -2,200;    1,318
835,195;21210,115;    1,346;    0,955
835,758;20405,636;    0,709;    1,955
836,321;20221,066;    1,073;   -1,045
836,884;20315,496;   -1,291;   -0,955
837,447;20320,744;    0,528;    1,773
838,010;20596,447;    1,800;    3,227
838,573;20924,786;    0,528;    0,773
839,135;20817,216;   -0,109;   -0,955
839,698;20249,919;    2,528;    0,409
840,261;19767,167;    0,255;   -0,227
840,823;19649,870;   -0,927;    0,864
841,386;19941,118;   -0,018;   -2,409
841,948;19822,821;    0,255;    1,773
842,511;19524,796;    0,255;    1,682
843,073;19657,954;    2,982;    0,227
843,636;19455,656;    0,619;   -0,227
844,198;19374,632;    1,255;    0,591
844,760;19491,698;    0,619;    1,955
845,322;19145,037;    0,164;    1,136
845,885;19560,285;   -0,290;    0,591
846,447;20027,170;    0,710;    0,227
847,009;19573,236;    3,983;   -0,682
847,571;19928,303;    1,346;   -2,045
848,133;19996,551;   -0,199;   -1,864
848,695;19853,799;    2,346;    1,409
849,257;19401,320;    1,346;   -1,682
849,819;19574,841;    2,983;   -0,409
850,381;19592,544;    1,801;   -0,864
850,942;19956,246;    1,892;   -0,591
851,504;19893,676;    0,983;    0,227
852,066;19955,470;    1,619;   -1,591
852,628;19488,264;    0,165;    1,955
853,189;18981,330;    0,256;    2,682
853,751;19171,851;   -0,654;    1,409
854,312;18974,554;    1,256;   -1,682
854,874;19476,893;   -0,108;   -0,773
855,435;19951,232;    0,528;   -1,682
855,997;20099,662;    3,983;   -0,136
856,558;19323,365;    0,801;    1,773
857,119;19498,704;   -0,744;    2,864
857,681;19156,497;   -0,108;    0,318
858,242;19207,746;    1,347;   -2,136
858,803;19720,448;    1,074;   -0,773
859,364;20271,878;    0,892;   -4,773
859,925;19574,217;   -0,290;   -0,955
860,486;19487,375;    0,529;   -0,955
861,047;19225,987;    0,165;   -1,227
861,608;18998,053;    0,165;   -0,773
862,169;19146,938;   -0,562;   -0,045
862,730;18927,277;   -0,290;    1,409
863,291;19124,343;    0,438;   -0,500
863,852;19488,682;   -0,926;    1,955
864,412;18951,112;   -1,835;   -0,864
864,973;17465,179;    1,892;    0,500
865,534;17261,699;    2,074;    0,227
866,094;18874,129;    2,620;    0,227
866,655;18491,105;    4,711;    3,318
867,215;18805,262;    0,074;    0,136
867,776;18633,965;   -1,199;   -0,136
868,336;18702,940;    1,529;    0,136
868,897;18096,461;    3,438;    1,682
869,457;17888,891;    3,256;    0,318
870,017;18155,412;    2,438;   -1,227
870,578;18692,933;    1,893;    0,773
871,138;18337,272;    2,620;   -0,955
871,698;17924,702;   -0,562;   -1,318
872,258;17767,223;    0,711;   -2,864
872,818;18121,835;    2,347;    0,045
873,378;18073,174;   -2,198;    1,045
873,938;17692,695;    4,984;    0,500
874,498;18011,034;    1,256;   -1,955
875,058;17877,555;    4,347;    1,773
875,618;17676,440;    1,438;   -2,682
876,177;17611,051;   -0,471;    0,136
876,737;17211,936;   -0,289;    1,955
877,297;17213,093;    2,711;    1,955
877,856;17192,160;    2,529;    0,318
878,416;17138,408;    2,438;   -0,136
878,976;17358,656;    3,438;    0,409
879,535;17543,904;    4,529;    3,136
880,095;17307,789;    1,347;    0,045
880,654;17436,946;    0,347;    1,318
881,213;17509,194;    2,347;    1,500
881,773;17136,806;    1,984;    2,682
882,332;17495,691;    6,075;    5,136
882,891;17371,575;    0,711;    2,136
883,451;17815,823;   -2,016;    1,682
884,010;17273,163;   -1,107;   -0,409
884,569;17365,411;   -2,289;   -0,045
885,128;17415,477;   -0,743;   -1,864
885,687;17549,180;   -0,743;    0,682
886,246;17237,792;    2,620;    2,136
886,805;16987,222;    1,620;    2,045
887,364;17337,106;    1,166;   -0,500
887,922;17686,354;   -0,016;    0,045
888,481;17179,603;    1,530;    0,591
889,040;17510,033;    3,711;    2,136
889,599;18179,008;    2,166;    1,409
890,157;18290,984;    2,166;    2,409
890,716;17953,323;    2,166;    0,227
891,274;17734,753;    0,075;   -1,136
891,833;18161,637;    1,166;    0,864
892,391;18031,522;    1,802;    0,500
892,950;18112,134;    0,166;   -0,773
893,508;18472,291;    0,984;   -0,409
894,067;17819,085;   -0,379;    0,136
894,625;17745,787;   -1,016;   -1,500
895,183;17944,308;   -0,198;   -0,682
895,741;17836,738;    2,257;   -1,773
896,299;17647,441;    1,621;   -2,409
896,858;17869,598;    1,530;   -1,591
897,416;17983,119;    0,166;   -1,318
897,974;17686,549;   -2,197;    0,318
898,532;17817,070;    6,530;    2,682
899,089;17719,773;    0,621;   -0,682
899,647;17778,657;    0,530;    1,318
900,205;17522,269;    0,257;    1,045
900,763;17755,063;    2,166;    0,227
901,321;17751,402;    3,530;   -1,409
901,878;17166,650;    3,257;   -0,773
902,436;17040,262;    0,257;    1,318
902,994;17387,237;    6,712;    3,682
903,551;16799,304;    1,439;    0,409
904,109;17241,007;    1,530;   -1,409
904,666;16857,800;    1,439;    1,045
905,224;16629,048;    3,894;   -0,409
905,781;16353,569;   -0,470;   -0,318
906,338;16446,454;    0,167;    1,045
906,895;16391,429;    1,894;    2,045
907,453;16279,223;    2,348;    1,136
908,010;16284,198;    3,348;    0,409
908,567;15930,628;   -0,561;    0,591
909,124;15434,877;    2,439;   -1,500
909,681;15471,216;   -1,288;    0,682
910,238;15651,646;   -0,106;   -1,318
910,795;15956,803;   -1,561;   -1,136
911,352;15633,439;   -0,379;   -2,682
911,909;15002,348;    2,803;   -0,864
912,466;15514,167;    1,985;    1,500
913,022;15053,803;   -0,924;    0,500
913,579;15403,258;   -0,470;    2,045
914,136;15131,985;   -2,561;    0,955
914,692;15453,348;    1,530;   -1,227
915,249;15002,348;    0,530;    0,409
915,806;15254,167;    1,803;    1,955
916,362;14956,439;    0,894;    1,864
916,918;14503,803;    2,439;    1,045
917,475;14509,985;    1,621;    0,955
918,031;14596,985;    0,076;   -0,045
918,587;14017,167;    0,621;   -0,318
919,144;14231,167;   -0,379;    0,227
919,700;14586,167;    0,167;    0,773
920,256;14148,803;    0,439;    0,045
920,812;13740,894;    1,439;   -1,045
921,368;13702,439;    1,348;   -1,045
921,924;13356,894;    0,439;   -0,136
922,480;12932,439;    0,076;    1,227
923,036;13585,530;   -0,652;    1,955
923,592;13539,348;    0,621;    0,318
924,148;13430,712;    1,894;   -0,955
924,704;12742,803;    0,258;   -0,409
925,259;13020,803;   -0,561;    0,591
925,815;12741,167;    3,803;    0,500
926,371;12295,348;    3,530;    1,409
926,926;12146,894;    1,621;    0,591
927,482;11745,258;    1,621;    0,773
928,037;11621,530;   -0,833;    2,045
928,593;11923,076;    0,258;    1,045
929,148;11721,803;    1,167;   -1,500
929,704;11279,985;    2,439;   -0,500
930,259;11479,348;    0,894;   -0,136
930,814;10490,258;    1,803;    1,955
931,369;10178,076;    0,258;   -0,773
931,925;10078,712;   -1,924;    0,136
932,480; 9958,985;    3,076;   -2,591
933,035; 9838,530;    3,985;   -0,318
933,590; 9568,258;   -1,742;   -1,773
934,145; 9263,803;   -1,288;   -0,318
934,700; 9651,439;    0,348;   -0,591
935,255; 9405,076;    4,803;    0,045
935,809; 8618,258;    6,258;    0,864
936,364; 7748,258;    2,167;   -0,136
936,919; 7714,258;    2,348;   -1,773
937,474; 7609,167;    1,348;    0,136
938,028; 7380,985;    3,076;    1,136
938,583; 6754,803;    6,348;    4,682
939,138; 7082,348;    0,167;    2,136
939,692; 6547,439;   -1,015;   -1,136
940,247; 6175,258;    1,167;   -1,045
940,801; 5742,530;    0,621;    0,227
941,355; 5660,621;    0,439;    2,591
941,910; 5308,258;    0,712;   -2,136
942,464; 5402,894;    2,712;   -0,318
943,018; 5176,258;    3,258;   -0,227
943,572; 5122,076;    2,803;   -0,682
944,126; 4503,803;   -0,924;   -0,409
944,681; 4379,894;    0,712;    0,227
945,235; 4371,712;    2,167;   -0,591
945,789; 4330,167;    1,258;   -1,864
946,342; 4399,894;   -0,561;   -0,591
946,896; 4199,439;    0,348;    0,955
947,450; 3974,621;   -0,561;   -0,227
948,004; 4141,530;    1,076;   -0,045
948,558; 4172,621;    1,258;   -0,864
949,111; 4094,712;   -1,197;   -0,318
949,665; 4101,530;   -0,106;   -0,682
950,219; 3969,076;    0,621;   -1,045
950,772; 4089,530;    0,258;    1,864
951,326; 3981,530;   -1,106;   -0,955
951,879; 4079,894;    1,076;   -2,318
952,433; 4084,621;    1,348;    2,227
952,986; 3924,258;    0,348;    0,682
953,539; 3878,803;    1,530;    0,591
954,093; 3818,712;    0,985;   -1,318
954,646; 3949,348;   -0,288;    1,318
955,199; 3765,439;    1,258;   -0,500
955,752; 3624,076;    1,985;    1,773
956,305; 3592,803;    0,894;    2,955
956,858; 3770,167;    0,621;   -0,318
957,411; 3950,167;    3,621;    2,136
957,964; 3767,530;    2,076;    2,136
958,517; 3766,258;    0,985;    3,136
959,070; 3591,712;   -1,197;    1,955
959,623; 3634,530;    1,076;    1,500
960,176; 3395,530;    0,712;    2,045
960,728; 3391,803;    1,712;    0,773
961,281; 3452,530;    2,258;    0,500
961,834; 3492,894;   -0,833;    0,864
962,386; 3414,167;    1,258;    1,045
962,939; 3335,621;    3,439;   -0,318
963,491; 3496,894;    2,621;    1,136
964,043; 3362,439;    0,076;    2,409
964,596; 3483,985;    1,712;    2,227
965,148; 3303,076;   -0,379;    1,773
965,700; 3231,985;   -0,015;   -0,227
966,253; 3380,621;   -0,833;    0,318
966,805; 3214,439;    1,894;    0,773
967,357; 3279,439;    0,439;   -1,500
967,909; 3224,167;    1,167;   -1,227
968,461; 3350,439;    0,894;    3,136
969,013; 3259,348;   -1,561;   -0,864
969,565; 3336,530;    1,803;   -1,136
970,117; 3394,530;    3,803;    1,045
970,669; 3226,439;    3,258;   -0,136
971,220; 3114,530;    2,167;   -1,500
971,772; 3029,530;    1,348;   -0,318
972,324; 3144,530;   -1,197;   -0,500
972,876; 3092,894;    0,167;   -0,045
973,427; 3212,076;   -1,197;   -1,045
973,979; 3204,803;    0,076;   -2,500
974,530; 3238,803;    0,803;    1,318
975,082; 3240,530;    2,167;    1,682
975,633; 3132,348;    2,894;    1,682
976,184; 3281,258;    2,076;    0,773
976,736; 3057,348;    0,348;    0,227
977,287; 2831,712;    0,258;   -0,500
977,838; 3039,530;   -0,924;   -0,318
978,389; 3100,258;    0,803;   -0,500
978,940; 2966,348;    1,258;   -0,409
979,491; 2989,348;    2,258;   -0,500
980,042; 2934,985;   -0,652;    3,045
980,593; 3035,167;    1,894;    0,227
981,144; 3056,985;    3,530;   -0,500
981,695; 3006,076;   -0,470;    1,500
982,246; 2972,985;   -1,833;    1,045
982,797; 3151,621;   -0,561;    0,682
983,347; 3272,167;    2,167;    0,591
983,898; 3419,348;    4,167;    0,409
984,449; 3232,803;    2,530;    0,773
984,999; 3165,712;    1,894;   -1,136
985,550; 2927,348;    3,167;   -0,318
986,100; 2973,167;    0,712;   -0,318
986,651; 2996,621;    0,258;    0,045
987,201; 2976,439;    0,894;   -0,591
987,751; 3058,167;   -0,288;    2,864
988,302; 3034,894;   -0,379;    1,500
988,852; 3074,348;    1,985;   -1,136
989,402; 3097,439;    0,985;    0,682
989,952; 3015,348;    1,621;    0,864
990,502; 3132,621;    1,076;    0,682
991,052; 3095,439;   -0,106;    0,045
991,602; 2950,439;    1,167;    1,318
992,152; 2943,803;    2,803;    0,682
992,702; 2917,167;    1,167;   -0,045
993,252; 2847,439;    0,076;   -0,500
993,802; 2934,258;    1,167;    1,318
994,352; 3188,530;   -0,742;    1,136
994,901; 3296,258;    1,076;    3,227
995,451; 3181,258;   -1,197;    0,318
996,000; 3300,985;    1,076;    0,318
996,550; 2977,167;    2,894;    0,227
997,100; 2996,985;   -0,561;   -0,045
997,649; 3291,621;   -0,197;    0,955
998,198; 2909,076;   -0,288;   -1,500
998,748; 3093,712;    0,348;   -2,318
999,297; 2996,621;    0,985;   -0,409
999,846; 3068,803;    1,894;   -0,773
1000,395; 3127,712;    1,530;    0,500
1000,945; 3063,803;    1,076;   -0,773
1001,494; 3148,621;    0,167;    0,682
1002,043; 3125,985;    0,712;    0,864
1002,592; 2980,348;    3,439;    1,955
1003,141; 3141,712;    2,439;   -0,682
1003,690; 2955,076;    1,258;    0,500
1004,238; 3047,530;   -0,106;   -0,045
1004,787; 2668,076;   -1,288;    1,227
1005,336; 2890,803;    1,621;    0,682
1005,885; 3060,621;   -0,197;   -2,773
1006,433; 3223,076;   -0,470;    0,955
1006,982; 3254,712;    2,167;    1,682
1007,531; 3179,803;    2,712;   -0,227
1008,079; 3130,348;    0,258;    0,500
1008,627; 3295,167;    1,621;    0,409
1009,176; 3007,712;    0,076;   -1,955
1009,724; 3053,985;   -2,742;    0,864
1010,273; 3096,076;    1,076;    0,500
1010,821; 3224,348;    1,076;    1,409
1011,369; 2951,167;    0,076;    1,318
1011,917; 2947,530;   -0,833;   -0,591
1012,465; 3241,258;    2,530;   -1,591
1013,013; 3360,985;    0,439;   -1,682
1013,561; 3211,894;   -1,288;   -0,773
1014,109; 3244,348;   -0,833;    1,682
1014,657; 3125,621;    1,348;    0,591
1015,205; 3253,258;    0,894;   -0,955
1015,753; 3312,621;    0,258;   -1,409
1016,301; 3359,258;    2,621;    3,045
1016,848; 3361,712;    2,167;    0,409
1017,396; 3376,894;    1,621;    0,045
1017,944; 3519,076;    2,621;    1,864
1018,491; 3270,258;   -0,197;    1,409
1019,039; 3409,712;   -0,652;    0,591
1019,586; 3324,621;    0,076;    1,682
1020,134; 3423,076;    0,712;    1,500
1020,681; 3436,894;    2,894;   -1,136
1021,228; 3467,803;   -0,561;   -2,227
1021,776; 3295,258;   -0,833;   -1,136
1022,323; 3501,076;    0,803;    0,773
1022,870; 3448,712;   -0,470;   -0,045
1023,417; 3336,348;    2,076;    1,864
1023,964; 3493,712;    0,621;    1,227
1024,511; 3318,985;   -0,652;    0,773
1025,058; 3101,530;    0,439;   -0,045
1025,605; 3163,621;   -1,742;    3,136
1026,152; 3370,258;   -0,106;   -0,591
1026,699; 3116,258;    0,167;    1,318
1027,245; 3284,258;    2,439;    0,318
1027,792; 3510,803;    0,712;    1,409
1028,339; 3374,439;    4,076;   -0,045
1028,885; 3211,803;    3,621;   -0,227
1029,432; 3164,167;   -0,106;    0,227
1029,978; 3232,712;    1,348;   -1,591
1030,525; 3122,712;    1,621;    0,409
1031,071; 3376,621;    0,348;    1,136
1031,618; 3466,439;    1,258;    1,682
1032,164; 3251,530;    2,076;    3,045
1032,710; 3303,258;    0,076;   -1,500
1033,256; 3229,621;    0,712;   -0,136
1033,803; 3211,712;   -0,288;    1,500
1034,349; 2965,167;    1,803;    0,136
1034,895; 3114,985;    2,621;   -0,318
1035,441; 3076,894;    0,439;    0,318
1035,987; 3072,167;   -2,288;   -0,682
1036,533; 3069,803;   -0,197;   -0,955
1037,078; 3271,167;    4,712;    1,682
1037,624; 3076,803;    2,439;   -0,955
1038,170; 3101,894;    1,712;   -0,318
1038,716; 3007,803;    2,167;   -0,409
1039,261; 2919,712;    2,167;   -0,773
1039,807; 2853,712;   -0,015;    3,409
1040,352; 2935,803;   -1,288;   -0,318
1040,898; 2982,621;    0,167;   -0,682
1041,443; 2894,621;    0,803;   -2,591
1041,989; 2906,803;    3,621;    1,591
1042,534; 2787,803;    0,985;    2,591
1043,079; 2931,348;    1,985;    0,955
1043,625; 2707,894;    0,258;    0,500
1044,170; 2727,076;    2,439;    1,045
1044,715; 2998,621;    0,167;    0,955
1045,260; 2800,621;   -0,833;   -0,955
1045,805; 2856,894;    0,258;   -0,591
1046,350; 2795,894;    0,530;   -0,409
1046,895; 2737,348;    0,803;    1,591
1047,440; 2664,439;    1,530;    0,409
1047,985; 2598,076;   -1,197;   -0,955
1048,530; 2517,985;    1,348;    1,227
1049,074; 2588,712;    2,803;    0,318
1049,619; 2550,712;   -0,924;    1,955
1050,164; 2361,803;    1,076;    0,227
1050,708; 2412,712;    2,621;    0,045
1051,253; 2763,621;    3,258;   -2,227
1051,797; 2484,439;   -0,197;   -1,318
1052,342; 2521,621;    1,348;    1,045
1052,886; 2483,985;    1,803;   -1,409
1053,430; 2374,348;    2,167;    0,136
1053,975; 2385,348;    0,894;   -0,318
1054,519; 2357,621;    1,803;    3,227
1055,063; 2339,439;    3,621;    1,318
1055,607; 2242,894;    1,348;    0,227
1056,151; 2288,348;    0,530;    1,682
1056,695; 2201,894;   -1,833;   -1,136
1057,239; 2260,076;   -1,197;   -0,682
1057,783; 2277,167;    2,258;   -1,500
1058,327; 2231,530;    3,076;    1,409
1058,871; 2443,076;    3,985;    1,318
1059,415; 2132,439;   -0,561;   -0,045
1059,958; 2394,348;    2,985;    2,591
1060,502; 2129,167;    1,348;   -0,773
1061,046; 2032,348;    1,712;   -0,955
1061,589; 2031,076;    2,803;   -1,136
1062,133; 1912,076;    0,985;    1,864
1062,676; 1839,439;    1,439;    0,864
1063,220; 1841,530;    0,985;    0,500
1063,763; 1840,530;    2,985;    1,136
1064,306; 1905,621;    0,985;    1,864
1064,849; 1805,712;    2,076;    0,591
1065,393; 1816,803;    2,894;   -1,500
1065,936; 1943,167;    2,530;   -0,409
1066,479; 1833,621;    2,621;    1,318
1067,022; 1863,348;    1,894;   -0,227
1067,565; 1736,439;   -1,197;   -1,318
1068,108; 1774,803;    1,258;   -0,591
1068,651; 1759,439;   -2,470;    1,409
1069,194; 1684,894;   -1,106;   -1,682
1069,736; 1670,258;    3,803;    0,955
1070,279; 1656,439;   -1,652;   -0,500
1070,822; 1695,621;    1,530;   -0,318
1071,364; 1758,712;    0,530;    1,318
1071,907; 1602,985;    0,348;    3,227
1072,450; 1525,621;    0,258;   -0,045
1072,992; 1510,258;   -0,561;    3,136
1073,535; 1630,076;    0,167;    2,136
1074,077; 1444,258;    2,985;    2,045
1074,619; 1411,076;    0,985;    0,591
1075,161; 1426,530;   -0,561;    1,500
1075,704; 1605,348;    0,258;    1,227
1076,246; 1415,348;    1,530;    0,682
1076,788; 1344,076;   -1,015;    1,773
1077,330; 1431,894;   -2,106;    2,136
1077,872; 1395,803;   -1,924;    0,955
1078,414; 1603,894;    3,712;    0,773
1078,956; 1323,530;    0,167;   -0,227
1079,498; 1586,530;    0,439;    0,318
1080,040; 1291,712;    0,985;   -1,318
1080,581; 1232,076;    0,621;   -0,318
1081,123; 1175,439;   -0,106;   -0,773
1081,665; 1223,167;    3,803;   -0,955
1082,206; 1499,076;    3,258;   -0,500
1082,748; 1369,985;    3,258;    2,045
1083,289; 1267,258;    0,167;    1,318
1083,831; 1168,530;    0,258;    0,227
1084,372; 1189,258;    0,894;    0,591
1084,913; 1184,621;    3,348;    0,864
1085,455; 1176,167;    1,530;   -2,045
1085,996; 1130,894;    0,530;    0,136
1086,537; 1143,894;    0,985;    0,864
1087,078; 1191,348;    0,439;   -2,136
1087,619; 1221,439;   -1,652;    0,227
1088,160; 1147,621;    1,439;    1,318
1088,701; 1129,985;   -0,742;    0,682
1089,242; 1068,530;   -0,561;   -2,227
1089,783; 1149,803;   -0,561;    1,409
1090,324; 1119,621;   -0,833;    0,682
1090,865; 1004,712;   -1,924;   -0,409
1091,405;  987,894;   -0,561;    2,227
1091,946; 1017,530;   -0,197;   -0,955
1092,487;  944,530;   -1,288;   -1,409
1093,027; 1089,985;    1,803;   -1,500
1093,568;  949,348;    2,258;    1,227
1094,108; 1021,439;    0,621;    1,773
1094,649;  980,530;   -0,470;    0,136
1095,189;  925,076;    1,167;   -0,682
1095,729;  873,076;    0,712;    0,955
1096,269;  893,167;    1,258;   -0,955
1096,810; 1183,894;   -0,197;    0,500
1097,350; 1008,076;   -0,561;   -0,773
1097,890;  907,439;    2,985;    1,227
1098,430; 1150,348;    4,985;    2,864
1098,970; 1035,712;    1,894;    1,682
1099,510;  901,530;   -0,833;   -2,318
1100,050;  825,894;    0,258;   -1,591
1100,589;  806,803;    0,076;   -0,318
1101,129;  921,167;    0,894;   -0,955
1101,669; 1053,530;    2,803;    2,136
1102,209;  885,167;    1,530;    2,227
1102,748;  846,076;    3,439;    0,955
1103,288;  823,803;    0,712;   -1,227
1103,827;  855,530;    3,530;   -2,227
1104,367;  741,803;    1,712;   -2,409
1104,906;  711,621;   -1,015;   -1,136
1105,445;  776,985;    0,985;   -1,136
1105,985;  708,621;   -0,652;    1,500
1106,524;  760,439;    1,530;   -0,682
1107,063;  731,712;    1,167;    1,409
1107,602;  703,803;    1,894;   -1,500
1108,141;  639,621;    1,621;    1,500
1108,680;  725,621;    3,985;   -0,591
1109,219;  662,712;    0,167;   -0,500
1109,758;  676,621;    4,167;    0,682
1110,297;  655,439;   -1,106;   -0,682
1110,836;  597,985;    1,439;    0,955
1111,375;  751,258;    0,348;    0,409
1111,913;  759,803;    0,985;    0,773
1112,452;  700,621;    0,894;    0,136
1112,991;  590,712;    1,076;    1,955
1113,529;  552,803;    0,167;   -0,045
1114,068;  612,167;    0,439;    2,955
1114,606;  518,167;   -0,561;   -0,955
1115,144;  677,894;    1,530;    1,045
1115,683;  610,712;    1,985;    0,318
1116,221;  663,076;    2,076;   -0,864
1116,759;  578,803;    1,621;   -0,864
1117,297;  753,985;    1,621;    1,864
1117,836;  569,439;    1,985;   -1,227
1118,374;  574,712;    0,258;   -0,682
1118,912;  526,712;    0,439;    2,682
1119,450;  502,621;    0,985;    0,864
1119,988;  557,258;    3,348;    2,136
1120,525; 1002,803;    7,258;    3,318
1121,063;  699,621;    0,530;    1,864
1121,601;  521,258;    1,076;   -1,227
1122,139;  472,894;    1,076;   -2,045
1122,676;  660,712;   -1,652;    2,773
1123,214;  591,621;    0,712;    4,409
1123,751;  427,076;    0,621;    2,227
1124,289;  547,803;    0,894;   -0,409
1124,826;  419,712;   -0,379;    0,227
1125,364;  344,076;    0,712;   -0,955
1125,901;  529,167;    6,258;    1,227
1126,438;  622,167;    3,530;    0,955
1126,975;  374,985;    2,985;   -0,773
1127,513;  432,439;    2,621;    2,136
1128,050;  351,439;   -0,561;   -0,682
1128,587;  439,439;    1,348;   -0,227
1129,124;  476,439;   -0,015;    1,318
1129,661;  360,985;   -1,924;    0,227
1130,198;  516,985;    2,439;    0,773
1130,734;  451,803;   -0,379;    1,409
1131,271;  326,348;   -1,197;    0,864
1131,808;  488,348;    1,621;    3,045
1132,345;  358,348;    4,530;    0,318
1132,881;  254,076;   -0,561;   -1,864
1133,418;  377,985;    0,348;   -1,136
1133,954;  312,348;    0,712;   -2,682
1134,491;  379,530;    1,712;   -0,773
1135,027;  298,439;    2,167;    0,864
1135,564;  381,712;    1,439;    2,955
1136,100;  357,985;   -0,742;    2,136
1136,636;  258,894;   -1,015;   -1,045
1137,172;  344,530;    0,894;   -1,045
1137,708;  269,985;   -1,561;   -1,045
1138,245;  276,803;    0,803;   -1,227
1138,781;  236,803;    1,803;   -3,318
1139,317;  298,803;    1,894;   -1,409
1139,852;  280,348;    3,076;    0,136
1140,388;  388,894;    2,076;   -0,409
1140,924;  282,894;    1,076;   -2,227
1141,460;  222,439;   -0,288;    0,136
1141,996;  162,439;   -0,652;    2,682
1142,531;  208,348;    1,076;    3,318
1143,067;  416,348;    1,167;    1,045
1143,602;  464,076;    3,439;   -0,318
1144,138;  308,530;    0,803;    1,045
1144,673;  186,439;    1,621;    1,409
1145,209;  256,985;    2,894;   -0,318
1145,744;  183,258;    0,803;    0,864
1146,279;  303,530;    1,530;   -0,136
1146,815;  226,712;    1,530;   -2,682
1147,350;  256,348;   -0,924;    0,045
1147,885;  180,258;   -1,924;   -1,318
1148,420;  176,803;    2,439;    0,773
1148,955;  166,985;   -1,470;    1,864
1149,490;  191,621;   -1,106;   -1,591
1150,025;  170,803;   -1,106;   -1,773
1150,560;  271,167;   -0,288;   -0,955
1151,094;  239,985;    0,258;   -0,591
1151,629;  242,439;   -3,742;    0,864
1152,164;  171,258;   -1,288;    1,318
1152,698;  136,439;    1,258;   -0,136
1153,233;   95,439;   -1,379;   -0,682
1153,767;  150,621;   -0,288;   -2,318
1154,302;  194,894;   -0,379;    1,773
1154,836;  189,076;    0,803;   -2,136
1155,371;  239,167;    2,258;    3,682
1155,905;  197,258;    1,985;    1,682
1156,439;  170,621;    0,530;   -0,500
1156,973;  187,348;    0,439;    0,318
1157,507;  136,985;   -1,742;    0,682
1158,042;  154,076;   -0,652;    1,045
1158,576;  202,348;   -0,561;    1,773
1159,110;  188,439;    0,076;    2,409
1159,643;  175,167;   -2,470;   -0,045
1160,177;  114,621;   -2,015;    1,500

