
Integration time [ms]:   0,040
Averaging Nr. [scans]: 11
Smoothing Nr. [pixels]: 0
Data measured with spectrometer [name]: 7318044SP
Wave   ;Sample   ;Dark     ;Reference
[nm]   ;[counts] ;[counts] ;[counts] 

186,757;   35,588;   38,161;    1,318
187,357;   68,361;   26,706;    0,955
187,958;   43,799;   17,252;   -1,591
188,558;   81,266;   12,979;   -1,227
189,159;   51,025;   10,070;   -4,500
189,759;   21,386;    5,797;   -3,591
190,360;   19,723;    6,797;   -2,136
190,960;   50,397;    5,706;   -4,136
191,560;   65,482;    2,614;   -6,591
192,161;  278,253;    5,885;   -3,500
192,761;  139,838;    5,520;   -3,227
193,361;   93,807;    3,065;   -3,773
193,962;  147,970;    1,612;   -2,682
194,562;   77,516;   -0,114;   -3,955
195,162;  101,752;   -0,567;   -2,227
195,762;  261,261;    2,433;   -0,045
196,362;  206,736;    1,706;   -2,500
196,963;   82,674;    1,706;   -0,864
197,563;  155,791;    1,252;   -0,955
198,163;   98,259;   -0,111;   -0,682
198,763;  115,458;   -0,020;   -0,500
199,363;  209,190;    3,616;   -0,500
199,963;  178,426;    2,162;    0,409
200,563;  154,539;    6,344;   -1,409
201,163;  131,408;    5,435;   -0,227
201,763;  222,422;    1,435;    0,318
202,363;  154,573;    0,980;    1,500
202,963;  256,919;    1,526;    1,045
203,563;  361,628;    0,344;    0,500
204,162;  216,635;    1,889;   -1,864
204,762;  207,458;    2,071;    0,591
205,362;  170,974;    0,708;    1,955
205,962;  267,520;    3,435;    1,955
206,562;  269,914;    1,889;    2,318
207,161;  228,839;    1,708;    0,318
207,761;  385,937;    4,435;    2,409
208,361;  270,139;    1,889;    1,409
208,960;  357,793;    2,889;    1,500
209,560;  419,576;    0,435;    1,591
210,160;  406,235;    5,071;    1,864
210,759;  373,105;    0,708;    1,227
211,359;  369,533;   -0,474;    1,045
211,958;  617,171;    3,526;    2,045
212,558;  689,298;    0,799;    1,864
213,157;  538,933;   -0,929;    1,500
213,757;  955,407;    5,617;   -0,227
214,356;  661,131;    1,708;   -0,409
214,956;  987,627;    3,526;    0,409
215,555;  618,393;    0,617;    2,136
216,154;  558,962;   -0,292;   -0,591
216,754;  569,549;    1,253;    0,773
217,353;  686,695;   -0,383;   -1,045
217,952;  545,019;    2,072;    0,318
218,552;  779,907;    0,254;   -0,773
219,151;  663,405;   -1,110;    0,955
219,750;  655,415;    0,890;   -0,227
220,349;  750,415;   -2,292;    1,045
220,948;  846,665;    1,163;    1,136
221,548;  828,942;    0,617;    1,227
222,147;  933,525;   -1,292;   -0,409
222,746; 1226,001;    1,254;   -0,955
223,345; 1080,714;   -1,019;    0,500
223,944; 1079,363;    1,163;    0,773
224,543; 1231,182;    4,072;   -1,409
225,142; 1356,725;    1,345;    0,136
225,741; 1255,102;    1,163;    1,045
226,340; 1274,293;    1,254;   -0,955
226,939; 1681,931;    2,708;   -0,136
227,538; 1602,552;    1,163;   -0,773
228,137; 1779,803;    0,435;    0,864
228,735; 1863,551;    0,435;    1,227
229,334; 1625,503;   -0,474;   -0,227
229,933; 2002,962;    0,799;    0,591
230,532; 2115,578;   -1,201;   -0,409
231,131; 2176,406;    1,253;    0,318
231,729; 2254,976;    1,163;   -2,318
232,328; 2328,016;    0,435;   -1,500
232,927; 2385,963;    4,526;   -0,500
233,525; 2485,648;    0,981;    0,045
234,124; 2691,009;    1,890;   -1,591
234,723; 2687,023;    1,617;   -1,045
235,321; 2818,663;    1,163;    0,136
235,920; 3025,500;    2,526;   -1,227
236,518; 3274,049;    1,072;    0,318
237,117; 3404,716;    2,890;   -0,227
237,715; 3535,004;    1,163;   -0,500
238,314; 3571,606;    1,708;   -2,318
238,912; 3699,538;    0,526;   -1,409
239,510; 3726,440;    1,162;   -1,227
240,109; 3903,791;   -0,474;    3,773
240,707; 3909,390;   -0,474;    1,227
241,305; 4204,175;   -0,383;    0,136
241,904; 4404,902;   -0,292;   -2,045
242,502; 4385,021;    3,253;   -0,227
243,100; 4318,500;    3,344;   -0,955
243,698; 4526,697;    2,799;    1,682
244,297; 4682,572;   -0,656;    0,682
244,895; 4541,796;   -0,474;   -2,318
245,493; 4852,198;    2,981;   -0,591
246,091; 4881,623;    5,163;   -1,318
246,689; 4848,371;    2,163;    0,591
247,287; 5009,914;   -0,019;   -1,136
247,885; 5237,493;   -1,019;    1,227
248,483; 5359,912;   -0,201;   -0,500
249,081; 5459,979;    0,981;    1,591
249,679; 5599,450;   -1,019;    1,682
250,277; 5814,641;   -2,292;    0,864
250,875; 5798,843;    0,617;   -1,045
251,473; 5805,991;   -0,019;    0,500
252,071; 6006,276;   -0,383;    1,045
252,669; 6133,454;   -1,565;    0,318
253,267; 6347,284;    1,618;    0,773
253,864; 6299,914;    0,617;    0,682
254,462; 6204,738;    1,526;    1,591
255,060; 6132,298;    0,072;    1,318
255,658; 6469,091;   -3,292;   -0,136
256,255; 6867,753;   -0,201;   -2,045
256,853; 6715,948;    2,345;    1,409
257,451; 6703,149;    1,981;    1,864
258,048; 6998,527;    2,072;    1,864
258,646; 6731,396;    0,436;   -1,045
259,243; 6901,675;    2,981;    2,227
259,841; 6955,683;    1,799;    0,318
260,438; 6842,813;    0,254;    0,864
261,036; 7509,211;    0,617;    1,409
261,633; 7415,049;    1,526;    2,227
262,231; 7175,450;   -0,110;   -0,045
262,828; 7236,449;   -0,383;    1,136
263,425; 7293,115;   -1,928;   -0,591
264,023; 7555,298;    1,436;    0,045
264,620; 7130,711;    1,526;   -0,318
265,217; 7434,433;    2,890;    3,136
265,815; 7543,294;    2,527;    2,136
266,412; 7345,937;    0,072;    0,136
267,009; 7359,716;    0,526;    0,773
267,606; 7296,487;    0,345;   -0,955
268,203; 7270,514;   -0,383;   -0,591
268,801; 7548,044;   -0,474;    0,591
269,398; 7787,090;   -0,564;    2,500
269,995; 7763,995;    0,890;    1,591
270,592; 7561,617;    0,799;   -0,500
271,189; 7749,750;    1,981;    0,409
271,786; 7870,844;    2,072;    1,227
272,383; 7735,169;   -0,383;    0,227
272,980; 7903,650;    1,617;    0,318
273,577; 8321,597;    2,162;    1,227
274,174; 7933,263;    1,435;    2,591
274,771; 7896,909;    1,890;   -0,773
275,367; 8047,981;    3,253;    1,409
275,964; 8003,139;   -0,565;   -0,500
276,561; 8071,300;   -2,474;   -1,045
277,158; 8252,996;    1,799;   -1,773
277,755; 8418,343;   -0,110;    0,409
278,351; 7852,144;    0,436;   -1,500
278,948; 8136,523;   -0,201;    0,045
279,545; 8133,980;    0,527;    2,318
280,141; 8732,415;    1,254;   -2,045
280,738; 8574,315;    2,435;   -0,136
281,334; 8795,181;   -0,383;    0,591
281,931; 8213,827;    2,890;   -1,318
282,528; 8346,592;    4,072;   -0,500
283,124; 8981,466;    3,345;   -0,500
283,721; 8863,638;    0,709;    1,409
284,317; 8682,852;    0,163;    2,500
284,913; 9193,755;   -0,110;    0,591
285,510; 9382,300;    2,890;   -0,318
286,106; 9393,096;    2,345;   -0,955
286,703; 8994,472;    0,072;    1,955
287,299; 9180,410;    1,254;   -0,591
287,895; 9418,916;    0,890;   -1,045
288,491; 9953,544;    0,163;    2,136
289,088; 9699,332;    0,163;    2,409
289,684; 9714,636;    2,890;    1,500
290,280; 9712,660;    1,890;    0,682
290,876; 9811,436;    0,163;    5,500
291,472; 9730,019;    2,163;    2,227
292,068; 9812,145;    1,254;    0,227
292,665; 9499,592;   -0,564;    0,773
293,261; 9199,253;   -1,292;    2,136
293,857; 9576,066;    4,072;    2,136
294,453; 9535,074;   -0,928;    0,955
295,049; 9405,641;    0,253;    1,955
295,644; 9424,574;   -1,292;    0,136
296,240; 9338,272;    0,162;   -0,136
296,836; 9386,281;   -0,747;    0,318
297,432; 9619,501;    2,980;   -0,500
298,028; 9679,820;    0,435;    0,773
298,624;10041,854;    0,889;    1,864
299,220;10241,293;    0,435;    0,591
299,815; 9893,359;    0,526;   -0,409
300,411; 9705,823;    0,435;    1,773
301,007; 9723,974;    1,889;    0,227
301,602; 9717,942;    2,071;   -2,318
302,198; 9886,821;    1,435;   -0,773
302,794;10246,605;    1,526;   -0,500
303,389;10334,360;    1,071;    1,045
303,985;10391,001;    1,253;    1,409
304,580;10348,626;    0,889;    1,591
305,176;10345,254;    0,344;    0,136
305,771;10308,815;   -0,929;   -1,227
306,367;10170,281;    3,071;    0,136
306,962;10469,761;    2,889;    1,500
307,558;10201,350;    2,435;    0,136
308,153;10142,779;   -0,383;   -1,136
308,748;10360,700;    0,162;    1,682
309,344;10337,577;    0,253;   -1,318
309,939;10431,335;    2,071;   -1,318
310,534;10695,365;   -2,020;   -1,682
311,130;10626,634;   -0,656;   -2,500
311,725;10369,193;    0,526;   -0,500
312,320;10665,423;    1,253;    0,045
312,915;10511,981;    2,890;   -1,045
313,510;10582,832;    0,526;   -0,500
314,105;11093,072;   -3,565;    1,409
314,700;10513,722;   -1,656;   -1,045
315,295;10190,172;   -0,020;    0,045
315,890; 9773,439;   -0,292;    0,864
316,485;10078,969;    0,253;   -0,318
317,080;10169,446;   -0,929;    1,591
317,675;10704,856;    3,071;   -0,682
318,270;10115,443;    6,889;    3,318
318,865;10135,191;    2,435;    3,045
319,460; 9984,192;   -1,565;    0,591
320,055;10204,630;   -2,565;   -1,227
320,650; 9889,348;   -1,838;   -0,591
321,244; 9938,161;    0,889;   -1,409
321,839;10825,204;    0,980;   -0,227
322,434;10713,150;   -0,111;   -1,591
323,029;10380,907;   -0,474;    1,591
323,623;10233,063;    0,798;    0,773
324,218;10049,417;    2,707;    1,409
324,812; 9974,493;    0,889;    1,591
325,407; 9785,101;   -0,929;    2,045
326,002; 9735,399;    0,526;   -0,409
326,596;10029,148;   -0,656;    1,318
327,191;10206,868;   -0,383;   -1,045
327,785; 9846,603;   -0,747;   -0,227
328,379;10084,891;   -0,383;    0,136
328,974; 9843,187;    1,798;   -3,955
329,568;10067,586;    2,889;   -2,409
330,163; 9929,615;    2,435;    1,045
330,757;10246,338;    0,253;    1,591
331,351; 9621,592;   -0,292;    0,682
331,945; 9899,717;   -0,383;    1,409
332,540; 9536,480;    1,617;   -0,591
333,134; 9654,909;    3,344;    0,773
333,728; 9908,003;    2,799;    0,318
334,322;10214,593;    0,889;   -0,864
334,916; 9513,654;    0,344;    0,955
335,510; 9817,749;   -0,111;   -0,136
336,105;10042,232;   -0,929;    1,591
336,699; 9781,417;   -1,292;    0,591
337,293; 9725,491;    1,071;    0,318
337,887; 9794,900;    0,071;    1,955
338,481; 9910,616;    2,980;    0,591
339,074;10060,311;    2,071;    2,682
339,668; 9895,211;   -0,110;    1,227
340,262;10150,911;    7,708;    3,227
340,856; 9635,875;    1,708;   -0,682
341,450; 9019,480;    0,708;    1,864
342,044; 9856,400;    1,799;    0,136
342,637; 9657,973;    1,162;   -2,136
343,231; 9496,560;   -1,474;    0,682
343,825; 9461,075;   -0,747;   -0,591
344,419; 9437,409;   -0,474;    0,500
345,012; 9261,440;    2,889;    4,045
345,606; 9259,725;   -0,656;    1,591
346,199; 9121,476;   -0,111;   -0,227
346,793; 8719,740;    2,525;    2,045
347,386; 8919,127;    0,889;   -1,136
347,980; 8902,197;   -0,838;   -0,045
348,573; 8697,511;   -1,748;    0,409
349,167; 8432,775;    6,161;    4,773
349,760; 8757,757;    2,252;    2,682
350,354; 8717,405;    1,616;    1,136
350,947; 8511,350;    2,798;    1,682
351,540; 8189,961;    0,616;   -1,409
352,134; 8149,325;   -1,111;    1,136
352,727; 8243,848;   -0,657;    1,136
353,320; 8090,243;    2,343;    0,591
353,913; 7934,686;   -1,929;    1,864
354,507; 8097,490;    0,434;   -1,227
355,100; 8137,798;    0,071;    0,864
355,693; 7468,940;    4,798;    2,409
356,286; 7474,165;    0,980;    2,773
356,879; 7829,533;   -0,475;    1,227
357,472; 7432,402;    0,980;    1,500
358,065; 7640,079;    3,161;    2,500
358,658; 7571,099;    0,798;    2,318
359,251; 7225,330;    0,252;   -0,591
359,844; 6808,869;    0,343;   -1,136
360,437; 6963,642;    0,252;    0,045
361,030; 7215,943;    0,525;   -0,682
361,623; 6844,171;    0,434;    0,318
362,215; 6892,711;    0,979;    2,045
362,808; 6720,221;   -2,293;   -1,682
363,401; 6919,861;    0,798;    0,136
363,994; 6721,573;    3,252;   -1,500
364,586; 6638,752;    0,888;   -1,500
365,179; 6828,154;   -0,203;   -1,136
365,772; 6338,245;   -0,930;    2,045
366,364; 6597,149;    1,524;   -3,227
366,957; 6802,571;    1,342;   -0,045
367,549; 6796,938;   -0,203;   -0,864
368,142; 6468,827;    0,978;   -1,500
368,734; 6676,266;    2,523;   -2,136
369,327; 6637,030;    2,341;   -0,500
369,919; 6554,337;   -1,659;    0,409
370,512; 6395,734;   -1,023;   -0,500
371,104; 6159,430;    2,704;    1,591
371,696; 6341,054;    1,703;   -0,955
372,289; 6392,720;    0,157;    1,136
372,881; 6516,438;    1,156;    1,318
373,473; 6434,759;    4,064;    1,136
374,066; 6273,966;    1,336;    0,500
374,658; 6127,309;    0,879;    1,136
375,250; 6444,330;   -1,668;   -1,409
375,842; 6312,143;   -0,124;   -0,045
376,434; 6186,747;   -2,762;   -0,409
377,026; 6719,253;   -1,855;   -2,500
377,618; 6624,188;    0,779;   -0,682
378,210; 6462,149;    3,141;   -1,955
378,802; 6314,380;    3,412;   -0,591
379,394; 6316,160;    3,411;    0,682
379,986; 6821,926;    1,138;   -0,955
380,578; 6917,219;    1,410;    0,773
381,170; 6341,656;    0,320;    0,045
381,762; 6275,851;   -0,224;    1,409
382,354; 6430,476;   -0,223;   -1,318
382,945; 6539,242;    0,870;    0,318
383,537; 6699,383;    1,144;   -1,955
384,129; 6698,429;    0,963;   -1,136
384,721; 6829,752;    0,418;    0,955
385,312; 6747,318;   -1,399;   -0,955
385,904; 6850,471;   -0,945;    1,591
386,496; 6293,641;    0,691;    1,045
387,087; 6438,743;    0,418;    2,500
387,679; 6446,353;   -0,401;    0,045
388,270; 6590,655;   -2,401;    2,045
388,862; 6667,978;   -0,401;   -0,318
389,453; 6575,280;    1,054;    1,045
390,045; 6823,075;    3,236;   -2,682
390,636; 6710,892;    0,144;   -0,591
391,227; 6617,813;    2,054;   -0,045
391,819; 6714,092;    0,781;    0,773
392,410; 6746,745;    0,600;    0,045
393,001; 6694,638;    1,600;   -1,591
393,593; 6926,073;    0,600;   -0,045
394,184; 6804,142;    0,873;   -0,409
394,775; 6704,053;    1,146;    2,136
395,366; 6914,696;    1,782;    0,773
395,957; 6887,454;   -2,400;    0,136
396,548; 7171,361;    1,054;    2,682
397,139; 7456,385;    2,236;    0,591
397,730; 7225,170;    0,873;    0,955
398,321; 7248,392;    0,509;    0,955
398,912; 7283,792;   -0,764;    0,136
399,503; 7364,948;   -1,945;   -1,409
400,094; 6849,635;   -1,582;    1,682
400,685; 6701,227;    3,600;    0,045
401,276; 6778,668;   -0,400;   -0,955
401,867; 7058,086;   -1,127;    0,773
402,458; 7137,505;    1,509;   -2,318
403,048; 7142,939;    0,146;    0,591
403,639; 6790,773;    1,509;    0,864
404,230; 7037,920;    0,691;    0,318
404,821; 6965,403;   -0,127;    0,045
405,411; 7064,138;   -0,763;   -2,591
406,002; 6692,193;    3,237;   -1,136
406,592; 6594,121;    2,691;    0,045
407,183; 6829,723;    0,328;   -1,500
407,774; 6787,882;    1,419;   -0,136
408,364; 7084,503;    2,600;    0,409
408,954; 6725,339;   -0,036;    1,227
409,545; 6776,129;    1,873;    1,045
410,135; 6308,176;   -1,581;    0,500
410,726; 6447,784;    0,783;    0,318
411,316; 6814,155;    2,237;    0,773
411,906; 6481,260;    0,146;   -0,409
412,497; 6054,244;   -0,490;   -0,045
413,087; 6599,976;    0,783;   -0,227
413,677; 6951,535;   -2,490;    3,864
414,267; 6797,141;   -1,035;    1,409
414,857; 6819,924;    0,419;    4,227
415,448; 7064,076;   -0,763;    0,500
416,038; 6780,448;   -2,945;   -0,591
416,628; 6753,689;    0,965;    0,409
417,218; 6294,007;   -1,762;    3,318
417,808; 6524,972;    0,965;   -0,409
418,398; 6905,974;   -1,035;    2,682
418,988; 6897,482;   -2,217;    0,591
419,578; 7128,839;    3,601;    1,409
420,168; 7439,673;    0,692;   -0,955
420,757; 7058,190;    0,964;   -1,500
421,347; 6740,473;    1,601;   -0,227
421,937; 6922,014;    3,329;    1,409
422,527; 6879,832;    2,602;   -0,773
423,116; 6707,564;    2,692;   -0,045
423,706; 6987,358;    2,965;    0,318
424,296; 6950,582;    1,601;    0,682
424,885; 7349,763;    1,510;   -3,045
425,475; 7628,175;    1,147;   -2,864
426,065; 7528,422;   -1,489;   -0,318
426,654; 7175,243;    0,329;   -0,318
427,244; 7283,205;    1,147;    1,409
427,833; 6784,171;    1,056;   -0,500
428,423; 7187,633;    0,147;    1,136
429,012; 7886,701;    2,420;   -1,136
429,601; 7409,339;    2,057;    0,136
430,191; 7632,818;    2,511;    4,318
430,780; 7280,204;   -1,671;   -0,409
431,369; 7231,499;    1,329;   -0,045
431,959; 7805,690;    1,693;    0,500
432,548; 7606,468;   -1,398;   -0,045
433,137; 7696,761;    0,329;   -1,318
433,726; 8189,314;    0,148;    0,500
434,315; 7600,374;    0,148;    2,409
434,905; 7694,011;    0,693;    1,409
435,494; 7633,727;    3,148;    0,955
436,083; 8020,550;    1,420;   -0,955
436,672; 7904,842;    1,148;    0,500
437,261; 7523,811;    0,512;   -1,955
437,850; 7628,634;   -1,125;    0,682
438,439; 7604,651;    2,239;    1,955
439,027; 7474,482;    3,421;    1,773
439,616; 7791,994;    2,239;    1,227
440,205; 7643,734;    0,057;   -2,136
440,794; 7681,616;   -0,306;   -0,045
441,383; 7877,430;    1,603;   -0,591
441,971; 7764,878;   -0,306;    0,591
442,560; 7611,214;    0,603;   -1,773
443,149; 7374,304;    3,060;   -1,318
443,737; 7516,093;    0,968;   -2,318
444,326; 7776,151;    0,331;    0,318
444,915; 7807,371;   -1,851;    0,864
445,503; 8169,784;    0,058;   -0,318
446,092; 7497,252;    7,876;    2,136
446,680; 7997,482;    1,876;    0,318
447,269; 8155,724;   -1,487;   -0,318
447,857; 7930,485;    2,240;   -1,773
448,445; 8032,179;    2,149;    1,318
449,034; 8241,147;    0,876;   -1,136
449,622; 8346,580;    1,240;    3,500
450,210; 7681,493;    3,149;    2,227
450,799; 8160,982;    2,604;   -0,591
451,387; 8126,837;    1,786;   -0,591
451,975; 7800,432;   -1,305;    0,864
452,563; 7872,061;    0,422;    2,318
453,151; 7902,996;   -1,032;   -1,227
453,739; 7816,201;   -1,577;    0,136
454,328; 7716,178;    0,604;   -2,136
454,916; 7442,229;    1,150;   -0,136
455,504; 7631,477;    3,513;    1,227
456,092; 7775,046;    2,150;   -1,591
456,679; 7744,869;    0,604;    0,682
457,267; 7751,448;    3,604;    1,045
457,855; 7849,263;    3,241;    1,409
458,443; 7550,394;   -0,304;    1,682
459,031; 7684,892;    1,332;    2,409
459,619; 8120,597;   -3,577;    2,864
460,206; 8206,249;   -0,759;    2,045
460,794; 8297,705;   -0,668;   -0,227
461,382; 8489,006;    0,878;   -0,864
461,970; 8110,050;    0,605;    1,864
462,557; 8160,388;    0,878;   -0,682
463,145; 8336,506;   -0,304;   -1,682
463,732; 8445,014;    2,514;   -1,045
464,320; 8337,623;    1,514;   -3,045
464,907; 8045,335;    0,423;   -0,773
465,495; 7967,574;    2,696;   -1,227
466,082; 8089,346;    2,060;   -0,045
466,670; 7991,080;    2,605;    1,227
467,257; 8384,597;    0,060;    2,045
467,844; 8538,613;    1,514;    0,045
468,432; 8608,370;   -0,031;    3,500
469,019; 8129,757;    1,606;   -1,773
469,606; 8527,434;    0,969;    3,682
470,193; 8358,381;    2,151;    0,227
470,780; 7984,877;    0,333;    0,864
471,368; 8317,340;   -1,212;   -0,773
471,955; 8137,438;    1,060;   -0,682
472,542; 7803,187;   -0,303;   -1,136
473,129; 8007,289;   -0,485;    0,136
473,716; 7755,231;    0,060;    0,591
474,303; 7912,370;    1,333;   -0,864
474,890; 8195,950;    2,333;   -0,500
475,477; 8222,653;   -0,576;    0,409
476,064; 8100,134;    0,697;   -1,591
476,650; 8013,954;    2,152;    0,318
477,237; 7865,136;    1,879;    0,955
477,824; 8017,851;    3,879;    0,864
478,411; 8040,390;    0,606;   -0,318
478,997; 8213,178;    0,606;   -0,773
479,584; 8253,251;   -0,666;   -0,409
480,171; 8889,413;    1,243;   -0,773
480,757; 8589,141;   -0,848;    0,773
481,344; 8820,165;    0,334;    0,409
481,931; 8333,801;   -0,393;    1,045
482,517; 9200,426;    0,425;    0,318
483,104; 9657,046;    1,334;    2,864
483,690; 9904,983;    0,243;    0,045
484,276;10174,452;    0,698;    0,227
484,863; 9912,999;    2,152;    1,136
485,449;10455,892;    0,152;    0,318
486,035;10453,194;   -0,666;   -0,136
486,622;10866,636;   -2,393;    0,045
487,208;10765,046;    1,334;    1,500
487,794;10636,487;    0,971;    0,318
488,380;10760,137;    0,698;   -1,409
488,967;10842,771;   -1,120;   -0,409
489,553;10847,313;   -1,029;   -1,409
490,139;11077,248;    0,971;    0,773
490,725;10582,960;    0,789;   -0,227
491,311;10222,861;    1,516;    3,045
491,897; 9607,252;   -0,665;    1,500
492,483; 9519,380;    0,426;    1,227
493,069; 9383,781;    5,426;    0,864
493,655; 9324,859;    1,789;    0,682
494,241; 9229,941;    1,517;   -0,955
494,826; 9599,334;    0,335;   -1,045
495,412; 9073,266;    0,335;   -0,682
495,998; 9215,920;    0,971;   -0,318
496,584; 9329,490;    2,244;    1,045
497,169; 9307,235;    2,335;   -0,682
497,755; 9277,818;    1,244;    1,227
498,341; 9805,074;    2,153;    0,318
498,926; 9410,078;    2,881;    1,955
499,512; 9574,803;   -0,028;    2,955
500,097; 9642,518;   -0,574;   -0,318
500,683; 9618,771;   -0,028;    2,136
501,268; 9937,934;    1,881;   -0,955
501,854; 9687,294;   -0,119;    1,227
502,439; 9625,796;   -0,573;   -1,773
503,024; 9775,012;    1,608;    0,500
503,610; 9857,371;    1,335;   -0,682
504,195; 9859,617;    1,245;    1,955
504,780; 9953,486;    2,335;    1,227
505,366; 9804,612;    4,063;    2,864
505,951; 9579,337;   -1,119;    1,045
506,536; 9612,487;    1,427;   -3,682
507,121; 9593,672;    1,699;   -0,318
507,706;10046,972;   -0,392;    1,045
508,291;10370,226;   -2,937;    1,136
508,876; 9879,091;   -0,482;    2,591
509,461; 9410,079;    1,427;   -0,773
510,046; 9789,186;   -0,391;    0,318
510,631; 9990,908;   -0,119;   -0,773
511,216; 9673,590;   -0,664;   -0,500
511,801;10038,946;   -0,755;    2,591
512,386;10286,443;    0,972;    0,500
512,971;10216,218;    0,427;    0,955
513,555; 9836,049;    1,154;   -1,500
514,140;10560,834;    1,336;   -3,136
514,725;10539,228;    1,791;   -1,136
515,309;10645,991;    1,064;    0,318
515,894;10160,534;   -0,300;   -2,227
516,479;10559,324;    1,973;   -0,955
517,063;10401,149;    0,882;    1,227
517,648;10532,156;    0,155;   -1,136
518,232;10146,148;   -1,300;   -1,409
518,817;10488,356;    1,337;    1,682
519,401;10683,913;    0,700;    0,591
519,985;10226,991;    2,700;    1,136
520,570;10125,544;   -0,118;   -1,955
521,154;10380,863;    0,064;    0,591
521,738;10513,546;    1,064;    2,409
522,323;11057,080;   -0,390;    1,682
522,907;10794,041;    2,428;   -0,136
523,491;10539,250;    1,155;    0,955
524,075;10526,367;    0,428;    0,591
524,659;10582,202;    0,973;    0,591
525,243;10118,323;    0,883;    0,409
525,827;10315,595;    0,883;   -0,045
526,411;11046,475;    1,155;   -0,136
526,995;11238,059;    0,337;    1,409
527,579;10878,099;    1,974;   -1,045
528,163;11179,149;    0,428;   -1,500
528,747;11082,800;    1,065;   -0,773
529,331;11342,110;    0,883;   -1,409
529,915;11530,858;    2,338;    0,955
530,499;11479,198;    0,247;    1,227
531,082;11198,232;    1,065;    1,591
531,666;10722,989;    0,520;    0,773
532,250;11312,007;    0,428;    2,682
532,833;11566,798;    0,610;    2,773
533,417;11441,325;    1,247;    0,864
534,001;11376,948;    0,429;   -0,318
534,584;12006,984;    1,974;    0,500
535,168;11868,754;    3,247;    1,409
535,751;11900,446;    4,520;    0,045
536,334;11390,711;    4,520;   -0,409
536,918;11916,161;    1,974;    1,591
537,501;12007,321;    1,520;    1,318
538,085;11995,628;    1,702;    1,045
538,668;12116,745;    0,883;    2,409
539,251;12399,134;    3,156;    3,773
539,834;12424,036;    0,156;    0,773
540,418;12356,652;    3,247;    4,318
541,001;12442,070;    2,702;    1,773
541,584;12413,876;    1,429;    2,227
542,167;12126,500;    0,702;    2,955
542,750;12230,516;    0,793;   -0,773
543,333;11831,889;    1,429;    2,136
543,916;12515,557;   -0,298;    2,500
544,499;13042,414;    2,520;    0,227
545,082;13083,055;    0,248;    3,591
545,665;13173,429;   -0,207;    1,500
546,248;13456,526;    0,520;   -0,318
546,830;13130,517;   -1,752;    1,955
547,413;13503,828;    0,157;   -0,773
547,996;13984,985;    0,157;    0,500
548,579;13765,422;   -0,843;    0,955
549,161;13569,791;    0,884;    2,682
549,744;13368,682;    0,612;    0,409
550,326;13810,095;    0,885;   -1,136
550,909;13616,595;    2,339;    0,591
551,492;13971,494;    0,521;    0,227
552,074;13773,450;   -0,024;   -1,318
552,657;14274,133;    2,430;    0,045
553,239;14073,119;   -3,024;   -0,773
553,821;13976,358;   -1,570;    1,045
554,404;13504,858;   -0,024;    1,136
554,986;13850,696;    2,248;    1,045
555,568;14360,227;    0,430;   -0,955
556,151;13683,526;    4,067;   -0,227
556,733;13837,256;   -1,388;   -0,864
557,315;14250,310;    4,703;    0,500
557,897;14062,280;    0,521;   -0,500
558,479;14175,079;    1,703;    1,318
559,061;14273,266;    1,067;   -0,864
559,643;14580,628;   -0,297;    0,045
560,225;14901,141;   -0,388;    2,864
560,807;14943,810;    0,340;    0,318
561,389;14471,297;   -1,206;    2,318
561,971;15051,225;   -0,660;    2,136
562,553;14932,632;    0,613;    1,591
563,135;15026,264;    1,249;    1,136
563,717;14602,898;    3,158;    1,136
564,298;15212,166;    3,976;   -0,045
564,880;14960,419;    0,340;   -1,409
565,462;15120,237;    1,977;    1,318
566,043;16123,591;   -0,933;    2,318
566,625;15695,885;    4,067;    1,227
567,207;15492,688;    0,704;    1,682
567,788;16451,401;   -0,114;    1,500
568,370;17128,579;   -1,841;   -0,500
568,951;16906,776;   -0,569;    0,227
569,533;17651,739;    0,977;   -0,500
570,114;18053,244;   -0,296;    0,682
570,695;18457,787;   -0,478;   -1,318
571,277;18806,989;   -0,205;   -1,682
571,858;19384,495;    2,704;   -1,136
572,439;20113,382;    0,795;   -1,045
573,021;20217,835;    0,432;   -2,773
573,602;20628,472;    1,795;    0,318
574,183;21377,085;   -0,114;    2,227
574,764;21460,579;    2,068;    0,409
575,345;21844,257;    0,250;   -0,136
575,926;22379,874;    2,704;    0,136
576,507;22359,221;    2,704;   -0,227
577,088;23306,470;    1,704;    1,682
577,669;23302,411;    1,704;    1,955
578,250;23923,630;   -0,750;   -1,045
578,831;24393,709;   -0,841;   -2,227
579,412;24567,527;   -1,205;    0,955
579,993;25411,168;    1,432;    0,227
580,573;25706,625;   -0,023;   -0,955
581,154;24709,958;    1,613;   -0,591
581,735;25473,317;    0,341;    0,773
582,315;25000,954;    0,523;    2,136
582,896;25296,761;   -1,750;    1,227
583,477;24836,347;    0,614;    1,227
584,057;24979,599;    1,159;    0,955
584,638;25216,895;   -2,750;    2,318
585,218;25293,278;    2,886;    2,682
585,799;25431,287;    1,977;   -0,227
586,379;25423,834;    1,250;    1,591
586,959;24347,131;    2,613;    0,318
587,540;23822,157;    0,432;    2,227
588,120;23485,319;   -1,113;   -0,045
588,700;22634,190;    2,977;    2,136
589,281;22941,124;    1,250;   -0,955
589,861;22787,566;   -0,296;   -1,682
590,441;22666,263;   -1,477;   -2,682
591,021;21800,371;    1,432;   -2,591
591,601;22054,095;    0,431;    0,500
592,181;22062,748;   -1,296;   -0,773
592,761;21458,406;    2,250;    1,409
593,341;21423,583;    1,522;    0,045
593,921;21417,356;   -0,569;    1,591
594,501;21279,154;    1,250;    1,318
595,081;21077,058;    0,522;   -0,318
595,661;21424,985;    1,068;    0,955
596,240;21930,573;   -1,023;    0,136
596,820;21515,087;    2,613;    1,955
597,400;21608,798;    1,977;    0,773
597,980;21829,037;   -0,750;    1,045
598,559;21910,316;    0,341;   -0,227
599,139;21679,917;   -0,750;   -1,227
599,718;21586,190;    0,795;   -0,409
600,298;21820,703;   -2,387;    0,682
600,877;22029,338;    4,795;    1,409
601,457;22295,125;    0,340;    1,136
602,036;22208,753;    1,795;    2,045
602,616;22322,058;    2,250;    1,682
603,195;22635,146;    0,431;    3,500
603,774;22174,087;   -0,296;    2,045
604,354;22062,022;    2,522;   -0,500
604,933;21638,795;    0,250;    1,864
605,512;21733,572;    2,340;    0,591
606,091;21821,179;    1,886;    3,773
606,671;22563,171;    0,249;    0,773
607,250;21747,311;    1,431;    3,136
607,829;21925,159;    1,158;    3,227
608,408;21811,198;    4,613;    2,591
608,987;20987,304;    2,704;    3,409
609,566;21218,418;    0,341;   -2,500
610,145;21363,561;    2,885;    0,682
610,723;21731,409;    1,613;    6,864
611,302;21058,767;    1,067;    1,682
611,881;20579,780;    5,158;   11,227
612,460;21329,694;    0,795;    3,955
613,039;21719,047;    1,703;    2,045
613,617;20573,916;    0,886;    4,773
614,196;20721,262;    1,613;    1,227
614,775;21007,975;    1,249;    2,409
615,353;20965,365;   -1,660;    0,864
615,932;20786,915;    0,249;    2,409
616,510;21306,632;    0,158;    0,591
617,089;20877,192;    8,794;   17,591
617,667;20699,439;    4,885;    6,136
618,246;20517,806;   -1,115;    1,318
618,824;20718,335;    1,612;   -0,955
619,402;20305,223;    0,431;   -1,773
619,981;20766,678;    1,067;   -1,045
620,559;20640,208;    0,794;    1,682
621,137;20210,240;    3,067;    1,864
621,715;20159,179;    3,703;   -0,682
622,293;20120,420;    1,885;   -0,773
622,871;20591,037;    0,340;    0,500
623,450;20185,703;    0,430;   -0,864
624,028;20108,434;   -0,388;   -0,955
624,606;19777,689;    2,339;    1,682
625,183;20083,596;   -0,661;   -1,136
625,761;19780,436;    1,885;    1,136
626,339;20092,560;    2,339;    2,591
626,917;20448,787;    0,339;   -0,045
627,495;20469,656;    2,794;    1,318
628,073;19894,540;    5,248;    2,864
628,650;19641,285;    3,067;    2,136
629,228;20077,083;    1,248;    4,409
629,806;19531,697;   -0,024;    1,136
630,383;19738,668;    0,066;   -0,318
630,961;19579,357;   -2,206;   -0,955
631,539;19304,596;   -2,479;    0,227
632,116;18783,448;   12,703;   15,409
632,694;19287,899;    4,885;    6,500
633,271;19476,504;    1,975;    2,682
633,848;19449,392;    1,430;    2,045
634,426;19481,691;    1,521;    1,773
635,003;18709,062;   -0,207;   -0,409
635,580;18959,146;    1,884;    3,682
636,158;19486,534;    3,793;    1,227
636,735;19465,073;    3,339;   -0,500
637,312;19537,081;    0,521;   -0,682
637,889;19618,319;    2,248;   -0,682
638,466;19235,636;    0,066;   -0,409
639,043;19230,633;    1,702;   -1,136
639,620;19484,813;    0,611;   -0,955
640,197;19760,864;    1,612;    1,682
640,774;19925,675;    1,430;    1,136
641,351;20264,668;    0,612;    1,136
641,928;19767,933;    2,794;    1,409
642,505;19419,562;    0,794;   -0,500
643,082;19534,373;    1,885;    1,227
643,658;18670,820;    1,157;    1,500
644,235;19349,631;   -2,479;    2,500
644,812;19534,442;    1,794;    0,773
645,388;19266,616;    1,612;    1,409
645,965;19338,882;    1,521;    1,682
646,542;19448,329;    3,430;   -0,227
647,118;19440,413;    3,703;   -0,955
647,695;19666,769;    0,339;    1,136
648,271;19631,307;   -2,115;    0,500
648,848;19862,936;    0,248;    2,227
649,424;19704,565;    0,976;    1,318
650,000;19502,649;   -0,388;   -1,045
650,577;19333,096;    0,158;   -0,955
651,153;19671,816;   -1,115;    0,955
651,729;20505,899;    0,521;    0,864
652,305;20608,801;    1,339;    2,773
652,881;24028,248;   -1,297;    1,136
653,458;29424,514;    0,249;    0,227
654,034;32358,325;    0,703;    1,591
654,610;33540,408;    0,339;    0,773
655,186;34700,492;    1,612;    3,045
655,762;34398,394;   -1,842;    0,409
656,338;34426,295;    0,703;    0,136
656,913;35392,652;   -0,297;    0,409
657,489;34760,917;    0,249;   -0,318
658,065;34714,546;    0,794;   -1,591
658,641;35239,357;    2,158;   -0,864
659,217;34664,077;    2,067;    0,409
659,792;34162,524;   -1,751;   -0,409
660,368;34497,244;   -0,388;   -0,682
660,944;34477,418;    1,794;    1,227
661,519;30905,048;    0,522;    0,409
662,095;26038,131;   -0,206;    0,591
662,670;22225,942;   -0,206;   -0,136
663,246;21330,571;   -0,660;   -0,409
663,821;20708,200;    0,431;    1,682
664,396;20217,102;    0,613;    1,864
664,972;20429,913;   -0,660;   -0,500
665,547;20765,905;    3,794;    0,136
666,122;20810,625;    1,340;    0,318
666,698;21020,163;    2,431;    0,318
667,273;20376,702;    0,885;    0,136
667,848;21101,149;    0,340;    1,500
668,423;20875,414;    1,795;    2,318
668,998;21345,770;    0,976;   -0,682
669,573;21806,581;    2,067;   -1,500
670,148;21695,483;    1,885;   -0,682
670,723;21428,203;   -0,024;    0,318
671,298;21833,377;   -1,296;    1,045
671,873;21884,097;   -0,296;   -0,136
672,448;21816,181;    1,704;    0,136
673,023;22122,083;    0,249;   -0,227
673,597;22403,439;    2,704;    2,318
674,172;22221,614;    2,431;    0,318
674,747;21757,515;   -0,205;   -1,045
675,321;21558,872;   -0,933;    3,318
675,896;21214,228;    2,158;    1,045
676,471;22108,766;    2,522;    1,591
677,045;21857,941;   -0,296;    0,682
677,620;21878,933;    2,158;    1,136
678,194;22213,744;    0,249;    1,136
678,769;21829,191;    0,886;   -0,318
679,343;22061,820;   -0,023;    1,773
679,917;21845,904;    0,340;    1,955
680,492;21880,624;    0,249;    3,227
681,066;22028,889;    0,613;    0,409
681,640;22062,427;    1,795;   -0,318
682,214;22807,966;    2,340;    0,500
682,788;22371,231;    0,613;   -0,773
683,363;22254,951;    1,977;    1,682
683,937;21978,671;    0,886;   -0,318
684,511;22688,300;   -1,023;   -0,591
685,085;22432,656;   -1,478;    0,318
685,659;22184,012;    1,431;    0,864
686,232;22433,460;    1,159;   -0,318
686,806;22173,089;    2,159;    0,409
687,380;22726,990;   -1,932;    0,591
687,954;22925,892;    2,432;    1,136
688,528;22623,521;    2,613;    1,955
689,101;23350,059;    0,432;    1,045
689,675;22993,507;    0,886;   -0,136
690,249;22379,954;    3,432;    0,409
690,822;22741,674;    1,159;    0,318
691,396;22811,121;    2,068;    1,227
691,969;22359,568;    2,523;    0,136
692,543;22803,197;   -0,568;   -1,955
693,116;22428,281;   -0,659;   -1,409
693,690;22311,637;   -0,296;    0,500
694,263;22818,812;    2,341;    2,955
694,836;22815,804;    2,795;    3,591
695,410;21558,797;    1,159;    1,773
695,983;22009,517;    1,614;    0,591
696,556;21975,964;   -0,750;   -1,045
697,129;22346,775;   -1,114;    1,409
697,703;21982,040;    1,341;    1,955
698,276;22030,942;    1,705;   -0,773
698,849;21859,298;   -1,023;    1,409
699,422;22183,837;    1,250;    0,591
699,995;21939,011;   -0,659;    0,136
700,568;22376,276;   -0,204;    3,045
701,140;22350,451;   -1,841;    1,682
701,713;22166,898;    0,341;    2,409
702,286;21938,618;    0,796;    0,864
702,859;21826,520;    0,614;   -0,591
703,432;21088,513;   -0,841;    0,682
704,004;21467,960;    1,978;    0,318
704,577;21399,589;    1,068;    0,136
705,150;21879,582;    0,887;    2,500
705,722;21694,665;    1,523;   -3,227
706,295;21490,658;    1,432;   -0,591
706,867;21359,287;    0,250;    1,955
707,440;21564,734;   -0,113;   -0,409
708,012;21773,272;   -0,022;    0,591
708,584;21675,719;    2,705;    0,227
709,157;21998,439;    1,160;   -0,591
709,729;21693,523;    1,069;    2,045
710,301;22472,788;   -1,204;    0,045
710,874;22462,326;    0,341;   -0,227
711,446;21418,410;   -0,295;    0,864
712,018;21328,403;   -3,022;    0,500
712,590;21107,304;   -0,204;    1,682
713,162;21611,843;   -0,477;    1,318
713,734;21830,744;    1,796;   -2,045
714,306;21717,373;    0,342;   -0,409
714,878;20494,457;   -0,295;    0,864
715,450;21286,450;   -0,113;    0,864
716,022;21544,079;    2,433;    1,318
716,593;21659,435;    0,978;    0,591
717,165;21601,428;    1,796;   -1,227
717,737;21346,148;    0,796;    0,409
718,309;21093,322;    1,160;   -0,045
718,880;21045,951;   -1,295;   -1,409
719,452;21241,216;    0,887;   -1,591
720,024;20893,300;    1,705;   -0,591
720,595;21402,384;    2,978;    0,955
721,167;20964,195;    1,160;   -2,045
721,738;20537,005;    2,069;   -1,045
722,309;20589,907;    1,251;   -1,227
722,881;20364,809;    2,705;    0,773
723,452;20947,529;    1,251;    2,864
724,023;21141,249;    1,524;    2,682
724,595;20933,787;    2,342;    0,682
725,166;20675,870;    1,524;   -0,409
725,737;20341,590;    1,887;    0,227
726,308;20442,674;    0,797;    0,318
726,879;20820,758;    1,069;    1,227
727,450;20669,932;   -2,022;   -0,045
728,021;20625,197;    1,069;    0,682
728,592;20497,099;    1,160;    0,500
729,163;20838,001;    1,433;   -0,136
729,734;20768,448;    2,160;   -0,227
730,305;21094,441;    0,615;    0,136
730,876;21350,252;    0,888;    2,955
731,447;21133,790;    0,797;    2,682
732,017;21258,055;   -0,840;    1,864
732,588;20787,866;   -0,021;    1,227
733,159;20892,222;    3,615;   -1,045
733,729;20721,670;    1,251;    0,409
734,300;20147,026;    0,160;    0,864
734,870;20504,473;   -1,385;    0,591
735,441;20968,739;    0,888;   -0,591
736,011;20772,277;    1,070;   -1,591
736,582;20727,542;    1,251;    0,045
737,152;20192,626;    0,979;   -2,045
737,722;20648,709;    1,070;   -0,682
738,293;20391,156;   -2,021;    1,318
738,863;20283,422;    1,797;    2,318
739,433;20152,051;    4,524;    0,318
740,003;20708,044;    1,524;   -0,682
740,573;20186,218;    2,252;   -1,591
741,143;20183,756;    3,615;    0,318
741,713;20855,567;    0,252;   -0,500
742,283;20612,832;    1,706;    1,591
742,853;20447,461;    0,524;    1,591
743,423;19905,000;    0,161;    0,045
743,993;20011,174;    1,070;    1,500
744,563;19483,258;    2,524;   -0,864
745,133;19484,614;   -0,112;   -0,864
745,702;20090,243;    2,797;    1,773
746,272;19338,963;    0,434;    0,591
746,842;19173,956;   -0,748;   -0,591
747,411;19600,039;   -0,839;   -0,318
747,981;19707,396;   -0,930;    0,500
748,551;19732,934;   -0,021;   -1,045
749,120;19610,835;   -0,112;   -0,227
749,690;19973,464;    2,161;    2,409
750,259;20247,094;    0,979;    2,955
750,828;20106,995;    4,070;   -1,955
751,398;20375,352;   -0,112;   -0,045
751,967;19964,344;    2,888;    0,409
752,536;20115,064;    1,161;   -0,227
753,105;20525,057;   -1,384;    0,227
753,675;20288,050;   -0,112;    1,773
754,244;20215,951;    0,888;    3,591
754,813;20273,671;    0,979;    1,227
755,382;19871,846;    0,798;    0,955
755,951;20312,020;   -0,112;    3,682
756,520;19969,195;    2,525;    1,864
757,089;20477,915;    1,888;    0,500
757,658;20557,998;    2,434;    1,227
758,227;20552,536;   -1,111;    0,318
758,795;20822,529;   -1,021;    1,136
759,364;21061,704;    0,525;   -0,591
759,933;20168,878;    1,343;   -0,045
760,501;19783,871;    0,252;   -1,318
761,070;20191,772;   -0,293;   -1,409
761,639;20833,765;    1,434;    1,318
762,207;20175,303;    0,889;   -0,955
762,776;20117,023;    2,889;    0,864
763,344;20055,380;    0,071;    0,591
763,913;19241,827;    1,616;    1,409
764,481;19963,092;    1,980;   -0,136
765,049;19869,630;    0,616;    1,409
765,618;19719,077;    1,434;    0,318
766,186;19810,707;    2,434;    0,136
766,754;19950,063;    1,798;    1,864
767,322;19047,237;    1,162;    0,409
767,890;19050,230;    0,525;   -1,773
768,459;19506,950;    2,616;   -0,318
769,027;19553,852;    2,525;    3,409
769,595;18654,390;    2,616;    2,591
770,163;19075,201;    3,344;    2,955
770,730;18906,193;    2,525;   -0,136
771,298;18785,004;    1,162;   -1,409
771,866;18865,815;    0,253;    4,955
772,434;19168,171;    1,162;   -1,864
773,002;19338,073;    2,616;    0,682
773,569;19039,157;    1,071;    1,682
774,137;18846,240;    0,889;   -0,045
774,705;19536,415;   -0,747;   -0,136
775,272;19161,953;    0,253;    0,682
775,840;18974,127;   -0,111;    2,682
776,407;18470,484;   -0,293;    1,955
776,975;18100,840;    1,162;    0,318
777,542;19045,196;    2,162;   -0,045
778,110;18943,734;    0,707;   -0,045
778,677;18671,273;    1,071;   -0,864
779,244;18417,447;   -1,020;    1,045
779,812;18490,712;    0,980;    0,864
780,379;18364,432;    2,435;    1,136
780,946;18602,971;    2,617;   -0,773
781,513;18858,872;   -0,565;    0,318
782,080;18269,774;    1,253;    2,864
782,647;18888,312;    1,708;    3,045
783,214;18563,396;   -0,201;    3,864
783,781;18209,298;    1,708;   -0,682
784,348;18158,199;    0,253;    1,500
784,915;18577,737;   -1,474;    0,318
785,482;18357,730;    2,708;    2,591
786,049;18780,814;    1,071;   -0,591
786,615;18856,079;    1,708;   -0,955
787,182;18658,072;   -3,201;   -0,682
787,749;18377,246;   -2,201;    1,409
788,315;17744,784;    0,253;   -0,409
788,882;18021,959;    0,981;   -1,227
789,448;18660,588;    1,435;   -0,955
790,015;18675,944;    1,799;    3,227
790,581;18229,664;    0,708;    0,227
791,148;18142,839;    1,344;    1,045
791,714;18354,649;   -1,019;    3,136
792,280;18068,915;    3,708;    1,591
792,847;17744,271;   -0,928;    2,500
793,413;18172,991;   -0,110;   -0,318
793,979;17818,529;    1,526;   -1,318
794,545;17902,704;    2,981;    2,682
795,111;17383,060;    2,435;    1,318
795,678;17614,780;    3,526;   -1,682
796,244;17272,954;    2,799;    0,136
796,810;17730,856;    0,799;    0,773
797,375;17507,940;   -0,292;   -2,136
797,941;17506,751;   -1,110;    0,591
798,507;17612,380;    0,254;   -0,955
799,073;17237,918;    2,708;    0,591
799,639;17331,456;    1,435;    3,136
800,205;17330,721;   -1,565;    2,682
800,770;16974,532;    1,345;    1,773
801,336;16986,979;    2,981;   -0,955
801,901;16748,427;    6,072;    3,136
802,467;17307,601;    0,526;    2,045
803,033;16716,230;   -0,019;    0,864
803,598;16862,314;    1,072;   -1,045
804,163;16948,670;    0,708;   -0,318
804,729;16875,026;   -0,110;    1,136
805,294;17209,383;    1,072;    2,227
805,859;17008,375;    0,890;   -0,409
806,425;16606,732;    3,890;    2,682
806,990;16309,906;    1,890;    4,318
807,555;16720,172;   -0,110;    2,591
808,120;16620,346;   -1,292;   -0,409
808,685;16680,157;    1,072;   -2,500
809,250;16288,331;    2,072;   -0,500
809,815;16515,415;   -0,201;    0,682
810,380;16983,499;    0,981;    1,591
810,945;17408,309;    2,890;    2,045
811,510;16726,848;   -0,200;    1,591
812,075;16490,204;    2,800;   -1,409
812,640;16510,106;    3,709;    1,409
813,204;16587,916;    2,163;   -0,227
813,769;16993,909;    0,254;   -0,045
814,334;16507,629;    0,527;    0,864
814,898;16554,167;    1,981;    0,591
815,463;16401,796;    0,981;   -0,773
816,027;16391,880;    1,345;   -2,318
816,592;16504,054;    2,163;   -2,045
817,156;16073,502;   -2,200;    1,136
817,721;15947,403;    0,982;    2,318
818,285;15965,941;    0,618;    1,500
818,849;16481,934;   -0,018;    1,682
819,414;16383,200;    0,073;    2,955
819,978;16046,283;   -0,291;    1,773
820,542;16579,185;    2,891;    0,500
821,106;16370,632;    2,800;    0,682
821,670;16402,625;    2,709;    2,591
822,234;16162,436;    1,073;    1,409
822,798;15634,883;   -0,836;    0,500
823,362;15622,875;    1,527;    4,227
823,926;15087,141;   -0,018;    1,136
824,490;15246,770;    3,527;   -0,682
825,054;15648,763;    2,527;   -1,136
825,618;15366,301;   -1,200;   -1,500
826,181;15327,657;    0,982;   -1,318
826,745;15235,832;   -0,745;   -1,045
827,309;15547,733;    2,255;    1,318
827,872;15000,908;    0,527;    0,955
828,436;15869,355;    1,982;   -0,773
828,999;16026,166;    2,436;    1,227
829,563;14970,522;   -0,654;    1,136
830,126;14783,333;   -0,018;   -0,591
830,690;14797,962;    0,709;    2,864
831,253;14373,864;   -0,473;    2,227
831,816;14543,220;   -0,018;    0,500
832,380;14483,758;    1,164;    0,864
832,943;14716,296;    3,073;   -0,500
833,506;14231,744;    0,255;   -1,227
834,069;14933,736;    2,164;   -0,955
834,632;15008,911;   -2,200;    1,318
835,195;14877,540;    1,346;    0,955
835,758;14250,532;    0,709;    1,955
836,321;14071,707;    1,073;   -1,045
836,884;14206,609;   -1,291;   -0,955
837,447;14249,874;    0,528;    1,773
838,010;14464,230;    1,800;    3,227
838,573;14729,314;    0,528;    0,773
839,135;14727,488;   -0,109;   -0,955
839,698;14218,936;    2,528;    0,409
840,261;13812,474;    0,255;   -0,227
840,823;13696,830;   -0,927;    0,864
841,386;13935,550;   -0,018;   -2,409
841,948;13871,634;    0,255;    1,773
842,511;13648,081;    0,255;    1,682
843,073;13742,255;    2,982;    0,227
843,636;13579,157;    0,619;   -0,227
844,198;13490,968;    1,255;    0,591
844,760;13571,324;    0,619;    1,955
845,322;13277,590;    0,164;    1,136
845,885;13683,037;   -0,290;    0,591
846,447;14093,393;    0,710;    0,227
847,009;13737,840;    3,983;   -0,682
847,571;13971,288;    1,346;   -2,045
848,133;14039,280;   -0,199;   -1,864
848,695;13903,273;    2,346;    1,409
849,257;13502,902;    1,346;   -1,682
849,819;13702,077;    2,983;   -0,409
850,381;13686,887;    1,801;   -0,864
850,942;14015,516;    1,892;   -0,591
851,504;13958,509;    0,983;    0,227
852,066;13983,956;    1,619;   -1,591
852,628;13636,767;    0,165;    1,955
853,189;13189,851;    0,256;    2,682
853,751;13315,298;   -0,654;    1,409
854,312;13137,654;    1,256;   -1,682
854,874;13581,829;   -0,108;   -0,773
855,435;14023,367;    0,528;   -1,682
855,997;14175,087;    3,983;   -0,136
856,558;13534,807;    0,801;    1,773
857,119;13627,527;   -0,744;    2,864
857,681;13320,428;   -0,108;    0,318
858,242;13357,967;    1,347;   -2,136
858,803;13766,687;    1,074;   -0,773
859,364;14322,225;    0,892;   -4,773
859,925;13732,490;   -0,290;   -0,955
860,486;13634,665;    0,529;   -0,955
861,047;13378,930;    0,165;   -1,227
861,608;13233,377;    0,165;   -0,773
862,169;13406,006;   -0,562;   -0,045
862,730;13129,908;   -0,290;    1,409
863,291;13371,901;    0,438;   -0,500
863,852;13673,075;   -0,926;    1,955
864,412;13191,341;   -1,835;   -0,864
864,973;11975,879;    1,892;    0,500
865,534;11884,508;    2,074;    0,227
866,094;13191,137;    2,620;    0,227
866,655;12908,220;    4,711;    3,318
867,215;13171,940;    0,074;    0,136
867,776;13048,387;   -1,199;   -0,136
868,336;13111,380;    1,529;    0,136
868,897;12739,373;    3,438;    1,682
869,457;12518,456;    3,256;    0,318
870,017;12719,267;    2,438;   -1,227
870,578;13175,442;    1,893;    0,773
871,138;12802,889;    2,620;   -0,955
871,698;12400,791;   -0,562;   -1,318
872,258;12310,147;    0,711;   -2,864
872,818;12644,776;    2,347;    0,045
873,378;12624,860;   -2,198;    1,045
873,938;12252,125;    4,984;    0,500
874,498;12525,936;    1,256;   -1,955
875,058;12429,292;    4,347;    1,773
875,618;12273,921;    1,438;   -2,682
876,177;12241,278;   -0,471;    0,136
876,737;11891,816;   -0,289;    1,955
877,297;11934,081;    2,711;    1,955
877,856;11952,165;    2,529;    0,318
878,416;11892,976;    2,438;   -0,136
878,976;12061,968;    3,438;    0,409
879,535;12232,325;    4,529;    3,136
880,095;12053,135;    1,347;    0,045
880,654;12173,673;    0,347;    1,318
881,213;12246,484;    2,347;    1,500
881,773;11924,477;    1,984;    2,682
882,332;12258,015;    6,075;    5,136
882,891;12121,371;    0,711;    2,136
883,451;12489,091;   -2,016;    1,682
884,010;11993,811;   -1,107;   -0,409
884,569;12058,259;   -2,289;   -0,045
885,128;12219,160;   -0,743;   -1,864
885,687;12289,789;   -0,743;    0,682
886,246;12023,782;    2,620;    2,136
886,805;11781,411;    1,620;    2,045
887,364;12018,222;    1,166;   -0,500
887,922;12343,033;   -0,016;    0,045
888,481;11866,298;    1,530;    0,591
889,040;12130,291;    3,711;    2,136
889,599;12691,647;    2,166;    1,409
890,157;12772,185;    2,166;    2,409
890,716;12449,723;    2,166;    0,227
891,274;12265,171;    0,075;   -1,136
891,833;12612,163;    1,166;    0,864
892,391;12498,883;    1,802;    0,500
892,950;12580,058;    0,166;   -0,773
893,508;12902,141;    0,984;   -0,409
894,067;12320,679;   -0,379;    0,136
894,625;12241,399;   -1,016;   -1,500
895,183;12437,847;   -0,198;   -0,682
895,741;12383,839;    2,257;   -1,773
896,299;12220,559;    1,621;   -2,409
896,858;12373,188;    1,530;   -1,591
897,416;12534,999;    0,166;   -1,318
897,974;12304,355;   -2,197;    0,318
898,532;12442,712;    6,530;    2,682
899,089;12341,250;    0,621;   -0,682
899,647;12435,606;    0,530;    1,318
900,205;12223,144;    0,257;    1,045
900,763;12376,137;    2,166;    0,227
901,321;12405,857;    3,530;   -1,409
901,878;11892,031;    3,257;   -0,773
902,436;11799,660;    0,257;    1,318
902,994;12186,108;    6,712;    3,682
903,551;11692,282;    1,439;    0,409
904,109;12075,275;    1,530;   -1,409
904,666;11726,449;    1,439;    1,045
905,224;11567,351;    3,894;   -0,409
905,781;11363,798;   -0,470;   -0,318
906,338;11418,155;    0,167;    1,045
906,895;11409,784;    1,894;    2,045
907,453;11349,140;    2,348;    1,136
908,010;11349,860;    3,348;    0,409
908,567;11052,216;   -0,561;    0,591
909,124;10629,118;    2,439;   -1,500
909,681;10667,020;   -1,288;    0,682
910,238;10868,285;   -0,106;   -1,318
910,795;11173,914;   -1,561;   -1,136
911,352;10844,914;   -0,379;   -2,682
911,909;10401,278;    2,803;   -0,864
912,466;10798,914;    1,985;    1,500
913,022;10371,551;   -0,924;    0,500
913,579;10734,823;   -0,470;    2,045
914,136;10479,732;   -2,561;    0,955
914,692;10756,096;    1,530;   -1,227
915,249;10429,641;    0,530;    0,409
915,806;10648,914;    1,803;    1,955
916,362;10471,369;    0,894;    1,864
916,918;10073,005;    2,439;    1,045
917,475;10036,005;    1,621;    0,955
918,031;10092,732;    0,076;   -0,045
918,587; 9636,460;    0,621;   -0,318
919,144; 9895,823;   -0,379;    0,227
919,700;10172,369;    0,167;    0,773
920,256; 9788,096;    0,439;    0,045
920,812; 9510,460;    1,439;   -1,045
921,368; 9568,732;    1,348;   -1,045
921,924; 9234,369;    0,439;   -0,136
922,480; 8896,551;    0,076;    1,227
923,036; 9451,369;   -0,652;    1,955
923,592; 9404,278;    0,621;    0,318
924,148; 9344,278;    1,894;   -0,955
924,704; 8804,096;    0,258;   -0,409
925,259; 9081,914;   -0,561;    0,591
925,815; 8840,187;    3,803;    0,500
926,371; 8451,460;    3,530;    1,409
926,926; 8376,641;    1,621;    0,591
927,482; 8080,823;    1,621;    0,773
928,037; 8031,369;   -0,833;    2,045
928,593; 8310,732;    0,258;    1,045
929,148; 8190,551;    1,167;   -1,500
929,704; 7752,005;    2,439;   -0,500
930,259; 7928,823;    0,894;   -0,136
930,814; 7200,278;    1,803;    1,955
931,369; 6965,823;    0,258;   -0,773
931,925; 6898,914;   -1,924;    0,136
932,480; 6822,823;    3,076;   -2,591
933,035; 6809,369;    3,985;   -0,318
933,590; 6600,460;   -1,742;   -1,773
934,145; 6335,823;   -1,288;   -0,318
934,700; 6625,096;    0,348;   -0,591
935,255; 6507,551;    4,803;    0,045
935,809; 5983,732;    6,258;    0,864
936,364; 5278,823;    2,167;   -0,136
936,919; 5293,641;    2,348;   -1,773
937,474; 5228,005;    1,348;    0,136
938,028; 5051,823;    3,076;    1,136
938,583; 4704,823;    6,348;    4,682
939,138; 4928,551;    0,167;    2,136
939,692; 4468,823;   -1,015;   -1,136
940,247; 4246,369;    1,167;   -1,045
940,801; 3954,460;    0,621;    0,227
941,355; 3889,460;    0,439;    2,591
941,910; 3605,187;    0,712;   -2,136
942,464; 3731,823;    2,712;   -0,318
943,018; 3637,914;    3,258;   -0,227
943,572; 3556,187;    2,803;   -0,682
944,126; 3133,641;   -0,924;   -0,409
944,681; 3032,641;    0,712;    0,227
945,235; 3020,460;    2,167;   -0,591
945,789; 2953,732;    1,258;   -1,864
946,342; 3140,096;   -0,561;   -0,591
946,896; 2906,369;    0,348;    0,955
947,450; 2700,732;   -0,561;   -0,227
948,004; 2943,460;    1,076;   -0,045
948,558; 2900,732;    1,258;   -0,864
949,111; 2830,460;   -1,197;   -0,318
949,665; 2930,187;   -0,106;   -0,682
950,219; 2834,823;    0,621;   -1,045
950,772; 2865,460;    0,258;    1,864
951,326; 2800,278;   -1,106;   -0,955
951,879; 2835,005;    1,076;   -2,318
952,433; 2887,187;    1,348;    2,227
952,986; 2718,641;    0,348;    0,682
953,539; 2672,914;    1,530;    0,591
954,093; 2635,369;    0,985;   -1,318
954,646; 2775,551;   -0,288;    1,318
955,199; 2595,005;    1,258;   -0,500
955,752; 2570,369;    1,985;    1,773
956,305; 2503,732;    0,894;    2,955
956,858; 2637,005;    0,621;   -0,318
957,411; 2785,369;    3,621;    2,136
957,964; 2619,369;    2,076;    2,136
958,517; 2592,369;    0,985;    3,136
959,070; 2464,732;   -1,197;    1,955
959,623; 2633,551;    1,076;    1,500
960,176; 2436,460;    0,712;    2,045
960,728; 2418,641;    1,712;    0,773
961,281; 2471,914;    2,258;    0,500
961,834; 2465,460;   -0,833;    0,864
962,386; 2388,096;    1,258;    1,045
962,939; 2314,551;    3,439;   -0,318
963,491; 2433,551;    2,621;    1,136
964,043; 2323,096;    0,076;    2,409
964,596; 2463,732;    1,712;    2,227
965,148; 2317,369;   -0,379;    1,773
965,700; 2233,551;   -0,015;   -0,227
966,253; 2390,732;   -0,833;    0,318
966,805; 2267,641;    1,894;    0,773
967,357; 2269,641;    0,439;   -1,500
967,909; 2288,005;    1,167;   -1,227
968,461; 2337,005;    0,894;    3,136
969,013; 2276,187;   -1,561;   -0,864
969,565; 2353,278;    1,803;   -1,136
970,117; 2548,369;    3,803;    1,045
970,669; 2291,732;    3,258;   -0,136
971,220; 2123,914;    2,167;   -1,500
971,772; 2111,551;    1,348;   -0,318
972,324; 2235,551;   -1,197;   -0,500
972,876; 2159,096;    0,167;   -0,045
973,427; 2320,005;   -1,197;   -1,045
973,979; 2302,460;    0,076;   -2,500
974,530; 2246,278;    0,803;    1,318
975,082; 2263,005;    2,167;    1,682
975,633; 2187,460;    2,894;    1,682
976,184; 2329,369;    2,076;    0,773
976,736; 2188,187;    0,348;    0,227
977,287; 2029,914;    0,258;   -0,500
977,838; 2148,278;   -0,924;   -0,318
978,389; 2200,278;    0,803;   -0,500
978,940; 2052,641;    1,258;   -0,409
979,491; 2088,641;    2,258;   -0,500
980,042; 2083,278;   -0,652;    3,045
980,593; 2109,187;    1,894;    0,227
981,144; 2196,278;    3,530;   -0,500
981,695; 2211,732;   -0,470;    1,500
982,246; 2154,187;   -1,833;    1,045
982,797; 2218,005;   -0,561;    0,682
983,347; 2347,641;    2,167;    0,591
983,898; 2523,823;    4,167;    0,409
984,449; 2391,278;    2,530;    0,773
984,999; 2235,096;    1,894;   -1,136
985,550; 2081,732;    3,167;   -0,318
986,100; 2073,914;    0,712;   -0,318
986,651; 2080,641;    0,258;    0,045
987,201; 2091,369;    0,894;   -0,591
987,751; 2141,278;   -0,288;    2,864
988,302; 2141,823;   -0,379;    1,500
988,852; 2154,551;    1,985;   -1,136
989,402; 2234,732;    0,985;    0,682
989,952; 2196,005;    1,621;    0,864
990,502; 2196,460;    1,076;    0,682
991,052; 2132,914;   -0,106;    0,045
991,602; 2059,369;    1,167;    1,318
992,152; 2078,823;    2,803;    0,682
992,702; 2066,914;    1,167;   -0,045
993,252; 2010,641;    0,076;   -0,500
993,802; 2105,187;    1,167;    1,318
994,352; 2261,732;   -0,742;    1,136
994,901; 2286,096;    1,076;    3,227
995,451; 2214,641;   -1,197;    0,318
996,000; 2294,096;    1,076;    0,318
996,550; 2082,278;    2,894;    0,227
997,100; 2082,823;   -0,561;   -0,045
997,649; 2340,823;   -0,197;    0,955
998,198; 2045,369;   -0,288;   -1,500
998,748; 2227,823;    0,348;   -2,318
999,297; 2108,460;    0,985;   -0,409
999,846; 2224,278;    1,894;   -0,773
1000,395; 2201,551;    1,530;    0,500
1000,945; 2226,914;    1,076;   -0,773
1001,494; 2308,187;    0,167;    0,682
1002,043; 2282,096;    0,712;    0,864
1002,592; 2079,369;    3,439;    1,955
1003,141; 2211,005;    2,439;   -0,682
1003,690; 2155,187;    1,258;    0,500
1004,238; 2143,096;   -0,106;   -0,045
1004,787; 1869,551;   -1,288;    1,227
1005,336; 2124,369;    1,621;    0,682
1005,885; 2180,005;   -0,197;   -2,773
1006,433; 2258,278;   -0,470;    0,955
1006,982; 2423,369;    2,167;    1,682
1007,531; 2273,460;    2,712;   -0,227
1008,079; 2197,641;    0,258;    0,500
1008,627; 2297,005;    1,621;    0,409
1009,176; 2122,187;    0,076;   -1,955
1009,724; 2140,369;   -2,742;    0,864
1010,273; 2244,278;    1,076;    0,500
1010,821; 2279,005;    1,076;    1,409
1011,369; 2071,460;    0,076;    1,318
1011,917; 2071,914;   -0,833;   -0,591
1012,465; 2307,096;    2,530;   -1,591
1013,013; 2358,914;    0,439;   -1,682
1013,561; 2309,187;   -1,288;   -0,773
1014,109; 2389,278;   -0,833;    1,682
1014,657; 2259,005;    1,348;    0,591
1015,205; 2303,551;    0,894;   -0,955
1015,753; 2311,187;    0,258;   -1,409
1016,301; 2345,641;    2,621;    3,045
1016,848; 2364,369;    2,167;    0,409
1017,396; 2430,914;    1,621;    0,045
1017,944; 2496,460;    2,621;    1,864
1018,491; 2263,823;   -0,197;    1,409
1019,039; 2532,551;   -0,652;    0,591
1019,586; 2373,187;    0,076;    1,682
1020,134; 2418,005;    0,712;    1,500
1020,681; 2452,005;    2,894;   -1,136
1021,228; 2416,278;   -0,561;   -2,227
1021,776; 2290,005;   -0,833;   -1,136
1022,323; 2554,914;    0,803;    0,773
1022,870; 2462,369;   -0,470;   -0,045
1023,417; 2410,641;    2,076;    1,864
1023,964; 2457,732;    0,621;    1,227
1024,511; 2369,369;   -0,652;    0,773
1025,058; 2196,187;    0,439;   -0,045
1025,605; 2232,641;   -1,742;    3,136
1026,152; 2482,369;   -0,106;   -0,591
1026,699; 2199,732;    0,167;    1,318
1027,245; 2336,369;    2,439;    0,318
1027,792; 2456,005;    0,712;    1,409
1028,339; 2474,732;    4,076;   -0,045
1028,885; 2315,187;    3,621;   -0,227
1029,432; 2238,551;   -0,106;    0,227
1029,978; 2328,914;    1,348;   -1,591
1030,525; 2243,732;    1,621;    0,409
1031,071; 2395,369;    0,348;    1,136
1031,618; 2588,732;    1,258;    1,682
1032,164; 2329,005;    2,076;    3,045
1032,710; 2404,732;    0,076;   -1,500
1033,256; 2306,096;    0,712;   -0,136
1033,803; 2235,914;   -0,288;    1,500
1034,349; 2026,369;    1,803;    0,136
1034,895; 2156,551;    2,621;   -0,318
1035,441; 2165,914;    0,439;    0,318
1035,987; 2186,823;   -2,288;   -0,682
1036,533; 2227,732;   -0,197;   -0,955
1037,078; 2433,732;    4,712;    1,682
1037,624; 2254,005;    2,439;   -0,955
1038,170; 2219,278;    1,712;   -0,318
1038,716; 2188,278;    2,167;   -0,409
1039,261; 2061,823;    2,167;   -0,773
1039,807; 2032,278;   -0,015;    3,409
1040,352; 2110,551;   -1,288;   -0,318
1040,898; 2132,551;    0,167;   -0,682
1041,443; 2038,732;    0,803;   -2,591
1041,989; 2179,823;    3,621;    1,591
1042,534; 2011,641;    0,985;    2,591
1043,079; 2038,460;    1,985;    0,955
1043,625; 1924,641;    0,258;    0,500
1044,170; 1966,551;    2,439;    1,045
1044,715; 2246,914;    0,167;    0,955
1045,260; 2078,823;   -0,833;   -0,955
1045,805; 2063,641;    0,258;   -0,591
1046,350; 1998,551;    0,530;   -0,409
1046,895; 2053,187;    0,803;    1,591
1047,440; 2020,369;    1,530;    0,409
1047,985; 1886,187;   -1,197;   -0,955
1048,530; 1811,641;    1,348;    1,227
1049,074; 1900,460;    2,803;    0,318
1049,619; 1850,823;   -0,924;    1,955
1050,164; 1711,732;    1,076;    0,227
1050,708; 1767,278;    2,621;    0,045
1051,253; 2141,823;    3,258;   -2,227
1051,797; 1847,914;   -0,197;   -1,318
1052,342; 1794,551;    1,348;    1,045
1052,886; 1815,641;    1,803;   -1,409
1053,430; 1689,641;    2,167;    0,136
1053,975; 1719,914;    0,894;   -0,318
1054,519; 1720,005;    1,803;    3,227
1055,063; 1779,096;    3,621;    1,318
1055,607; 1701,278;    1,348;    0,227
1056,151; 1709,732;    0,530;    1,682
1056,695; 1598,460;   -1,833;   -1,136
1057,239; 1664,551;   -1,197;   -0,682
1057,783; 1682,369;    2,258;   -1,500
1058,327; 1688,187;    3,076;    1,409
1058,871; 1914,005;    3,985;    1,318
1059,415; 1643,732;   -0,561;   -0,045
1059,958; 1920,641;    2,985;    2,591
1060,502; 1627,369;    1,348;   -0,773
1061,046; 1505,005;    1,712;   -0,955
1061,589; 1472,551;    2,803;   -1,136
1062,133; 1385,551;    0,985;    1,864
1062,676; 1356,732;    1,439;    0,864
1063,220; 1378,278;    0,985;    0,500
1063,763; 1405,278;    2,985;    1,136
1064,306; 1479,369;    0,985;    1,864
1064,849; 1392,914;    2,076;    0,591
1065,393; 1391,369;    2,894;   -1,500
1065,936; 1467,005;    2,530;   -0,409
1066,479; 1331,005;    2,621;    1,318
1067,022; 1362,005;    1,894;   -0,227
1067,565; 1295,823;   -1,197;   -1,318
1068,108; 1291,732;    1,258;   -0,591
1068,651; 1271,732;   -2,470;    1,409
1069,194; 1217,005;   -1,106;   -1,682
1069,736; 1229,551;    3,803;    0,955
1070,279; 1209,096;   -1,652;   -0,500
1070,822; 1290,460;    1,530;   -0,318
1071,364; 1402,369;    0,530;    1,318
1071,907; 1203,187;    0,348;    3,227
1072,450; 1080,369;    0,258;   -0,045
1072,992; 1109,823;   -0,561;    3,136
1073,535; 1262,278;    0,167;    2,136
1074,077; 1066,005;    2,985;    2,045
1074,619; 1044,823;    0,985;    0,591
1075,161; 1089,369;   -0,561;    1,500
1075,704; 1273,369;    0,258;    1,227
1076,246; 1050,732;    1,530;    0,682
1076,788;  970,187;   -1,015;    1,773
1077,330; 1023,369;   -2,106;    2,136
1077,872; 1026,187;   -1,924;    0,955
1078,414; 1270,369;    3,712;    0,773
1078,956; 1016,460;    0,167;   -0,227
1079,498; 1273,187;    0,439;    0,318
1080,040;  998,732;    0,985;   -1,318
1080,581;  934,278;    0,621;   -0,318
1081,123;  854,641;   -0,106;   -0,773
1081,665;  903,551;    3,803;   -0,955
1082,206; 1194,732;    3,258;   -0,500
1082,748; 1065,369;    3,258;    2,045
1083,289;  923,914;    0,167;    1,318
1083,831;  857,187;    0,258;    0,227
1084,372;  914,823;    0,894;    0,591
1084,913;  911,096;    3,348;    0,864
1085,455;  866,005;    1,530;   -2,045
1085,996;  861,641;    0,530;    0,136
1086,537;  899,823;    0,985;    0,864
1087,078;  906,369;    0,439;   -2,136
1087,619;  961,732;   -1,652;    0,227
1088,160;  878,823;    1,439;    1,318
1088,701;  849,096;   -0,742;    0,682
1089,242;  808,551;   -0,561;   -2,227
1089,783;  903,369;   -0,561;    1,409
1090,324;  885,096;   -0,833;    0,682
1090,865;  760,823;   -1,924;   -0,409
1091,405;  712,096;   -0,561;    2,227
1091,946;  747,641;   -0,197;   -0,955
1092,487;  691,187;   -1,288;   -1,409
1093,027;  869,732;    1,803;   -1,500
1093,568;  730,187;    2,258;    1,227
1094,108;  816,096;    0,621;    1,773
1094,649;  748,187;   -0,470;    0,136
1095,189;  691,914;    1,167;   -0,682
1095,729;  669,096;    0,712;    0,955
1096,269;  651,187;    1,258;   -0,955
1096,810;  946,460;   -0,197;    0,500
1097,350;  804,914;   -0,561;   -0,773
1097,890;  705,641;    2,985;    1,227
1098,430;  953,641;    4,985;    2,864
1098,970;  840,005;    1,894;    1,682
1099,510;  688,096;   -0,833;   -2,318
1100,050;  630,460;    0,258;   -1,591
1100,589;  609,369;    0,076;   -0,318
1101,129;  726,460;    0,894;   -0,955
1101,669;  870,732;    2,803;    2,136
1102,209;  707,005;    1,530;    2,227
1102,748;  668,551;    3,439;    0,955
1103,288;  666,823;    0,712;   -1,227
1103,827;  678,187;    3,530;   -2,227
1104,367;  567,005;    1,712;   -2,409
1104,906;  539,732;   -1,015;   -1,136
1105,445;  616,914;    0,985;   -1,136
1105,985;  576,187;   -0,652;    1,500
1106,524;  617,641;    1,530;   -0,682
1107,063;  595,096;    1,167;    1,409
1107,602;  551,823;    1,894;   -1,500
1108,141;  488,278;    1,621;    1,500
1108,680;  591,914;    3,985;   -0,591
1109,219;  526,823;    0,167;   -0,500
1109,758;  537,460;    4,167;    0,682
1110,297;  518,096;   -1,106;   -0,682
1110,836;  460,096;    1,439;    0,955
1111,375;  600,823;    0,348;    0,409
1111,913;  621,187;    0,985;    0,773
1112,452;  561,096;    0,894;    0,136
1112,991;  448,914;    1,076;    1,955
1113,529;  424,641;    0,167;   -0,045
1114,068;  489,369;    0,439;    2,955
1114,606;  401,914;   -0,561;   -0,955
1115,144;  552,823;    1,530;    1,045
1115,683;  494,551;    1,985;    0,318
1116,221;  532,005;    2,076;   -0,864
1116,759;  445,096;    1,621;   -0,864
1117,297;  640,096;    1,621;    1,864
1117,836;  462,278;    1,985;   -1,227
1118,374;  467,823;    0,258;   -0,682
1118,912;  412,823;    0,439;    2,682
1119,450;  405,460;    0,985;    0,864
1119,988;  450,096;    3,348;    2,136
1120,525;  886,096;    7,258;    3,318
1121,063;  594,823;    0,530;    1,864
1121,601;  419,641;    1,076;   -1,227
1122,139;  377,914;    1,076;   -2,045
1122,676;  565,914;   -1,652;    2,773
1123,214;  513,914;    0,712;    4,409
1123,751;  337,369;    0,621;    2,227
1124,289;  450,369;    0,894;   -0,409
1124,826;  341,460;   -0,379;    0,227
1125,364;  270,460;    0,712;   -0,955
1125,901;  449,823;    6,258;    1,227
1126,438;  548,823;    3,530;    0,955
1126,975;  294,278;    2,985;   -0,773
1127,513;  354,187;    2,621;    2,136
1128,050;  275,914;   -0,561;   -0,682
1128,587;  366,732;    1,348;   -0,227
1129,124;  404,914;   -0,015;    1,318
1129,661;  280,732;   -1,924;    0,227
1130,198;  438,551;    2,439;    0,773
1130,734;  379,732;   -0,379;    1,409
1131,271;  251,641;   -1,197;    0,864
1131,808;  422,187;    1,621;    3,045
1132,345;  307,914;    4,530;    0,318
1132,881;  181,096;   -0,561;   -1,864
1133,418;  314,641;    0,348;   -1,136
1133,954;  257,096;    0,712;   -2,682
1134,491;  321,732;    1,712;   -0,773
1135,027;  235,278;    2,167;    0,864
1135,564;  313,732;    1,439;    2,955
1136,100;  292,823;   -0,742;    2,136
1136,636;  197,823;   -1,015;   -1,045
1137,172;  283,096;    0,894;   -1,045
1137,708;  216,460;   -1,561;   -1,045
1138,245;  229,551;    0,803;   -1,227
1138,781;  180,369;    1,803;   -3,318
1139,317;  234,732;    1,894;   -1,409
1139,852;  236,187;    3,076;    0,136
1140,388;  337,551;    2,076;   -0,409
1140,924;  228,551;    1,076;   -2,227
1141,460;  172,187;   -0,288;    0,136
1141,996;  118,096;   -0,652;    2,682
1142,531;  163,187;    1,076;    3,318
1143,067;  359,551;    1,167;    1,045
1143,602;  403,369;    3,439;   -0,318
1144,138;  269,551;    0,803;    1,045
1144,673;  153,914;    1,621;    1,409
1145,209;  212,914;    2,894;   -0,318
1145,744;  133,823;    0,803;    0,864
1146,279;  258,732;    1,530;   -0,136
1146,815;  192,551;    1,530;   -2,682
1147,350;  230,641;   -0,924;    0,045
1147,885;  146,914;   -1,924;   -1,318
1148,420;  145,369;    2,439;    0,773
1148,955;  132,278;   -1,470;    1,864
1149,490;  147,641;   -1,106;   -1,591
1150,025;  132,460;   -1,106;   -1,773
1150,560;  236,096;   -0,288;   -0,955
1151,094;  209,369;    0,258;   -0,591
1151,629;  207,005;   -3,742;    0,864
1152,164;  147,823;   -1,288;    1,318
1152,698;  113,914;    1,258;   -0,136
1153,233;   67,732;   -1,379;   -0,682
1153,767;  104,914;   -0,288;   -2,318
1154,302;  159,823;   -0,379;    1,773
1154,836;  159,096;    0,803;   -2,136
1155,371;  204,551;    2,258;    3,682
1155,905;  160,278;    1,985;    1,682
1156,439;  140,187;    0,530;   -0,500
1156,973;  163,005;    0,439;    0,318
1157,507;  110,369;   -1,742;    0,682
1158,042;  136,641;   -0,652;    1,045
1158,576;  173,369;   -0,561;    1,773
1159,110;  163,096;    0,076;    2,409
1159,643;  139,551;   -2,470;   -0,045
1160,177;   87,369;   -2,015;    1,500

