
Integration time [ms]:   0,050
Averaging Nr. [scans]: 11
Smoothing Nr. [pixels]: 0
Data measured with spectrometer [name]: 7318044SP
Wave   ;Sample   ;Dark     ;Reference
[nm]   ;[counts] ;[counts] ;[counts] 

186,757;  -25,057;   38,161;    1,318
187,357;  -10,913;   26,706;    0,955
187,958;  -27,455;   17,252;   -1,591
188,558;    2,197;   12,979;   -1,227
189,159;  -15,976;   10,070;   -4,500
189,759;  -29,201;    5,797;   -3,591
190,360;  -26,273;    6,797;   -2,136
190,960;  -11,240;    5,706;   -4,136
191,560;   -7,033;    2,614;   -6,591
192,161;  167,909;    5,885;   -3,500
192,761;   46,111;    5,520;   -3,227
193,361;    0,240;    3,065;   -3,773
193,962;   43,576;    1,612;   -2,682
194,562;   -5,540;   -0,114;   -3,955
195,162;   -3,078;   -0,567;   -2,227
195,762;   98,962;    2,433;   -0,045
196,362;   55,893;    1,706;   -2,500
196,963;  -10,369;    1,706;   -0,864
197,563;   28,933;    1,252;   -0,955
198,163;  -13,797;   -0,111;   -0,682
198,763;   -5,741;   -0,020;   -0,500
199,363;   34,527;    3,616;   -0,500
199,963;   15,463;    2,162;    0,409
200,563;    5,072;    6,344;   -1,409
201,163;   -2,926;    5,435;   -0,227
201,763;   19,209;    1,435;    0,318
202,363;   -8,922;    0,980;    1,500
202,963;   14,022;    1,526;    1,045
203,563;   52,043;    0,344;    0,500
204,162;   -3,192;    1,889;   -1,864
204,762;   -1,244;    2,071;    0,591
205,362;  -12,346;    0,708;    1,955
205,962;   11,064;    3,435;    1,955
206,562;    4,694;    1,889;    2,318
207,161;   -7,175;    1,708;    0,318
207,761;   53,819;    4,435;    2,409
208,361;   -4,810;    1,889;    1,409
208,960;   17,532;    2,889;    1,500
209,560;   13,875;    0,435;    1,591
210,160;   23,653;    5,071;    1,864
210,759;    4,775;    0,708;    1,227
211,359;  -10,985;   -0,474;    1,045
211,958;   73,226;    3,526;    2,045
212,558;   84,716;    0,799;    1,864
213,157;   26,474;   -0,929;    1,500
213,757;  140,071;    5,617;   -0,227
214,356;   44,319;    1,708;   -0,409
214,956;  118,468;    3,526;    0,409
215,555;   22,936;    0,617;    2,136
216,154;   -3,030;   -0,292;   -0,591
216,754;   -0,503;    1,253;    0,773
217,353;   12,176;   -0,383;   -1,045
217,952;  -25,991;    2,072;    0,318
218,552;   28,745;    0,254;   -0,773
219,151;   -1,291;   -1,110;    0,955
219,750;  -10,501;    0,890;   -0,227
220,349;  -16,423;   -2,292;    1,045
220,948;   30,253;    1,163;    1,136
221,548;   -8,856;    0,617;    1,227
222,147;    2,494;   -1,292;   -0,409
222,746;   62,680;    1,254;   -0,955
223,345;   18,545;   -1,019;    0,500
223,944;   10,788;    1,163;    0,773
224,543;   19,394;    4,072;   -1,409
225,142;    8,062;    1,345;    0,136
225,741;    9,093;    1,163;    1,045
226,340;    6,900;    1,254;   -0,955
226,939;   45,475;    2,708;   -0,136
227,538;    2,280;    1,163;   -0,773
228,137;   56,731;    0,435;    0,864
228,735;   34,812;    0,435;    1,227
229,334;  -18,025;   -0,474;   -0,227
229,933;   61,697;    0,799;    0,591
230,532;   54,221;   -1,201;   -0,409
231,131;   84,725;    1,253;    0,318
231,729;   31,105;    1,163;   -2,318
232,328;   -6,502;    0,435;   -1,500
232,927;    6,999;    4,526;   -0,500
233,525;    1,971;    0,981;    0,045
234,124;   18,551;    1,890;   -1,591
234,723;   -8,646;    1,617;   -1,045
235,321;  -15,621;    1,163;    0,136
235,920;   -2,977;    2,526;   -1,227
236,518;   48,503;    1,072;    0,318
237,117;   -0,335;    2,890;   -0,227
237,715;   11,315;    1,163;   -0,500
238,314;   11,158;    1,708;   -2,318
238,912;   52,555;    0,526;   -1,409
239,510;   27,336;    1,162;   -1,227
240,109;   65,230;   -0,474;    3,773
240,707;   45,880;   -0,474;    1,227
241,305;  -11,748;   -0,383;    0,136
241,904;   17,888;   -0,292;   -2,045
242,502;   70,916;    3,253;   -0,227
243,100;   27,660;    3,344;   -0,955
243,698;   -5,145;    2,799;    1,682
244,297;   12,257;   -0,656;    0,682
244,895;    6,178;   -0,474;   -2,318
245,493;   62,148;    2,981;   -0,591
246,091;   75,259;    5,163;   -1,318
246,689;   37,704;    2,163;    0,591
247,287;   32,116;   -0,019;   -1,136
247,885;   11,121;   -1,019;    1,227
248,483;    2,618;   -0,201;   -0,500
249,081;   29,356;    0,981;    1,591
249,679;   36,352;   -1,019;    1,682
250,277;   -1,763;   -2,292;    0,864
250,875;   30,215;    0,617;   -1,045
251,473;    1,890;   -0,019;    0,500
252,071;   41,436;   -0,383;    1,045
252,669;    4,788;   -1,565;    0,318
253,267;   -4,075;    1,618;    0,773
253,864;    2,479;    0,617;    0,682
254,462;   51,184;    1,526;    1,591
255,060;   -1,863;    0,072;    1,318
255,658;   -4,939;   -3,292;   -0,136
256,255;    5,288;   -0,201;   -2,045
256,853;   34,212;    2,345;    1,409
257,451;    6,765;    1,981;    1,864
258,048;  150,537;    2,072;    1,864
258,646;   62,084;    0,436;   -1,045
259,243;   89,303;    2,981;    2,227
259,841;   45,855;    1,799;    0,318
260,438;   -4,267;    0,254;    0,864
261,036;   26,936;    0,617;    1,409
261,633;    4,080;    1,526;    2,227
262,231;   -6,570;   -0,110;   -0,045
262,828;   -8,038;   -0,383;    1,136
263,425;   -1,573;   -1,928;   -0,591
264,023;   -6,681;    1,436;    0,045
264,620;   30,156;    1,526;   -0,318
265,217;   72,161;    2,890;    3,136
265,815;   11,065;    2,527;    2,136
266,412;   31,725;    0,072;    0,136
267,009;   24,665;    0,526;    0,773
267,606;   57,720;    0,345;   -0,955
268,203;    9,553;   -0,383;   -0,591
268,801;   10,630;   -0,474;    0,591
269,398;  -10,545;   -0,564;    2,500
269,995;   18,871;    0,890;    1,591
270,592;   16,372;    0,799;   -0,500
271,189;  -11,420;    1,981;    0,409
271,786;  -18,712;    2,072;    1,227
272,383;   30,319;   -0,383;    0,227
272,980;    5,469;    1,617;    0,318
273,577;  -15,467;    2,162;    1,227
274,174;  -14,124;    1,435;    2,591
274,771;   24,152;    1,890;   -0,773
275,367;  162,341;    3,253;    1,409
275,964;   66,157;   -0,565;   -0,500
276,561;    1,816;   -2,474;   -1,045
277,158;  -22,375;    1,799;   -1,773
277,755;   60,175;   -0,110;    0,409
278,351;   27,802;    0,436;   -1,500
278,948;   41,768;   -0,201;    0,045
279,545;   26,689;    0,527;    2,318
280,141;   56,637;    1,254;   -2,045
280,738;   65,860;    2,435;   -0,136
281,334;    8,092;   -0,383;    0,591
281,931;    4,276;    2,890;   -1,318
282,528;   37,445;    4,072;   -0,500
283,124;   59,638;    3,345;   -0,500
283,721;   53,602;    0,709;    1,409
284,317;   15,443;    0,163;    2,500
284,913;   57,679;   -0,110;    0,591
285,510;  118,497;    2,890;   -0,318
286,106;   69,796;    2,345;   -0,955
286,703;   26,343;    0,072;    1,955
287,299;    7,219;    1,254;   -0,591
287,895;    1,098;    0,890;   -1,045
288,491;   -0,999;    0,163;    2,136
289,088;   27,324;    0,163;    2,409
289,684;   28,879;    2,890;    1,500
290,280;   81,882;    1,890;    0,682
290,876;   53,568;    0,163;    5,500
291,472;   34,386;    2,163;    2,227
292,068;   42,815;    1,254;    0,227
292,665;   14,128;   -0,564;    0,773
293,261;   -5,765;   -1,292;    2,136
293,857;   32,408;    4,072;    2,136
294,453;   17,870;   -0,928;    0,955
295,049;   86,967;    0,253;    1,955
295,644;   35,287;   -1,292;    0,136
296,240;  -10,542;    0,162;   -0,136
296,836;   20,434;   -0,747;    0,318
297,432;   43,117;    2,980;   -0,500
298,028;   46,729;    0,435;    0,773
298,624;   22,280;    0,889;    1,864
299,220;   17,253;    0,435;    0,591
299,815;   10,887;    0,526;   -0,409
300,411;   39,785;    0,435;    1,773
301,007;   56,610;    1,889;    0,227
301,602;    6,146;    2,071;   -2,318
302,198;   54,516;    1,435;   -0,773
302,794;   16,373;    1,526;   -0,500
303,389;   -7,599;    1,071;    1,045
303,985;    3,487;    1,253;    1,409
304,580;   54,364;    0,889;    1,591
305,176;   14,388;    0,344;    0,136
305,771;  -29,312;   -0,929;   -1,227
306,367;  120,720;    3,071;    0,136
306,962;   40,055;    2,889;    1,500
307,558;   56,261;    2,435;    0,136
308,153;   40,761;   -0,383;   -1,136
308,748;   -4,419;    0,162;    1,682
309,344;  104,390;    0,253;   -1,318
309,939;   92,975;    2,071;   -1,318
310,534;    9,864;   -2,020;   -1,682
311,130;    8,020;   -0,656;   -2,500
311,725;   -3,723;    0,526;   -0,500
312,320;   13,495;    1,253;    0,045
312,915;   43,601;    2,890;   -1,045
313,510;  108,684;    0,526;   -0,500
314,105;   14,556;   -3,565;    1,409
314,700;  -16,641;   -1,656;   -1,045
315,295;    5,637;   -0,020;    0,045
315,890;   -3,145;   -0,292;    0,864
316,485;   28,478;    0,253;   -0,318
317,080;   -3,472;   -0,929;    1,591
317,675;  100,232;    3,071;   -0,682
318,270;  204,836;    6,889;    3,318
318,865;  121,008;    2,435;    3,045
319,460;   63,658;   -1,565;    0,591
320,055;    8,891;   -2,565;   -1,227
320,650;    4,447;   -1,838;   -0,591
321,244;    3,483;    0,889;   -1,409
321,839;    5,296;    0,980;   -0,227
322,434;   24,040;   -0,111;   -1,591
323,029;    4,825;   -0,474;    1,591
323,623;    0,399;    0,798;    0,773
324,218;   74,760;    2,707;    1,409
324,812;   41,292;    0,889;    1,591
325,407;   31,567;   -0,929;    2,045
326,002;   96,734;    0,526;   -0,409
326,596;   64,058;   -0,656;    1,318
327,191;    9,778;   -0,383;   -1,045
327,785;   14,512;   -0,747;   -0,227
328,379;   -0,824;   -0,383;    0,136
328,974;   16,663;    1,798;   -3,955
329,568;   30,607;    2,889;   -2,409
330,163;   64,786;    2,435;    1,045
330,757;   10,200;    0,253;    1,591
331,351;  -16,870;   -0,292;    0,682
331,945;  -13,727;   -0,383;    1,409
332,540;   23,230;    1,617;   -0,591
333,134;   25,821;    3,344;    0,773
333,728;   36,470;    2,799;    0,318
334,322;   -0,355;    0,889;   -0,864
334,916;    0,891;    0,344;    0,955
335,510;   47,418;   -0,111;   -0,136
336,105;   30,051;   -0,929;    1,591
336,699;   -4,832;   -1,292;    0,591
337,293;   15,748;    1,071;    0,318
337,887;    4,438;    0,071;    1,955
338,481;   39,254;    2,980;    0,591
339,074;   80,427;    2,071;    2,682
339,668;   69,619;   -0,110;    1,227
340,262;  313,955;    7,708;    3,227
340,856;  117,497;    1,708;   -0,682
341,450;   12,547;    0,708;    1,864
342,044;   41,930;    1,799;    0,136
342,637;   73,321;    1,162;   -2,136
343,231;   33,287;   -1,474;    0,682
343,825;   21,067;   -0,747;   -0,591
344,419;   28,602;   -0,474;    0,500
345,012;  269,187;    2,889;    4,045
345,606;  157,371;   -0,656;    1,591
346,199;   41,373;   -0,111;   -0,227
346,793;   78,566;    2,525;    2,045
347,386;   20,704;    0,889;   -1,136
347,980;   -5,604;   -0,838;   -0,045
348,573;   25,667;   -1,748;    0,409
349,167;  194,193;    6,161;    4,773
349,760;  106,790;    2,252;    2,682
350,354;   86,202;    1,616;    1,136
350,947;  102,614;    2,798;    1,682
351,540;   65,174;    0,616;   -1,409
352,134;   10,278;   -1,111;    1,136
352,727;   16,713;   -0,657;    1,136
353,320;   32,086;    2,343;    0,591
353,913;   -2,461;   -1,929;    1,864
354,507;   95,677;    0,434;   -1,227
355,100;   43,348;    0,071;    0,864
355,693;  283,910;    4,798;    2,409
356,286;  134,723;    0,980;    2,773
356,879;   63,082;   -0,475;    1,227
357,472;   65,234;    0,980;    1,500
358,065;   85,687;    3,161;    2,500
358,658;   11,618;    0,798;    2,318
359,251;    8,364;    0,252;   -0,591
359,844;   87,841;    0,343;   -1,136
360,437;  124,697;    0,252;    0,045
361,030;   41,694;    0,525;   -0,682
361,623;   46,384;    0,434;    0,318
362,215;  170,693;    0,979;    2,045
362,808;   71,112;   -2,293;   -1,682
363,401;   37,094;    0,798;    0,136
363,994;  162,158;    3,252;   -1,500
364,586;   54,647;    0,888;   -1,500
365,179;   31,785;   -0,203;   -1,136
365,772;  -30,794;   -0,930;    2,045
366,364;   30,093;    1,524;   -3,227
366,957;   52,572;    1,342;   -0,045
367,549;   24,038;   -0,203;   -0,864
368,142;   32,804;    0,978;   -1,500
368,734;   16,461;    2,523;   -2,136
369,327;   -5,626;    2,341;   -0,500
369,919;   15,486;   -1,659;    0,409
370,512;   20,433;   -1,023;   -0,500
371,104;  192,868;    2,704;    1,591
371,696;  200,946;    1,703;   -0,955
372,289;   94,414;    0,157;    1,136
372,881;   61,050;    1,156;    1,318
373,473;    2,179;    4,064;    1,136
374,066;   56,277;    1,336;    0,500
374,658;   25,325;    0,879;    1,136
375,250;  -19,798;   -1,668;   -1,409
375,842;    7,263;   -0,124;   -0,045
376,434;  -27,405;   -2,762;   -0,409
377,026;  -34,441;   -1,855;   -2,500
377,618;   -9,340;    0,779;   -0,682
378,210;  -70,240;    3,141;   -1,955
378,802;  -70,853;    3,412;   -0,591
379,394;  267,045;    3,411;    0,682
379,986;   45,276;    1,138;   -0,955
380,578;  -34,293;    1,410;    0,773
381,170;  188,831;    0,320;    0,045
381,762;  109,947;   -0,224;    1,409
382,354;   80,469;   -0,223;   -1,318
382,945;   13,326;    0,870;    0,318
383,537;  -18,482;    1,144;   -1,955
384,129;  -19,420;    0,963;   -1,136
384,721;   80,534;    0,418;    0,955
385,312;   26,115;   -1,399;   -0,955
385,904;   94,255;   -0,945;    1,591
386,496;   27,573;    0,691;    1,045
387,087;  142,729;    0,418;    2,500
387,679;   78,094;   -0,401;    0,045
388,270;   47,970;   -2,401;    2,045
388,862;   27,517;   -0,401;   -0,318
389,453;   13,150;    1,054;    1,045
390,045;   14,390;    3,236;   -2,682
390,636;  -74,351;    0,144;   -0,591
391,227;  -17,942;    2,054;   -0,045
391,819;  -37,965;    0,781;    0,773
392,410;  178,318;    0,600;    0,045
393,001;   19,652;    1,600;   -1,591
393,593;   59,462;    0,600;   -0,045
394,184;   99,671;    0,873;   -0,409
394,775;    1,986;    1,146;    2,136
395,366;  -66,111;    1,782;    0,773
395,957;   76,279;   -2,400;    0,136
396,548;   -0,841;    1,054;    2,682
397,139;   81,057;    2,236;    0,591
397,730;    4,291;    0,873;    0,955
398,321;   19,879;    0,509;    0,955
398,912;  -24,376;   -0,764;    0,136
399,503;  -29,634;   -1,945;   -1,409
400,094;   18,367;   -1,582;    1,682
400,685;   -2,670;    3,600;    0,045
401,276;  -41,745;   -0,400;   -0,955
401,867;  -57,113;   -1,127;    0,773
402,458;  -95,797;    1,509;   -2,318
403,048;   24,044;    0,146;    0,591
403,639;  -17,792;    1,509;    0,864
404,230;   77,460;    0,691;    0,318
404,821;  117,093;   -0,127;    0,045
405,411;   45,659;   -0,763;   -2,591
406,002;  -20,813;    3,237;   -1,136
406,592;  165,239;    2,691;    0,045
407,183;   43,581;    0,328;   -1,500
407,774;   27,517;    1,419;   -0,136
408,364;   -7,964;    2,600;    0,409
408,954;   82,469;   -0,036;    1,227
409,545;   73,896;    1,873;    1,045
410,135;   41,794;   -1,581;    0,500
410,726;   -3,068;    0,783;    0,318
411,316;  154,016;    2,237;    0,773
411,906;   24,710;    0,146;   -0,409
412,497;   34,670;   -0,490;   -0,045
413,087;  -18,336;    0,783;   -0,227
413,677;  -65,035;   -2,490;    3,864
414,267;  -72,106;   -1,035;    1,409
414,857;  -90,686;    0,419;    4,227
415,448;  -88,710;   -0,763;    0,500
416,038;  -62,266;   -2,945;   -0,591
416,628;  -19,608;    0,965;    0,409
417,218;   15,126;   -1,762;    3,318
417,808;  146,455;    0,965;   -0,409
418,398;   54,588;   -1,035;    2,682
418,988;  -44,035;   -2,217;    0,591
419,578;   36,079;    3,601;    1,409
420,168;  -16,544;    0,692;   -0,955
420,757;   86,142;    0,964;   -1,500
421,347;    1,262;    1,601;   -0,227
421,937;  -29,732;    3,329;    1,409
422,527;   90,662;    2,602;   -0,773
423,116;  206,703;    2,692;   -0,045
423,706;  -23,390;    2,965;    0,318
424,296;  -60,136;    1,601;    0,682
424,885;   50,046;    1,510;   -3,045
425,475;   21,095;    1,147;   -2,864
426,065;  -66,072;   -1,489;   -0,318
426,654;  -75,803;    0,329;   -0,318
427,244;  143,348;    1,147;    1,409
427,833;  108,464;    1,056;   -0,500
428,423;    1,242;    0,147;    1,136
429,012;   -2,414;    2,420;   -1,136
429,601;  109,569;    2,057;    0,136
430,191;   17,086;    2,511;    4,318
430,780;  -68,681;   -1,671;   -0,409
431,369;   89,578;    1,329;   -0,045
431,959;    5,931;    1,693;    0,500
432,548;  -56,371;   -1,398;   -0,045
433,137;  -97,531;    0,329;   -1,318
433,726;  -33,707;    0,148;    0,500
434,315;  -13,383;    0,148;    2,409
434,905;   78,570;    0,693;    1,409
435,494;   59,144;    3,148;    0,955
436,083;  -39,875;    1,420;   -0,955
436,672;   37,328;    1,148;    0,500
437,261;   -0,590;    0,512;   -1,955
437,850;  183,465;   -1,125;    0,682
438,439;  231,505;    2,239;    1,955
439,027;  335,489;    3,421;    1,773
439,616;  257,891;    2,239;    1,227
440,205;   61,225;    0,057;   -2,136
440,794;   17,302;   -0,306;   -0,045
441,383;  -37,498;    1,603;   -0,591
441,971;  -60,353;   -0,306;    0,591
442,560;  -48,822;    0,603;   -1,773
443,149; -131,240;    3,060;   -1,318
443,737;  -85,441;    0,968;   -2,318
444,326;  -59,340;    0,331;    0,318
444,915;  -23,262;   -1,851;    0,864
445,503;  -20,820;    0,058;   -0,318
446,092;  212,164;    7,876;    2,136
446,680;  152,941;    1,876;    0,318
447,269;   57,537;   -1,487;   -0,318
447,857;   45,724;    2,240;   -1,773
448,445;   11,823;    2,149;    1,318
449,034;  -34,563;    0,876;   -1,136
449,622;  -26,917;    1,240;    3,500
450,210;  209,304;    3,149;    2,227
450,799;  126,460;    2,604;   -0,591
451,387;  100,568;    1,786;   -0,591
451,975;   82,738;   -1,305;    0,864
452,563;  148,263;    0,422;    2,318
453,151;    1,262;   -1,032;   -1,227
453,739;   36,976;   -1,577;    0,136
454,328;  125,276;    0,604;   -2,136
454,916;   75,550;    1,150;   -0,136
455,504;   88,806;    3,513;    1,227
456,092;  -10,282;    2,150;   -1,591
456,679;  -44,924;    0,604;    0,682
457,267;  337,900;    3,604;    1,045
457,855;   45,070;    3,241;    1,409
458,443;  -77,160;   -0,304;    1,682
459,031;   43,700;    1,332;    2,409
459,619;   17,544;   -3,577;    2,864
460,206;  -57,702;   -0,759;    2,045
460,794;  -51,810;   -0,668;   -0,227
461,382;  -13,586;    0,878;   -0,864
461,970;   -8,835;    0,605;    1,864
462,557;  -67,093;    0,878;   -0,682
463,145;   21,861;   -0,304;   -1,682
463,732;  242,888;    2,514;   -1,045
464,320;   46,146;    1,514;   -3,045
464,907;  164,029;    0,423;   -0,773
465,495;   86,445;    2,696;   -1,227
466,082;   17,879;    2,060;   -0,045
466,670;   28,371;    2,605;    1,227
467,257;  -53,990;    0,060;    2,045
467,844;   37,855;    1,514;    0,045
468,432;    7,199;   -0,031;    3,500
469,019;  -13,573;    1,606;   -1,773
469,606;   62,971;    0,969;    3,682
470,193;   80,366;    2,151;    0,227
470,780;   35,061;    0,333;    0,864
471,368;  -20,464;   -1,212;   -0,773
471,955;   68,270;    1,060;   -0,682
472,542;   28,910;   -0,303;   -1,136
473,129;  -56,435;   -0,485;    0,136
473,716;  -49,261;    0,060;    0,591
474,303;  -24,061;    1,333;   -0,864
474,890;  -23,951;    2,333;   -0,500
475,477;   63,501;   -0,576;    0,409
476,064;  -14,228;    0,697;   -1,591
476,650;   95,347;    2,152;    0,318
477,237;    9,256;    1,879;    0,955
477,824;   -3,654;    3,879;    0,864
478,411;  -74,601;    0,606;   -0,318
478,997;  -83,749;    0,606;   -0,773
479,584; -119,956;   -0,666;   -0,409
480,171;   25,659;    1,243;   -0,773
480,757;   70,218;   -0,848;    0,773
481,344;  -13,629;    0,334;    0,409
481,931;  -86,540;   -0,393;    1,045
482,517;   17,414;    0,425;    0,318
483,104;   88,829;    1,334;    2,864
483,690;  -25,689;    0,243;    0,045
484,276;  -36,449;    0,698;    0,227
484,863;  156,429;    2,152;    1,136
485,449;   14,537;    0,152;    0,318
486,035;  -35,210;   -0,666;   -0,136
486,622;   36,957;   -2,393;    0,045
487,208;  -23,127;    1,334;    1,500
487,794;  -94,461;    0,971;    0,318
488,380;  -91,477;    0,698;   -1,409
488,967;  -81,658;   -1,120;   -0,409
489,553;  -63,956;   -1,029;   -1,409
490,139;   -5,879;    0,971;    0,773
490,725;  -61,105;    0,789;   -0,227
491,311;  -20,731;    1,516;    3,045
491,897;  -47,976;   -0,665;    1,500
492,483;  -30,867;    0,426;    1,227
493,069;  364,665;    5,426;    0,864
493,655;  107,967;    1,789;    0,682
494,241;  -15,841;    1,517;   -0,955
494,826;  -11,601;    0,335;   -1,045
495,412;   48,523;    0,335;   -0,682
495,998;  -24,909;    0,971;   -0,318
496,584;   22,821;    2,244;    1,045
497,169;   40,436;    2,335;   -0,682
497,755;  -19,715;    1,244;    1,227
498,341;   87,063;    2,153;    0,318
498,926;  201,089;    2,881;    1,955
499,512;  -24,229;   -0,028;    2,955
500,097;  -29,638;   -0,574;   -0,318
500,683;   -3,751;   -0,028;    2,136
501,268;  -50,699;    1,881;   -0,955
501,854;  -28,529;   -0,119;    1,227
502,439;  -31,721;   -0,573;   -1,773
503,024;  -19,851;    1,608;    0,500
503,610;   -4,391;    1,335;   -0,682
504,195;  -47,437;    1,245;    1,955
504,780;   43,975;    2,335;    1,227
505,366;  110,374;    4,063;    2,864
505,951;   46,752;   -1,119;    1,045
506,536;  -16,816;    1,427;   -3,682
507,121;   23,741;    1,699;   -0,318
507,706;   -8,049;   -0,392;    1,045
508,291;  -52,875;   -2,937;    1,136
508,876;  -52,872;   -0,482;    2,591
509,461;  -20,250;    1,427;   -0,773
510,046;   12,927;   -0,391;    0,318
510,631;   26,859;   -0,119;   -0,773
511,216;  -38,134;   -0,664;   -0,500
511,801;    7,815;   -0,755;    2,591
512,386;   25,992;    0,972;    0,500
512,971;   32,799;    0,427;    0,955
513,555;   60,951;    1,154;   -1,500
514,140;   26,141;    1,336;   -3,136
514,725;  122,953;    1,791;   -1,136
515,309;   44,533;    1,064;    0,318
515,894;  -25,510;   -0,300;   -2,227
516,479;    3,038;    1,973;   -0,955
517,063;    1,045;    0,882;    1,227
517,648;  -31,917;    0,155;   -1,136
518,232;  -46,516;   -1,300;   -1,409
518,817;   26,560;    1,337;    1,682
519,401;  110,289;    0,700;    0,591
519,985;  107,941;    2,700;    1,136
520,570;   12,688;   -0,118;   -1,955
521,154;  102,241;    0,064;    0,591
521,738;  266,230;    1,064;    2,409
522,323;  155,821;   -0,390;    1,682
522,907;  201,987;    2,428;   -0,136
523,491;  169,742;    1,155;    0,955
524,075;  182,273;    0,428;    0,591
524,659;  446,874;    0,973;    0,591
525,243;  462,218;    0,883;    0,409
525,827;  489,612;    0,883;   -0,045
526,411;  631,874;    1,155;   -0,136
526,995;  927,935;    0,337;    1,409
527,579; 1139,281;    1,974;   -1,045
528,163; 1266,010;    0,428;   -1,500
528,747; 1656,781;    1,065;   -0,773
529,331; 1881,222;    0,883;   -1,409
529,915; 1996,425;    2,338;    0,955
530,499; 2387,756;    0,247;    1,227
531,082; 2734,808;    1,065;    1,591
531,666; 2984,923;    0,520;    0,773
532,250; 3558,584;    0,428;    2,682
532,833; 4159,297;    0,610;    2,773
533,417; 4512,531;    1,247;    0,864
534,001; 4880,651;    0,429;   -0,318
534,584; 5768,154;    1,974;    0,500
535,168; 6100,590;    3,247;    1,409
535,751; 6703,875;    4,520;    0,045
536,334; 6721,504;    4,520;   -0,409
536,918; 7680,873;    1,974;    1,591
537,501; 8156,732;    1,520;    1,318
538,085; 8607,343;    1,702;    1,045
538,668; 9088,419;    0,883;    2,409
539,251; 9852,222;    3,156;    3,773
539,834;10322,276;    0,156;    0,773
540,418;10659,390;    3,247;    4,318
541,001;11104,099;    2,702;    1,773
541,584;11474,415;    1,429;    2,227
542,167;11507,097;    0,702;    2,955
542,750;11891,578;    0,793;   -0,773
543,333;11810,217;    1,429;    2,136
543,916;12848,954;   -0,298;    2,500
544,499;13622,014;    2,520;    0,227
545,082;13915,645;    0,248;    3,591
545,665;14292,513;   -0,207;    1,500
546,248;14786,581;    0,520;   -0,318
546,830;14702,501;   -1,752;    1,955
547,413;15338,228;    0,157;   -0,773
547,996;16005,498;    0,157;    0,500
548,579;15971,260;   -0,843;    0,955
549,161;15963,073;    0,884;    2,682
549,744;15925,381;    0,612;    0,409
550,326;16586,945;    0,885;   -1,136
550,909;16467,679;    2,339;    0,591
551,492;16988,252;    0,521;    0,227
552,074;16889,787;   -0,024;   -1,318
552,657;17547,490;    2,430;    0,045
553,239;17472,628;   -3,024;   -0,773
553,821;17473,623;   -1,570;    1,045
554,404;17051,902;   -0,024;    1,136
554,986;17550,287;    2,248;    1,045
555,568;18203,061;    0,430;   -0,955
556,151;17507,319;    4,067;   -0,227
556,733;17777,786;   -1,388;   -0,864
557,315;18326,994;    4,703;    0,500
557,897;18165,469;    0,521;   -0,500
558,479;18347,339;    1,703;    1,318
559,061;18548,620;    1,067;   -0,864
559,643;18961,092;   -0,297;    0,045
560,225;19369,420;   -0,388;    2,864
560,807;19461,547;    0,340;    0,318
561,389;19000,569;   -1,206;    2,318
561,971;19711,743;   -0,660;    2,136
562,553;19640,390;    0,613;    1,591
563,135;19826,487;    1,249;    1,136
563,717;19448,989;    3,158;    1,136
564,298;20180,934;    3,976;   -0,045
564,880;19922,576;    0,340;   -1,409
565,462;20130,758;    1,977;    1,318
566,043;21370,846;   -0,933;    2,318
566,625;20918,291;    4,067;    1,227
567,207;20796,005;    0,704;    1,682
567,788;21910,507;   -0,114;    1,500
568,370;22795,344;   -1,841;   -0,500
568,951;22673,084;   -0,569;    0,227
569,533;23571,566;    0,977;   -0,500
570,114;24043,418;   -0,296;    0,682
570,695;24579,511;   -0,478;   -1,318
571,277;25105,987;   -0,205;   -1,682
571,858;25891,472;    2,704;   -1,136
572,439;26831,317;    0,795;   -1,045
573,021;27061,028;    0,432;   -2,773
573,602;27583,816;    1,795;    0,318
574,183;28504,722;   -0,114;    2,227
574,764;28766,388;    2,068;    0,409
575,345;29324,127;    0,250;   -0,136
575,926;29959,984;    2,704;    0,136
576,507;29903,261;    2,704;   -0,227
577,088;31063,228;    1,704;    1,682
577,669;31157,554;    1,704;    1,955
578,250;31904,995;   -0,750;   -1,045
578,831;32582,916;   -0,841;   -2,227
579,412;32869,539;   -1,205;    0,955
579,993;33865,625;    1,432;    0,227
580,573;34235,304;   -0,023;   -0,955
581,154;33166,960;    1,613;   -0,591
581,735;34106,784;    0,341;    0,773
582,315;33561,966;    0,523;    2,136
582,896;34024,479;   -1,750;    1,227
583,477;33469,976;    0,614;    1,227
584,057;33653,318;    1,159;    0,955
584,638;33972,897;   -2,750;    2,318
585,218;34030,572;    2,886;    2,682
585,799;34179,895;    1,977;   -0,227
586,379;34219,046;    1,250;    1,591
586,959;33001,335;    2,613;    0,318
587,540;32396,879;    0,432;    2,227
588,120;31862,083;   -1,113;   -0,045
588,700;30839,265;    2,977;    2,136
589,281;31217,964;    1,250;   -0,955
589,861;31141,236;   -0,296;   -1,682
590,441;30971,710;   -1,477;   -2,682
591,021;29906,706;    1,432;   -2,591
591,601;30155,104;    0,431;    0,500
592,181;30206,737;   -1,296;   -0,773
592,761;29467,331;    2,250;    1,409
593,341;29454,746;    1,522;    0,045
593,921;29409,558;   -0,569;    1,591
594,501;29267,459;    1,250;    1,318
595,081;29132,663;    0,522;   -0,318
595,661;29528,460;    1,068;    0,955
596,240;30045,592;   -1,023;    0,136
596,820;29611,630;    2,613;    1,955
597,400;29897,647;    1,977;    0,773
597,980;30151,915;   -0,750;    1,045
598,559;30163,619;    0,341;   -0,227
599,139;29947,948;   -0,750;   -1,227
599,718;29819,494;    0,795;   -0,409
600,298;30110,198;   -2,387;    0,682
600,877;30305,306;    4,795;    1,409
601,457;30564,253;    0,340;    1,136
602,036;30480,368;    1,795;    2,045
602,616;30750,451;    2,250;    1,682
603,195;31128,971;    0,431;    3,500
603,774;30631,812;   -0,296;    2,045
604,354;30512,251;    2,522;   -0,500
604,933;30002,349;    0,250;    1,864
605,512;30178,973;    2,340;    0,591
606,091;30227,054;    1,886;    3,773
606,671;31040,683;    0,249;    0,773
607,250;30105,338;    1,431;    3,136
607,829;30441,214;    1,158;    3,227
608,408;30259,638;    4,613;    2,591
608,987;29290,984;    2,704;    3,409
609,566;29608,470;    0,341;   -2,500
610,145;29685,261;    2,885;    0,682
610,723;30148,059;    1,613;    6,864
611,302;29383,354;    1,067;    1,682
611,881;28796,520;    5,158;   11,227
612,460;29681,515;    0,795;    3,955
613,039;30148,725;    1,703;    2,045
613,617;28829,376;    0,886;    4,773
614,196;29059,639;    1,613;    1,227
614,775;29404,218;    1,249;    2,409
615,353;29404,991;   -1,660;    0,864
615,932;29036,712;    0,249;    2,409
616,510;29690,027;    0,158;    0,591
617,089;29186,980;    8,794;   17,591
617,667;28931,358;    4,885;    6,136
618,246;28739,370;   -1,115;    1,318
618,824;28918,374;    1,612;   -0,955
619,402;28508,020;    0,431;   -1,773
619,981;29032,262;    1,067;   -1,045
620,559;28920,235;    0,794;    1,682
621,137;28467,712;    3,067;    1,864
621,715;28407,783;    3,703;   -0,682
622,293;28345,033;    1,885;   -0,773
622,871;28803,358;    0,340;    0,500
623,450;28394,234;    0,430;   -0,864
624,028;28334,077;   -0,388;   -0,955
624,606;27878,099;    2,339;    1,682
625,183;28273,752;   -0,661;   -1,136
625,761;27935,925;    1,885;    1,136
626,339;28229,021;    2,339;    2,591
626,917;28633,183;    0,339;   -0,045
627,495;28695,790;    2,794;    1,318
628,073;28165,046;    5,248;    2,864
628,650;27866,329;    3,067;    2,136
629,228;28287,593;    1,248;    4,409
629,806;27597,893;   -0,024;    1,136
630,383;27907,246;    0,066;   -0,318
630,961;27655,199;   -2,206;   -0,955
631,539;27402,466;   -2,479;    0,227
632,116;26664,926;   12,703;   15,409
632,694;27332,992;    4,885;    6,500
633,271;27656,816;    1,975;    2,682
633,848;27568,220;    1,430;    2,045
634,426;27665,507;    1,521;    1,773
635,003;26736,773;   -0,207;   -0,409
635,580;27027,100;    1,884;    3,682
636,158;27597,692;    3,793;    1,227
636,735;27584,850;    3,339;   -0,500
637,312;27731,506;    0,521;   -0,682
637,889;27853,518;    2,248;   -0,682
638,466;27356,589;    0,066;   -0,409
639,043;27327,078;    1,702;   -1,136
639,620;27668,944;    0,611;   -0,955
640,197;28009,360;    1,612;    1,682
640,774;28118,247;    1,430;    1,136
641,351;28490,225;    0,612;    1,136
641,928;27893,021;    2,794;    1,409
642,505;27595,453;    0,794;   -0,500
643,082;27731,522;    1,885;    1,227
643,658;26711,045;    1,157;    1,500
644,235;27455,295;   -2,479;    2,500
644,812;27743,637;    1,794;    0,773
645,388;27476,978;    1,612;    1,409
645,965;27585,956;    1,521;    1,682
646,542;27644,024;    3,430;   -0,227
647,118;27632,093;    3,703;   -0,955
647,695;27991,525;    0,339;    1,136
648,271;27912,048;   -2,115;    0,500
648,848;28205,753;    0,248;    2,227
649,424;28034,549;    0,976;    1,318
650,000;27749,890;   -0,388;   -1,045
650,577;27622,414;    0,158;   -0,955
651,153;28100,300;   -1,115;    0,955
651,729;29068,460;    0,521;    0,864
652,305;29257,165;    1,339;    2,773
652,881;33794,324;   -1,297;    1,136
653,458;40787,847;    0,249;    0,227
654,034;44873,189;    0,703;    1,591
654,610;46485,076;    0,339;    0,773
655,186;47829,781;    1,612;    3,045
655,762;47524,304;   -1,842;    0,409
656,338;47655,554;    0,703;    0,136
656,913;48745,895;   -0,297;    0,409
657,489;47944,237;    0,249;   -0,318
658,065;47915,396;    0,794;   -1,591
658,641;48555,919;    2,158;   -0,864
659,217;47866,352;    2,067;    0,409
659,792;47333,784;   -1,751;   -0,409
660,368;47650,853;   -0,388;   -0,682
660,944;47406,830;    1,794;    1,227
661,519;42686,990;    0,522;    0,409
662,095;36276,513;   -0,206;    0,591
662,670;31342,854;   -0,206;   -0,136
663,246;30111,287;   -0,660;   -0,409
663,821;29345,264;    0,431;    1,682
664,396;28878,333;    0,613;    1,864
664,972;29189,856;   -0,660;   -0,500
665,547;29529,834;    3,794;    0,136
666,122;29558,175;    1,340;    0,318
666,698;29823,062;    2,431;    0,318
667,273;29137,312;    0,885;    0,136
667,848;29974,926;    0,340;    1,500
668,423;29754,813;    1,795;    2,318
668,998;30340,700;    0,976;   -0,682
669,573;30923,768;    2,067;   -1,500
670,148;30725,928;    1,885;   -0,682
670,723;30594,542;   -0,024;    0,318
671,298;31006,338;   -1,296;    1,045
671,873;31160,316;   -0,296;   -0,136
672,448;31119,657;    1,704;    0,136
673,023;31436,726;    0,249;   -0,227
673,597;31724,703;    2,704;    2,318
674,172;31498,590;    2,431;    0,318
674,747;31015,477;   -0,205;   -1,045
675,321;30866,364;   -0,933;    3,318
675,896;30394,523;    2,158;    1,045
676,471;31395,592;    2,522;    1,591
677,045;31208,569;   -0,296;    0,682
677,620;31284,456;    2,158;    1,136
678,194;31591,161;    0,249;    1,136
678,769;31132,321;    0,886;   -0,318
679,343;31273,298;   -0,023;    1,773
679,917;31146,731;    0,340;    1,955
680,492;31250,617;    0,249;    3,227
681,066;31501,232;    0,613;    0,409
681,640;31458,755;    1,795;   -0,318
682,214;32259,369;    2,340;    0,500
682,788;31776,710;    0,613;   -0,773
683,363;31759,051;    1,977;    1,682
683,937;31432,847;    0,886;   -0,318
684,511;32254,098;   -1,023;   -0,591
685,085;31947,348;   -1,478;    0,318
685,659;31685,689;    1,431;    0,864
686,232;31876,122;    1,159;   -0,318
686,806;31668,009;    2,159;    0,409
687,380;32318,623;   -1,932;    0,591
687,954;32568,237;    2,432;    1,136
688,528;32187,487;    2,613;    1,955
689,101;33024,828;    0,432;    1,045
689,675;32622,806;    0,886;   -0,136
690,249;31907,238;    3,432;    0,409
690,822;32247,761;    1,159;    0,318
691,396;32357,103;    2,068;    1,227
691,969;31807,535;    2,523;    0,136
692,543;32249,695;   -0,568;   -1,955
693,116;31863,945;   -0,659;   -1,409
693,690;31717,923;   -0,296;    0,500
694,263;32336,628;    2,341;    2,955
694,836;32318,151;    2,795;    3,591
695,410;30949,129;    1,159;    1,773
695,983;31364,833;    1,614;    0,591
696,556;31357,448;   -0,750;   -1,045
697,129;31805,153;   -1,114;    1,409
697,703;31430,948;    1,341;    1,955
698,276;31473,199;    1,705;   -0,773
698,849;31232,813;   -1,023;    1,409
699,422;31567,063;    1,250;    0,591
699,995;31229,041;   -0,659;    0,136
700,568;31761,655;   -0,204;    3,045
701,140;31778,815;   -1,841;    1,682
701,713;31532,338;    0,341;    2,409
702,286;31249,679;    0,796;    0,864
702,859;31125,111;    0,614;   -0,591
703,432;30243,544;   -0,841;    0,682
704,004;30762,067;    1,978;    0,318
704,577;30640,044;    1,068;    0,136
705,150;31188,022;    0,887;    2,500
705,722;31006,182;    1,523;   -3,227
706,295;30756,614;    1,432;   -0,591
706,867;30557,137;    0,250;    1,955
707,440;30789,206;   -0,113;   -0,409
708,012;31061,001;   -0,022;    0,591
708,584;30971,252;    2,705;    0,227
709,157;31300,866;    1,160;   -0,591
709,729;30939,298;    1,069;    2,045
710,301;31829,549;   -1,204;    0,045
710,874;31793,163;    0,341;   -0,227
711,446;30660,686;   -0,295;    0,864
712,018;30609,482;   -3,022;    0,500
712,590;30292,187;   -0,204;    1,682
713,162;30845,255;   -0,477;    1,318
713,734;31127,051;    1,796;   -2,045
714,306;30996,756;    0,342;   -0,409
714,878;29570,643;   -0,295;    0,864
715,450;30429,621;   -0,113;    0,864
716,022;30706,053;    2,433;    1,318
716,593;30854,576;    0,978;    0,591
717,165;30749,372;    1,796;   -1,227
717,737;30513,986;    0,796;    0,409
718,309;30138,146;    1,160;   -0,045
718,880;30054,123;   -1,295;   -1,409
719,452;30287,010;    0,887;   -1,591
720,024;29857,624;    1,705;   -0,591
720,595;30432,420;    2,978;    0,955
721,167;29944,489;    1,160;   -2,045
721,738;29458,557;    2,069;   -1,045
722,309;29375,262;    1,251;   -1,227
722,881;29166,967;    2,705;    0,773
723,452;29881,399;    1,251;    2,864
724,023;30034,650;    1,524;    2,682
724,595;29812,446;    2,342;    0,682
725,166;29532,514;    1,524;   -0,409
725,737;29134,946;    1,887;    0,227
726,308;29211,561;    0,797;    0,318
726,879;29651,447;    1,069;    1,227
727,450;29564,789;   -2,022;   -0,045
728,021;29524,130;    1,069;    0,682
728,592;29305,108;    1,160;    0,500
729,163;29594,904;    1,433;   -0,136
729,734;29596,154;    2,160;   -0,227
730,305;29906,314;    0,615;    0,136
730,876;30270,564;    0,888;    2,955
731,447;30000,723;    0,797;    2,682
732,017;30101,610;   -0,840;    1,864
732,588;29615,133;   -0,021;    1,227
733,159;29808,293;    3,615;   -1,045
733,729;29585,180;    1,251;    0,409
734,300;28835,339;    0,160;    0,864
734,870;29300,135;   -1,385;    0,591
735,441;29853,295;    0,888;   -0,591
736,011;29631,000;    1,070;   -1,591
736,582;29542,886;    1,251;    0,045
737,152;28992,864;    0,979;   -2,045
737,722;29445,296;    1,070;   -0,682
738,293;29184,910;   -2,021;    1,318
738,863;29043,161;    1,797;    2,318
739,433;28855,775;    4,524;    0,318
740,003;29524,753;    1,524;   -0,682
740,573;28874,003;    2,252;   -1,591
741,143;28858,617;    3,615;    0,318
741,713;29615,322;    0,252;   -0,500
742,283;29269,118;    1,706;    1,591
742,853;29072,005;    0,524;    1,591
743,423;28519,982;    0,161;    0,045
743,993;28661,324;    1,070;    1,500
744,563;27974,938;    2,524;   -0,864
745,133;27900,915;   -0,112;   -0,864
745,702;28674,257;    2,797;    1,773
746,272;27817,780;    0,434;    0,591
746,842;27548,212;   -0,748;   -0,591
747,411;28014,099;   -0,839;   -0,318
747,981;28190,713;   -0,930;    0,500
748,551;28244,509;   -0,021;   -1,045
749,120;28139,214;   -0,112;   -0,227
749,690;28538,464;    2,161;    2,409
750,259;28806,169;    0,979;    2,955
750,828;28710,420;    4,070;   -1,955
751,398;28945,125;   -0,112;   -0,045
751,967;28410,102;    2,888;    0,409
752,536;28676,353;    1,161;   -0,227
753,105;29072,785;   -1,384;    0,227
753,675;28859,308;   -0,112;    1,773
754,244;28866,468;    0,888;    3,591
754,813;28851,445;    0,979;    1,227
755,382;28451,332;    0,798;    0,955
755,951;29002,674;   -0,112;    3,682
756,520;28528,015;    2,525;    1,864
757,089;29080,993;    1,888;    0,500
757,658;29303,516;    2,434;    1,227
758,227;29256,675;   -1,111;    0,318
758,795;29598,107;   -1,021;    1,136
759,364;29802,176;    0,525;   -0,591
759,933;28773,154;    1,343;   -0,045
760,501;28358,041;    0,252;   -1,318
761,070;28774,200;   -0,293;   -1,409
761,639;29509,905;    1,434;    1,318
762,207;28761,337;    0,889;   -0,955
762,776;28743,406;    2,889;    0,864
763,344;28690,111;    0,071;    0,591
763,913;27795,452;    1,616;    1,409
764,481;28584,612;    1,980;   -0,136
765,049;28343,953;    0,616;    1,409
765,618;28167,840;    1,434;    0,318
766,186;28287,727;    2,434;    0,136
766,754;28480,977;    1,798;    1,864
767,322;27434,409;    1,162;    0,409
767,890;27477,932;    0,525;   -1,773
768,459;27870,819;    2,616;   -0,318
769,027;28045,070;    2,525;    3,409
769,595;27018,138;    2,616;    2,591
770,163;27471,843;    3,344;    2,955
770,730;27154,548;    2,525;   -0,136
771,298;27055,253;    1,162;   -1,409
771,866;27174,049;    0,253;    4,955
772,434;27438,118;    1,162;   -1,864
773,002;27532,186;    2,616;    0,682
773,569;27170,709;    1,071;    1,682
774,137;27062,324;    0,889;   -0,045
774,705;27817,483;   -0,747;   -0,136
775,272;27314,461;    0,253;    0,682
775,840;27105,438;   -0,111;    2,682
776,407;26604,507;   -0,293;    1,955
776,975;26137,576;    1,162;    0,318
777,542;27204,099;    2,162;   -0,045
778,110;27036,713;    0,707;   -0,045
778,677;26684,054;    1,071;   -0,864
779,244;26422,486;   -1,020;    1,045
779,812;26560,191;    0,980;    0,864
780,379;26375,715;    2,435;    1,136
780,946;26646,783;    2,617;   -0,773
781,513;26959,943;   -0,565;    0,318
782,080;26272,466;    1,253;    2,864
782,647;27058,898;    1,708;    3,045
783,214;26628,603;   -0,201;    3,864
783,781;26223,126;    1,708;   -0,682
784,348;26136,195;    0,253;    1,500
784,915;26544,354;   -1,474;    0,318
785,482;26311,605;    2,708;    2,591
786,049;26773,492;    1,071;   -0,591
786,615;26910,924;    1,708;   -0,955
787,182;26707,083;   -3,201;   -0,682
787,749;26362,425;   -2,201;    1,409
788,315;25604,311;    0,253;   -0,409
788,882;25897,562;    0,981;   -1,227
789,448;26590,176;    1,435;   -0,955
790,015;26619,972;    1,799;    3,227
790,581;26196,949;    0,708;    0,227
791,148;26003,473;    1,344;    1,045
791,714;26285,269;   -1,019;    3,136
792,280;25950,428;    3,708;    1,591
792,847;25547,588;   -0,928;    2,500
793,413;26059,020;   -0,110;   -0,318
793,979;25565,634;    1,526;   -1,318
794,545;25672,702;    2,981;    2,682
795,111;25069,862;    2,435;    1,318
795,678;25287,658;    3,526;   -1,682
796,244;24892,090;    2,799;    0,136
796,810;25498,977;    0,799;    0,773
797,375;25156,500;   -0,292;   -2,136
797,941;25174,569;   -1,110;    0,591
798,507;25322,728;    0,254;   -0,955
799,073;24907,979;    2,708;    0,591
799,639;24947,502;    1,435;    3,136
800,205;24961,752;   -1,565;    2,682
800,770;24479,548;    1,345;    1,773
801,336;24479,344;    2,981;   -0,955
801,901;24188,594;    6,072;    3,136
802,467;24784,117;    0,526;    2,045
803,033;24117,095;   -0,019;    0,864
803,598;24311,891;    1,072;   -1,045
804,163;24353,232;    0,708;   -0,318
804,729;24253,210;   -0,110;    1,136
805,294;24648,097;    1,072;    2,227
805,859;24491,165;    0,890;   -0,409
806,425;23967,689;    3,890;    2,682
806,990;23603,394;    1,890;    4,318
807,555;24170,099;   -0,110;    2,591
808,120;24084,440;   -1,292;   -0,409
808,685;24069,781;    1,072;   -2,500
809,250;23553,213;    2,072;   -0,500
809,815;23919,100;   -0,201;    0,682
810,380;24464,260;    0,981;    1,591
810,945;24885,056;    2,890;    2,045
811,510;24109,397;   -0,200;    1,591
812,075;23781,557;    2,800;   -1,409
812,640;23828,352;    3,709;    1,409
813,204;23928,966;    2,163;   -0,227
813,769;24377,581;    0,254;   -0,045
814,334;23738,649;    0,527;    0,864
814,898;23767,263;    1,981;    0,591
815,463;23647,968;    0,981;   -0,773
816,027;23623,037;    1,345;   -2,318
816,592;23736,378;    2,163;   -2,045
817,156;23215,538;   -2,200;    1,136
817,721;23020,061;    0,982;    2,318
818,285;22989,857;    0,618;    1,500
818,849;23682,834;   -0,018;    1,682
819,414;23574,448;    0,073;    2,955
819,978;23120,517;   -0,291;    1,773
820,542;23749,404;    2,891;    0,500
821,106;23495,472;    2,800;    0,682
821,670;23551,541;    2,709;    2,591
822,234;23244,064;    1,073;    1,409
822,798;22594,133;   -0,836;    0,500
823,362;22590,656;    1,527;    4,227
823,926;21835,725;   -0,018;    1,136
824,490;22080,248;    3,527;   -0,682
825,054;22535,771;    2,527;   -1,136
825,618;22113,567;   -1,200;   -1,500
826,181;22059,908;    0,982;   -1,318
826,745;21962,795;   -0,745;   -1,045
827,309;22309,409;    2,255;    1,318
827,872;21713,568;    0,527;    0,955
828,436;22742,910;    1,982;   -0,773
828,999;22785,342;    2,436;    1,227
829,563;21576,411;   -0,654;    1,136
830,126;21387,570;   -0,018;   -0,591
830,690;21422,275;    0,709;    2,864
831,253;20858,526;   -0,473;    2,227
831,816;20979,230;   -0,018;    0,500
832,380;20921,481;    1,164;    0,864
832,943;21130,277;    3,073;   -0,500
833,506;20650,345;    0,255;   -1,227
834,069;21441,687;    2,164;   -0,955
834,632;21544,755;   -2,200;    1,318
835,195;21459,642;    1,346;    0,955
835,758;20638,074;    0,709;    1,955
836,321;20411,507;    1,073;   -1,045
836,884;20487,757;   -1,291;   -0,955
837,447;20587,553;    0,528;    1,773
838,010;20796,167;    1,800;    3,227
838,573;21158,781;    0,528;    0,773
839,135;21069,486;   -0,109;   -0,955
839,698;20492,646;    2,528;    0,409
840,261;19993,805;    0,255;   -0,227
840,823;19859,237;   -0,927;    0,864
841,386;20173,942;   -0,018;   -2,409
841,948;20026,284;    0,255;    1,773
842,511;19774,534;    0,255;    1,682
843,073;19926,603;    2,982;    0,227
843,636;19723,399;    0,619;   -0,227
844,198;19578,285;    1,255;    0,591
844,760;19722,263;    0,619;    1,955
845,322;19373,604;    0,164;    1,136
845,885;19794,491;   -0,290;    0,591
846,447;20254,196;    0,710;    0,227
847,009;19792,537;    3,983;   -0,682
847,571;20155,606;    1,346;   -2,045
848,133;20264,402;   -0,199;   -1,864
848,695;20093,652;    2,346;    1,409
849,257;19607,085;    1,346;   -1,682
849,819;19758,426;    2,983;   -0,409
850,381;19830,222;    1,801;   -0,864
850,942;20255,018;    1,892;   -0,591
851,504;20107,177;    0,983;    0,227
852,066;20154,337;    1,619;   -1,591
852,628;19676,042;    0,165;    1,955
853,189;19268,747;    0,256;    2,682
853,751;19344,633;   -0,654;    1,409
854,312;19109,338;    1,256;   -1,682
854,874;19660,952;   -0,108;   -0,773
855,435;20152,930;    0,528;   -1,682
855,997;20317,999;    3,983;   -0,136
856,558;19590,431;    0,801;    1,773
857,119;19746,045;   -0,744;    2,864
857,681;19403,386;   -0,108;    0,318
858,242;19398,637;    1,347;   -2,136
858,803;19855,705;    1,074;   -0,773
859,364;20477,501;    0,892;   -4,773
859,925;19785,661;   -0,290;   -0,955
860,486;19649,366;    0,529;   -0,955
861,047;19366,434;    0,165;   -1,227
861,608;19165,685;    0,165;   -0,773
862,169;19332,572;   -0,562;   -0,045
862,730;19121,095;   -0,290;    1,409
863,291;19381,163;    0,438;   -0,500
863,852;19649,959;   -0,926;    1,955
864,412;19132,028;   -1,835;   -0,864
864,973;17661,006;    1,892;    0,500
865,534;17493,620;    2,074;    0,227
866,094;19037,325;    2,620;    0,227
866,655;18676,030;    4,711;    3,318
867,215;18967,007;    0,074;    0,136
867,776;18840,440;   -1,199;   -0,136
868,336;18961,599;    1,529;    0,136
868,897;18365,849;    3,438;    1,682
869,457;18123,009;    3,256;    0,318
870,017;18377,532;    2,438;   -1,227
870,578;18918,692;    1,893;    0,773
871,138;18547,669;    2,620;   -0,955
871,698;18076,192;   -0,562;   -1,318
872,258;17976,897;    0,711;   -2,864
872,818;18371,239;    2,347;    0,045
873,378;18264,944;   -2,198;    1,045
873,938;17889,103;    4,984;    0,500
874,498;18195,081;    1,256;   -1,955
875,058;18081,059;    4,347;    1,773
875,618;17902,036;    1,438;   -2,682
876,177;17853,741;   -0,471;    0,136
876,737;17399,992;   -0,289;    1,955
877,297;17365,242;    2,711;    1,955
877,856;17385,220;    2,529;    0,318
878,416;17355,379;    2,438;   -0,136
878,976;17556,721;    3,438;    0,409
879,535;17735,244;    4,529;    3,136
880,095;17472,222;    1,347;    0,045
880,654;17599,290;    0,347;    1,318
881,213;17674,541;    2,347;    1,500
881,773;17330,064;    1,984;    2,682
882,332;17675,223;    6,075;    5,136
882,891;17537,201;    0,711;    2,136
883,451;18012,542;   -2,016;    1,682
884,010;17483,247;   -1,107;   -0,409
884,569;17557,134;   -2,289;   -0,045
885,128;17702,566;   -0,743;   -1,864
885,687;17789,635;   -0,743;    0,682
886,246;17459,340;    2,620;    2,136
886,805;17188,863;    1,620;    2,045
887,364;17509,113;    1,166;   -0,500
887,922;17858,364;   -0,016;    0,045
888,481;17387,614;    1,530;    0,591
889,040;17706,047;    3,711;    2,136
889,599;18390,024;    2,166;    1,409
890,157;18459,002;    2,166;    2,409
890,716;18128,071;    2,166;    0,227
891,274;17888,776;    0,075;   -1,136
891,833;18316,844;    1,166;    0,864
892,391;18253,731;    1,802;    0,500
892,950;18328,527;    0,166;   -0,773
893,508;18674,232;    0,984;   -0,409
894,067;18009,300;   -0,379;    0,136
894,625;17901,369;   -1,016;   -1,500
895,183;18158,438;   -0,198;   -0,682
895,741;18032,506;    2,257;   -1,773
896,299;17856,120;    1,621;   -2,409
896,858;18044,643;    1,530;   -1,591
897,416;18153,985;    0,166;   -1,318
897,974;17870,144;   -2,197;    0,318
898,532;18019,395;    6,530;    2,682
899,089;17947,281;    0,621;   -0,682
899,647;18063,350;    0,530;    1,318
900,205;17726,237;    0,257;    1,045
900,763;17965,851;    2,166;    0,227
901,321;17950,556;    3,530;   -1,409
901,878;17358,897;    3,257;   -0,773
902,436;17229,511;    0,257;    1,318
902,994;17597,125;    6,712;    3,682
903,551;17018,830;    1,439;    0,409
904,109;17430,263;    1,530;   -1,409
904,666;17047,240;    1,439;    1,045
905,224;16812,673;    3,894;   -0,409
905,781;16517,196;   -0,470;   -0,318
906,338;16606,901;    0,167;    1,045
906,895;16540,787;    1,894;    2,045
907,453;16441,220;    2,348;    1,136
908,010;16475,470;    3,348;    0,409
908,567;16074,721;   -0,561;    0,591
909,124;15644,153;    2,439;   -1,500
909,681;15699,585;   -1,288;    0,682
910,238;15880,563;   -0,106;   -1,318
910,795;16178,995;   -1,561;   -1,136
911,352;15800,995;   -0,379;   -2,682
911,909;15202,540;    2,803;   -0,864
912,466;15679,086;    1,985;    1,500
913,022;15199,995;   -0,924;    0,500
913,579;15583,449;   -0,470;    2,045
914,136;15244,631;   -2,561;    0,955
914,692;15650,359;    1,530;   -1,227
915,249;15221,904;    0,530;    0,409
915,806;15430,722;    1,803;    1,955
916,362;15107,722;    0,894;    1,864
916,918;14660,540;    2,439;    1,045
917,475;14658,268;    1,621;    0,955
918,031;14763,813;    0,076;   -0,045
918,587;14152,177;    0,621;   -0,318
919,144;14385,359;   -0,379;    0,227
919,700;14759,086;    0,167;    0,773
920,256;14298,631;    0,439;    0,045
920,812;13912,904;    1,439;   -1,045
921,368;13927,086;    1,348;   -1,045
921,924;13541,722;    0,439;   -0,136
922,480;13095,177;    0,076;    1,227
923,036;13758,268;   -0,652;    1,955
923,592;13691,631;    0,621;    0,318
924,148;13600,268;    1,894;   -0,955
924,704;12900,995;    0,258;   -0,409
925,259;13201,268;   -0,561;    0,591
925,815;12873,086;    3,803;    0,500
926,371;12410,813;    3,530;    1,409
926,926;12300,086;    1,621;    0,591
927,482;11921,540;    1,621;    0,773
928,037;11782,631;   -0,833;    2,045
928,593;12043,449;    0,258;    1,045
929,148;11867,177;    1,167;   -1,500
929,704;11401,540;    2,439;   -0,500
930,259;11609,722;    0,894;   -0,136
930,814;10635,995;    1,803;    1,955
931,369;10331,268;    0,258;   -0,773
931,925;10239,086;   -1,924;    0,136
932,480;10062,540;    3,076;   -2,591
933,035; 9956,268;    3,985;   -0,318
933,590; 9727,449;   -1,742;   -1,773
934,145; 9340,177;   -1,288;   -0,318
934,700; 9699,359;    0,348;   -0,591
935,255; 9479,631;    4,803;    0,045
935,809; 8728,540;    6,258;    0,864
936,364; 7812,631;    2,167;   -0,136
936,919; 7792,177;    2,348;   -1,773
937,474; 7669,904;    1,348;    0,136
938,028; 7454,177;    3,076;    1,136
938,583; 6875,722;    6,348;    4,682
939,138; 7178,904;    0,167;    2,136
939,692; 6628,177;   -1,015;   -1,136
940,247; 6254,449;    1,167;   -1,045
940,801; 5791,177;    0,621;    0,227
941,355; 5713,722;    0,439;    2,591
941,910; 5389,722;    0,712;   -2,136
942,464; 5496,268;    2,712;   -0,318
943,018; 5256,086;    3,258;   -0,227
943,572; 5174,086;    2,803;   -0,682
944,126; 4561,268;   -0,924;   -0,409
944,681; 4437,540;    0,712;    0,227
945,235; 4421,995;    2,167;   -0,591
945,789; 4377,086;    1,258;   -1,864
946,342; 4441,813;   -0,561;   -0,591
946,896; 4282,631;    0,348;    0,955
947,450; 4033,995;   -0,561;   -0,227
948,004; 4206,813;    1,076;   -0,045
948,558; 4208,995;    1,258;   -0,864
949,111; 4128,631;   -1,197;   -0,318
949,665; 4164,449;   -0,106;   -0,682
950,219; 4022,359;    0,621;   -1,045
950,772; 4119,722;    0,258;    1,864
951,326; 4036,449;   -1,106;   -0,955
951,879; 4127,813;    1,076;   -2,318
952,433; 4150,722;    1,348;    2,227
952,986; 3992,540;    0,348;    0,682
953,539; 3928,904;    1,530;    0,591
954,093; 3860,904;    0,985;   -1,318
954,646; 3983,813;   -0,288;    1,318
955,199; 3815,449;    1,258;   -0,500
955,752; 3673,177;    1,985;    1,773
956,305; 3617,449;    0,894;    2,955
956,858; 3809,813;    0,621;   -0,318
957,411; 3979,449;    3,621;    2,136
957,964; 3801,177;    2,076;    2,136
958,517; 3811,177;    0,985;    3,136
959,070; 3629,904;   -1,197;    1,955
959,623; 3687,540;    1,076;    1,500
960,176; 3451,813;    0,712;    2,045
960,728; 3437,631;    1,712;    0,773
961,281; 3498,722;    2,258;    0,500
961,834; 3532,995;   -0,833;    0,864
962,386; 3473,631;    1,258;    1,045
962,939; 3380,722;    3,439;   -0,318
963,491; 3518,086;    2,621;    1,136
964,043; 3397,813;    0,076;    2,409
964,596; 3523,177;    1,712;    2,227
965,148; 3347,268;   -0,379;    1,773
965,700; 3288,540;   -0,015;   -0,227
966,253; 3426,813;   -0,833;    0,318
966,805; 3240,722;    1,894;    0,773
967,357; 3306,177;    0,439;   -1,500
967,909; 3240,904;    1,167;   -1,227
968,461; 3381,540;    0,894;    3,136
969,013; 3301,631;   -1,561;   -0,864
969,565; 3378,904;    1,803;   -1,136
970,117; 3434,904;    3,803;    1,045
970,669; 3278,449;    3,258;   -0,136
971,220; 3146,631;    2,167;   -1,500
971,772; 3063,177;    1,348;   -0,318
972,324; 3189,813;   -1,197;   -0,500
972,876; 3137,359;    0,167;   -0,045
973,427; 3249,540;   -1,197;   -1,045
973,979; 3223,449;    0,076;   -2,500
974,530; 3256,086;    0,803;    1,318
975,082; 3280,722;    2,167;    1,682
975,633; 3166,722;    2,894;    1,682
976,184; 3328,722;    2,076;    0,773
976,736; 3104,904;    0,348;    0,227
977,287; 2864,359;    0,258;   -0,500
977,838; 3066,722;   -0,924;   -0,318
978,389; 3131,449;    0,803;   -0,500
978,940; 3005,631;    1,258;   -0,409
979,491; 3040,813;    2,258;   -0,500
980,042; 2981,631;   -0,652;    3,045
980,593; 3050,631;    1,894;    0,227
981,144; 3100,177;    3,530;   -0,500
981,695; 3058,177;   -0,470;    1,500
982,246; 3039,359;   -1,833;    1,045
982,797; 3199,631;   -0,561;    0,682
983,347; 3326,449;    2,167;    0,591
983,898; 3450,904;    4,167;    0,409
984,449; 3272,722;    2,530;    0,773
984,999; 3196,268;    1,894;   -1,136
985,550; 2936,268;    3,167;   -0,318
986,100; 3005,904;    0,712;   -0,318
986,651; 3044,086;    0,258;    0,045
987,201; 2995,631;    0,894;   -0,591
987,751; 3094,268;   -0,288;    2,864
988,302; 3078,449;   -0,379;    1,500
988,852; 3111,268;    1,985;   -1,136
989,402; 3125,268;    0,985;    0,682
989,952; 3038,268;    1,621;    0,864
990,502; 3170,904;    1,076;    0,682
991,052; 3133,359;   -0,106;    0,045
991,602; 2974,540;    1,167;    1,318
992,152; 2974,086;    2,803;    0,682
992,702; 2950,177;    1,167;   -0,045
993,252; 2877,813;    0,076;   -0,500
993,802; 2958,631;    1,167;    1,318
994,352; 3229,813;   -0,742;    1,136
994,901; 3339,722;    1,076;    3,227
995,451; 3238,086;   -1,197;    0,318
996,000; 3310,631;    1,076;    0,318
996,550; 3015,449;    2,894;    0,227
997,100; 3010,631;   -0,561;   -0,045
997,649; 3311,359;   -0,197;    0,955
998,198; 2934,177;   -0,288;   -1,500
998,748; 3110,995;    0,348;   -2,318
999,297; 3035,359;    0,985;   -0,409
999,846; 3111,449;    1,894;   -0,773
1000,395; 3152,268;    1,530;    0,500
1000,945; 3078,722;    1,076;   -0,773
1001,494; 3159,449;    0,167;    0,682
1002,043; 3143,631;    0,712;    0,864
1002,592; 3005,722;    3,439;    1,955
1003,141; 3158,631;    2,439;   -0,682
1003,690; 2997,540;    1,258;    0,500
1004,238; 3071,449;   -0,106;   -0,045
1004,787; 2694,722;   -1,288;    1,227
1005,336; 2923,631;    1,621;    0,682
1005,885; 3071,631;   -0,197;   -2,773
1006,433; 3249,086;   -0,470;    0,955
1006,982; 3293,359;    2,167;    1,682
1007,531; 3210,268;    2,712;   -0,227
1008,079; 3159,268;    0,258;    0,500
1008,627; 3328,904;    1,621;    0,409
1009,176; 3052,904;    0,076;   -1,955
1009,724; 3097,449;   -2,742;    0,864
1010,273; 3142,722;    1,076;    0,500
1010,821; 3273,359;    1,076;    1,409
1011,369; 3001,086;    0,076;    1,318
1011,917; 2980,268;   -0,833;   -0,591
1012,465; 3275,449;    2,530;   -1,591
1013,013; 3381,177;    0,439;   -1,682
1013,561; 3237,904;   -1,288;   -0,773
1014,109; 3283,359;   -0,833;    1,682
1014,657; 3153,268;    1,348;    0,591
1015,205; 3280,813;    0,894;   -0,955
1015,753; 3340,359;    0,258;   -1,409
1016,301; 3373,722;    2,621;    3,045
1016,848; 3393,904;    2,167;    0,409
1017,396; 3420,722;    1,621;    0,045
1017,944; 3528,449;    2,621;    1,864
1018,491; 3304,904;   -0,197;    1,409
1019,039; 3443,177;   -0,652;    0,591
1019,586; 3374,631;    0,076;    1,682
1020,134; 3484,904;    0,712;    1,500
1020,681; 3486,359;    2,894;   -1,136
1021,228; 3512,813;   -0,561;   -2,227
1021,776; 3336,449;   -0,833;   -1,136
1022,323; 3531,904;    0,803;    0,773
1022,870; 3489,631;   -0,470;   -0,045
1023,417; 3362,540;    2,076;    1,864
1023,964; 3512,359;    0,621;    1,227
1024,511; 3333,177;   -0,652;    0,773
1025,058; 3132,359;    0,439;   -0,045
1025,605; 3200,813;   -1,742;    3,136
1026,152; 3395,177;   -0,106;   -0,591
1026,699; 3138,722;    0,167;    1,318
1027,245; 3318,449;    2,439;    0,318
1027,792; 3556,359;    0,712;    1,409
1028,339; 3420,449;    4,076;   -0,045
1028,885; 3287,086;    3,621;   -0,227
1029,432; 3191,359;   -0,106;    0,227
1029,978; 3239,359;    1,348;   -1,591
1030,525; 3146,268;    1,621;    0,409
1031,071; 3422,086;    0,348;    1,136
1031,618; 3503,086;    1,258;    1,682
1032,164; 3289,904;    2,076;    3,045
1032,710; 3332,268;    0,076;   -1,500
1033,256; 3262,722;    0,712;   -0,136
1033,803; 3274,359;   -0,288;    1,500
1034,349; 2989,995;    1,803;    0,136
1034,895; 3130,995;    2,621;   -0,318
1035,441; 3111,359;    0,439;    0,318
1035,987; 3111,177;   -2,288;   -0,682
1036,533; 3109,904;   -0,197;   -0,955
1037,078; 3297,177;    4,712;    1,682
1037,624; 3132,359;    2,439;   -0,955
1038,170; 3152,540;    1,712;   -0,318
1038,716; 3037,813;    2,167;   -0,409
1039,261; 2966,086;    2,167;   -0,773
1039,807; 2910,631;   -0,015;    3,409
1040,352; 2963,268;   -1,288;   -0,318
1040,898; 3008,995;    0,167;   -0,682
1041,443; 2916,268;    0,803;   -2,591
1041,989; 2929,268;    3,621;    1,591
1042,534; 2824,995;    0,985;    2,591
1043,079; 2956,268;    1,985;    0,955
1043,625; 2725,449;    0,258;    0,500
1044,170; 2766,359;    2,439;    1,045
1044,715; 3023,177;    0,167;    0,955
1045,260; 2808,813;   -0,833;   -0,955
1045,805; 2886,449;    0,258;   -0,591
1046,350; 2837,540;    0,530;   -0,409
1046,895; 2785,722;    0,803;    1,591
1047,440; 2726,086;    1,530;    0,409
1047,985; 2638,086;   -1,197;   -0,955
1048,530; 2543,722;    1,348;    1,227
1049,074; 2606,268;    2,803;    0,318
1049,619; 2586,722;   -0,924;    1,955
1050,164; 2381,086;    1,076;    0,227
1050,708; 2430,268;    2,621;    0,045
1051,253; 2788,086;    3,258;   -2,227
1051,797; 2508,540;   -0,197;   -1,318
1052,342; 2536,086;    1,348;    1,045
1052,886; 2521,995;    1,803;   -1,409
1053,430; 2411,268;    2,167;    0,136
1053,975; 2410,449;    0,894;   -0,318
1054,519; 2379,722;    1,803;    3,227
1055,063; 2387,086;    3,621;    1,318
1055,607; 2278,177;    1,348;    0,227
1056,151; 2295,540;    0,530;    1,682
1056,695; 2228,177;   -1,833;   -1,136
1057,239; 2307,359;   -1,197;   -0,682
1057,783; 2295,995;    2,258;   -1,500
1058,327; 2237,177;    3,076;    1,409
1058,871; 2451,086;    3,985;    1,318
1059,415; 2173,359;   -0,561;   -0,045
1059,958; 2405,177;    2,985;    2,591
1060,502; 2154,268;    1,348;   -0,773
1061,046; 2081,540;    1,712;   -0,955
1061,589; 2034,359;    2,803;   -1,136
1062,133; 1928,268;    0,985;    1,864
1062,676; 1842,086;    1,439;    0,864
1063,220; 1854,904;    0,985;    0,500
1063,763; 1873,813;    2,985;    1,136
1064,306; 1942,995;    0,985;    1,864
1064,849; 1822,722;    2,076;    0,591
1065,393; 1834,631;    2,894;   -1,500
1065,936; 1957,268;    2,530;   -0,409
1066,479; 1852,449;    2,621;    1,318
1067,022; 1883,359;    1,894;   -0,227
1067,565; 1774,177;   -1,197;   -1,318
1068,108; 1811,995;    1,258;   -0,591
1068,651; 1799,540;   -2,470;    1,409
1069,194; 1710,449;   -1,106;   -1,682
1069,736; 1692,268;    3,803;    0,955
1070,279; 1681,904;   -1,652;   -0,500
1070,822; 1718,177;    1,530;   -0,318
1071,364; 1773,995;    0,530;    1,318
1071,907; 1615,177;    0,348;    3,227
1072,450; 1549,359;    0,258;   -0,045
1072,992; 1523,540;   -0,561;    3,136
1073,535; 1650,722;    0,167;    2,136
1074,077; 1461,813;    2,985;    2,045
1074,619; 1423,359;    0,985;    0,591
1075,161; 1440,722;   -0,561;    1,500
1075,704; 1614,540;    0,258;    1,227
1076,246; 1429,722;    1,530;    0,682
1076,788; 1357,086;   -1,015;    1,773
1077,330; 1460,359;   -2,106;    2,136
1077,872; 1409,904;   -1,924;    0,955
1078,414; 1615,813;    3,712;    0,773
1078,956; 1346,904;    0,167;   -0,227
1079,498; 1587,631;    0,439;    0,318
1080,040; 1295,086;    0,985;   -1,318
1080,581; 1252,177;    0,621;   -0,318
1081,123; 1199,631;   -0,106;   -0,773
1081,665; 1245,904;    3,803;   -0,955
1082,206; 1507,813;    3,258;   -0,500
1082,748; 1373,995;    3,258;    2,045
1083,289; 1267,722;    0,167;    1,318
1083,831; 1161,449;    0,258;    0,227
1084,372; 1179,631;    0,894;    0,591
1084,913; 1183,995;    3,348;    0,864
1085,455; 1169,268;    1,530;   -2,045
1085,996; 1129,177;    0,530;    0,136
1086,537; 1153,086;    0,985;    0,864
1087,078; 1186,268;    0,439;   -2,136
1087,619; 1232,177;   -1,652;    0,227
1088,160; 1152,268;    1,439;    1,318
1088,701; 1137,722;   -0,742;    0,682
1089,242; 1085,449;   -0,561;   -2,227
1089,783; 1163,631;   -0,561;    1,409
1090,324; 1126,359;   -0,833;    0,682
1090,865; 1009,722;   -1,924;   -0,409
1091,405; 1006,813;   -0,561;    2,227
1091,946; 1023,631;   -0,197;   -0,955
1092,487;  961,904;   -1,288;   -1,409
1093,027; 1116,359;    1,803;   -1,500
1093,568;  962,268;    2,258;    1,227
1094,108; 1035,813;    0,621;    1,773
1094,649;  988,268;   -0,470;    0,136
1095,189;  928,359;    1,167;   -0,682
1095,729;  868,631;    0,712;    0,955
1096,269;  892,540;    1,258;   -0,955
1096,810; 1191,086;   -0,197;    0,500
1097,350; 1015,904;   -0,561;   -0,773
1097,890;  928,813;    2,985;    1,227
1098,430; 1170,177;    4,985;    2,864
1098,970; 1041,086;    1,894;    1,682
1099,510;  913,359;   -0,833;   -2,318
1100,050;  830,449;    0,258;   -1,591
1100,589;  800,268;    0,076;   -0,318
1101,129;  916,268;    0,894;   -0,955
1101,669; 1054,540;    2,803;    2,136
1102,209;  892,631;    1,530;    2,227
1102,748;  838,631;    3,439;    0,955
1103,288;  823,722;    0,712;   -1,227
1103,827;  858,631;    3,530;   -2,227
1104,367;  745,722;    1,712;   -2,409
1104,906;  707,904;   -1,015;   -1,136
1105,445;  764,449;    0,985;   -1,136
1105,985;  719,449;   -0,652;    1,500
1106,524;  764,449;    1,530;   -0,682
1107,063;  741,631;    1,167;    1,409
1107,602;  728,086;    1,894;   -1,500
1108,141;  646,722;    1,621;    1,500
1108,680;  737,449;    3,985;   -0,591
1109,219;  674,449;    0,167;   -0,500
1109,758;  676,449;    4,167;    0,682
1110,297;  653,904;   -1,106;   -0,682
1110,836;  598,722;    1,439;    0,955
1111,375;  752,904;    0,348;    0,409
1111,913;  767,540;    0,985;    0,773
1112,452;  711,995;    0,894;    0,136
1112,991;  601,540;    1,076;    1,955
1113,529;  557,813;    0,167;   -0,045
1114,068;  615,631;    0,439;    2,955
1114,606;  517,722;   -0,561;   -0,955
1115,144;  682,086;    1,530;    1,045
1115,683;  615,268;    1,985;    0,318
1116,221;  672,086;    2,076;   -0,864
1116,759;  580,359;    1,621;   -0,864
1117,297;  753,995;    1,621;    1,864
1117,836;  572,359;    1,985;   -1,227
1118,374;  569,722;    0,258;   -0,682
1118,912;  528,359;    0,439;    2,682
1119,450;  511,177;    0,985;    0,864
1119,988;  560,268;    3,348;    2,136
1120,525; 1011,086;    7,258;    3,318
1121,063;  706,813;    0,530;    1,864
1121,601;  515,359;    1,076;   -1,227
1122,139;  474,449;    1,076;   -2,045
1122,676;  659,904;   -1,652;    2,773
1123,214;  607,268;    0,712;    4,409
1123,751;  427,449;    0,621;    2,227
1124,289;  545,540;    0,894;   -0,409
1124,826;  423,995;   -0,379;    0,227
1125,364;  363,359;    0,712;   -0,955
1125,901;  536,177;    6,258;    1,227
1126,438;  629,540;    3,530;    0,955
1126,975;  378,995;    2,985;   -0,773
1127,513;  441,086;    2,621;    2,136
1128,050;  356,086;   -0,561;   -0,682
1128,587;  437,086;    1,348;   -0,227
1129,124;  477,449;   -0,015;    1,318
1129,661;  364,268;   -1,924;    0,227
1130,198;  515,359;    2,439;    0,773
1130,734;  460,177;   -0,379;    1,409
1131,271;  326,449;   -1,197;    0,864
1131,808;  486,540;    1,621;    3,045
1132,345;  366,540;    4,530;    0,318
1132,881;  258,359;   -0,561;   -1,864
1133,418;  374,631;    0,348;   -1,136
1133,954;  319,086;    0,712;   -2,682
1134,491;  395,359;    1,712;   -0,773
1135,027;  299,995;    2,167;    0,864
1135,564;  375,086;    1,439;    2,955
1136,100;  355,813;   -0,742;    2,136
1136,636;  254,813;   -1,015;   -1,045
1137,172;  343,268;    0,894;   -1,045
1137,708;  269,086;   -1,561;   -1,045
1138,245;  270,268;    0,803;   -1,227
1138,781;  243,086;    1,803;   -3,318
1139,317;  288,540;    1,894;   -1,409
1139,852;  273,268;    3,076;    0,136
1140,388;  384,268;    2,076;   -0,409
1140,924;  271,904;    1,076;   -2,227
1141,460;  223,631;   -0,288;    0,136
1141,996;  168,177;   -0,652;    2,682
1142,531;  200,904;    1,076;    3,318
1143,067;  407,540;    1,167;    1,045
1143,602;  457,995;    3,439;   -0,318
1144,138;  304,631;    0,803;    1,045
1144,673;  192,995;    1,621;    1,409
1145,209;  253,359;    2,894;   -0,318
1145,744;  183,722;    0,803;    0,864
1146,279;  298,813;    1,530;   -0,136
1146,815;  227,813;    1,530;   -2,682
1147,350;  265,268;   -0,924;    0,045
1147,885;  179,904;   -1,924;   -1,318
1148,420;  181,359;    2,439;    0,773
1148,955;  160,359;   -1,470;    1,864
1149,490;  191,268;   -1,106;   -1,591
1150,025;  175,995;   -1,106;   -1,773
1150,560;  270,086;   -0,288;   -0,955
1151,094;  239,631;    0,258;   -0,591
1151,629;  237,995;   -3,742;    0,864
1152,164;  172,086;   -1,288;    1,318
1152,698;  146,995;    1,258;   -0,136
1153,233;  100,177;   -1,379;   -0,682
1153,767;  142,722;   -0,288;   -2,318
1154,302;  186,359;   -0,379;    1,773
1154,836;  190,540;    0,803;   -2,136
1155,371;  229,813;    2,258;    3,682
1155,905;  191,359;    1,985;    1,682
1156,439;  169,359;    0,530;   -0,500
1156,973;  188,540;    0,439;    0,318
1157,507;  132,904;   -1,742;    0,682
1158,042;  161,540;   -0,652;    1,045
1158,576;  200,449;   -0,561;    1,773
1159,110;  188,631;    0,076;    2,409
1159,643;  166,086;   -2,470;   -0,045
1160,177;  115,722;   -2,015;    1,500

