
Integration time [ms]:   0,050
Averaging Nr. [scans]: 11
Smoothing Nr. [pixels]: 0
Data measured with spectrometer [name]: 7318044SP
Wave   ;Sample   ;Dark     ;Reference
[nm]   ;[counts] ;[counts] ;[counts] 

186,757;   -0,615;   38,161;    1,318
187,357;   38,100;   26,706;    0,955
187,958;   11,464;   17,252;   -1,591
188,558;   51,641;   12,979;   -1,227
189,159;   27,853;   10,070;   -4,500
189,759;   -0,007;    5,797;   -3,591
190,360;    7,871;    6,797;   -2,136
190,960;   40,947;    5,706;   -4,136
191,560;   55,337;    2,614;   -6,591
192,161;  287,109;    5,885;   -3,500
192,761;  126,766;    5,520;   -3,227
193,361;   81,185;    3,065;   -3,773
193,962;  135,416;    1,612;   -2,682
194,562;   75,239;   -0,114;   -3,955
195,162;  105,217;   -0,567;   -2,227
195,762;  267,201;    2,433;   -0,045
196,362;  210,029;    1,706;   -2,500
196,963;   79,387;    1,706;   -0,864
197,563;  162,740;    1,252;   -0,955
198,163;  111,886;   -0,111;   -0,682
198,763;  122,685;   -0,020;   -0,500
199,363;  226,859;    3,616;   -0,500
199,963;  188,037;    2,162;    0,409
200,563;  170,089;    6,344;   -1,409
201,163;  155,893;    5,435;   -0,227
201,763;  247,124;    1,435;    0,318
202,363;  191,257;    0,980;    1,500
202,963;  295,367;    1,526;    1,045
203,563;  398,944;    0,344;    0,500
204,162;  256,250;    1,889;   -1,864
204,762;  246,067;    2,071;    0,591
205,362;  224,618;    0,708;    1,955
205,962;  320,430;    3,435;    1,955
206,562;  321,121;    1,889;    2,318
207,161;  297,944;    1,708;    0,318
207,761;  447,881;    4,435;    2,409
208,361;  321,540;    1,889;    1,409
208,960;  418,599;    2,889;    1,500
209,560;  496,910;    0,435;    1,591
210,160;  482,610;    5,071;    1,864
210,759;  459,196;    0,708;    1,227
211,359;  463,673;   -0,474;    1,045
211,958;  738,363;    3,526;    2,045
212,558;  821,858;    0,799;    1,864
213,157;  660,786;   -0,929;    1,500
213,757; 1114,178;    5,617;   -0,227
214,356;  804,985;    1,708;   -0,409
214,956; 1151,799;    3,526;    0,409
215,555;  776,947;    0,617;    2,136
216,154;  713,344;   -0,292;   -0,591
216,754;  726,963;    1,253;    0,773
217,353;  876,117;   -0,383;   -1,045
217,952;  741,636;    2,072;    0,318
218,552;  961,735;    0,254;   -0,773
219,151;  876,415;   -1,110;    0,955
219,750;  899,823;    0,890;   -0,227
220,349; 1063,199;   -2,292;    1,045
220,948; 1103,498;    1,163;    1,136
221,548; 1167,594;    0,617;    1,227
222,147; 1283,585;   -1,292;   -0,409
222,746; 1574,110;    1,254;   -0,955
223,345; 1457,152;   -1,019;    0,500
223,944; 1491,322;    1,163;    0,773
224,543; 1699,031;    4,072;   -1,409
225,142; 1806,196;    1,345;    0,136
225,741; 1716,348;    1,163;    1,045
226,340; 1763,787;    1,254;   -0,955
226,939; 2266,568;    2,708;   -0,136
227,538; 2313,720;    1,163;   -0,773
228,137; 2440,286;    0,435;    0,864
228,735; 2656,550;    0,435;    1,227
229,334; 2378,988;   -0,474;   -0,227
229,933; 2770,526;    0,799;    0,591
230,532; 2907,425;   -1,201;   -0,409
231,131; 2980,663;    1,253;    0,318
231,729; 3154,393;    1,163;   -2,318
232,328; 3392,516;    0,435;   -1,500
232,927; 3504,034;    4,526;   -0,500
233,525; 3674,875;    0,981;    0,045
234,124; 3901,664;    1,890;   -1,591
234,723; 3989,004;    1,617;   -1,045
235,321; 4162,651;    1,163;    0,136
235,920; 4459,037;    2,526;   -1,227
236,518; 4754,230;    1,072;    0,318
237,117; 5043,024;    2,890;   -0,227
237,715; 5213,872;    1,163;   -0,500
238,314; 5258,268;    1,708;   -2,318
238,912; 5358,756;    0,526;   -1,409
239,510; 5453,995;    1,162;   -1,227
240,109; 5661,091;   -0,474;    3,773
240,707; 5731,554;   -0,474;    1,227
241,305; 6216,464;   -0,383;    0,136
241,904; 6425,101;   -0,292;   -2,045
242,502; 6384,490;    3,253;   -0,227
243,100; 6399,856;    3,344;   -0,955
243,698; 6659,250;    2,799;    1,682
244,297; 6888,451;   -0,656;    0,682
244,895; 6680,998;   -0,474;   -2,318
245,493; 7081,322;    2,981;   -0,591
246,091; 7179,346;    5,163;   -1,318
246,689; 7165,974;    2,163;    0,591
247,287; 7377,205;   -0,019;   -1,136
247,885; 7724,282;   -1,019;    1,227
248,483; 7851,891;   -0,201;   -0,500
249,081; 8003,682;    0,981;    1,591
249,679; 8224,590;   -1,019;    1,682
250,277; 8530,860;   -2,292;    0,864
250,875; 8477,046;    0,617;   -1,045
251,473; 8555,520;   -0,019;    0,500
252,071; 8760,345;   -0,383;    1,045
252,669; 8957,413;   -1,565;    0,318
253,267; 9295,881;    1,618;    0,773
253,864; 9269,569;    0,617;    0,682
254,462; 9038,984;    1,526;    1,591
255,060; 9093,851;    0,072;    1,318
255,658; 9495,231;   -3,292;   -0,136
256,255; 9948,924;   -0,201;   -2,045
256,853; 9805,919;    2,345;    1,409
257,451; 9838,487;    1,981;    1,864
258,048;10058,808;    2,072;    1,864
258,646; 9863,885;    0,436;   -1,045
259,243;10074,282;    2,981;    2,227
259,841;10135,479;    1,799;    0,318
260,438; 9980,167;    0,254;    0,864
261,036;10858,038;    0,617;    1,409
261,633;10801,975;    1,526;    2,227
262,231;10524,421;   -0,110;   -0,045
262,828;10598,161;   -0,383;    1,136
263,425;10668,428;   -1,928;   -0,591
264,023;10947,397;    1,436;    0,045
264,620;10442,414;    1,526;   -0,318
265,217;10846,694;    2,890;    3,136
265,815;11014,210;    2,527;    2,136
266,412;10733,438;    0,072;    0,136
267,009;10796,297;    0,526;    0,773
267,606;10644,340;    0,345;   -0,955
268,203;10648,286;   -0,383;   -0,591
268,801;11014,347;   -0,474;    0,591
269,398;11358,068;   -0,564;    2,500
269,995;11335,434;    0,890;    1,591
270,592;11062,748;    0,799;   -0,500
271,189;11330,101;    1,981;    0,409
271,786;11488,924;    2,072;    1,227
272,383;11261,509;   -0,383;    0,227
272,980;11515,007;    1,617;    0,318
273,577;12053,647;    2,162;    1,227
274,174;11557,623;    1,435;    2,591
274,771;11567,231;    1,890;   -0,773
275,367;11696,366;    3,253;    1,409
275,964;11658,988;   -0,565;   -0,500
276,561;11810,438;   -2,474;   -1,045
277,158;12088,045;    1,799;   -1,773
277,755;12179,955;   -0,110;    0,409
278,351;11501,149;    0,436;   -1,500
278,948;11907,549;   -0,201;    0,045
279,545;11938,572;    0,527;    2,318
280,141;12585,362;    1,254;   -2,045
280,738;12456,305;    2,435;   -0,136
281,334;12762,159;   -0,383;    0,591
281,931;12079,313;    2,890;   -1,318
282,528;12247,940;    4,072;   -0,500
283,124;13046,621;    3,345;   -0,500
283,721;12949,642;    0,709;    1,409
284,317;12743,205;    0,163;    2,500
284,913;13356,353;   -0,110;    0,591
285,510;13535,626;    2,890;   -0,318
286,106;13600,211;    2,345;   -0,955
286,703;13170,309;    0,072;    1,955
287,299;13394,116;    1,254;   -0,591
287,895;13672,356;    0,890;   -1,045
288,491;14349,250;    0,163;    2,136
289,088;14017,020;    0,163;    2,409
289,684;14053,868;    2,890;    1,500
290,280;14093,973;    1,890;    0,682
290,876;14180,372;    0,163;    5,500
291,472;14063,987;    2,163;    2,227
292,068;14169,501;    1,254;    0,227
292,665;13903,207;   -0,564;    0,773
293,261;13409,754;   -1,292;    2,136
293,857;13805,775;    4,072;    2,136
294,453;13823,063;   -0,928;    0,955
295,049;13648,666;    0,253;    1,955
295,644;13638,141;   -1,292;    0,136
296,240;13568,420;    0,162;   -0,136
296,836;13674,053;   -0,747;    0,318
297,432;13961,025;    2,980;   -0,500
298,028;13966,001;    0,435;    0,773
298,624;14467,260;    0,889;    1,864
299,220;14790,151;    0,435;    0,591
299,815;14373,136;    0,526;   -0,409
300,411;14132,030;    0,435;    1,773
301,007;14139,339;    1,889;    0,227
301,602;14249,218;    2,071;   -2,318
302,198;14394,982;    1,435;   -0,773
302,794;14761,002;    1,526;   -0,500
303,389;14953,482;    1,071;    1,045
303,985;15004,383;    1,253;    1,409
304,580;14983,448;    0,889;    1,591
305,176;14969,997;    0,344;    0,136
305,771;14923,651;   -0,929;   -1,227
306,367;14692,586;    3,071;    0,136
306,962;15091,218;    2,889;    1,500
307,558;14779,061;    2,435;    0,136
308,153;14723,460;   -0,383;   -1,136
308,748;15012,649;    0,162;    1,682
309,344;14976,892;    0,253;   -1,318
309,939;15019,394;    2,071;   -1,318
310,534;15378,370;   -2,020;   -1,682
311,130;15383,451;   -0,656;   -2,500
311,725;15069,245;    0,526;   -0,500
312,320;15390,293;    1,253;    0,045
312,915;15188,742;    2,890;   -1,045
313,510;15273,014;    0,526;   -0,500
314,105;15883,555;   -3,565;    1,409
314,700;15253,622;   -1,656;   -1,045
315,295;14793,721;   -0,020;    0,045
315,890;14306,656;   -0,292;    0,864
316,485;14704,626;    0,253;   -0,318
317,080;14838,599;   -0,929;    1,591
317,675;15414,665;    3,071;   -0,682
318,270;14682,479;    6,889;    3,318
318,865;14753,380;    2,435;    3,045
319,460;14605,640;   -1,565;    0,591
320,055;14884,998;   -2,565;   -1,227
320,650;14485,559;   -1,838;   -0,591
321,244;14516,676;    0,889;   -1,409
321,839;15551,647;    0,980;   -0,227
322,434;15486,566;   -0,111;   -1,591
323,029;15053,190;   -0,474;    1,591
323,623;14888,103;    0,798;    0,773
324,218;14600,586;    2,707;    1,409
324,812;14509,738;    0,889;    1,591
325,407;14319,094;   -0,929;    2,045
326,002;14186,533;    0,526;   -0,409
326,596;14534,506;   -0,656;    1,318
327,191;14807,672;   -0,383;   -1,045
327,785;14347,869;   -0,747;   -0,227
328,379;14572,251;   -0,383;    0,136
328,974;14374,920;    1,798;   -3,955
329,568;14609,870;    2,889;   -2,409
330,163;14398,786;    2,435;    1,045
330,757;14812,345;    0,253;    1,591
331,351;14093,649;   -0,292;    0,682
331,945;14386,812;   -0,383;    1,409
332,540;13934,658;    1,617;   -0,591
333,134;14053,965;    3,344;    0,773
333,728;14281,352;    2,799;    0,318
334,322;14690,267;    0,889;   -0,864
334,916;13929,388;    0,344;    0,955
335,510;14271,938;   -0,111;   -0,136
336,105;14514,400;   -0,929;    1,591
336,699;14200,592;   -1,292;    0,591
337,293;14125,611;    1,071;    0,318
337,887;14269,508;    0,071;    1,955
338,481;14355,319;    2,980;    0,591
339,074;14494,834;    2,071;    2,682
339,668;14258,668;   -0,110;    1,227
340,262;14568,552;    7,708;    3,227
340,856;14023,894;    1,708;   -0,682
341,450;13316,755;    0,708;    1,864
342,044;14289,520;    1,799;    0,136
342,637;14024,000;    1,162;   -2,136
343,231;13863,098;   -1,474;    0,682
343,825;13808,493;   -0,747;   -0,591
344,419;13715,135;   -0,474;    0,500
345,012;13419,729;    2,889;    4,045
345,606;13448,190;   -0,656;    1,591
346,199;13297,478;   -0,111;   -0,227
346,793;12757,675;    2,525;    2,045
347,386;12955,696;    0,889;   -1,136
347,980;12951,698;   -0,838;   -0,045
348,573;12716,713;   -1,748;    0,409
349,167;12300,801;    6,161;    4,773
349,760;12680,942;    2,252;    2,682
350,354;12670,125;    1,616;    1,136
350,947;12346,335;    2,798;    1,682
351,540;11995,351;    0,616;   -1,409
352,134;11952,247;   -1,111;    1,136
352,727;12013,475;   -0,657;    1,136
353,320;11802,595;    2,343;    0,591
353,913;11656,770;   -1,929;    1,864
354,507;11813,085;    0,434;   -1,227
355,100;11806,398;    0,071;    0,864
355,693;10875,814;    4,798;    2,409
356,286;10918,875;    0,980;    2,773
356,879;11354,958;   -0,475;    1,227
357,472;10953,108;    0,980;    1,500
358,065;11110,758;    3,161;    2,500
358,658;11019,768;    0,798;    2,318
359,251;10624,421;    0,252;   -0,591
359,844;10037,551;    0,343;   -1,136
360,437;10217,472;    0,252;    0,045
361,030;10547,570;    0,525;   -0,682
361,623;10061,831;    0,434;    0,318
362,215;10073,493;    0,979;    2,045
362,808; 9921,635;   -2,293;   -1,682
363,401;10121,276;    0,798;    0,136
363,994; 9786,349;    3,252;   -1,500
364,586; 9736,865;    0,888;   -1,500
365,179; 9947,838;   -0,203;   -1,136
365,772; 9374,104;   -0,930;    2,045
366,364; 9717,955;    1,524;   -3,227
366,957; 9939,568;    1,342;   -0,045
367,549; 9935,318;   -0,203;   -0,864
368,142; 9533,563;    0,978;   -1,500
368,734; 9772,266;    2,523;   -2,136
369,327; 9693,470;    2,341;   -0,500
369,919; 9620,977;   -1,659;    0,409
370,512; 9357,697;   -1,023;   -0,500
371,104; 9036,305;    2,704;    1,591
371,696; 9230,934;    1,703;   -0,955
372,289; 9386,007;    0,157;    1,136
372,881; 9548,933;    1,156;    1,318
373,473; 9466,060;    4,064;    1,136
374,066; 9207,959;    1,336;    0,500
374,658; 9036,041;    0,879;    1,136
375,250; 9451,307;   -1,668;   -1,409
375,842; 9282,238;   -0,124;   -0,045
376,434; 9098,027;   -2,762;   -0,409
377,026; 9792,244;   -1,855;   -2,500
377,618; 9644,495;    0,779;   -0,682
378,210; 9490,537;    3,141;   -1,955
378,802; 9324,893;    3,412;   -0,591
379,394; 9254,642;    3,411;    0,682
379,986; 9927,603;    1,138;   -0,955
380,578;10064,971;    1,410;    0,773
381,170; 9281,093;    0,320;    0,045
381,762; 9252,632;   -0,224;    1,409
382,354; 9480,527;   -0,223;   -1,318
382,945; 9616,207;    0,870;    0,318
383,537; 9799,295;    1,144;   -1,955
384,129; 9815,204;    0,963;   -1,136
384,721;10009,286;    0,418;    0,955
385,312; 9944,102;   -1,399;   -0,955
385,904; 9976,908;   -0,945;    1,591
386,496; 9307,258;    0,691;    1,045
387,087; 9473,654;    0,418;    2,500
387,679; 9519,501;   -0,401;    0,045
388,270; 9657,216;   -2,401;    2,045
388,862; 9786,293;   -0,401;   -0,318
389,453; 9672,482;    1,054;    1,045
390,045; 9950,994;    3,236;   -2,682
390,636; 9905,098;    0,144;   -0,591
391,227; 9770,656;    2,054;   -0,045
391,819; 9825,981;    0,781;    0,773
392,410; 9937,968;    0,600;    0,045
393,001; 9856,962;    1,600;   -1,591
393,593;10129,303;    0,600;   -0,045
394,184; 9961,797;    0,873;   -0,409
394,775; 9914,384;    1,146;    2,136
395,366;10135,957;    1,782;    0,773
395,957;10202,109;   -2,400;    0,136
396,548;10526,510;    1,054;    2,682
397,139;10851,537;    2,236;    0,591
397,730;10540,180;    0,873;    0,955
398,321;10608,655;    0,509;    0,955
398,912;10614,028;   -0,764;    0,136
399,503;10723,680;   -1,945;   -1,409
400,094;10119,303;   -1,582;    1,682
400,685; 9961,291;    3,600;    0,045
401,276;10064,587;   -0,400;   -0,955
401,867;10384,656;   -1,127;    0,773
402,458;10552,173;    1,509;   -2,318
403,048;10489,533;    0,146;    0,591
403,639;10011,999;    1,509;    0,864
404,230;10312,946;    0,691;    0,318
404,821;10215,953;   -0,127;    0,045
405,411;10332,047;   -0,763;   -2,591
406,002; 9878,492;    3,237;   -1,136
406,592; 9678,884;    2,691;    0,045
407,183;10002,013;    0,328;   -1,500
407,774; 9925,870;    1,419;   -0,136
408,364;10348,580;    2,600;    0,409
408,954; 9877,548;   -0,036;    1,227
409,545; 9930,069;    1,873;    1,045
410,135; 9375,031;   -1,581;    0,500
410,726; 9587,121;    0,783;    0,318
411,316;10008,604;    2,237;    0,773
411,906; 9668,913;    0,146;   -0,409
412,497; 9066,635;   -0,490;   -0,045
413,087; 9760,899;    0,783;   -0,227
413,677;10176,700;   -2,490;    3,864
414,267;10004,724;   -1,035;    1,409
414,857;10044,502;    0,419;    4,227
415,448;10339,247;   -0,763;    0,500
416,038; 9956,686;   -2,945;   -0,591
416,628; 9935,311;    0,965;    0,409
417,218; 9337,759;   -1,762;    3,318
417,808; 9631,901;    0,965;   -0,409
418,398;10182,306;   -1,035;    2,682
418,988;10203,679;   -2,217;    0,591
419,578;10492,081;    3,601;    1,409
420,168;10865,384;    0,692;   -0,955
420,757;10382,190;    0,964;   -1,500
421,347;10062,318;    1,601;   -0,227
421,937;10238,690;    3,329;    1,409
422,527;10107,344;    2,602;   -0,773
423,116; 9926,240;    2,692;   -0,045
423,706;10351,043;    2,965;    0,318
424,296;10324,390;    1,601;    0,682
424,885;10813,208;    1,510;   -3,045
425,475;11136,698;    1,147;   -2,864
426,065;11028,623;   -1,489;   -0,318
426,654;10633,762;    0,329;   -0,318
427,244;10740,038;    1,147;    1,409
427,833;10102,524;    1,056;   -0,500
428,423;10639,363;    0,147;    1,136
429,012;11488,227;    2,420;   -1,136
429,601;10931,378;    2,057;    0,136
430,191;11178,283;    2,511;    4,318
430,780;10791,711;   -1,671;   -0,409
431,369;10699,659;    1,329;   -0,045
431,959;11406,643;    1,693;    0,500
432,548;11195,156;   -1,398;   -0,045
433,137;11368,621;    0,329;   -1,318
433,726;11896,636;    0,148;    0,500
434,315;11204,133;    0,148;    2,409
434,905;11297,412;    0,693;    1,409
435,494;11207,731;    3,148;    0,955
436,083;11722,554;    1,420;   -0,955
436,672;11565,928;    1,148;    0,500
437,261;11056,807;    0,512;   -1,955
437,850;11156,144;   -1,125;    0,682
438,439;11135,513;    2,239;    1,955
439,027;10955,490;    3,421;    1,773
439,616;11361,509;    2,239;    1,227
440,205;11226,134;    0,057;   -2,136
440,794;11349,915;   -0,306;   -0,045
441,383;11641,001;    1,603;   -0,591
441,971;11481,695;   -0,306;    0,591
442,560;11337,112;    0,603;   -1,773
443,149;11137,608;    3,060;   -1,318
443,737;11301,693;    0,968;   -2,318
444,326;11514,046;    0,331;    0,318
444,915;11569,128;   -1,851;    0,864
445,503;11995,308;    0,058;   -0,318
446,092;11210,557;    7,876;    2,136
446,680;11820,229;    1,876;    0,318
447,269;12040,999;   -1,487;   -0,318
447,857;11767,621;    2,240;   -1,773
448,445;11905,259;    2,149;    1,318
449,034;12118,060;    0,876;   -1,136
449,622;12261,795;    1,240;    3,500
450,210;11347,066;    3,149;    2,227
450,799;11944,034;    2,604;   -0,591
451,387;11904,862;    1,786;   -0,591
451,975;11509,497;   -1,305;    0,864
452,563;11614,494;    0,422;    2,318
453,151;11675,920;   -1,032;   -1,227
453,739;11586,868;   -1,577;    0,136
454,328;11415,271;    0,604;   -2,136
454,916;11082,711;    1,150;   -0,136
455,504;11272,073;    3,513;    1,227
456,092;11490,178;    2,150;   -1,591
456,679;11474,807;    0,604;    0,682
457,267;11299,702;    3,604;    1,045
457,855;11543,134;    3,241;    1,409
458,443;11300,881;   -0,304;    1,682
459,031;11400,846;    1,332;    2,409
459,619;11922,703;   -3,577;    2,864
460,206;12105,630;   -0,759;    2,045
460,794;12171,509;   -0,668;   -0,227
461,382;12454,430;    0,878;   -0,864
461,970;11966,728;    0,605;    1,864
462,557;12013,835;    0,878;   -0,682
463,145;12243,164;   -0,304;   -1,682
463,732;12403,524;    2,514;   -1,045
464,320;12354,577;    1,514;   -3,045
464,907;11987,923;    0,423;   -0,773
465,495;11830,930;    2,696;   -1,227
466,082;11966,767;    2,060;   -0,045
466,670;11897,801;    2,605;    1,227
467,257;12349,157;    0,060;    2,045
467,844;12498,357;    1,514;    0,045
468,432;12516,242;   -0,031;    3,500
469,019;12007,717;    1,606;   -1,773
469,606;12463,549;    0,969;    3,682
470,193;12249,728;    2,151;    0,227
470,780;11766,997;    0,333;    0,864
471,368;12174,181;   -1,212;   -0,773
471,955;11957,742;    1,060;   -0,682
472,542;11523,812;   -0,303;   -1,136
473,129;11777,032;   -0,485;    0,136
473,716;11509,667;    0,060;    0,591
474,303;11745,593;    1,333;   -0,864
474,890;12093,022;    2,333;   -0,500
475,477;12068,734;   -0,576;    0,409
476,064;11974,887;    0,697;   -1,591
476,650;11894,669;    2,152;    0,318
477,237;11755,941;    1,879;    0,955
477,824;11931,934;    3,879;    0,864
478,411;11998,719;    0,606;   -0,318
478,997;12174,003;    0,606;   -0,773
479,584;12258,040;   -0,666;   -0,409
480,171;13040,394;    1,243;   -0,773
480,757;12653,109;   -0,848;    0,773
481,344;12960,014;    0,334;    0,409
481,931;12452,299;   -0,393;    1,045
482,517;13526,558;    0,425;    0,318
483,104;14196,007;    1,334;    2,864
483,690;14592,487;    0,243;    0,045
484,276;15040,614;    0,698;    0,227
484,863;14776,960;    2,152;    1,136
485,449;15416,584;    0,152;    0,318
486,035;15432,923;   -0,666;   -0,136
486,622;15890,383;   -2,393;    0,045
487,208;15811,831;    1,334;    1,500
487,794;15681,206;    0,971;    0,318
488,380;15828,455;    0,698;   -1,409
488,967;15910,420;   -1,120;   -0,409
489,553;15920,318;   -1,029;   -1,409
490,139;16082,393;    0,971;    0,773
490,725;15494,344;    0,789;   -0,227
491,311;14959,905;    1,516;    3,045
491,897;14147,749;   -0,665;    1,500
492,483;13906,940;    0,426;    1,227
493,069;13617,567;    5,426;    0,864
493,655;13643,488;    1,789;    0,682
494,241;13528,503;    1,517;   -0,955
494,826;14028,219;    0,335;   -1,045
495,412;13403,434;    0,335;   -0,682
495,998;13546,954;    0,971;   -0,318
496,584;13729,696;    2,244;    1,045
497,169;13702,664;    2,335;   -0,682
497,755;13648,298;    1,244;    1,227
498,341;14245,292;    2,153;    0,318
498,926;13773,212;    2,881;    1,955
499,512;14014,546;   -0,028;    2,955
500,097;14146,169;   -0,574;   -0,318
500,683;14085,795;   -0,028;    2,136
501,268;14493,027;    1,881;   -0,955
501,854;14153,459;   -0,119;    1,227
502,439;14079,421;   -0,573;   -1,773
503,024;14306,493;    1,608;    0,500
503,610;14414,682;    1,335;   -0,682
504,195;14445,899;    1,245;    1,955
504,780;14529,152;    2,335;    1,227
505,366;14309,647;    4,063;    2,864
505,951;14025,780;   -1,119;    1,045
506,536;14036,581;    1,427;   -3,682
507,121;14024,241;    1,699;   -0,318
507,706;14599,266;   -0,392;    1,045
508,291;15026,698;   -2,937;    1,136
508,876;14432,103;   -0,482;    2,591
509,461;13868,835;    1,427;   -0,773
510,046;14321,107;   -0,391;    0,318
510,631;14549,692;   -0,119;   -0,773
511,216;14225,413;   -0,664;   -0,500
511,801;14617,210;   -0,755;    2,591
512,386;14915,544;    0,972;    0,500
512,971;14841,234;    0,427;    0,955
513,555;14356,587;    1,154;   -1,500
514,140;15224,315;    1,336;   -3,136
514,725;15261,187;    1,791;   -1,136
515,309;15387,046;    1,064;    0,318
515,894;14797,186;   -0,300;   -2,227
516,479;15223,998;    1,973;   -0,955
517,063;15097,104;    0,882;    1,227
517,648;15267,410;    0,155;   -1,136
518,232;14888,037;   -1,300;   -1,409
518,817;15163,021;    1,337;    1,682
519,401;15384,301;    0,700;    0,591
519,985;14899,779;    2,700;    1,136
520,570;14747,327;   -0,118;   -1,955
521,154;15096,776;    0,064;    0,591
521,738;15279,920;    1,064;    2,409
522,323;15896,998;   -0,390;    1,682
522,907;15627,771;    2,428;   -0,136
523,491;15309,342;    1,155;    0,955
524,075;15346,507;    0,428;    0,591
524,659;15457,488;    0,973;    0,591
525,243;14809,101;    0,883;    0,409
525,827;15043,392;    0,883;   -0,045
526,411;15967,579;    1,155;   -0,136
526,995;16191,358;    0,337;    1,409
527,579;15768,032;    1,974;   -1,045
528,163;16087,291;    0,428;   -1,500
528,747;16015,067;    1,065;   -0,773
529,331;16321,513;    0,883;   -1,409
529,915;16551,614;    2,338;    0,955
530,499;16522,944;    0,247;    1,227
531,082;16186,106;    1,065;    1,591
531,666;15555,543;    0,520;    0,773
532,250;16271,051;    0,428;    2,682
532,833;16675,013;    0,610;    2,773
533,417;16539,609;    1,247;    0,864
534,001;16504,529;    0,429;   -0,318
534,584;17263,375;    1,974;    0,500
535,168;17098,994;    3,247;    1,409
535,751;17142,130;    4,520;    0,045
536,334;16564,660;    4,520;   -0,409
536,918;17200,577;    1,974;    1,591
537,501;17340,604;    1,520;    1,318
538,085;17306,936;    1,702;    1,045
538,668;17476,010;    0,883;    2,409
539,251;17798,176;    3,156;    3,773
539,834;17803,597;    0,156;    0,773
540,418;17714,683;    3,247;    4,318
541,001;17916,401;    2,702;    1,773
541,584;17947,854;    1,429;    2,227
542,167;17589,477;    0,702;    2,955
542,750;17751,677;    0,793;   -0,773
543,333;17350,467;    1,429;    2,136
543,916;18196,497;   -0,298;    2,500
544,499;18854,003;    2,520;    0,227
545,082;18847,086;    0,248;    3,591
545,665;18962,779;   -0,207;    1,500
546,248;19339,103;    0,520;   -0,318
546,830;18964,210;   -1,752;    1,955
547,413;19362,734;    0,157;   -0,773
547,996;19975,265;    0,157;    0,500
548,579;19759,011;   -0,843;    0,955
549,161;19559,003;    0,884;    2,682
549,744;19344,113;    0,612;    0,409
550,326;19885,857;    0,885;   -1,136
550,909;19599,851;    2,339;    0,591
551,492;20021,170;    0,521;    0,227
552,074;19782,679;   -0,024;   -1,318
552,657;20440,018;    2,430;    0,045
553,239;20203,332;   -3,024;   -0,773
553,821;20083,528;   -1,570;    1,045
554,404;19554,158;   -0,024;    1,136
554,986;19916,986;    2,248;    1,045
555,568;20583,392;    0,430;   -0,955
556,151;19774,376;    4,067;   -0,227
556,733;19971,399;   -1,388;   -0,864
557,315;20442,395;    4,703;    0,500
557,897;20289,601;    0,521;   -0,500
558,479;20417,287;    1,703;    1,318
559,061;20511,994;    1,067;   -0,864
559,643;20890,753;   -0,297;    0,045
560,225;21278,475;   -0,388;    2,864
560,807;21311,298;    0,340;    0,318
561,389;20778,134;   -1,206;    2,318
561,971;21512,090;   -0,660;    2,136
562,553;21311,036;    0,613;    1,591
563,135;21502,498;    1,249;    1,136
563,717;21069,548;    3,158;    1,136
564,298;21802,665;    3,976;   -0,045
564,880;21530,812;    0,340;   -1,409
565,462;21746,903;    1,977;    1,318
566,043;22955,385;   -0,933;    2,318
566,625;22514,104;    4,067;    1,227
567,207;22398,892;    0,704;    1,682
567,788;23574,207;   -0,114;    1,500
568,370;24477,020;   -1,841;   -0,500
568,951;24279,687;   -0,569;    0,227
569,533;25231,684;    0,977;   -0,500
570,114;25714,221;   -0,296;    0,682
570,695;26237,731;   -0,478;   -1,318
571,277;26847,196;   -0,205;   -1,682
571,858;27644,781;    2,704;   -1,136
572,439;28679,548;    0,795;   -1,045
573,021;28803,027;    0,432;   -2,773
573,602;29398,008;    1,795;    0,318
574,183;30359,903;   -0,114;    2,227
574,764;30588,299;    2,068;    0,409
575,345;31183,119;    0,250;   -0,136
575,926;31885,181;    2,704;    0,136
576,507;31867,455;    2,704;   -0,227
577,088;32992,603;    1,704;    1,682
577,669;33074,366;    1,704;    1,955
578,250;33898,903;   -0,750;   -1,045
578,831;34543,429;   -0,841;   -2,227
579,412;34891,350;   -1,205;    0,955
579,993;35865,160;    1,432;    0,227
580,573;36152,838;   -0,023;   -0,955
581,154;35082,681;    1,613;   -0,591
581,735;36043,234;    0,341;    0,773
582,315;35522,961;    0,523;    2,136
582,896;35857,299;   -1,750;    1,227
583,477;35295,865;    0,614;    1,227
584,057;35483,218;    1,159;    0,955
584,638;35722,615;   -2,750;    2,318
585,218;35735,474;    2,886;    2,682
585,799;35852,440;    1,977;   -0,227
586,379;35878,967;    1,250;    1,591
586,959;34589,333;    2,613;    0,318
587,540;33863,486;    0,432;    2,227
588,120;33299,300;   -1,113;   -0,045
588,700;32232,139;    2,977;    2,136
589,281;32545,954;    1,250;   -0,955
589,861;32416,492;   -0,296;   -1,682
590,441;32248,153;   -1,477;   -2,682
591,021;31110,788;    1,432;   -2,591
591,601;31363,487;    0,431;    0,500
592,181;31359,577;   -1,296;   -0,773
592,761;30609,744;    2,250;    1,409
593,341;30493,655;    1,522;    0,045
593,921;30458,479;   -0,569;    1,591
594,501;30274,911;    1,250;    1,318
595,081;30119,496;    0,522;   -0,318
595,661;30517,282;    1,068;    0,955
596,240;31069,792;   -1,023;    0,136
596,820;30656,029;    2,613;    1,955
597,400;30885,108;    1,977;    0,773
597,980;31142,667;   -0,750;    1,045
598,559;31137,901;    0,341;   -0,227
599,139;30783,043;   -0,750;   -1,227
599,718;30654,134;    0,795;   -0,409
600,298;30926,298;   -2,387;    0,682
600,877;31143,874;    4,795;    1,409
601,457;31406,020;    0,340;    1,136
602,036;31332,205;    1,795;    2,045
602,616;31589,568;    2,250;    1,682
603,195;31943,921;    0,431;    3,500
603,774;31465,029;   -0,296;    2,045
604,354;31381,195;    2,522;   -0,500
604,933;30786,280;    0,250;    1,864
605,512;30910,369;    2,340;    0,591
606,091;30974,102;    1,886;    3,773
606,671;31771,723;    0,249;    0,773
607,250;30788,649;    1,431;    3,136
607,829;31060,819;    1,158;    3,227
608,408;30893,234;    4,613;    2,591
608,987;29914,882;    2,704;    3,409
609,566;30258,745;    0,341;   -2,500
610,145;30337,883;    2,885;    0,682
610,723;30746,858;    1,613;    6,864
611,302;29900,079;    1,067;    1,682
611,881;29364,692;    5,158;   11,227
612,460;30245,775;    0,795;    3,955
613,039;30671,640;    1,703;    2,045
613,617;29341,522;    0,886;    4,773
614,196;29528,808;    1,613;    1,227
614,775;29873,862;    1,249;    2,409
615,353;29810,919;   -1,660;    0,864
615,932;29521,911;    0,249;    2,409
616,510;30094,309;    0,158;    0,591
617,089;29576,630;    8,794;   17,591
617,667;29346,919;    4,885;    6,136
618,246;29166,851;   -1,115;    1,318
618,824;29335,306;    1,612;   -0,955
619,402;28863,133;    0,431;   -1,773
619,981;29379,024;    1,067;   -1,045
620,559;29256,097;    0,794;    1,682
621,137;28785,659;    3,067;    1,864
621,715;28712,544;    3,703;   -0,682
622,293;28599,254;    1,885;   -0,773
622,871;29153,304;    0,340;    0,500
623,450;28680,202;    0,430;   -0,864
624,028;28537,485;   -0,388;   -0,955
624,606;28141,880;    2,339;    1,682
625,183;28547,184;   -0,661;   -1,136
625,761;28134,084;    1,885;    1,136
626,339;28451,980;    2,339;    2,591
626,917;28867,544;    0,339;   -0,045
627,495;28903,512;    2,794;    1,318
628,073;28360,964;    5,248;    2,864
628,650;28005,224;    3,067;    2,136
629,228;28446,019;    1,248;    4,409
629,806;27770,241;   -0,024;    1,136
630,383;28000,883;    0,066;   -0,318
630,961;27780,728;   -2,206;   -0,955
631,539;27541,742;   -2,479;    0,227
632,116;26756,001;   12,703;   15,409
632,694;27387,899;    4,885;    6,500
633,271;27736,845;    1,975;    2,682
633,848;27626,054;    1,430;    2,045
634,426;27671,546;    1,521;    1,773
635,003;26789,756;   -0,207;   -0,409
635,580;27098,540;    1,884;    3,682
636,158;27647,652;    3,793;    1,227
636,735;27652,787;    3,339;   -0,500
637,312;27813,063;    0,521;   -0,682
637,889;27878,925;    2,248;   -0,682
638,466;27341,308;    0,066;   -0,409
639,043;27316,188;    1,702;   -1,136
639,620;27641,692;    0,611;   -0,955
640,197;28016,562;    1,612;    1,682
640,774;28084,992;    1,430;    1,136
641,351;28557,604;    0,612;    1,136
641,928;27923,943;    2,794;    1,409
642,505;27528,009;    0,794;   -0,500
643,082;27710,530;    1,885;    1,227
643,658;26641,051;    1,157;    1,500
644,235;27397,572;   -2,479;    2,500
644,812;27681,638;    1,794;    0,773
645,388;27509,886;    1,612;    1,409
645,965;27559,225;    1,521;    1,682
646,542;27611,291;    3,430;   -0,227
647,118;27645,175;    3,703;   -0,955
647,695;27985,333;    0,339;    1,136
648,271;27800,944;   -2,115;    0,500
648,848;28147,283;    0,248;    2,227
649,424;27951,259;    0,976;    1,318
650,000;27684,416;   -0,388;   -1,045
650,577;27531,846;    0,158;   -0,955
651,153;28047,094;   -1,115;    0,955
651,729;29005,342;    0,521;    0,864
652,305;29249,408;    1,339;    2,773
652,881;33996,292;   -1,297;    1,136
653,458;41471,995;    0,249;    0,227
654,034;45756,334;    0,703;    1,591
654,610;47402,673;    0,339;    0,773
655,186;48796,194;    1,612;    3,045
655,762;48502,533;   -1,842;    0,409
656,338;48555,326;    0,703;    0,136
656,913;49637,483;   -0,297;    0,409
657,489;48948,913;    0,249;   -0,318
658,065;48892,434;    0,794;   -1,591
658,641;49462,409;    2,158;   -0,864
659,217;48705,294;    2,067;    0,409
659,792;48089,178;   -1,751;   -0,409
660,368;48464,972;   -0,388;   -0,682
660,944;48146,038;    1,794;    1,227
661,519;43223,922;    0,522;    0,409
662,095;36512,534;   -0,206;    0,591
662,670;31350,327;   -0,206;   -0,136
663,246;30021,485;   -0,660;   -0,409
663,821;29267,460;    0,431;    1,682
664,396;28806,799;    0,613;    1,864
664,972;29087,774;   -0,660;   -0,500
665,547;29369,022;    3,794;    0,136
666,122;29345,634;    1,340;    0,318
666,698;29624,882;    2,431;    0,318
667,273;28965,676;    0,885;    0,136
667,848;29788,105;    0,340;    1,500
668,423;29593,899;    1,795;    2,318
668,998;30247,238;    0,976;   -0,682
669,573;30729,213;    2,067;   -1,500
670,148;30573,007;    1,885;   -0,682
670,723;30370,255;   -0,024;    0,318
671,298;30798,139;   -1,296;    1,045
671,873;30944,387;   -0,296;   -0,136
672,448;30902,908;    1,704;    0,136
673,023;31264,974;    0,249;   -0,227
673,597;31583,131;    2,704;    2,318
674,172;31305,379;    2,431;    0,318
674,747;30795,718;   -0,205;   -1,045
675,321;30686,603;   -0,933;    3,318
675,896;30208,578;    2,158;    1,045
676,471;31227,008;    2,522;    1,591
677,045;30979,892;   -0,296;    0,682
677,620;31049,595;    2,158;    1,136
678,194;31442,843;    0,249;    1,136
678,769;30894,364;    0,886;   -0,318
679,343;31108,248;   -0,023;    1,773
679,917;30948,314;    0,340;    1,955
680,492;31084,381;    0,249;    3,227
681,066;31240,629;    0,613;    0,409
681,640;31251,695;    1,795;   -0,318
682,214;32124,216;    2,340;    0,500
682,788;31573,282;    0,613;   -0,773
683,363;31492,257;    1,977;    1,682
683,937;31237,142;    0,886;   -0,318
684,511;32068,663;   -1,023;   -0,591
685,085;31776,002;   -1,478;    0,318
685,659;31462,795;    1,431;    0,864
686,232;31695,407;    1,159;   -0,318
686,806;31498,746;    2,159;    0,409
687,380;32141,176;   -1,932;    0,591
687,954;32422,424;    2,432;    1,136
688,528;32079,853;    2,613;    1,955
689,101;32847,556;    0,432;    1,045
689,675;32351,622;    0,886;   -0,136
690,249;31684,416;    3,432;    0,409
690,822;31980,846;    1,159;    0,318
691,396;32118,639;    2,068;    1,227
691,969;31577,796;    2,523;    0,136
692,543;32074,317;   -0,568;   -1,955
693,116;31716,838;   -0,659;   -1,409
693,690;31542,631;   -0,296;    0,500
694,263;32105,970;    2,341;    2,955
694,836;32144,491;    2,795;    3,591
695,410;30742,648;    1,159;    1,773
695,983;31218,169;    1,614;    0,591
696,556;31165,781;   -0,750;   -1,045
697,129;31583,211;   -1,114;    1,409
697,703;31190,550;    1,341;    1,955
698,276;31198,616;    1,705;   -0,773
698,849;31017,591;   -1,023;    1,409
699,422;31372,112;    1,250;    0,591
699,995;30984,633;   -0,659;    0,136
700,568;31535,244;   -0,204;    3,045
701,140;31562,311;   -1,841;    1,682
701,713;31272,831;    0,341;    2,409
702,286;31055,625;    0,796;    0,864
702,859;30913,509;    0,614;   -0,591
703,432;29970,030;   -0,841;    0,682
704,004;30535,733;    1,978;    0,318
704,577;30413,163;    1,068;    0,136
705,150;30979,774;    0,887;    2,500
705,722;30764,750;    1,523;   -3,227
706,295;30547,179;    1,432;   -0,591
706,867;30331,428;    0,250;    1,955
707,440;30538,039;   -0,113;   -0,409
708,012;30821,924;   -0,022;    0,591
708,584;30730,899;    2,705;    0,227
709,157;31073,783;    1,160;   -0,591
709,729;30738,486;    1,069;    2,045
710,301;31588,098;   -1,204;    0,045
710,874;31541,255;    0,341;   -0,227
711,446;30344,594;   -0,295;    0,864
712,018;30234,933;   -3,022;    0,500
712,590;29993,363;   -0,204;    1,682
713,162;30585,974;   -0,477;    1,318
713,734;30809,222;    1,796;   -2,045
714,306;30707,016;    0,342;   -0,409
714,878;29341,446;   -0,295;    0,864
715,450;30167,785;   -0,113;    0,864
716,022;30461,669;    2,433;    1,318
716,593;30608,826;    0,978;    0,591
717,165;30545,893;    1,796;   -1,227
717,737;30244,413;    0,796;    0,409
718,309;29934,570;    1,160;   -0,045
718,880;29876,818;   -1,295;   -1,409
719,452;30114,339;    0,887;   -1,591
720,024;29600,224;    1,705;   -0,591
720,595;30184,926;    2,978;    0,955
721,167;29731,902;    1,160;   -2,045
721,738;29213,150;    2,069;   -1,045
722,309;29070,670;    1,251;   -1,227
722,881;28863,009;    2,705;    0,773
723,452;29588,530;    1,251;    2,864
724,023;29811,142;    1,524;    2,682
724,595;29568,572;    2,342;    0,682
725,166;29285,093;    1,524;   -0,409
725,737;28948,522;    1,887;    0,227
726,308;29009,498;    0,797;    0,318
726,879;29428,200;    1,069;    1,227
727,450;29242,176;   -2,022;   -0,045
728,021;29253,060;    1,069;    0,682
728,592;29058,126;    1,160;    0,500
729,163;29374,647;    1,433;   -0,136
729,734;29369,259;    2,160;   -0,227
730,305;29750,507;    0,615;    0,136
730,876;30096,573;    0,888;    2,955
731,447;29803,276;    0,797;    2,682
732,017;29895,069;   -0,840;    1,864
732,588;29355,226;   -0,021;    1,227
733,159;29554,293;    3,615;   -1,045
733,729;29371,450;    1,251;    0,409
734,300;28632,425;    0,160;    0,864
734,870;29058,491;   -1,385;    0,591
735,441;29595,103;    0,888;   -0,591
736,011;29306,987;    1,070;   -1,591
736,582;29349,508;    1,251;    0,045
737,152;28810,665;    0,979;   -2,045
737,722;29255,186;    1,070;   -0,682
738,293;29001,070;   -2,021;    1,318
738,863;28832,137;    1,797;    2,318
739,433;28650,657;    4,524;    0,318
740,003;29300,178;    1,524;   -0,682
740,573;28670,699;    2,252;   -1,591
741,143;28669,220;    3,615;    0,318
741,713;29425,104;    0,252;   -0,500
742,283;29065,807;    1,706;    1,591
742,853;28810,055;    0,524;    1,591
743,423;28205,757;    0,161;    0,045
743,993;28389,824;    1,070;    1,500
744,563;27776,981;    2,524;   -0,864
745,133;27715,229;   -0,112;   -0,864
745,702;28385,113;    2,797;    1,773
746,272;27579,270;    0,434;    0,591
746,842;27305,337;   -0,748;   -0,591
747,411;27748,676;   -0,839;   -0,318
747,981;27946,106;   -0,930;    0,500
748,551;27996,172;   -0,021;   -1,045
749,120;27849,783;   -0,112;   -0,227
749,690;28253,577;    2,161;    2,409
750,259;28563,007;    0,979;    2,955
750,828;28511,982;    4,070;   -1,955
751,398;28733,958;   -0,112;   -0,045
751,967;28212,569;    2,888;    0,409
752,536;28439,726;    1,161;   -0,227
753,105;28862,156;   -1,384;    0,227
753,675;28702,041;   -0,112;    1,773
754,244;28645,834;    0,888;    3,591
754,813;28645,719;    0,979;    1,227
755,382;28242,785;    0,798;    0,955
755,951;28801,396;   -0,112;    3,682
756,520;28322,826;    2,525;    1,864
757,089;28908,438;    1,888;    0,500
757,658;29034,050;    2,434;    1,227
758,227;28986,298;   -1,111;    0,318
758,795;29330,546;   -1,021;    1,136
759,364;29613,339;    0,525;   -0,591
759,933;28551,860;    1,343;   -0,045
760,501;28128,563;    0,252;   -1,318
761,070;28606,174;   -0,293;   -1,409
761,639;29341,422;    1,434;    1,318
762,207;28585,580;    0,889;   -0,955
762,776;28591,282;    2,889;    0,864
763,344;28497,439;    0,071;    0,591
763,913;27615,142;    1,616;    1,409
764,481;28370,299;    1,980;   -0,136
765,049;28204,547;    0,616;    1,409
765,618;28023,613;    1,434;    0,318
766,186;28072,316;    2,434;    0,136
766,754;28294,928;    1,798;    1,864
767,322;27243,903;    1,162;    0,409
767,890;27273,333;    0,525;   -1,773
768,459;27701,490;    2,616;   -0,318
769,027;27858,738;    2,525;    3,409
769,595;26845,077;    2,616;    2,591
770,163;27236,507;    3,344;    2,955
770,730;26918,937;    2,525;   -0,136
771,298;26818,276;    1,162;   -1,409
771,866;26917,160;    0,253;    4,955
772,434;27243,226;    1,162;   -1,864
773,002;27396,111;    2,616;    0,682
773,569;26988,904;    1,071;    1,682
774,137;26800,061;    0,889;   -0,045
774,705;27603,855;   -0,747;   -0,136
775,272;27103,285;    0,253;    0,682
775,840;26850,078;   -0,111;    2,682
776,407;26368,508;   -0,293;    1,955
776,975;25878,756;    1,162;    0,318
777,542;26962,277;    2,162;   -0,045
778,110;26847,707;    0,707;   -0,045
778,677;26472,773;    1,071;   -0,864
779,244;26210,203;   -1,020;    1,045
779,812;26353,815;    0,980;    0,864
780,379;26174,335;    2,435;    1,136
780,946;26402,674;    2,617;   -0,773
781,513;26696,923;   -0,565;    0,318
782,080;26045,534;    1,253;    2,864
782,647;26829,964;    1,708;    3,045
783,214;26374,394;   -0,201;    3,864
783,781;25984,915;    1,708;   -0,682
784,348;25917,254;    0,253;    1,500
784,915;26379,774;   -1,474;    0,318
785,482;26134,295;    2,708;    2,591
786,049;26569,634;    1,071;   -0,591
786,615;26651,064;    1,708;   -0,955
787,182;26428,403;   -3,201;   -0,682
787,749;26125,015;   -2,201;    1,409
788,315;25442,717;    0,253;   -0,409
788,882;25716,511;    0,981;   -1,227
789,448;26376,032;    1,435;   -0,955
790,015;26396,371;    1,799;    3,227
790,581;25967,164;    0,708;    0,227
791,148;25851,230;    1,344;    1,045
791,714;26094,660;   -1,019;    3,136
792,280;25757,817;    3,708;    1,591
792,847;25296,884;   -0,928;    2,500
793,413;25893,223;   -0,110;   -0,318
793,979;25411,561;    1,526;   -1,318
794,545;25442,082;    2,981;    2,682
795,111;24861,239;    2,435;    1,318
795,678;24994,760;    3,526;   -1,682
796,244;24673,372;    2,799;    0,136
796,810;25245,529;    0,799;    0,773
797,375;24929,959;   -0,292;   -2,136
797,941;24962,752;   -1,110;    0,591
798,507;25086,455;    0,254;   -0,955
799,073;24652,249;    2,708;    0,591
799,639;24722,860;    1,435;    3,136
800,205;24698,290;   -1,565;    2,682
800,770;24227,720;    1,345;    1,773
801,336;24306,877;    2,981;   -0,955
801,901;23980,762;    6,072;    3,136
802,467;24596,373;    0,526;    2,045
803,033;23902,167;   -0,019;    0,864
803,598;24075,778;    1,072;   -1,045
804,163;24109,299;    0,708;   -0,318
804,729;24004,638;   -0,110;    1,136
805,294;24454,432;    1,072;    2,227
805,859;24269,952;    0,890;   -0,409
806,425;23715,564;    3,890;    2,682
806,990;23373,721;    1,890;    4,318
807,555;23894,788;   -0,110;    2,591
808,120;23781,399;   -1,292;   -0,409
808,685;23860,920;    1,072;   -2,500
809,250;23331,168;    2,072;   -0,500
809,815;23660,780;   -0,201;    0,682
810,380;24221,391;    0,981;    1,591
810,945;24706,730;    2,890;    2,045
811,510;23884,524;   -0,200;    1,591
812,075;23575,045;    2,800;   -1,409
812,640;23625,384;    3,709;    1,409
813,204;23721,723;    2,163;   -0,227
813,769;24156,789;    0,254;   -0,045
814,334;23509,582;    0,527;    0,864
814,898;23588,739;    1,981;    0,591
815,463;23427,442;    0,981;   -0,773
816,027;23389,054;    1,345;   -2,318
816,592;23508,393;    2,163;   -2,045
817,156;22982,732;   -2,200;    1,136
817,721;22744,343;    0,982;    2,318
818,285;22752,228;    0,618;    1,500
818,849;23446,385;   -0,018;    1,682
819,414;23315,997;    0,073;    2,955
819,978;22904,245;   -0,291;    1,773
820,542;23491,402;    2,891;    0,500
821,106;23218,650;    2,800;    0,682
821,670;23291,716;    2,709;    2,591
822,234;22957,510;    1,073;    1,409
822,798;22358,485;   -0,836;    0,500
823,362;22315,733;    1,527;    4,227
823,926;21599,617;   -0,018;    1,136
824,490;21856,502;    3,527;   -0,682
825,054;22312,477;    2,527;   -1,136
825,618;21911,271;   -1,200;   -1,500
826,181;21840,701;    0,982;   -1,318
826,745;21702,858;   -0,745;   -1,045
827,309;22058,560;    2,255;    1,318
827,872;21461,263;    0,527;    0,955
828,436;22478,602;    1,982;   -0,773
828,999;22520,395;    2,436;    1,227
829,563;21373,371;   -0,654;    1,136
830,126;21106,619;   -0,018;   -0,591
830,690;21113,685;    0,709;    2,864
831,253;20628,842;   -0,473;    2,227
831,816;20781,999;   -0,018;    0,500
832,380;20677,884;    1,164;    0,864
832,943;20912,495;    3,073;   -0,500
833,506;20457,107;    0,255;   -1,227
834,069;21267,719;    2,164;   -0,955
834,632;21341,785;   -2,200;    1,318
835,195;21174,488;    1,346;    0,955
835,758;20361,917;    0,709;    1,955
836,321;20176,984;    1,073;   -1,045
836,884;20291,141;   -1,291;   -0,955
837,447;20361,571;    0,528;    1,773
838,010;20570,546;    1,800;    3,227
838,573;20893,976;    0,528;    0,773
839,135;20861,588;   -0,109;   -0,955
839,698;20296,745;    2,528;    0,409
840,261;19778,902;    0,255;   -0,227
840,823;19628,241;   -0,927;    0,864
841,386;19924,762;   -0,018;   -2,409
841,948;19756,555;    0,255;    1,773
842,511;19527,258;    0,255;    1,682
843,073;19650,597;    2,982;    0,227
843,636;19421,208;    0,619;   -0,227
844,198;19344,911;    1,255;    0,591
844,760;19522,068;    0,619;    1,955
845,322;19148,680;    0,164;    1,136
845,885;19554,291;   -0,290;    0,591
846,447;20018,540;    0,710;    0,227
847,009;19567,697;    3,983;   -0,682
847,571;19896,399;    1,346;   -2,045
848,133;20016,284;   -0,199;   -1,864
848,695;19814,895;    2,346;    1,409
849,257;19368,325;    1,346;   -1,682
849,819;19527,119;    2,983;   -0,409
850,381;19588,367;    1,801;   -0,864
850,942;19947,706;    1,892;   -0,591
851,504;19865,863;    0,983;    0,227
852,066;19964,475;    1,619;   -1,591
852,628;19501,904;    0,165;    1,955
853,189;18988,516;    0,256;    2,682
853,751;19149,673;   -0,654;    1,409
854,312;19010,103;    1,256;   -1,682
854,874;19486,079;   -0,108;   -0,773
855,435;19962,054;    0,528;   -1,682
855,997;20126,938;    3,983;   -0,136
856,558;19354,732;    0,801;    1,773
857,119;19538,525;   -0,744;    2,864
857,681;19186,137;   -0,108;    0,318
858,242;19228,476;    1,347;   -2,136
858,803;19678,360;    1,074;   -0,773
859,364;20249,063;    0,892;   -4,773
859,925;19552,584;   -0,290;   -0,955
860,486;19495,014;    0,529;   -0,955
861,047;19186,716;    0,165;   -1,227
861,608;18975,146;    0,165;   -0,773
862,169;19140,849;   -0,562;   -0,045
862,730;18916,733;   -0,290;    1,409
863,291;19123,072;    0,438;   -0,500
863,852;19432,956;   -0,926;    1,955
864,412;18945,750;   -1,835;   -0,864
864,973;17471,271;    1,892;    0,500
865,534;17331,337;    2,074;    0,227
866,094;18837,312;    2,620;    0,227
866,655;18484,106;    4,711;    3,318
867,215;18755,627;    0,074;    0,136
867,776;18638,329;   -1,199;   -0,136
868,336;18705,577;    1,529;    0,136
868,897;18141,098;    3,438;    1,682
869,457;17893,801;    3,256;    0,318
870,017;18133,958;    2,438;   -1,227
870,578;18679,206;    1,893;    0,773
871,138;18340,999;    2,620;   -0,955
871,698;17852,247;   -0,562;   -1,318
872,258;17720,223;    0,711;   -2,864
872,818;18129,925;    2,347;    0,045
873,378;18069,901;   -2,198;    1,045
873,938;17665,331;    4,984;    0,500
874,498;17970,306;    1,256;   -1,955
875,058;17842,645;    4,347;    1,773
875,618;17706,438;    1,438;   -2,682
876,177;17657,959;   -0,471;    0,136
876,737;17222,480;   -0,289;    1,955
877,297;17176,819;    2,711;    1,955
877,856;17214,794;    2,529;    0,318
878,416;17163,860;    2,438;   -0,136
878,976;17397,745;    3,438;    0,409
879,535;17614,993;    4,529;    3,136
880,095;17280,423;    1,347;    0,045
880,654;17421,216;    0,347;    1,318
881,213;17488,282;    2,347;    1,500
881,773;17130,894;    1,984;    2,682
882,332;17438,960;    6,075;    5,136
882,891;17338,481;    0,711;    2,136
883,451;17853,638;   -2,016;    1,682
884,010;17317,977;   -1,107;   -0,409
884,569;17366,407;   -2,289;   -0,045
885,128;17470,655;   -0,743;   -1,864
885,687;17540,812;   -0,743;    0,682
886,246;17262,424;    2,620;    2,136
886,805;16993,490;    1,620;    2,045
887,364;17362,738;    1,166;   -0,500
887,922;17719,986;   -0,016;    0,045
888,481;17198,053;    1,530;    0,591
889,040;17470,755;    3,711;    2,136
889,599;18183,640;    2,166;    1,409
890,157;18256,342;    2,166;    2,409
890,716;17917,863;    2,166;    0,227
891,274;17697,293;    0,075;   -1,136
891,833;18141,995;    1,166;    0,864
892,391;18039,516;    1,802;    0,500
892,950;18153,764;    0,166;   -0,773
893,508;18508,558;    0,984;   -0,409
894,067;17798,170;   -0,379;    0,136
894,625;17720,781;   -1,016;   -1,500
895,183;17937,575;   -0,198;   -0,682
895,741;17840,368;    2,257;   -1,773
896,299;17634,525;    1,621;   -2,409
896,858;17861,592;    1,530;   -1,591
897,416;17995,840;    0,166;   -1,318
897,974;17710,997;   -2,197;    0,318
898,532;17817,790;    6,530;    2,682
899,089;17677,038;    0,621;   -0,682
899,647;17775,832;    0,530;    1,318
900,205;17473,080;    0,257;    1,045
900,763;17728,328;    2,166;    0,227
901,321;17720,576;    3,530;   -1,409
901,878;17124,279;    3,257;   -0,773
902,436;16960,254;    0,257;    1,318
902,994;17411,593;    6,712;    3,682
903,551;16820,659;    1,439;    0,409
904,109;17226,089;    1,530;   -1,409
904,666;16829,883;    1,439;    1,045
905,224;16608,585;    3,894;   -0,409
905,781;16342,106;   -0,470;   -0,318
906,338;16421,718;    0,167;    1,045
906,895;16337,511;    1,894;    2,045
907,453;16232,032;    2,348;    1,136
908,010;16266,462;    3,348;    0,409
908,567;15917,528;   -0,561;    0,591
909,124;15411,412;    2,439;   -1,500
909,681;15458,751;   -1,288;    0,682
910,238;15622,181;   -0,106;   -1,318
910,795;15971,884;   -1,561;   -1,136
911,352;15606,702;   -0,379;   -2,682
911,909;15005,157;    2,803;   -0,864
912,466;15499,975;    1,985;    1,500
913,022;15047,157;   -0,924;    0,500
913,579;15416,884;   -0,470;    2,045
914,136;15103,066;   -2,561;    0,955
914,692;15438,157;    1,530;   -1,227
915,249;15000,247;    0,530;    0,409
915,806;15183,157;    1,803;    1,955
916,362;14922,793;    0,894;    1,864
916,918;14452,247;    2,439;    1,045
917,475;14448,611;    1,621;    0,955
918,031;14600,975;    0,076;   -0,045
918,587;14031,338;    0,621;   -0,318
919,144;14257,247;   -0,379;    0,227
919,700;14555,247;    0,167;    0,773
920,256;14110,520;    0,439;    0,045
920,812;13730,066;    1,439;   -1,045
921,368;13714,247;    1,348;   -1,045
921,924;13352,520;    0,439;   -0,136
922,480;12949,884;    0,076;    1,227
923,036;13556,520;   -0,652;    1,955
923,592;13514,520;    0,621;    0,318
924,148;13433,247;    1,894;   -0,955
924,704;12723,520;    0,258;   -0,409
925,259;12997,157;   -0,561;    0,591
925,815;12718,520;    3,803;    0,500
926,371;12280,975;    3,530;    1,409
926,926;12158,247;    1,621;    0,591
927,482;11751,702;    1,621;    0,773
928,037;11605,702;   -0,833;    2,045
928,593;11928,793;    0,258;    1,045
929,148;11741,611;    1,167;   -1,500
929,704;11279,247;    2,439;   -0,500
930,259;11426,611;    0,894;   -0,136
930,814;10489,975;    1,803;    1,955
931,369;10183,702;    0,258;   -0,773
931,925;10064,884;   -1,924;    0,136
932,480; 9947,338;    3,076;   -2,591
933,035; 9797,702;    3,985;   -0,318
933,590; 9550,338;   -1,742;   -1,773
934,145; 9186,520;   -1,288;   -0,318
934,700; 9578,066;    0,348;   -0,591
935,255; 9355,429;    4,803;    0,045
935,809; 8611,429;    6,258;    0,864
936,364; 7718,520;    2,167;   -0,136
936,919; 7721,793;    2,348;   -1,773
937,474; 7586,066;    1,348;    0,136
938,028; 7324,975;    3,076;    1,136
938,583; 6771,520;    6,348;    4,682
939,138; 7100,157;    0,167;    2,136
939,692; 6553,066;   -1,015;   -1,136
940,247; 6193,338;    1,167;   -1,045
940,801; 5735,247;    0,621;    0,227
941,355; 5670,247;    0,439;    2,591
941,910; 5326,429;    0,712;   -2,136
942,464; 5387,338;    2,712;   -0,318
943,018; 5164,793;    3,258;   -0,227
943,572; 5104,066;    2,803;   -0,682
944,126; 4476,247;   -0,924;   -0,409
944,681; 4380,793;    0,712;    0,227
945,235; 4377,793;    2,167;   -0,591
945,789; 4331,157;    1,258;   -1,864
946,342; 4407,247;   -0,561;   -0,591
946,896; 4220,338;    0,348;    0,955
947,450; 3959,338;   -0,561;   -0,227
948,004; 4157,247;    1,076;   -0,045
948,558; 4174,429;    1,258;   -0,864
949,111; 4090,975;   -1,197;   -0,318
949,665; 4122,884;   -0,106;   -0,682
950,219; 3982,793;    0,621;   -1,045
950,772; 4073,157;    0,258;    1,864
951,326; 3985,247;   -1,106;   -0,955
951,879; 4081,429;    1,076;   -2,318
952,433; 4115,429;    1,348;    2,227
952,986; 3934,793;    0,348;    0,682
953,539; 3871,702;    1,530;    0,591
954,093; 3814,975;    0,985;   -1,318
954,646; 3942,884;   -0,288;    1,318
955,199; 3756,157;    1,258;   -0,500
955,752; 3633,066;    1,985;    1,773
956,305; 3599,066;    0,894;    2,955
956,858; 3779,066;    0,621;   -0,318
957,411; 3965,338;    3,621;    2,136
957,964; 3756,702;    2,076;    2,136
958,517; 3747,157;    0,985;    3,136
959,070; 3580,429;   -1,197;    1,955
959,623; 3645,338;    1,076;    1,500
960,176; 3407,338;    0,712;    2,045
960,728; 3383,975;    1,712;    0,773
961,281; 3466,793;    2,258;    0,500
961,834; 3482,975;   -0,833;    0,864
962,386; 3416,338;    1,258;    1,045
962,939; 3337,884;    3,439;   -0,318
963,491; 3481,066;    2,621;    1,136
964,043; 3341,247;    0,076;    2,409
964,596; 3479,157;    1,712;    2,227
965,148; 3311,975;   -0,379;    1,773
965,700; 3246,429;   -0,015;   -0,227
966,253; 3403,429;   -0,833;    0,318
966,805; 3218,520;    1,894;    0,773
967,357; 3268,975;    0,439;   -1,500
967,909; 3200,338;    1,167;   -1,227
968,461; 3333,429;    0,894;    3,136
969,013; 3259,247;   -1,561;   -0,864
969,565; 3333,247;    1,803;   -1,136
970,117; 3389,157;    3,803;    1,045
970,669; 3246,066;    3,258;   -0,136
971,220; 3123,702;    2,167;   -1,500
971,772; 3028,793;    1,348;   -0,318
972,324; 3129,520;   -1,197;   -0,500
972,876; 3097,157;    0,167;   -0,045
973,427; 3215,429;   -1,197;   -1,045
973,979; 3176,975;    0,076;   -2,500
974,530; 3210,247;    0,803;    1,318
975,082; 3237,884;    2,167;    1,682
975,633; 3110,066;    2,894;    1,682
976,184; 3277,157;    2,076;    0,773
976,736; 3068,611;    0,348;    0,227
977,287; 2840,702;    0,258;   -0,500
977,838; 3026,884;   -0,924;   -0,318
978,389; 3094,793;    0,803;   -0,500
978,940; 2986,429;    1,258;   -0,409
979,491; 2998,157;    2,258;   -0,500
980,042; 2919,611;   -0,652;    3,045
980,593; 3008,066;    1,894;    0,227
981,144; 3058,611;    3,530;   -0,500
981,695; 3038,611;   -0,470;    1,500
982,246; 2983,157;   -1,833;    1,045
982,797; 3157,066;   -0,561;    0,682
983,347; 3266,975;    2,167;    0,591
983,898; 3424,247;    4,167;    0,409
984,449; 3231,429;    2,530;    0,773
984,999; 3168,793;    1,894;   -1,136
985,550; 2927,247;    3,167;   -0,318
986,100; 3000,066;    0,712;   -0,318
986,651; 3014,247;    0,258;    0,045
987,201; 2971,247;    0,894;   -0,591
987,751; 3059,520;   -0,288;    2,864
988,302; 3051,884;   -0,379;    1,500
988,852; 3058,975;    1,985;   -1,136
989,402; 3107,702;    0,985;    0,682
989,952; 3009,338;    1,621;    0,864
990,502; 3125,975;    1,076;    0,682
991,052; 3092,429;   -0,106;    0,045
991,602; 2929,520;    1,167;    1,318
992,152; 2917,793;    2,803;    0,682
992,702; 2934,520;    1,167;   -0,045
993,252; 2847,157;    0,076;   -0,500
993,802; 2931,975;    1,167;    1,318
994,352; 3187,793;   -0,742;    1,136
994,901; 3289,884;    1,076;    3,227
995,451; 3188,702;   -1,197;    0,318
996,000; 3279,884;    1,076;    0,318
996,550; 2970,520;    2,894;    0,227
997,100; 2988,884;   -0,561;   -0,045
997,649; 3260,884;   -0,197;    0,955
998,198; 2896,157;   -0,288;   -1,500
998,748; 3074,520;    0,348;   -2,318
999,297; 2993,793;    0,985;   -0,409
999,846; 3069,338;    1,894;   -0,773
1000,395; 3136,793;    1,530;    0,500
1000,945; 3067,793;    1,076;   -0,773
1001,494; 3157,066;    0,167;    0,682
1002,043; 3138,611;    0,712;    0,864
1002,592; 2972,884;    3,439;    1,955
1003,141; 3130,702;    2,439;   -0,682
1003,690; 2957,702;    1,258;    0,500
1004,238; 3022,066;   -0,106;   -0,045
1004,787; 2668,338;   -1,288;    1,227
1005,336; 2905,247;    1,621;    0,682
1005,885; 3062,611;   -0,197;   -2,773
1006,433; 3223,157;   -0,470;    0,955
1006,982; 3265,429;    2,167;    1,682
1007,531; 3182,702;    2,712;   -0,227
1008,079; 3137,429;    0,258;    0,500
1008,627; 3283,975;    1,621;    0,409
1009,176; 3019,702;    0,076;   -1,955
1009,724; 3063,611;   -2,742;    0,864
1010,273; 3110,157;    1,076;    0,500
1010,821; 3263,702;    1,076;    1,409
1011,369; 2965,429;    0,076;    1,318
1011,917; 2929,793;   -0,833;   -0,591
1012,465; 3222,975;    2,530;   -1,591
1013,013; 3354,975;    0,439;   -1,682
1013,561; 3200,429;   -1,288;   -0,773
1014,109; 3258,429;   -0,833;    1,682
1014,657; 3113,338;    1,348;    0,591
1015,205; 3261,157;    0,894;   -0,955
1015,753; 3301,338;    0,258;   -1,409
1016,301; 3341,066;    2,621;    3,045
1016,848; 3346,429;    2,167;    0,409
1017,396; 3360,611;    1,621;    0,045
1017,944; 3497,884;    2,621;    1,864
1018,491; 3264,338;   -0,197;    1,409
1019,039; 3404,429;   -0,652;    0,591
1019,586; 3327,884;    0,076;    1,682
1020,134; 3426,157;    0,712;    1,500
1020,681; 3434,884;    2,894;   -1,136
1021,228; 3454,975;   -0,561;   -2,227
1021,776; 3291,066;   -0,833;   -1,136
1022,323; 3505,338;    0,803;    0,773
1022,870; 3447,611;   -0,470;   -0,045
1023,417; 3334,975;    2,076;    1,864
1023,964; 3501,793;    0,621;    1,227
1024,511; 3308,247;   -0,652;    0,773
1025,058; 3087,338;    0,439;   -0,045
1025,605; 3156,157;   -1,742;    3,136
1026,152; 3372,702;   -0,106;   -0,591
1026,699; 3103,884;    0,167;    1,318
1027,245; 3283,338;    2,439;    0,318
1027,792; 3519,429;    0,712;    1,409
1028,339; 3365,338;    4,076;   -0,045
1028,885; 3207,884;    3,621;   -0,227
1029,432; 3146,611;   -0,106;    0,227
1029,978; 3214,247;    1,348;   -1,591
1030,525; 3117,157;    1,621;    0,409
1031,071; 3394,793;    0,348;    1,136
1031,618; 3474,429;    1,258;    1,682
1032,164; 3265,975;    2,076;    3,045
1032,710; 3289,793;    0,076;   -1,500
1033,256; 3225,884;    0,712;   -0,136
1033,803; 3225,338;   -0,288;    1,500
1034,349; 2940,702;    1,803;    0,136
1034,895; 3098,338;    2,621;   -0,318
1035,441; 3066,338;    0,439;    0,318
1035,987; 3088,793;   -2,288;   -0,682
1036,533; 3074,975;   -0,197;   -0,955
1037,078; 3271,247;    4,712;    1,682
1037,624; 3095,247;    2,439;   -0,955
1038,170; 3122,247;    1,712;   -0,318
1038,716; 3009,157;    2,167;   -0,409
1039,261; 2937,520;    2,167;   -0,773
1039,807; 2867,157;   -0,015;    3,409
1040,352; 2939,884;   -1,288;   -0,318
1040,898; 2976,611;    0,167;   -0,682
1041,443; 2881,975;    0,803;   -2,591
1041,989; 2901,066;    3,621;    1,591
1042,534; 2796,338;    0,985;    2,591
1043,079; 2929,884;    1,985;    0,955
1043,625; 2683,157;    0,258;    0,500
1044,170; 2737,520;    2,439;    1,045
1044,715; 2991,157;    0,167;    0,955
1045,260; 2808,157;   -0,833;   -0,955
1045,805; 2861,611;    0,258;   -0,591
1046,350; 2798,793;    0,530;   -0,409
1046,895; 2766,247;    0,803;    1,591
1047,440; 2685,884;    1,530;    0,409
1047,985; 2611,429;   -1,197;   -0,955
1048,530; 2523,429;    1,348;    1,227
1049,074; 2564,793;    2,803;    0,318
1049,619; 2572,066;   -0,924;    1,955
1050,164; 2368,884;    1,076;    0,227
1050,708; 2408,884;    2,621;    0,045
1051,253; 2744,520;    3,258;   -2,227
1051,797; 2476,702;   -0,197;   -1,318
1052,342; 2505,157;    1,348;    1,045
1052,886; 2486,429;    1,803;   -1,409
1053,430; 2374,520;    2,167;    0,136
1053,975; 2390,066;    0,894;   -0,318
1054,519; 2352,066;    1,803;    3,227
1055,063; 2367,338;    3,621;    1,318
1055,607; 2261,338;    1,348;    0,227
1056,151; 2273,520;    0,530;    1,682
1056,695; 2195,611;   -1,833;   -1,136
1057,239; 2268,066;   -1,197;   -0,682
1057,783; 2272,066;    2,258;   -1,500
1058,327; 2216,611;    3,076;    1,409
1058,871; 2445,975;    3,985;    1,318
1059,415; 2159,975;   -0,561;   -0,045
1059,958; 2388,066;    2,985;    2,591
1060,502; 2129,338;    1,348;   -0,773
1061,046; 2039,884;    1,712;   -0,955
1061,589; 2009,884;    2,803;   -1,136
1062,133; 1899,520;    0,985;    1,864
1062,676; 1832,520;    1,439;    0,864
1063,220; 1840,975;    0,985;    0,500
1063,763; 1853,975;    2,985;    1,136
1064,306; 1919,429;    0,985;    1,864
1064,849; 1810,157;    2,076;    0,591
1065,393; 1824,520;    2,894;   -1,500
1065,936; 1941,793;    2,530;   -0,409
1066,479; 1828,793;    2,621;    1,318
1067,022; 1844,066;    1,894;   -0,227
1067,565; 1742,247;   -1,197;   -1,318
1068,108; 1776,702;    1,258;   -0,591
1068,651; 1761,611;   -2,470;    1,409
1069,194; 1680,884;   -1,106;   -1,682
1069,736; 1677,066;    3,803;    0,955
1070,279; 1660,520;   -1,652;   -0,500
1070,822; 1706,975;    1,530;   -0,318
1071,364; 1777,066;    0,530;    1,318
1071,907; 1610,611;    0,348;    3,227
1072,450; 1542,338;    0,258;   -0,045
1072,992; 1518,338;   -0,561;    3,136
1073,535; 1637,157;    0,167;    2,136
1074,077; 1437,793;    2,985;    2,045
1074,619; 1405,247;    0,985;    0,591
1075,161; 1426,066;   -0,561;    1,500
1075,704; 1607,157;    0,258;    1,227
1076,246; 1423,884;    1,530;    0,682
1076,788; 1347,429;   -1,015;    1,773
1077,330; 1436,157;   -2,106;    2,136
1077,872; 1381,975;   -1,924;    0,955
1078,414; 1594,884;    3,712;    0,773
1078,956; 1318,884;    0,167;   -0,227
1079,498; 1569,611;    0,439;    0,318
1080,040; 1282,793;    0,985;   -1,318
1080,581; 1246,884;    0,621;   -0,318
1081,123; 1171,793;   -0,106;   -0,773
1081,665; 1220,429;    3,803;   -0,955
1082,206; 1488,975;    3,258;   -0,500
1082,748; 1362,884;    3,258;    2,045
1083,289; 1266,338;    0,167;    1,318
1083,831; 1154,157;    0,258;    0,227
1084,372; 1180,429;    0,894;    0,591
1084,913; 1186,520;    3,348;    0,864
1085,455; 1157,247;    1,530;   -2,045
1085,996; 1137,338;    0,530;    0,136
1086,537; 1150,247;    0,985;    0,864
1087,078; 1187,429;    0,439;   -2,136
1087,619; 1219,520;   -1,652;    0,227
1088,160; 1131,884;    1,439;    1,318
1088,701; 1120,884;   -0,742;    0,682
1089,242; 1064,975;   -0,561;   -2,227
1089,783; 1158,884;   -0,561;    1,409
1090,324; 1121,066;   -0,833;    0,682
1090,865; 1008,520;   -1,924;   -0,409
1091,405;  985,702;   -0,561;    2,227
1091,946; 1016,157;   -0,197;   -0,955
1092,487;  949,884;   -1,288;   -1,409
1093,027; 1089,157;    1,803;   -1,500
1093,568;  945,975;    2,258;    1,227
1094,108; 1020,702;    0,621;    1,773
1094,649;  979,157;   -0,470;    0,136
1095,189;  927,429;    1,167;   -0,682
1095,729;  865,247;    0,712;    0,955
1096,269;  881,702;    1,258;   -0,955
1096,810; 1174,884;   -0,197;    0,500
1097,350; 1011,611;   -0,561;   -0,773
1097,890;  913,793;    2,985;    1,227
1098,430; 1155,702;    4,985;    2,864
1098,970; 1031,429;    1,894;    1,682
1099,510;  903,429;   -0,833;   -2,318
1100,050;  834,611;    0,258;   -1,591
1100,589;  796,429;    0,076;   -0,318
1101,129;  919,702;    0,894;   -0,955
1101,669; 1051,066;    2,803;    2,136
1102,209;  887,066;    1,530;    2,227
1102,748;  839,793;    3,439;    0,955
1103,288;  816,884;    0,712;   -1,227
1103,827;  845,702;    3,530;   -2,227
1104,367;  737,157;    1,712;   -2,409
1104,906;  714,157;   -1,015;   -1,136
1105,445;  768,247;    0,985;   -1,136
1105,985;  710,520;   -0,652;    1,500
1106,524;  757,611;    1,530;   -0,682
1107,063;  732,429;    1,167;    1,409
1107,602;  712,793;    1,894;   -1,500
1108,141;  646,611;    1,621;    1,500
1108,680;  732,247;    3,985;   -0,591
1109,219;  674,975;    0,167;   -0,500
1109,758;  686,702;    4,167;    0,682
1110,297;  650,157;   -1,106;   -0,682
1110,836;  597,066;    1,439;    0,955
1111,375;  750,520;    0,348;    0,409
1111,913;  758,429;    0,985;    0,773
1112,452;  707,066;    0,894;    0,136
1112,991;  598,975;    1,076;    1,955
1113,529;  552,611;    0,167;   -0,045
1114,068;  612,338;    0,439;    2,955
1114,606;  512,702;   -0,561;   -0,955
1115,144;  671,884;    1,530;    1,045
1115,683;  617,611;    1,985;    0,318
1116,221;  659,247;    2,076;   -0,864
1116,759;  569,429;    1,621;   -0,864
1117,297;  746,520;    1,621;    1,864
1117,836;  569,338;    1,985;   -1,227
1118,374;  565,338;    0,258;   -0,682
1118,912;  524,157;    0,439;    2,682
1119,450;  518,066;    0,985;    0,864
1119,988;  558,066;    3,348;    2,136
1120,525; 1013,884;    7,258;    3,318
1121,063;  711,247;    0,530;    1,864
1121,601;  519,157;    1,076;   -1,227
1122,139;  478,157;    1,076;   -2,045
1122,676;  663,975;   -1,652;    2,773
1123,214;  597,338;    0,712;    4,409
1123,751;  424,429;    0,621;    2,227
1124,289;  549,157;    0,894;   -0,409
1124,826;  432,520;   -0,379;    0,227
1125,364;  359,429;    0,712;   -0,955
1125,901;  533,975;    6,258;    1,227
1126,438;  618,884;    3,530;    0,955
1126,975;  370,793;    2,985;   -0,773
1127,513;  435,611;    2,621;    2,136
1128,050;  352,520;   -0,561;   -0,682
1128,587;  443,066;    1,348;   -0,227
1129,124;  482,611;   -0,015;    1,318
1129,661;  369,066;   -1,924;    0,227
1130,198;  521,884;    2,439;    0,773
1130,734;  465,338;   -0,379;    1,409
1131,271;  327,066;   -1,197;    0,864
1131,808;  486,157;    1,621;    3,045
1132,345;  364,975;    4,530;    0,318
1132,881;  248,975;   -0,561;   -1,864
1133,418;  378,247;    0,348;   -1,136
1133,954;  326,247;    0,712;   -2,682
1134,491;  383,611;    1,712;   -0,773
1135,027;  299,702;    2,167;    0,864
1135,564;  371,338;    1,439;    2,955
1136,100;  353,702;   -0,742;    2,136
1136,636;  258,793;   -1,015;   -1,045
1137,172;  343,066;    0,894;   -1,045
1137,708;  269,793;   -1,561;   -1,045
1138,245;  277,793;    0,803;   -1,227
1138,781;  239,520;    1,803;   -3,318
1139,317;  292,884;    1,894;   -1,409
1139,852;  284,429;    3,076;    0,136
1140,388;  394,066;    2,076;   -0,409
1140,924;  273,338;    1,076;   -2,227
1141,460;  220,884;   -0,288;    0,136
1141,996;  165,884;   -0,652;    2,682
1142,531;  205,975;    1,076;    3,318
1143,067;  406,066;    1,167;    1,045
1143,602;  456,611;    3,439;   -0,318
1144,138;  310,793;    0,803;    1,045
1144,673;  196,884;    1,621;    1,409
1145,209;  256,247;    2,894;   -0,318
1145,744;  179,520;    0,803;    0,864
1146,279;  299,611;    1,530;   -0,136
1146,815;  228,338;    1,530;   -2,682
1147,350;  260,429;   -0,924;    0,045
1147,885;  180,611;   -1,924;   -1,318
1148,420;  180,520;    2,439;    0,773
1148,955;  160,247;   -1,470;    1,864
1149,490;  187,611;   -1,106;   -1,591
1150,025;  166,975;   -1,106;   -1,773
1150,560;  271,429;   -0,288;   -0,955
1151,094;  242,884;    0,258;   -0,591
1151,629;  235,247;   -3,742;    0,864
1152,164;  170,157;   -1,288;    1,318
1152,698;  142,066;    1,258;   -0,136
1153,233;   98,157;   -1,379;   -0,682
1153,767;  145,066;   -0,288;   -2,318
1154,302;  185,247;   -0,379;    1,773
1154,836;  177,884;    0,803;   -2,136
1155,371;  238,520;    2,258;    3,682
1155,905;  199,066;    1,985;    1,682
1156,439;  166,429;    0,530;   -0,500
1156,973;  190,157;    0,439;    0,318
1157,507;  136,520;   -1,742;    0,682
1158,042;  163,611;   -0,652;    1,045
1158,576;  207,611;   -0,561;    1,773
1159,110;  191,520;    0,076;    2,409
1159,643;  168,520;   -2,470;   -0,045
1160,177;  115,157;   -2,015;    1,500

