
Integration time [ms]:   0,050
Averaging Nr. [scans]: 11
Smoothing Nr. [pixels]: 0
Data measured with spectrometer [name]: 7318044SP
Wave   ;Sample   ;Dark     ;Reference
[nm]   ;[counts] ;[counts] ;[counts] 

186,757;   -9,816;   38,161;    1,318
187,357;   23,878;   26,706;    0,955
187,958;    7,700;   17,252;   -1,591
188,558;   59,074;   12,979;   -1,227
189,159;   27,179;   10,070;   -4,500
189,759;   -0,137;    5,797;   -3,591
190,360;   -0,110;    6,797;   -2,136
190,960;   43,932;    5,706;   -4,136
191,560;   52,794;    2,614;   -6,591
192,161;  292,957;    5,885;   -3,500
192,761;  127,923;    5,520;   -3,227
193,361;   76,964;    3,065;   -3,773
193,962;  128,279;    1,612;   -2,682
194,562;   60,933;   -0,114;   -3,955
195,162;   97,734;   -0,567;   -2,227
195,762;  268,672;    2,433;   -0,045
196,362;  217,055;    1,706;   -2,500
196,963;   81,789;    1,706;   -0,864
197,563;  152,902;    1,252;   -0,955
198,163;  106,802;   -0,111;   -0,682
198,763;  135,315;   -0,020;   -0,500
199,363;  231,582;    3,616;   -0,500
199,963;  202,239;    2,162;    0,409
200,563;  175,756;    6,344;   -1,409
201,163;  155,845;    5,435;   -0,227
201,763;  245,890;    1,435;    0,318
202,363;  188,484;    0,980;    1,500
202,963;  296,425;    1,526;    1,045
203,563;  405,994;    0,344;    0,500
204,162;  258,303;    1,889;   -1,864
204,762;  245,789;    2,071;    0,591
205,362;  219,963;    0,708;    1,955
205,962;  330,290;    3,435;    1,955
206,562;  326,368;    1,889;    2,318
207,161;  306,856;    1,708;    0,318
207,761;  446,129;    4,435;    2,409
208,361;  323,685;    1,889;    1,409
208,960;  431,116;    2,889;    1,500
209,560;  513,816;    0,435;    1,591
210,160;  484,051;    5,071;    1,864
210,759;  458,266;    0,708;    1,227
211,359;  468,590;   -0,474;    1,045
211,958;  739,261;    3,526;    2,045
212,558;  819,478;    0,799;    1,864
213,157;  654,507;   -0,929;    1,500
213,757; 1117,463;    5,617;   -0,227
214,356;  812,713;    1,708;   -0,409
214,956; 1165,232;    3,526;    0,409
215,555;  792,600;    0,617;    2,136
216,154;  714,997;   -0,292;   -0,591
216,754;  744,070;    1,253;    0,773
217,353;  907,935;   -0,383;   -1,045
217,952;  751,668;    2,072;    0,318
218,552;  972,223;    0,254;   -0,773
219,151;  893,548;   -1,110;    0,955
219,750;  892,244;    0,890;   -0,227
220,349; 1079,417;   -2,292;    1,045
220,948; 1108,364;    1,163;    1,136
221,548; 1169,168;    0,617;    1,227
222,147; 1297,883;   -1,292;   -0,409
222,746; 1595,154;    1,254;   -0,955
223,345; 1476,837;   -1,019;    0,500
223,944; 1514,902;    1,163;    0,773
224,543; 1718,055;    4,072;   -1,409
225,142; 1824,169;    1,345;    0,136
225,741; 1756,114;    1,163;    1,045
226,340; 1799,739;    1,254;   -0,955
226,939; 2283,137;    2,708;   -0,136
227,538; 2331,393;    1,163;   -0,773
228,137; 2483,576;    0,435;    0,864
228,735; 2693,658;    0,435;    1,227
229,334; 2399,276;   -0,474;   -0,227
229,933; 2778,088;    0,799;    0,591
230,532; 2937,887;   -1,201;   -0,409
231,131; 3001,574;    1,253;    0,318
231,729; 3209,315;    1,163;   -2,318
232,328; 3428,254;    0,435;   -1,500
232,927; 3565,213;    4,526;   -0,500
233,525; 3720,541;    0,981;    0,045
234,124; 3966,672;    1,890;   -1,591
234,723; 4049,018;    1,617;   -1,045
235,321; 4250,131;    1,163;    0,136
235,920; 4534,869;    2,526;   -1,227
236,518; 4810,710;    1,072;    0,318
237,117; 5088,780;    2,890;   -0,227
237,715; 5288,433;    1,163;   -0,500
238,314; 5325,369;    1,708;   -2,318
238,912; 5422,584;    0,526;   -1,409
239,510; 5497,184;    1,162;   -1,227
240,109; 5713,173;   -0,474;    3,773
240,707; 5798,458;   -0,474;    1,227
241,305; 6260,556;   -0,383;    0,136
241,904; 6495,374;   -0,292;   -2,045
242,502; 6464,765;    3,253;   -0,227
243,100; 6487,051;    3,344;   -0,955
243,698; 6751,704;    2,799;    1,682
244,297; 6955,285;   -0,656;    0,682
244,895; 6771,204;   -0,474;   -2,318
245,493; 7163,989;    2,981;   -0,591
246,091; 7245,101;    5,163;   -1,318
246,689; 7261,637;    2,163;    0,591
247,287; 7460,686;   -0,019;   -1,136
247,885; 7801,324;   -1,019;    1,227
248,483; 7932,734;   -0,201;   -0,500
249,081; 8108,374;    0,981;    1,591
249,679; 8279,098;   -1,019;    1,682
250,277; 8577,623;   -2,292;    0,864
250,875; 8579,606;    0,617;   -1,045
251,473; 8689,823;   -0,019;    0,500
252,071; 8852,189;   -0,383;    1,045
252,669; 9058,265;   -1,565;    0,318
253,267; 9387,577;    1,618;    0,773
253,864; 9352,140;    0,617;    0,682
254,462; 9137,478;    1,526;    1,591
255,060; 9192,160;    0,072;    1,318
255,658; 9589,538;   -3,292;   -0,136
256,255;10050,131;   -0,201;   -2,045
256,853; 9874,869;    2,345;    1,409
257,451; 9902,244;    1,981;    1,864
258,048;10165,743;    2,072;    1,864
258,646; 9972,469;    0,436;   -1,045
259,243;10177,869;    2,981;    2,227
259,841;10260,605;    1,799;    0,318
260,438;10119,754;    0,254;    0,864
261,036;10951,691;    0,617;    1,409
261,633;10875,193;    1,526;    2,227
262,231;10613,999;   -0,110;   -0,045
262,828;10676,627;   -0,383;    1,136
263,425;10744,998;   -1,928;   -0,591
264,023;11045,614;    1,436;    0,045
264,620;10580,632;    1,526;   -0,318
265,217;10966,093;    2,890;    3,136
265,815;11083,265;    2,527;    2,136
266,412;10831,384;    0,072;    0,136
267,009;10880,962;    0,526;    0,773
267,606;10728,287;    0,345;   -0,955
268,203;10772,488;   -0,383;   -0,591
268,801;11127,290;   -0,474;    0,591
269,398;11480,385;   -0,564;    2,500
269,995;11468,081;    0,890;    1,591
270,592;11141,309;    0,799;   -0,500
271,189;11399,236;    1,981;    0,409
271,786;11573,495;    2,072;    1,227
272,383;11341,255;   -0,383;    0,227
272,980;11610,674;    1,617;    0,318
273,577;12180,290;    2,162;    1,227
274,174;11703,269;    1,435;    2,591
274,771;11677,720;    1,890;   -0,773
275,367;11804,099;    3,253;    1,409
275,964;11756,821;   -0,565;   -0,500
276,561;11902,293;   -2,474;   -1,045
277,158;12174,825;    1,799;   -1,773
277,755;12319,646;   -0,110;    0,409
278,351;11622,187;    0,436;   -1,500
278,948;12002,240;   -0,201;    0,045
279,545;12060,164;    0,527;    2,318
280,141;12703,843;    1,254;   -2,045
280,738;12567,429;    2,435;   -0,136
281,334;12862,294;   -0,383;    0,591
281,931;12150,927;    2,890;   -1,318
282,528;12293,641;    4,072;   -0,500
283,124;13145,114;    3,345;   -0,500
283,721;13036,890;    0,709;    1,409
284,317;12884,184;    0,163;    2,500
284,913;13465,602;   -0,110;    0,591
285,510;13674,602;    2,890;   -0,318
286,106;13729,722;    2,345;   -0,955
286,703;13281,270;    0,072;    1,955
287,299;13500,969;    1,254;   -0,591
287,895;13771,666;    0,890;   -1,045
288,491;14445,112;    0,163;    2,136
289,088;14108,707;    0,163;    2,409
289,684;14184,538;    2,890;    1,500
290,280;14203,270;    1,890;    0,682
290,876;14286,772;    0,163;    5,500
291,472;14164,767;    2,163;    2,227
292,068;14257,377;    1,254;    0,227
292,665;14017,787;   -0,564;    0,773
293,261;13538,073;   -1,292;    2,136
293,857;13946,161;    4,072;    2,136
294,453;13896,261;   -0,928;    0,955
295,049;13745,096;    0,253;    1,955
295,644;13798,501;   -1,292;    0,136
296,240;13739,130;    0,162;   -0,136
296,836;13803,928;   -0,747;    0,318
297,432;14075,342;    2,980;   -0,500
298,028;14073,045;    0,435;    0,773
298,624;14581,228;    0,889;    1,864
299,220;14914,385;    0,435;    0,591
299,815;14533,744;    0,526;   -0,409
300,411;14269,096;    0,435;    1,773
301,007;14312,836;    1,889;    0,227
301,602;14378,822;    2,071;   -2,318
302,198;14497,835;    1,435;   -0,773
302,794;14904,506;    1,526;   -0,500
303,389;15091,079;    1,071;    1,045
303,985;15162,982;    1,253;    1,409
304,580;15092,133;    0,889;    1,591
305,176;15054,062;    0,344;    0,136
305,771;15059,451;   -0,929;   -1,227
306,367;14769,664;    3,071;    0,136
306,962;15217,458;    2,889;    1,500
307,558;14983,392;    2,435;    0,136
308,153;14919,799;   -0,383;   -1,136
308,748;15142,710;    0,162;    1,682
309,344;15112,515;    0,253;   -1,318
309,939;15188,739;    2,071;   -1,318
310,534;15543,900;   -2,020;   -1,682
311,130;15490,241;   -0,656;   -2,500
311,725;15225,132;    0,526;   -0,500
312,320;15533,898;    1,253;    0,045
312,915;15352,909;    2,890;   -1,045
313,510;15456,629;    0,526;   -0,500
314,105;16021,690;   -3,565;    1,409
314,700;15381,764;   -1,656;   -1,045
315,295;14968,224;   -0,020;    0,045
315,890;14474,804;   -0,292;    0,864
316,485;14845,878;    0,253;   -0,318
317,080;14973,931;   -0,929;    1,591
317,675;15546,998;    3,071;   -0,682
318,270;14830,699;    6,889;    3,318
318,865;14875,417;    2,435;    3,045
319,460;14723,698;   -1,565;    0,591
320,055;15037,483;   -2,565;   -1,227
320,650;14621,767;   -1,838;   -0,591
321,244;14674,892;    0,889;   -1,409
321,839;15702,155;    0,980;   -0,227
322,434;15599,807;   -0,111;   -1,591
323,029;15160,778;   -0,474;    1,591
323,623;15015,256;    0,798;    0,773
324,218;14738,623;    2,707;    1,409
324,812;14618,333;    0,889;    1,591
325,407;14434,789;   -0,929;    2,045
326,002;14366,410;    0,526;   -0,409
326,596;14690,009;   -0,656;    1,318
327,191;14939,455;   -0,383;   -1,045
327,785;14504,645;   -0,747;   -0,227
328,379;14721,034;   -0,383;    0,136
328,974;14517,885;    1,798;   -3,955
329,568;14731,012;    2,889;   -2,409
330,163;14560,739;    2,435;    1,045
330,757;14909,963;    0,253;    1,591
331,351;14219,895;   -0,292;    0,682
331,945;14499,497;   -0,383;    1,409
332,540;14010,723;    1,617;   -0,591
333,134;14190,675;    3,344;    0,773
333,728;14489,689;    2,799;    0,318
334,322;14858,140;    0,889;   -0,864
334,916;14044,652;    0,344;    0,955
335,510;14360,547;   -0,111;   -0,136
336,105;14660,182;   -0,929;    1,591
336,699;14310,568;   -1,292;    0,591
337,293;14222,873;    1,071;    0,318
337,887;14401,477;    0,071;    1,955
338,481;14520,747;    2,980;    0,591
339,074;14645,279;    2,071;    2,682
339,668;14430,200;   -0,110;    1,227
340,262;14685,263;    7,708;    3,227
340,856;14177,619;    1,708;   -0,682
341,450;13469,214;    0,708;    1,864
342,044;14413,691;    1,799;    0,136
342,637;14175,900;    1,162;   -2,136
343,231;14028,492;   -1,474;    0,682
343,825;13961,559;   -0,747;   -0,591
344,419;13840,006;   -0,474;    0,500
345,012;13547,230;    2,889;    4,045
345,606;13518,505;   -0,656;    1,591
346,199;13411,601;   -0,111;   -0,227
346,793;12847,158;    2,525;    2,045
347,386;13107,473;    0,889;   -1,136
347,980;13099,809;   -0,838;   -0,045
348,573;12847,720;   -1,748;    0,409
349,167;12434,340;    6,161;    4,773
349,760;12827,664;    2,252;    2,682
350,354;12814,721;    1,616;    1,136
350,947;12472,856;    2,798;    1,682
351,540;12144,416;    0,616;   -1,409
352,134;12045,152;   -1,111;    1,136
352,727;12115,945;   -0,657;    1,136
353,320;11892,413;    2,343;    0,591
353,913;11766,319;   -1,929;    1,864
354,507;11925,365;    0,434;   -1,227
355,100;11912,583;    0,071;    0,864
355,693;10995,335;    4,798;    2,409
356,286;11065,506;    0,980;    2,773
356,879;11479,591;   -0,475;    1,227
357,472;11006,652;    0,980;    1,500
358,065;11246,563;    3,161;    2,500
358,658;11179,309;    0,798;    2,318
359,251;10748,873;    0,252;   -0,591
359,844;10127,536;    0,343;   -1,136
360,437;10332,204;    0,252;    0,045
361,030;10642,113;    0,525;   -0,682
361,623;10158,989;    0,434;    0,318
362,215;10162,660;    0,979;    2,045
362,808;10036,260;   -2,293;   -1,682
363,401;10188,701;    0,798;    0,136
363,994; 9875,130;    3,252;   -1,500
364,586; 9810,352;    0,888;   -1,500
365,179;10061,312;   -0,203;   -1,136
365,772; 9494,084;   -0,930;    2,045
366,364; 9801,255;    1,524;   -3,227
366,957; 9999,106;    1,342;   -0,045
367,549;10044,029;   -0,203;   -0,864
368,142; 9638,345;    0,978;   -1,500
368,734; 9864,920;    2,523;   -2,136
369,327; 9841,473;    2,341;   -0,500
369,919; 9731,137;   -1,659;    0,409
370,512; 9429,185;   -1,023;   -0,500
371,104; 9123,454;    2,704;    1,591
371,696; 9318,733;    1,703;   -0,955
372,289; 9424,486;    0,157;    1,136
372,881; 9616,507;    1,156;    1,318
373,473; 9542,291;    4,064;    1,136
374,066; 9323,877;    1,336;    0,500
374,658; 9129,968;    0,879;    1,136
375,250; 9566,705;   -1,668;   -1,409
375,842; 9379,177;   -0,124;   -0,045
376,434; 9215,364;   -2,762;   -0,409
377,026; 9888,470;   -1,855;   -2,500
377,618; 9749,984;    0,779;   -0,682
378,210; 9601,217;    3,141;   -1,955
378,802; 9436,998;    3,412;   -0,591
379,394; 9334,467;    3,411;    0,682
379,986;10024,717;    1,138;   -0,955
380,578;10168,608;    1,410;    0,773
381,170; 9375,077;    0,320;    0,045
381,762; 9365,350;   -0,224;    1,409
382,354; 9634,019;   -0,223;   -1,318
382,945; 9721,477;    0,870;    0,318
383,537; 9884,175;    1,144;   -1,955
384,129; 9876,206;    0,963;   -1,136
384,721;10098,241;    0,418;    0,955
385,312;10011,813;   -1,399;   -0,955
385,904;10102,232;   -0,945;    1,591
386,496; 9413,284;    0,691;    1,045
387,087; 9559,997;    0,418;    2,500
387,679; 9636,731;   -0,401;    0,045
388,270; 9738,430;   -2,401;    2,045
388,862; 9856,519;   -0,401;   -0,318
389,453; 9783,973;    1,054;    1,045
390,045;10054,121;    3,236;   -2,682
390,636;10030,931;    0,144;   -0,591
391,227; 9839,425;    2,054;   -0,045
391,819; 9942,671;    0,781;    0,773
392,410;10033,585;    0,600;    0,045
393,001; 9947,906;    1,600;   -1,591
393,593;10249,986;    0,600;   -0,045
394,184;10087,197;    0,873;   -0,409
394,775;10058,331;    1,146;    2,136
395,366;10265,876;    1,782;    0,773
395,957;10302,819;   -2,400;    0,136
396,548;10667,148;    1,054;    2,682
397,139;10954,781;    2,236;    0,591
397,730;10641,461;    0,873;    0,955
398,321;10701,408;    0,509;    0,955
398,912;10763,606;   -0,764;    0,136
399,503;10851,257;   -1,945;   -1,409
400,094;10205,801;   -1,582;    1,682
400,685;10055,950;    3,600;    0,045
401,276;10146,332;   -0,400;   -0,955
401,867;10498,960;   -1,127;    0,773
402,458;10589,371;    1,509;   -2,318
403,048;10601,479;    0,146;    0,591
403,639;10173,740;    1,509;    0,864
404,230;10405,349;    0,691;    0,318
404,821;10345,530;   -0,127;    0,045
405,411;10438,001;   -0,763;   -2,591
406,002; 9973,531;    3,237;   -1,136
406,592; 9768,669;    2,691;    0,045
407,183;10128,914;    0,328;   -1,500
407,774;10028,671;    1,419;   -0,136
408,364;10422,646;    2,600;    0,409
408,954; 9955,531;   -0,036;    1,227
409,545;10009,049;    1,873;    1,045
410,135; 9496,215;   -1,581;    0,500
410,726; 9661,344;    0,783;    0,318
411,316;10097,616;    2,237;    0,773
411,906; 9780,942;    0,146;   -0,409
412,497; 9194,364;   -0,490;   -0,045
413,087; 9853,631;    0,783;   -0,227
413,677;10287,922;   -2,490;    3,864
414,267;10104,852;   -1,035;    1,409
414,857;10120,635;    0,419;    4,227
415,448;10418,528;   -0,763;    0,500
416,038;10079,244;   -2,945;   -0,591
416,628;10022,895;    0,965;    0,409
417,218; 9380,899;   -1,762;    3,318
417,808; 9723,499;    0,965;   -0,409
418,398;10300,360;   -1,035;    2,682
418,988;10288,827;   -2,217;    0,591
419,578;10598,035;    3,601;    1,409
420,168;10943,324;    0,692;   -0,955
420,757;10446,107;    0,964;   -1,500
421,347;10095,393;    1,601;   -0,227
421,937;10337,398;    3,329;    1,409
422,527;10224,790;    2,602;   -0,773
423,116;10012,657;    2,692;   -0,045
423,706;10467,197;    2,965;    0,318
424,296;10440,725;    1,601;    0,682
424,885;10866,725;    1,510;   -3,045
425,475;11226,589;    1,147;   -2,864
426,065;11165,059;   -1,489;   -0,318
426,654;10724,502;    0,329;   -0,318
427,244;10820,114;    1,147;    1,409
427,833;10207,504;    1,056;   -0,500
428,423;10777,186;    0,147;    1,136
429,012;11628,251;    2,420;   -1,136
429,601;11013,504;    2,057;    0,136
430,191;11283,844;    2,511;    4,318
430,780;10870,352;   -1,671;   -0,409
431,369;10783,422;    1,329;   -0,045
431,959;11562,411;    1,693;    0,500
432,548;11339,017;   -1,398;   -0,045
433,137;11479,400;    0,329;   -1,318
433,726;12044,863;    0,148;    0,500
434,315;11327,912;    0,148;    2,409
434,905;11429,130;    0,693;    1,409
435,494;11317,889;    3,148;    0,955
436,083;11826,693;    1,420;   -0,955
436,672;11660,258;    1,148;    0,500
437,261;11179,608;    0,512;   -1,955
437,850;11295,847;   -1,125;    0,682
438,439;11266,516;    2,239;    1,955
439,027;11044,135;    3,421;    1,773
439,616;11483,806;    2,239;    1,227
440,205;11397,144;    0,057;   -2,136
440,794;11452,670;   -0,306;   -0,045
441,383;11729,866;    1,603;   -0,591
441,971;11622,921;   -0,306;    0,591
442,560;11445,447;    0,603;   -1,773
443,149;11227,975;    3,060;   -1,318
443,737;11381,632;    0,968;   -2,318
444,326;11645,565;    0,331;    0,318
444,915;11651,916;   -1,851;    0,864
445,503;12108,997;    0,058;   -0,318
446,092;11307,252;    7,876;    2,136
446,680;11924,390;    1,876;    0,318
447,269;12137,803;   -1,487;   -0,318
447,857;11900,713;    2,240;   -1,773
448,445;12017,447;    2,149;    1,318
449,034;12258,153;    0,876;   -1,136
449,622;12361,435;    1,240;    3,500
450,210;11454,193;    3,149;    2,227
450,799;12071,893;    2,604;   -0,591
451,387;12017,546;    1,786;   -0,591
451,975;11607,445;   -1,305;    0,864
452,563;11710,883;    0,422;    2,318
453,151;11776,694;   -1,032;   -1,227
453,739;11706,855;   -1,577;    0,136
454,328;11516,248;    0,604;   -2,136
454,916;11172,155;    1,150;   -0,136
455,504;11387,687;    3,513;    1,227
456,092;11590,420;    2,150;   -1,591
456,679;11584,777;    0,604;    0,682
457,267;11405,506;    3,604;    1,045
457,855;11675,492;    3,241;    1,409
458,443;11439,439;   -0,304;    1,682
459,031;11521,120;    1,332;    2,409
459,619;12058,513;   -3,577;    2,864
460,206;12234,356;   -0,759;    2,045
460,794;12308,154;   -0,668;   -0,227
461,382;12588,463;    0,878;   -0,864
461,970;12108,941;    0,605;    1,864
462,557;12131,865;    0,878;   -0,682
463,145;12367,913;   -0,304;   -1,682
463,732;12520,661;    2,514;   -1,045
464,320;12474,642;    1,514;   -3,045
464,907;12095,071;    0,423;   -0,773
465,495;11952,387;    2,696;   -1,227
466,082;12112,193;    2,060;   -0,045
466,670;12000,684;    2,605;    1,227
467,257;12441,685;    0,060;    2,045
467,844;12629,437;    1,514;    0,045
468,432;12652,326;   -0,031;    3,500
469,019;12129,913;    1,606;   -1,773
469,606;12610,914;    0,969;    3,682
470,193;12424,302;    2,151;    0,227
470,780;11932,366;    0,333;    0,864
471,368;12328,292;   -1,212;   -0,773
471,955;12062,119;    1,060;   -0,682
472,542;11635,390;   -0,303;   -1,136
473,129;11900,958;   -0,485;    0,136
473,716;11635,497;    0,060;    0,591
474,303;11866,697;    1,333;   -0,864
474,890;12188,980;    2,333;   -0,500
475,477;12152,702;   -0,576;    0,409
476,064;12058,514;    0,697;   -1,591
476,650;12016,912;    2,152;    0,318
477,237;11879,184;    1,879;    0,955
477,824;12054,273;    3,879;    0,864
478,411;12117,418;    0,606;   -0,318
478,997;12319,356;    0,606;   -0,773
479,584;12360,961;   -0,666;   -0,409
480,171;13122,397;    1,243;   -0,773
480,757;12780,314;   -0,848;    0,773
481,344;13092,200;    0,334;    0,409
481,931;12597,728;   -0,393;    1,045
482,517;13665,416;    0,425;    0,318
483,104;14381,019;    1,334;    2,864
483,690;14740,319;    0,243;    0,045
484,276;15206,372;    0,698;    0,227
484,863;14906,435;    2,152;    1,136
485,449;15561,356;    0,152;    0,318
486,035;15565,517;   -0,666;   -0,136
486,622;16052,870;   -2,393;    0,045
487,208;15977,965;    1,334;    1,500
487,794;15873,263;    0,971;    0,318
488,380;15939,336;    0,698;   -1,409
488,967;16025,785;   -1,120;   -0,409
489,553;16037,126;   -1,029;   -1,409
490,139;16238,657;    0,971;    0,773
490,725;15692,248;    0,789;   -0,227
491,311;15144,805;    1,516;    3,045
491,897;14287,833;   -0,665;    1,500
492,483;14043,485;    0,426;    1,227
493,069;13742,018;    5,426;    0,864
493,655;13778,225;    1,789;    0,682
494,241;13684,146;    1,517;   -0,955
494,826;14114,026;    0,335;   -1,045
495,412;13525,968;    0,335;   -0,682
495,998;13671,073;    0,971;   -0,318
496,584;13859,441;    2,244;    1,045
497,169;13842,145;    2,335;   -0,682
497,755;13783,987;    1,244;    1,227
498,341;14345,136;    2,153;    0,318
498,926;13897,431;    2,881;    1,955
499,512;14129,553;   -0,028;    2,955
500,097;14296,877;   -0,574;   -0,318
500,683;14236,040;   -0,028;    2,136
501,268;14604,910;    1,881;   -0,955
501,854;14311,350;   -0,119;    1,227
502,439;14205,334;   -0,573;   -1,773
503,024;14424,754;    1,608;    0,500
503,610;14507,396;    1,335;   -0,682
504,195;14540,803;    1,245;    1,955
504,780;14610,583;    2,335;    1,227
505,366;14420,891;    4,063;    2,864
505,951;14143,894;   -1,119;    1,045
506,536;14144,236;    1,427;   -3,682
507,121;14110,704;    1,699;   -0,318
507,706;14729,186;   -0,392;    1,045
508,291;15105,176;   -2,937;    1,136
508,876;14596,895;   -0,482;    2,591
509,461;14000,702;    1,427;   -0,773
510,046;14448,881;   -0,391;    0,318
510,631;14666,180;   -0,119;   -0,773
511,216;14321,547;   -0,664;   -0,500
511,801;14684,321;   -0,755;    2,591
512,386;15011,765;    0,972;    0,500
512,971;14940,113;    0,427;    0,955
513,555;14480,178;    1,154;   -1,500
514,140;15381,821;    1,336;   -3,136
514,725;15365,263;    1,791;   -1,136
515,309;15473,026;    1,064;    0,318
515,894;14886,802;   -0,300;   -2,227
516,479;15364,075;    1,973;   -0,955
517,063;15233,629;    0,882;    1,227
517,648;15399,029;    0,155;   -1,136
518,232;14984,967;   -1,300;   -1,409
518,817;15311,406;    1,337;    1,682
519,401;15564,500;    0,700;    0,591
519,985;15030,881;    2,700;    1,136
520,570;14885,534;   -0,118;   -1,955
521,154;15250,083;    0,064;    0,591
521,738;15386,522;    1,064;    2,409
522,323;16019,483;   -0,390;    1,682
522,907;15763,734;    2,428;   -0,136
523,491;15452,125;    1,155;    0,955
524,075;15408,473;    0,428;    0,591
524,659;15537,896;    0,973;    0,591
525,243;14915,876;    0,883;    0,409
525,827;15151,358;    0,883;   -0,045
526,411;16071,624;    1,155;   -0,136
526,995;16334,773;    0,337;    1,409
527,579;15885,749;    1,974;   -1,045
528,163;16209,929;    0,428;   -1,500
528,747;16148,883;    1,065;   -0,773
529,331;16449,507;    0,883;   -1,409
529,915;16690,435;    2,338;    0,955
530,499;16641,038;    0,247;    1,227
531,082;16275,094;    1,065;    1,591
531,666;15705,291;    0,520;    0,773
532,250;16424,140;    0,428;    2,682
532,833;16822,485;    0,610;    2,773
533,417;16688,900;    1,247;    0,864
534,001;16648,290;    0,429;   -0,318
534,584;17421,152;    1,974;    0,500
535,168;17225,770;    3,247;    1,409
535,751;17241,516;    4,520;    0,045
536,334;16703,416;    4,520;   -0,409
536,918;17404,604;    1,974;    1,591
537,501;17487,005;    1,520;    1,318
538,085;17426,160;    1,702;    1,045
538,668;17590,236;    0,883;    2,409
539,251;17958,312;    3,156;    3,773
539,834;17984,548;    0,156;    0,773
540,418;17872,475;    3,247;    4,318
541,001;18020,095;    2,702;    1,773
541,584;18060,675;    1,429;    2,227
542,167;17705,726;    0,702;    2,955
542,750;17893,388;    0,793;   -0,773
543,333;17452,839;    1,429;    2,136
543,916;18261,398;   -0,298;    2,500
544,499;18944,729;    2,520;    0,227
545,082;19007,178;    0,248;    3,591
545,665;19172,501;   -0,207;    1,500
546,248;19532,657;    0,520;   -0,318
546,830;19126,032;   -1,752;    1,955
547,413;19561,301;    0,157;   -0,773
547,996;20119,569;    0,157;    0,500
548,579;19886,873;   -0,843;    0,955
549,161;19720,049;    0,884;    2,682
549,744;19505,081;    0,612;    0,409
550,326;20069,281;    0,885;   -1,136
550,909;19761,285;    2,339;    0,591
551,492;20202,407;    0,521;    0,227
552,074;19962,573;   -0,024;   -1,318
552,657;20584,640;    2,430;    0,045
553,239;20328,231;   -3,024;   -0,773
553,821;20281,412;   -1,570;    1,045
554,404;19764,052;   -0,024;    1,136
554,986;20166,617;    2,248;    1,045
555,568;20734,026;    0,430;   -0,955
556,151;19898,829;    4,067;   -0,227
556,733;20118,753;   -1,388;   -0,864
557,315;20588,592;    4,703;    0,500
557,897;20382,703;    0,521;   -0,500
558,479;20580,664;    1,703;    1,318
559,061;20659,666;    1,067;   -0,864
559,643;21046,323;   -0,297;    0,045
560,225;21441,657;   -0,388;    2,864
560,807;21521,323;    0,340;    0,318
561,389;20989,981;   -1,206;    2,318
561,971;21740,875;   -0,660;    2,136
562,553;21536,073;    0,613;    1,591
563,135;21628,169;    1,249;    1,136
563,717;21253,581;    3,158;    1,136
564,298;22039,252;    3,976;   -0,045
564,880;21721,613;    0,340;   -1,409
565,462;21894,613;    1,977;    1,318
566,043;23160,980;   -0,933;    2,318
566,625;22647,698;    4,067;    1,227
567,207;22550,409;    0,704;    1,682
567,788;23769,727;   -0,114;    1,500
568,370;24607,650;   -1,841;   -0,500
568,951;24433,849;   -0,569;    0,227
569,533;25422,688;    0,977;   -0,500
570,114;25946,914;   -0,296;    0,682
570,695;26471,181;   -0,478;   -1,318
571,277;27083,200;   -0,205;   -1,682
571,858;27890,505;    2,704;   -1,136
572,439;28877,716;    0,795;   -1,045
573,021;29075,508;    0,432;   -2,773
573,602;29650,844;    1,795;    0,318
574,183;30690,839;   -0,114;    2,227
574,764;30884,687;    2,068;    0,409
575,345;31443,970;    0,250;   -0,136
575,926;32141,740;    2,704;    0,136
576,507;32135,289;    2,704;   -0,227
577,088;33312,165;    1,704;    1,682
577,669;33355,669;    1,704;    1,955
578,250;34105,657;   -0,750;   -1,045
578,831;34871,935;   -0,841;   -2,227
579,412;35158,382;   -1,205;    0,955
579,993;36212,103;    1,432;    0,227
580,573;36509,146;   -0,023;   -0,955
581,154;35415,348;    1,613;   -0,591
581,735;36364,627;    0,341;    0,773
582,315;35762,445;    0,523;    2,136
582,896;36164,960;   -1,750;    1,227
583,477;35652,543;    0,614;    1,227
584,057;35770,706;    1,159;    0,955
584,638;36046,648;   -2,750;    2,318
585,218;36052,688;    2,886;    2,682
585,799;36151,011;    1,977;   -0,227
586,379;36153,892;    1,250;    1,591
586,959;34866,087;    2,613;    0,318
587,540;34160,717;    0,432;    2,227
588,120;33590,825;   -1,113;   -0,045
588,700;32449,102;    2,977;    2,136
589,281;32764,988;    1,250;   -0,955
589,861;32654,622;   -0,296;   -1,682
590,441;32577,734;   -1,477;   -2,682
591,021;31467,185;    1,432;   -2,591
591,601;31648,589;    0,431;    0,500
592,181;31581,585;   -1,296;   -0,773
592,761;30810,803;    2,250;    1,409
593,341;30767,681;    1,522;    0,045
593,921;30734,586;   -0,569;    1,591
594,501;30572,121;    1,250;    1,318
595,081;30403,874;    0,522;   -0,318
595,661;30770,578;    1,068;    0,955
596,240;31294,895;   -1,023;    0,136
596,820;30902,936;    2,613;    1,955
597,400;31171,583;    1,977;    0,773
597,980;31394,582;   -0,750;    1,045
598,559;31409,920;    0,341;   -0,227
599,139;31059,338;   -0,750;   -1,227
599,718;30937,702;    0,795;   -0,409
600,298;31201,317;   -2,387;    0,682
600,877;31424,337;    4,795;    1,409
601,457;31710,196;    0,340;    1,136
602,036;31673,216;    1,795;    2,045
602,616;31902,300;    2,250;    1,682
603,195;32179,732;    0,431;    3,500
603,774;31732,390;   -0,296;    2,045
604,354;31594,193;    2,522;   -0,500
604,933;31017,107;    0,250;    1,864
605,512;31196,460;    2,340;    0,591
606,091;31211,725;    1,886;    3,773
606,671;32021,535;    0,249;    0,773
607,250;31046,008;    1,431;    3,136
607,829;31298,888;    1,158;    3,227
608,408;31198,128;    4,613;    2,591
608,987;30217,753;    2,704;    3,409
609,566;30503,860;    0,341;   -2,500
610,145;30486,666;    2,885;    0,682
610,723;30948,281;    1,613;    6,864
611,302;30144,580;    1,067;    1,682
611,881;29558,289;    5,158;   11,227
612,460;30493,920;    0,795;    3,955
613,039;30989,315;    1,703;    2,045
613,617;29633,049;    0,886;    4,773
614,196;29781,226;    1,613;    1,227
614,775;30138,173;    1,249;    2,409
615,353;30071,038;   -1,660;    0,864
615,932;29725,487;    0,249;    2,409
616,510;30328,709;    0,158;    0,591
617,089;29783,936;    8,794;   17,591
617,667;29559,133;    4,885;    6,136
618,246;29379,147;   -1,115;    1,318
618,824;29576,878;    1,612;   -0,955
619,402;29129,796;    0,431;   -1,773
619,981;29558,949;    1,067;   -1,045
620,559;29494,015;    0,794;    1,682
621,137;29020,764;    3,067;    1,864
621,715;28993,925;    3,703;   -0,682
622,293;28874,722;    1,885;   -0,773
622,871;29334,319;    0,340;    0,500
623,450;28894,835;    0,430;   -0,864
624,028;28800,403;   -0,388;   -0,955
624,606;28440,517;    2,339;    1,682
625,183;28789,083;   -0,661;   -1,136
625,761;28393,710;    1,885;    1,136
626,339;28702,530;    2,339;    2,591
626,917;29090,154;    0,339;   -0,045
627,495;29083,397;    2,794;    1,318
628,073;28529,383;    5,248;    2,864
628,650;28236,843;    3,067;    2,136
629,228;28649,832;    1,248;    4,409
629,806;27970,588;   -0,024;    1,136
630,383;28254,672;    0,066;   -0,318
630,961;27993,804;   -2,206;   -0,955
631,539;27739,620;   -2,479;    0,227
632,116;26967,804;   12,703;   15,409
632,694;27598,054;    4,885;    6,500
633,271;27923,248;    1,975;    2,682
633,848;27877,558;    1,430;    2,045
634,426;27890,032;    1,521;    1,773
635,003;26972,669;   -0,207;   -0,409
635,580;27280,632;    1,884;    3,682
636,158;27837,128;    3,793;    1,227
636,735;27817,282;    3,339;   -0,500
637,312;27997,935;    0,521;   -0,682
637,889;28105,499;    2,248;   -0,682
638,466;27566,395;    0,066;   -0,409
639,043;27539,072;    1,702;   -1,136
639,620;27893,575;    0,611;   -0,955
640,197;28195,336;    1,612;    1,682
640,774;28356,950;    1,430;    1,136
641,351;28724,563;    0,612;    1,136
641,928;28098,540;    2,794;    1,409
642,505;27761,063;    0,794;   -0,500
643,082;27871,404;    1,885;    1,227
643,658;26827,563;    1,157;    1,500
644,235;27632,813;   -2,479;    2,500
644,812;27892,245;    1,794;    0,773
645,388;27672,586;    1,612;    1,409
645,965;27738,836;    1,521;    1,682
646,542;27786,631;    3,430;   -0,227
647,118;27779,154;    3,703;   -0,955
647,695;28102,404;    0,339;    1,136
648,271;28011,381;   -2,115;    0,500
648,848;28364,813;    0,248;    2,227
649,424;28194,153;    0,976;    1,318
650,000;27895,676;   -0,388;   -1,045
650,577;27719,653;    0,158;   -0,955
651,153;28220,085;   -1,115;    0,955
651,729;29253,971;    0,521;    0,864
652,305;29503,585;    1,339;    2,773
652,881;34264,199;   -1,297;    1,136
653,458;41806,903;    0,249;    0,227
654,034;46097,971;    0,703;    1,591
654,610;47814,039;    0,339;    0,773
655,186;49234,380;    1,612;    3,045
655,762;48940,448;   -1,842;    0,409
656,338;49039,789;    0,703;    0,136
656,913;50032,585;   -0,297;    0,409
657,489;49323,744;    0,249;   -0,318
658,065;49302,266;    0,794;   -1,591
658,641;49860,789;    2,158;   -0,864
659,217;49201,675;    2,067;    0,409
659,792;48565,016;   -1,751;   -0,409
660,368;48816,448;   -0,388;   -0,682
660,944;48453,061;    1,794;    1,227
661,519;43517,766;    0,522;    0,409
662,095;36745,380;   -0,206;    0,591
662,670;31583,266;   -0,206;   -0,136
663,246;30255,152;   -0,660;   -0,409
663,821;29514,584;    0,431;    1,682
664,396;28980,743;    0,613;    1,864
664,972;29246,357;   -0,660;   -0,500
665,547;29623,152;    3,794;    0,136
666,122;29595,675;    1,340;    0,318
666,698;29863,470;    2,431;    0,318
667,273;29208,720;    0,885;    0,136
667,848;30052,061;    0,340;    1,500
668,423;29860,129;    1,795;    2,318
668,998;30445,743;    0,976;   -0,682
669,573;30985,992;    2,067;   -1,500
670,148;30730,515;    1,885;   -0,682
670,723;30639,220;   -0,024;    0,318
671,298;31089,015;   -1,296;    1,045
671,873;31217,810;   -0,296;   -0,136
672,448;31139,697;    1,704;    0,136
673,023;31506,492;    0,249;   -0,227
673,597;31753,378;    2,704;    2,318
674,172;31502,174;    2,431;    0,318
674,747;31028,969;   -0,205;   -1,045
675,321;30855,128;   -0,933;    3,318
675,896;30379,469;    2,158;    1,045
676,471;31415,810;    2,522;    1,591
677,045;31237,151;   -0,296;    0,682
677,620;31277,492;    2,158;    1,136
678,194;31602,105;    0,249;    1,136
678,769;31102,446;    0,886;   -0,318
679,343;31335,787;   -0,023;    1,773
679,917;31225,582;    0,340;    1,955
680,492;31322,832;    0,249;    3,227
681,066;31483,355;    0,613;    0,409
681,640;31492,514;    1,795;   -0,318
682,214;32335,491;    2,340;    0,500
682,788;31787,923;    0,613;   -0,773
683,363;31780,355;    1,977;    1,682
683,937;31466,877;    0,886;   -0,318
684,511;32292,037;   -1,023;   -0,591
685,085;31976,559;   -1,478;    0,318
685,659;31742,446;    1,431;    0,864
686,232;31943,968;    1,159;   -0,318
686,806;31671,764;    2,159;    0,409
687,380;32359,286;   -1,932;    0,591
687,954;32650,991;    2,432;    1,136
688,528;32201,423;    2,613;    1,955
689,101;33030,491;    0,432;    1,045
689,675;32659,922;    0,886;   -0,136
690,249;31942,900;    3,432;    0,409
690,822;32272,059;    1,159;    0,318
691,396;32357,581;    2,068;    1,227
691,969;31732,740;    2,523;    0,136
692,543;32261,081;   -0,568;   -1,955
693,116;31941,149;   -0,659;   -1,409
693,690;31746,763;   -0,296;    0,500
694,263;32333,377;    2,341;    2,955
694,836;32375,263;    2,795;    3,591
695,410;30977,695;    1,159;    1,773
695,983;31458,945;    1,614;    0,591
696,556;31401,285;   -0,750;   -1,045
697,129;31864,263;   -1,114;    1,409
697,703;31415,149;    1,341;    1,955
698,276;31443,217;    1,705;   -0,773
698,849;31196,922;   -1,023;    1,409
699,422;31593,353;    1,250;    0,591
699,995;31260,331;   -0,659;    0,136
700,568;31786,035;   -0,204;    3,045
701,140;31772,194;   -1,841;    1,682
701,713;31456,717;    0,341;    2,409
702,286;31237,512;    0,796;    0,864
702,859;31131,944;    0,614;   -0,591
703,432;30201,194;   -0,841;    0,682
704,004;30775,444;    1,978;    0,318
704,577;30619,239;    1,068;    0,136
705,150;31188,671;    0,887;    2,500
705,722;30972,375;    1,523;   -3,227
706,295;30777,534;    1,432;   -0,591
706,867;30565,330;    0,250;    1,955
707,440;30828,489;   -0,113;   -0,409
708,012;31065,830;   -0,022;    0,591
708,584;30978,989;    2,705;    0,227
709,157;31268,148;    1,160;   -0,591
709,729;30910,398;    1,069;    2,045
710,301;31784,011;   -1,204;    0,045
710,874;31827,625;    0,341;   -0,227
711,446;30606,420;   -0,295;    0,864
712,018;30489,761;   -3,022;    0,500
712,590;30221,829;   -0,204;    1,682
713,162;30806,534;   -0,477;    1,318
713,734;31088,057;    1,796;   -2,045
714,306;30957,761;    0,342;   -0,409
714,878;29564,556;   -0,295;    0,864
715,450;30386,534;   -0,113;    0,864
716,022;30675,329;    2,433;    1,318
716,593;30813,397;    0,978;    0,591
717,165;30797,920;    1,796;   -1,227
717,737;30510,443;    0,796;    0,409
718,309;30157,874;    1,160;   -0,045
718,880;30073,942;   -1,295;   -1,409
719,452;30351,647;    0,887;   -1,591
720,024;29835,351;    1,705;   -0,591
720,595;30365,329;    2,978;    0,955
721,167;29892,124;    1,160;   -2,045
721,738;29402,647;    2,069;   -1,045
722,309;29309,260;    1,251;   -1,227
722,881;29090,419;    2,705;    0,773
723,452;29850,578;    1,251;    2,864
724,023;29985,737;    1,524;    2,682
724,595;29759,260;    2,342;    0,682
725,166;29441,419;    1,524;   -0,409
725,737;29071,305;    1,887;    0,227
726,308;29195,283;    0,797;    0,318
726,879;29611,078;    1,069;    1,227
727,450;29497,146;   -2,022;   -0,045
728,021;29485,305;    1,069;    0,682
728,592;29306,737;    1,160;    0,500
729,163;29641,532;    1,433;   -0,136
729,734;29558,328;    2,160;   -0,227
730,305;29934,850;    0,615;    0,136
730,876;30291,373;    0,888;    2,955
731,447;30021,896;    0,797;    2,682
732,017;30134,146;   -0,840;    1,864
732,588;29650,759;   -0,021;    1,227
733,159;29808,464;    3,615;   -1,045
733,729;29641,896;    1,251;    0,409
734,300;28839,782;    0,160;    0,864
734,870;29253,032;   -1,385;    0,591
735,441;29876,373;    0,888;   -0,591
736,011;29594,259;    1,070;   -1,591
736,582;29558,327;    1,251;    0,045
737,152;29013,850;    0,979;   -2,045
737,722;29501,554;    1,070;   -0,682
738,293;29198,986;   -2,021;    1,318
738,863;29071,781;    1,797;    2,318
739,433;28858,940;    4,524;    0,318
740,003;29511,190;    1,524;   -0,682
740,573;28883,622;    2,252;   -1,591
741,143;28866,508;    3,615;    0,318
741,713;29659,486;    0,252;   -0,500
742,283;29302,008;    1,706;    1,591
742,853;29049,167;    0,524;    1,591
743,423;28496,326;    0,161;    0,045
743,993;28646,213;    1,070;    1,500
744,563;27987,554;    2,524;   -0,864
745,133;27927,258;   -0,112;   -0,864
745,702;28647,781;    2,797;    1,773
746,272;27783,485;    0,434;    0,591
746,842;27531,008;   -0,748;   -0,591
747,411;28071,985;   -0,839;   -0,318
747,981;28279,144;   -0,930;    0,500
748,551;28282,940;   -0,021;   -1,045
749,120;28091,280;   -0,112;   -0,227
749,690;28481,076;    2,161;    2,409
750,259;28791,417;    0,979;    2,955
750,828;28696,121;    4,070;   -1,955
751,398;28924,553;   -0,112;   -0,045
751,967;28346,985;    2,888;    0,409
752,536;28602,507;    1,161;   -0,227
753,105;29098,303;   -1,384;    0,227
753,675;28943,644;   -0,112;    1,773
754,244;28845,985;    0,888;    3,591
754,813;28914,144;    0,979;    1,227
755,382;28559,848;    0,798;    0,955
755,951;28971,553;   -0,112;    3,682
756,520;28541,439;    2,525;    1,864
757,089;29136,052;    1,888;    0,500
757,658;29268,939;    2,434;    1,227
758,227;29262,098;   -1,111;    0,318
758,795;29594,439;   -1,021;    1,136
759,364;29885,598;    0,525;   -0,591
759,933;28852,120;    1,343;   -0,045
760,501;28362,189;    0,252;   -1,318
761,070;28810,075;   -0,293;   -1,409
761,639;29559,597;    1,434;    1,318
762,207;28821,302;    0,889;   -0,955
762,776;28776,279;    2,889;    0,864
763,344;28676,620;    0,071;    0,591
763,913;27792,961;    1,616;    1,409
764,481;28566,484;    1,980;   -0,136
765,049;28342,734;    0,616;    1,409
765,618;28230,256;    1,434;    0,318
766,186;28296,597;    2,434;    0,136
766,754;28461,120;    1,798;    1,864
767,322;27457,279;    1,162;    0,409
767,890;27516,256;    0,525;   -1,773
768,459;27954,233;    2,616;   -0,318
769,027;28047,210;    2,525;    3,409
769,595;27040,460;    2,616;    2,591
770,163;27421,892;    3,344;    2,955
770,730;27167,778;    2,525;   -0,136
771,298;27106,392;    1,162;   -1,409
771,866;27195,369;    0,253;    4,955
772,434;27489,074;    1,162;   -1,864
773,002;27647,960;    2,616;    0,682
773,569;27191,846;    1,071;    1,682
774,137;27019,733;    0,889;   -0,045
774,705;27832,346;   -0,747;   -0,136
775,272;27310,051;    0,253;    0,682
775,840;27030,755;   -0,111;    2,682
776,407;26544,278;   -0,293;    1,955
776,975;26098,073;    1,162;    0,318
777,542;27114,869;    2,162;   -0,045
778,110;27021,119;    0,707;   -0,045
778,677;26686,914;    1,071;   -0,864
779,244;26458,982;   -1,020;    1,045
779,812;26527,869;    0,980;    0,864
780,379;26382,937;    2,435;    1,136
780,946;26656,277;    2,617;   -0,773
781,513;26924,891;   -0,565;    0,318
782,080;26224,868;    1,253;    2,864
782,647;26987,664;    1,708;    3,045
783,214;26623,641;   -0,201;    3,864
783,781;26188,254;    1,708;   -0,682
784,348;26075,323;    0,253;    1,500
784,915;26565,573;   -1,474;    0,318
785,482;26268,004;    2,708;    2,591
786,049;26774,436;    1,071;   -0,591
786,615;26847,959;    1,708;   -0,955
787,182;26632,209;   -3,201;   -0,682
787,749;26276,368;   -2,201;    1,409
788,315;25596,436;    0,253;   -0,409
788,882;25896,595;    0,981;   -1,227
789,448;26581,481;    1,435;   -0,955
790,015;26633,277;    1,799;    3,227
790,581;26171,617;    0,708;    0,227
791,148;26043,686;    1,344;    1,045
791,714;26248,299;   -1,019;    3,136
792,280;25929,458;    3,708;    1,591
792,847;25495,708;   -0,928;    2,500
793,413;26063,231;   -0,110;   -0,318
793,979;25600,481;    1,526;   -1,318
794,545;25627,458;    2,981;    2,682
795,111;25002,799;    2,435;    1,318
795,678;25192,412;    3,526;   -1,682
796,244;24811,844;    2,799;    0,136
796,810;25434,549;    0,799;    0,773
797,375;25116,890;   -0,292;   -2,136
797,941;25102,049;   -1,110;    0,591
798,507;25273,389;    0,254;   -0,955
799,073;24797,730;    2,708;    0,591
799,639;24854,526;    1,435;    3,136
800,205;24949,957;   -1,565;    2,682
800,770;24432,298;    1,345;    1,773
801,336;24443,366;    2,981;   -0,955
801,901;24161,526;    6,072;    3,136
802,467;24767,139;    0,526;    2,045
803,033;24079,480;   -0,019;    0,864
803,598;24267,094;    1,072;   -1,045
804,163;24307,707;    0,708;   -0,318
804,729;24243,139;   -0,110;    1,136
805,294;24624,025;    1,072;    2,227
805,859;24433,912;    0,890;   -0,409
806,425;23897,616;    3,890;    2,682
806,990;23581,320;    1,890;    4,318
807,555;24127,116;   -0,110;    2,591
808,120;23933,639;   -1,292;   -0,409
808,685;24011,525;    1,072;   -2,500
809,250;23509,229;    2,072;   -0,500
809,815;23812,297;   -0,201;    0,682
810,380;24373,275;    0,981;    1,591
810,945;24882,706;    2,890;    2,045
811,510;24119,047;   -0,200;    1,591
812,075;23817,025;    2,800;   -1,409
812,640;23793,547;    3,709;    1,409
813,204;23870,615;    2,163;   -0,227
813,769;24432,138;    0,254;   -0,045
814,334;23766,570;    0,527;    0,864
814,898;23793,456;    1,981;    0,591
815,463;23640,070;    0,981;   -0,773
816,027;23571,138;    1,345;   -2,318
816,592;23697,751;    2,163;   -2,045
817,156;23173,183;   -2,200;    1,136
817,721;22968,069;    0,982;    2,318
818,285;22942,138;    0,618;    1,500
818,849;23596,024;   -0,018;    1,682
819,414;23507,637;    0,073;    2,955
819,978;23087,706;   -0,291;    1,773
820,542;23668,956;    2,891;    0,500
821,106;23415,842;    2,800;    0,682
821,670;23489,546;    2,709;    2,591
822,234;23175,615;    1,073;    1,409
822,798;22540,683;   -0,836;    0,500
823,362;22568,842;    1,527;    4,227
823,926;21810,546;   -0,018;    1,136
824,490;22002,705;    3,527;   -0,682
825,054;22480,228;    2,527;   -1,136
825,618;22102,478;   -1,200;   -1,500
826,181;22017,819;    0,982;   -1,318
826,745;21882,887;   -0,745;   -1,045
827,309;22213,137;    2,255;    1,318
827,872;21640,750;    0,527;    0,955
828,436;22631,455;    1,982;   -0,773
828,999;22693,705;    2,436;    1,227
829,563;21514,227;   -0,654;    1,136
830,126;21333,568;   -0,018;   -0,591
830,690;21318,364;    0,709;    2,864
831,253;20798,523;   -0,473;    2,227
831,816;21000,045;   -0,018;    0,500
832,380;20901,295;    1,164;    0,864
832,943;21088,636;    3,073;   -0,500
833,506;20609,795;    0,255;   -1,227
834,069;21427,682;    2,164;   -0,955
834,632;21417,659;   -2,200;    1,318
835,195;21287,000;    1,346;    0,955
835,758;20501,795;    0,709;    1,955
836,321;20363,409;    1,073;   -1,045
836,884;20421,204;   -1,291;   -0,955
837,447;20524,909;    0,528;    1,773
838,010;20724,613;    1,800;    3,227
838,573;21064,954;    0,528;    0,773
839,135;21007,113;   -0,109;   -0,955
839,698;20418,090;    2,528;    0,409
840,261;19957,340;    0,255;   -0,227
840,823;19839,226;   -0,927;    0,864
841,386;20062,567;   -0,018;   -2,409
841,948;19968,454;    0,255;    1,773
842,511;19687,249;    0,255;    1,682
843,073;19840,953;    2,982;    0,227
843,636;19611,385;    0,619;   -0,227
844,198;19528,544;    1,255;    0,591
844,760;19677,976;    0,619;    1,955
845,322;19284,317;    0,164;    1,136
845,885;19726,021;   -0,290;    0,591
846,447;20184,362;    0,710;    0,227
847,009;19686,158;    3,983;   -0,682
847,571;20047,771;    1,346;   -2,045
848,133;20185,476;   -0,199;   -1,864
848,695;19998,089;    2,346;    1,409
849,257;19502,885;    1,346;   -1,682
849,819;19676,044;    2,983;   -0,409
850,381;19718,930;    1,801;   -0,864
850,942;20069,180;    1,892;   -0,591
851,504;20036,157;    0,983;    0,227
852,066;20067,862;    1,619;   -1,591
852,628;19575,748;    0,165;    1,955
853,189;19153,725;    0,256;    2,682
853,751;19297,884;   -0,654;    1,409
854,312;19117,043;    1,256;   -1,682
854,874;19645,839;   -0,108;   -0,773
855,435;20110,998;    0,528;   -1,682
855,997;20282,975;    3,983;   -0,136
856,558;19506,225;    0,801;    1,773
857,119;19654,293;   -0,744;    2,864
857,681;19304,452;   -0,108;    0,318
858,242;19303,157;    1,347;   -2,136
858,803;19786,043;    1,074;   -0,773
859,364;20384,838;    0,892;   -4,773
859,925;19734,088;   -0,290;   -0,955
860,486;19633,793;    0,529;   -0,955
861,047;19340,497;    0,165;   -1,227
861,608;19116,383;    0,165;   -0,773
862,169;19268,633;   -0,562;   -0,045
862,730;19026,702;   -0,290;    1,409
863,291;19291,406;    0,438;   -0,500
863,852;19616,929;   -0,926;    1,955
864,412;19071,360;   -1,835;   -0,864
864,973;17644,883;    1,892;    0,500
865,534;17473,315;    2,074;    0,227
866,094;18968,292;    2,620;    0,227
866,655;18607,815;    4,711;    3,318
867,215;18901,065;    0,074;    0,136
867,776;18782,951;   -1,199;   -0,136
868,336;18887,201;    1,529;    0,136
868,897;18296,906;    3,438;    1,682
869,457;18042,610;    3,256;    0,318
870,017;18308,587;    2,438;   -1,227
870,578;18882,383;    1,893;    0,773
871,138;18489,451;    2,620;   -0,955
871,698;18025,883;   -0,562;   -1,318
872,258;17871,951;    0,711;   -2,864
872,818;18229,201;    2,347;    0,045
873,378;18186,360;   -2,198;    1,045
873,938;17763,428;    4,984;    0,500
874,498;18085,496;    1,256;   -1,955
875,058;17971,928;    4,347;    1,773
875,618;17799,996;    1,438;   -2,682
876,177;17744,973;   -0,471;    0,136
876,737;17352,768;   -0,289;    1,955
877,297;17293,655;    2,711;    1,955
877,856;17323,086;    2,529;    0,318
878,416;17273,427;    2,438;   -0,136
878,976;17484,586;    3,438;    0,409
879,535;17691,291;    4,529;    3,136
880,095;17397,541;    1,347;    0,045
880,654;17506,609;    0,347;    1,318
881,213;17606,677;    2,347;    1,500
881,773;17239,200;    1,984;    2,682
882,332;17568,995;    6,075;    5,136
882,891;17494,245;    0,711;    2,136
883,451;17960,040;   -2,016;    1,682
884,010;17419,200;   -1,107;   -0,409
884,569;17511,813;   -2,289;   -0,045
885,128;17589,518;   -0,743;   -1,864
885,687;17663,222;   -0,743;    0,682
886,246;17366,381;    2,620;    2,136
886,805;17112,813;    1,620;    2,045
887,364;17463,245;    1,166;   -0,500
887,922;17835,586;   -0,016;    0,045
888,481;17319,926;    1,530;    0,591
889,040;17631,631;    3,711;    2,136
889,599;18352,063;    2,166;    1,409
890,157;18377,040;    2,166;    2,409
890,716;18037,108;    2,166;    0,227
891,274;17823,812;    0,075;   -1,136
891,833;18292,426;    1,166;    0,864
892,391;18142,221;    1,802;    0,500
892,950;18256,290;    0,166;   -0,773
893,508;18597,540;    0,984;   -0,409
894,067;17962,608;   -0,379;    0,136
894,625;17844,494;   -1,016;   -1,500
895,183;18071,653;   -0,198;   -0,682
895,741;17981,085;    2,257;   -1,773
896,299;17842,607;    1,621;   -2,409
896,858;18008,857;    1,530;   -1,591
897,416;18096,380;    0,166;   -1,318
897,974;17820,085;   -2,197;    0,318
898,532;18001,698;    6,530;    2,682
899,089;17874,584;    0,621;   -0,682
899,647;17920,198;    0,530;    1,318
900,205;17631,721;    0,257;    1,045
900,763;17873,243;    2,166;    0,227
901,321;17894,312;    3,530;   -1,409
901,878;17281,652;    3,257;   -0,773
902,436;17132,902;    0,257;    1,318
902,994;17549,425;    6,712;    3,682
903,551;16974,948;    1,439;    0,409
904,109;17350,379;    1,530;   -1,409
904,666;16975,538;    1,439;    1,045
905,224;16760,879;    3,894;   -0,409
905,781;16476,857;   -0,470;   -0,318
906,338;16539,197;    0,167;    1,045
906,895;16476,175;    1,894;    2,045
907,453;16382,425;    2,348;    1,136
908,010;16419,675;    3,348;    0,409
908,567;16004,561;   -0,561;    0,591
909,124;15535,083;    2,439;   -1,500
909,681;15619,333;   -1,288;    0,682
910,238;15806,947;   -0,106;   -1,318
910,795;16105,924;   -1,561;   -1,136
911,352;15701,924;   -0,379;   -2,682
911,909;15122,106;    2,803;   -0,864
912,466;15592,833;    1,985;    1,500
913,022;15143,924;   -0,924;    0,500
913,579;15519,833;   -0,470;    2,045
914,136;15187,379;   -2,561;    0,955
914,692;15571,833;    1,530;   -1,227
915,249;15124,652;    0,530;    0,409
915,806;15334,924;    1,803;    1,955
916,362;15055,288;    0,894;    1,864
916,918;14618,470;    2,439;    1,045
917,475;14584,742;    1,621;    0,955
918,031;14687,924;    0,076;   -0,045
918,587;14123,652;    0,621;   -0,318
919,144;14306,742;   -0,379;    0,227
919,700;14645,379;    0,167;    0,773
920,256;14257,197;    0,439;    0,045
920,812;13853,015;    1,439;   -1,045
921,368;13842,197;    1,348;   -1,045
921,924;13503,015;    0,439;   -0,136
922,480;13027,106;    0,076;    1,227
923,036;13692,924;   -0,652;    1,955
923,592;13646,561;    0,621;    0,318
924,148;13525,015;    1,894;   -0,955
924,704;12850,652;    0,258;   -0,409
925,259;13101,652;   -0,561;    0,591
925,815;12824,106;    3,803;    0,500
926,371;12352,742;    3,530;    1,409
926,926;12232,470;    1,621;    0,591
927,482;11859,561;    1,621;    0,773
928,037;11707,652;   -0,833;    2,045
928,593;11996,470;    0,258;    1,045
929,148;11801,652;    1,167;   -1,500
929,704;11350,015;    2,439;   -0,500
930,259;11528,106;    0,894;   -0,136
930,814;10575,833;    1,803;    1,955
931,369;10286,561;    0,258;   -0,773
931,925;10173,652;   -1,924;    0,136
932,480;10029,561;    3,076;   -2,591
933,035; 9920,833;    3,985;   -0,318
933,590; 9651,742;   -1,742;   -1,773
934,145; 9337,106;   -1,288;   -0,318
934,700; 9703,561;    0,348;   -0,591
935,255; 9480,924;    4,803;    0,045
935,809; 8679,742;    6,258;    0,864
936,364; 7802,470;    2,167;   -0,136
936,919; 7772,924;    2,348;   -1,773
937,474; 7659,470;    1,348;    0,136
938,028; 7414,742;    3,076;    1,136
938,583; 6817,561;    6,348;    4,682
939,138; 7151,652;    0,167;    2,136
939,692; 6608,015;   -1,015;   -1,136
940,247; 6262,924;    1,167;   -1,045
940,801; 5791,106;    0,621;    0,227
941,355; 5690,197;    0,439;    2,591
941,910; 5341,924;    0,712;   -2,136
942,464; 5433,833;    2,712;   -0,318
943,018; 5196,379;    3,258;   -0,227
943,572; 5133,470;    2,803;   -0,682
944,126; 4521,742;   -0,924;   -0,409
944,681; 4435,924;    0,712;    0,227
945,235; 4416,470;    2,167;   -0,591
945,789; 4350,833;    1,258;   -1,864
946,342; 4446,015;   -0,561;   -0,591
946,896; 4252,106;    0,348;    0,955
947,450; 4008,652;   -0,561;   -0,227
948,004; 4194,288;    1,076;   -0,045
948,558; 4203,833;    1,258;   -0,864
949,111; 4126,652;   -1,197;   -0,318
949,665; 4165,561;   -0,106;   -0,682
950,219; 4013,197;    0,621;   -1,045
950,772; 4089,652;    0,258;    1,864
951,326; 4026,379;   -1,106;   -0,955
951,879; 4123,470;    1,076;   -2,318
952,433; 4122,015;    1,348;    2,227
952,986; 3970,924;    0,348;    0,682
953,539; 3890,288;    1,530;    0,591
954,093; 3856,106;    0,985;   -1,318
954,646; 3979,833;   -0,288;    1,318
955,199; 3787,470;    1,258;   -0,500
955,752; 3666,470;    1,985;    1,773
956,305; 3621,652;    0,894;    2,955
956,858; 3770,197;    0,621;   -0,318
957,411; 3964,015;    3,621;    2,136
957,964; 3779,561;    2,076;    2,136
958,517; 3784,106;    0,985;    3,136
959,070; 3607,652;   -1,197;    1,955
959,623; 3675,288;    1,076;    1,500
960,176; 3452,015;    0,712;    2,045
960,728; 3420,833;    1,712;    0,773
961,281; 3475,742;    2,258;    0,500
961,834; 3518,924;   -0,833;    0,864
962,386; 3440,197;    1,258;    1,045
962,939; 3360,561;    3,439;   -0,318
963,491; 3491,833;    2,621;    1,136
964,043; 3359,924;    0,076;    2,409
964,596; 3489,561;    1,712;    2,227
965,148; 3324,561;   -0,379;    1,773
965,700; 3259,197;   -0,015;   -0,227
966,253; 3408,833;   -0,833;    0,318
966,805; 3230,379;    1,894;    0,773
967,357; 3286,561;    0,439;   -1,500
967,909; 3235,652;    1,167;   -1,227
968,461; 3340,106;    0,894;    3,136
969,013; 3269,470;   -1,561;   -0,864
969,565; 3348,924;    1,803;   -1,136
970,117; 3417,742;    3,803;    1,045
970,669; 3260,379;    3,258;   -0,136
971,220; 3122,015;    2,167;   -1,500
971,772; 3027,106;    1,348;   -0,318
972,324; 3147,833;   -1,197;   -0,500
972,876; 3119,470;    0,167;   -0,045
973,427; 3230,742;   -1,197;   -1,045
973,979; 3210,561;    0,076;   -2,500
974,530; 3240,379;    0,803;    1,318
975,082; 3271,106;    2,167;    1,682
975,633; 3165,470;    2,894;    1,682
976,184; 3311,015;    2,076;    0,773
976,736; 3079,652;    0,348;    0,227
977,287; 2847,379;    0,258;   -0,500
977,838; 3060,379;   -0,924;   -0,318
978,389; 3127,106;    0,803;   -0,500
978,940; 2997,561;    1,258;   -0,409
979,491; 3026,833;    2,258;   -0,500
980,042; 2953,652;   -0,652;    3,045
980,593; 3039,197;    1,894;    0,227
981,144; 3090,924;    3,530;   -0,500
981,695; 3047,015;   -0,470;    1,500
982,246; 3020,833;   -1,833;    1,045
982,797; 3189,561;   -0,561;    0,682
983,347; 3289,470;    2,167;    0,591
983,898; 3432,379;    4,167;    0,409
984,449; 3238,924;    2,530;    0,773
984,999; 3188,015;    1,894;   -1,136
985,550; 2933,652;    3,167;   -0,318
986,100; 2974,470;    0,712;   -0,318
986,651; 3034,470;    0,258;    0,045
987,201; 2987,106;    0,894;   -0,591
987,751; 3079,470;   -0,288;    2,864
988,302; 3059,561;   -0,379;    1,500
988,852; 3103,652;    1,985;   -1,136
989,402; 3126,833;    0,985;    0,682
989,952; 3040,924;    1,621;    0,864
990,502; 3135,288;    1,076;    0,682
991,052; 3113,379;   -0,106;    0,045
991,602; 2975,742;    1,167;    1,318
992,152; 2972,197;    2,803;    0,682
992,702; 2946,833;    1,167;   -0,045
993,252; 2872,833;    0,076;   -0,500
993,802; 2933,197;    1,167;    1,318
994,352; 3215,470;   -0,742;    1,136
994,901; 3300,742;    1,076;    3,227
995,451; 3204,561;   -1,197;    0,318
996,000; 3305,470;    1,076;    0,318
996,550; 2986,833;    2,894;    0,227
997,100; 3001,561;   -0,561;   -0,045
997,649; 3294,197;   -0,197;    0,955
998,198; 2925,652;   -0,288;   -1,500
998,748; 3092,924;    0,348;   -2,318
999,297; 3025,379;    0,985;   -0,409
999,846; 3096,106;    1,894;   -0,773
1000,395; 3156,288;    1,530;    0,500
1000,945; 3089,288;    1,076;   -0,773
1001,494; 3167,288;    0,167;    0,682
1002,043; 3164,742;    0,712;    0,864
1002,592; 2982,652;    3,439;    1,955
1003,141; 3138,833;    2,439;   -0,682
1003,690; 2977,015;    1,258;    0,500
1004,238; 3068,015;   -0,106;   -0,045
1004,787; 2695,833;   -1,288;    1,227
1005,336; 2914,288;    1,621;    0,682
1005,885; 3071,106;   -0,197;   -2,773
1006,433; 3243,833;   -0,470;    0,955
1006,982; 3296,288;    2,167;    1,682
1007,531; 3217,561;    2,712;   -0,227
1008,079; 3158,833;    0,258;    0,500
1008,627; 3307,288;    1,621;    0,409
1009,176; 3035,197;    0,076;   -1,955
1009,724; 3072,652;   -2,742;    0,864
1010,273; 3109,288;    1,076;    0,500
1010,821; 3263,015;    1,076;    1,409
1011,369; 2984,197;    0,076;    1,318
1011,917; 2948,742;   -0,833;   -0,591
1012,465; 3253,015;    2,530;   -1,591
1013,013; 3364,652;    0,439;   -1,682
1013,561; 3218,379;   -1,288;   -0,773
1014,109; 3269,288;   -0,833;    1,682
1014,657; 3151,561;    1,348;    0,591
1015,205; 3273,924;    0,894;   -0,955
1015,753; 3324,924;    0,258;   -1,409
1016,301; 3347,470;    2,621;    3,045
1016,848; 3354,833;    2,167;    0,409
1017,396; 3398,833;    1,621;    0,045
1017,944; 3522,742;    2,621;    1,864
1018,491; 3290,106;   -0,197;    1,409
1019,039; 3420,197;   -0,652;    0,591
1019,586; 3357,197;    0,076;    1,682
1020,134; 3461,652;    0,712;    1,500
1020,681; 3463,470;    2,894;   -1,136
1021,228; 3484,652;   -0,561;   -2,227
1021,776; 3304,742;   -0,833;   -1,136
1022,323; 3524,106;    0,803;    0,773
1022,870; 3475,470;   -0,470;   -0,045
1023,417; 3345,106;    2,076;    1,864
1023,964; 3512,652;    0,621;    1,227
1024,511; 3328,015;   -0,652;    0,773
1025,058; 3081,470;    0,439;   -0,045
1025,605; 3152,652;   -1,742;    3,136
1026,152; 3368,106;   -0,106;   -0,591
1026,699; 3122,015;    0,167;    1,318
1027,245; 3293,106;    2,439;    0,318
1027,792; 3518,288;    0,712;    1,409
1028,339; 3368,561;    4,076;   -0,045
1028,885; 3237,652;    3,621;   -0,227
1029,432; 3192,833;   -0,106;    0,227
1029,978; 3260,197;    1,348;   -1,591
1030,525; 3136,379;    1,621;    0,409
1031,071; 3393,197;    0,348;    1,136
1031,618; 3481,742;    1,258;    1,682
1032,164; 3291,742;    2,076;    3,045
1032,710; 3332,106;    0,076;   -1,500
1033,256; 3249,015;    0,712;   -0,136
1033,803; 3261,652;   -0,288;    1,500
1034,349; 2985,106;    1,803;    0,136
1034,895; 3129,197;    2,621;   -0,318
1035,441; 3101,742;    0,439;    0,318
1035,987; 3096,652;   -2,288;   -0,682
1036,533; 3089,924;   -0,197;   -0,955
1037,078; 3294,652;    4,712;    1,682
1037,624; 3131,924;    2,439;   -0,955
1038,170; 3146,924;    1,712;   -0,318
1038,716; 3038,106;    2,167;   -0,409
1039,261; 2950,015;    2,167;   -0,773
1039,807; 2873,106;   -0,015;    3,409
1040,352; 2954,470;   -1,288;   -0,318
1040,898; 3017,470;    0,167;   -0,682
1041,443; 2917,015;    0,803;   -2,591
1041,989; 2927,288;    3,621;    1,591
1042,534; 2794,742;    0,985;    2,591
1043,079; 2933,742;    1,985;    0,955
1043,625; 2698,742;    0,258;    0,500
1044,170; 2747,924;    2,439;    1,045
1044,715; 3007,379;    0,167;    0,955
1045,260; 2830,470;   -0,833;   -0,955
1045,805; 2884,833;    0,258;   -0,591
1046,350; 2830,924;    0,530;   -0,409
1046,895; 2771,742;    0,803;    1,591
1047,440; 2698,833;    1,530;    0,409
1047,985; 2617,106;   -1,197;   -0,955
1048,530; 2531,833;    1,348;    1,227
1049,074; 2602,924;    2,803;    0,318
1049,619; 2571,470;   -0,924;    1,955
1050,164; 2371,015;    1,076;    0,227
1050,708; 2422,833;    2,621;    0,045
1051,253; 2777,288;    3,258;   -2,227
1051,797; 2511,833;   -0,197;   -1,318
1052,342; 2548,106;    1,348;    1,045
1052,886; 2512,742;    1,803;   -1,409
1053,430; 2392,561;    2,167;    0,136
1053,975; 2397,924;    0,894;   -0,318
1054,519; 2378,742;    1,803;    3,227
1055,063; 2392,288;    3,621;    1,318
1055,607; 2261,197;    1,348;    0,227
1056,151; 2301,015;    0,530;    1,682
1056,695; 2215,924;   -1,833;   -1,136
1057,239; 2282,288;   -1,197;   -0,682
1057,783; 2285,833;    2,258;   -1,500
1058,327; 2236,106;    3,076;    1,409
1058,871; 2445,288;    3,985;    1,318
1059,415; 2151,924;   -0,561;   -0,045
1059,958; 2408,197;    2,985;    2,591
1060,502; 2150,106;    1,348;   -0,773
1061,046; 2053,288;    1,712;   -0,955
1061,589; 2036,561;    2,803;   -1,136
1062,133; 1911,470;    0,985;    1,864
1062,676; 1850,288;    1,439;    0,864
1063,220; 1851,833;    0,985;    0,500
1063,763; 1854,470;    2,985;    1,136
1064,306; 1927,742;    0,985;    1,864
1064,849; 1816,652;    2,076;    0,591
1065,393; 1814,379;    2,894;   -1,500
1065,936; 1938,106;    2,530;   -0,409
1066,479; 1834,924;    2,621;    1,318
1067,022; 1856,561;    1,894;   -0,227
1067,565; 1762,106;   -1,197;   -1,318
1068,108; 1800,288;    1,258;   -0,591
1068,651; 1779,833;   -2,470;    1,409
1069,194; 1706,652;   -1,106;   -1,682
1069,736; 1691,561;    3,803;    0,955
1070,279; 1669,652;   -1,652;   -0,500
1070,822; 1720,197;    1,530;   -0,318
1071,364; 1775,742;    0,530;    1,318
1071,907; 1603,924;    0,348;    3,227
1072,450; 1537,379;    0,258;   -0,045
1072,992; 1533,833;   -0,561;    3,136
1073,535; 1647,924;    0,167;    2,136
1074,077; 1451,106;    2,985;    2,045
1074,619; 1414,561;    0,985;    0,591
1075,161; 1441,924;   -0,561;    1,500
1075,704; 1623,833;    0,258;    1,227
1076,246; 1429,561;    1,530;    0,682
1076,788; 1356,197;   -1,015;    1,773
1077,330; 1435,924;   -2,106;    2,136
1077,872; 1391,924;   -1,924;    0,955
1078,414; 1618,288;    3,712;    0,773
1078,956; 1343,197;    0,167;   -0,227
1079,498; 1578,561;    0,439;    0,318
1080,040; 1280,924;    0,985;   -1,318
1080,581; 1249,470;    0,621;   -0,318
1081,123; 1186,924;   -0,106;   -0,773
1081,665; 1240,561;    3,803;   -0,955
1082,206; 1497,106;    3,258;   -0,500
1082,748; 1380,197;    3,258;    2,045
1083,289; 1269,924;    0,167;    1,318
1083,831; 1169,652;    0,258;    0,227
1084,372; 1180,833;    0,894;    0,591
1084,913; 1184,015;    3,348;    0,864
1085,455; 1167,924;    1,530;   -2,045
1085,996; 1129,652;    0,530;    0,136
1086,537; 1150,197;    0,985;    0,864
1087,078; 1189,106;    0,439;   -2,136
1087,619; 1231,561;   -1,652;    0,227
1088,160; 1149,561;    1,439;    1,318
1088,701; 1128,197;   -0,742;    0,682
1089,242; 1078,742;   -0,561;   -2,227
1089,783; 1165,924;   -0,561;    1,409
1090,324; 1127,379;   -0,833;    0,682
1090,865; 1001,742;   -1,924;   -0,409
1091,405;  993,652;   -0,561;    2,227
1091,946; 1024,106;   -0,197;   -0,955
1092,487;  950,652;   -1,288;   -1,409
1093,027; 1098,833;    1,803;   -1,500
1093,568;  945,106;    2,258;    1,227
1094,108; 1035,379;    0,621;    1,773
1094,649;  993,197;   -0,470;    0,136
1095,189;  936,742;    1,167;   -0,682
1095,729;  879,742;    0,712;    0,955
1096,269;  889,288;    1,258;   -0,955
1096,810; 1192,015;   -0,197;    0,500
1097,350; 1018,652;   -0,561;   -0,773
1097,890;  915,742;    2,985;    1,227
1098,430; 1154,561;    4,985;    2,864
1098,970; 1047,379;    1,894;    1,682
1099,510;  923,833;   -0,833;   -2,318
1100,050;  842,924;    0,258;   -1,591
1100,589;  812,106;    0,076;   -0,318
1101,129;  914,015;    0,894;   -0,955
1101,669; 1049,561;    2,803;    2,136
1102,209;  893,015;    1,530;    2,227
1102,748;  844,652;    3,439;    0,955
1103,288;  831,015;    0,712;   -1,227
1103,827;  860,561;    3,530;   -2,227
1104,367;  749,015;    1,712;   -2,409
1104,906;  701,561;   -1,015;   -1,136
1105,445;  775,106;    0,985;   -1,136
1105,985;  717,197;   -0,652;    1,500
1106,524;  756,470;    1,530;   -0,682
1107,063;  730,833;    1,167;    1,409
1107,602;  716,561;    1,894;   -1,500
1108,141;  642,015;    1,621;    1,500
1108,680;  726,288;    3,985;   -0,591
1109,219;  674,924;    0,167;   -0,500
1109,758;  681,288;    4,167;    0,682
1110,297;  658,288;   -1,106;   -0,682
1110,836;  603,015;    1,439;    0,955
1111,375;  756,288;    0,348;    0,409
1111,913;  762,561;    0,985;    0,773
1112,452;  695,561;    0,894;    0,136
1112,991;  596,197;    1,076;    1,955
1113,529;  562,288;    0,167;   -0,045
1114,068;  618,561;    0,439;    2,955
1114,606;  515,470;   -0,561;   -0,955
1115,144;  660,288;    1,530;    1,045
1115,683;  615,652;    1,985;    0,318
1116,221;  664,288;    2,076;   -0,864
1116,759;  582,652;    1,621;   -0,864
1117,297;  759,742;    1,621;    1,864
1117,836;  578,561;    1,985;   -1,227
1118,374;  576,561;    0,258;   -0,682
1118,912;  528,379;    0,439;    2,682
1119,450;  519,288;    0,985;    0,864
1119,988;  569,379;    3,348;    2,136
1120,525;  999,924;    7,258;    3,318
1121,063;  710,652;    0,530;    1,864
1121,601;  520,470;    1,076;   -1,227
1122,139;  473,106;    1,076;   -2,045
1122,676;  667,833;   -1,652;    2,773
1123,214;  605,833;    0,712;    4,409
1123,751;  424,470;    0,621;    2,227
1124,289;  545,197;    0,894;   -0,409
1124,826;  422,379;   -0,379;    0,227
1125,364;  358,379;    0,712;   -0,955
1125,901;  536,742;    6,258;    1,227
1126,438;  629,470;    3,530;    0,955
1126,975;  372,470;    2,985;   -0,773
1127,513;  441,015;    2,621;    2,136
1128,050;  356,379;   -0,561;   -0,682
1128,587;  439,924;    1,348;   -0,227
1129,124;  483,924;   -0,015;    1,318
1129,661;  362,379;   -1,924;    0,227
1130,198;  523,106;    2,439;    0,773
1130,734;  462,833;   -0,379;    1,409
1131,271;  325,470;   -1,197;    0,864
1131,808;  496,106;    1,621;    3,045
1132,345;  367,470;    4,530;    0,318
1132,881;  249,470;   -0,561;   -1,864
1133,418;  381,470;    0,348;   -1,136
1133,954;  331,106;    0,712;   -2,682
1134,491;  387,106;    1,712;   -0,773
1135,027;  290,379;    2,167;    0,864
1135,564;  372,924;    1,439;    2,955
1136,100;  356,924;   -0,742;    2,136
1136,636;  254,379;   -1,015;   -1,045
1137,172;  341,924;    0,894;   -1,045
1137,708;  273,742;   -1,561;   -1,045
1138,245;  283,742;    0,803;   -1,227
1138,781;  240,924;    1,803;   -3,318
1139,317;  298,742;    1,894;   -1,409
1139,852;  282,833;    3,076;    0,136
1140,388;  397,106;    2,076;   -0,409
1140,924;  281,288;    1,076;   -2,227
1141,460;  233,288;   -0,288;    0,136
1141,996;  166,652;   -0,652;    2,682
1142,531;  205,015;    1,076;    3,318
1143,067;  406,197;    1,167;    1,045
1143,602;  460,833;    3,439;   -0,318
1144,138;  312,652;    0,803;    1,045
1144,673;  191,924;    1,621;    1,409
1145,209;  258,015;    2,894;   -0,318
1145,744;  178,106;    0,803;    0,864
1146,279;  303,379;    1,530;   -0,136
1146,815;  218,924;    1,530;   -2,682
1147,350;  263,652;   -0,924;    0,045
1147,885;  180,924;   -1,924;   -1,318
1148,420;  181,106;    2,439;    0,773
1148,955;  164,288;   -1,470;    1,864
1149,490;  187,561;   -1,106;   -1,591
1150,025;  175,197;   -1,106;   -1,773
1150,560;  274,833;   -0,288;   -0,955
1151,094;  243,833;    0,258;   -0,591
1151,629;  250,470;   -3,742;    0,864
1152,164;  182,924;   -1,288;    1,318
1152,698;  142,833;    1,258;   -0,136
1153,233;  104,652;   -1,379;   -0,682
1153,767;  141,015;   -0,288;   -2,318
1154,302;  191,470;   -0,379;    1,773
1154,836;  193,742;    0,803;   -2,136
1155,371;  234,197;    2,258;    3,682
1155,905;  193,379;    1,985;    1,682
1156,439;  165,742;    0,530;   -0,500
1156,973;  193,833;    0,439;    0,318
1157,507;  142,288;   -1,742;    0,682
1158,042;  168,470;   -0,652;    1,045
1158,576;  203,924;   -0,561;    1,773
1159,110;  194,742;    0,076;    2,409
1159,643;  169,197;   -2,470;   -0,045
1160,177;  109,288;   -2,015;    1,500

