
Integration time [ms]:   0,040
Averaging Nr. [scans]: 11
Smoothing Nr. [pixels]: 0
Data measured with spectrometer [name]: 7318044SP
Wave   ;Sample   ;Dark     ;Reference
[nm]   ;[counts] ;[counts] ;[counts] 

186,757;   38,301;   38,161;    1,318
187,357;   61,347;   26,706;    0,955
187,958;   32,876;   17,252;   -1,591
188,558;   75,615;   12,979;   -1,227
189,159;   50,647;   10,070;   -4,500
189,759;   14,463;    5,797;   -3,591
190,360;   20,073;    6,797;   -2,136
190,960;   45,111;    5,706;   -4,136
191,560;   57,108;    2,614;   -6,591
192,161;  280,518;    5,885;   -3,500
192,761;  138,470;    5,520;   -3,227
193,361;   93,075;    3,065;   -3,773
193,962;  143,237;    1,612;   -2,682
194,562;   71,869;   -0,114;   -3,955
195,162;  107,649;   -0,567;   -2,227
195,762;  251,066;    2,433;   -0,045
196,362;  202,268;    1,706;   -2,500
196,963;   81,933;    1,706;   -0,864
197,563;  154,322;    1,252;   -0,955
198,163;   98,790;   -0,111;   -0,682
198,763;  125,171;   -0,020;   -0,500
199,363;  216,448;    3,616;   -0,500
199,963;  178,047;    2,162;    0,409
200,563;  145,524;    6,344;   -1,409
201,163;  127,846;    5,435;   -0,227
201,763;  211,952;    1,435;    0,318
202,363;  163,921;    0,980;    1,500
202,963;  265,449;    1,526;    1,045
203,563;  363,794;    0,344;    0,500
204,162;  215,074;    1,889;   -1,864
204,762;  209,623;    2,071;    0,591
205,362;  182,139;    0,708;    1,955
205,962;  268,958;    3,435;    1,955
206,562;  261,625;    1,889;    2,318
207,161;  237,186;    1,708;    0,318
207,761;  392,739;    4,435;    2,409
208,361;  273,577;    1,889;    1,409
208,960;  365,140;    2,889;    1,500
209,560;  422,469;    0,435;    1,591
210,160;  406,764;    5,071;    1,864
210,759;  371,452;    0,708;    1,227
211,359;  380,971;   -0,474;    1,045
211,958;  621,973;    3,526;    2,045
212,558;  699,645;    0,799;    1,864
213,157;  540,462;   -0,929;    1,500
213,757;  956,936;    5,617;   -0,227
214,356;  662,659;    1,708;   -0,409
214,956;  983,156;    3,526;    0,409
215,555;  627,012;    0,617;    2,136
216,154;  567,399;   -0,292;   -0,591
216,754;  562,623;    1,253;    0,773
217,353;  682,678;   -0,383;   -1,045
217,952;  543,365;    2,072;    0,318
218,552;  781,889;    0,254;   -0,773
219,151;  672,296;   -1,110;    0,955
219,750;  666,397;    0,890;   -0,227
220,349;  754,215;   -2,292;    1,045
220,948;  848,011;    1,163;    1,136
221,548;  832,652;    0,617;    1,227
222,147;  938,235;   -1,292;   -0,409
222,746; 1223,165;    1,254;   -0,955
223,345; 1094,151;   -1,019;    0,500
223,944; 1104,528;    1,163;    0,773
224,543; 1249,347;    4,072;   -1,409
225,142; 1356,616;    1,345;    0,136
225,741; 1257,266;    1,163;    1,045
226,340; 1279,275;    1,254;   -0,955
226,939; 1698,641;    2,708;   -0,136
227,538; 1604,989;    1,163;   -0,773
228,137; 1769,695;    0,435;    0,864
228,735; 1860,989;    0,435;    1,227
229,334; 1638,213;   -0,474;   -0,227
229,933; 2017,308;    0,799;    0,591
230,532; 2118,106;   -1,201;   -0,409
231,131; 2176,298;    1,253;    0,318
231,729; 2302,777;    1,163;   -2,318
232,328; 2369,999;    0,435;   -1,500
232,927; 2399,674;    4,526;   -0,500
233,525; 2506,540;    0,981;    0,045
234,124; 2716,447;    1,890;   -1,591
234,723; 2730,733;    1,617;   -1,045
235,321; 2868,736;    1,163;    0,136
235,920; 3048,029;    2,526;   -1,227
236,518; 3302,941;    1,072;    0,318
237,117; 3442,789;    2,890;   -0,227
237,715; 3582,441;    1,163;   -0,500
238,314; 3604,043;    1,708;   -2,318
238,912; 3710,794;    0,526;   -1,409
239,510; 3735,969;    1,162;   -1,227
240,109; 3919,138;   -0,474;    3,773
240,707; 3938,010;   -0,474;    1,227
241,305; 4260,522;   -0,383;    0,136
241,904; 4438,249;   -0,292;   -2,045
242,502; 4414,732;    3,253;   -0,227
243,100; 4351,483;    3,344;   -0,955
243,698; 4576,590;    2,799;    1,682
244,297; 4723,464;   -0,656;    0,682
244,895; 4576,142;   -0,474;   -2,318
245,493; 4884,363;    2,981;   -0,591
246,091; 4907,242;    5,163;   -1,318
246,689; 4889,626;    2,163;    0,591
247,287; 5041,261;   -0,019;   -1,136
247,885; 5285,748;   -1,019;    1,227
248,483; 5362,622;   -0,201;   -0,500
249,081; 5466,325;    0,981;    1,591
249,679; 5614,069;   -1,019;    1,682
250,277; 5850,805;   -2,292;    0,864
250,875; 5841,553;    0,617;   -1,045
251,473; 5871,155;   -0,019;    0,500
252,071; 6044,440;   -0,383;    1,045
252,669; 6154,891;   -1,565;    0,318
253,267; 6381,266;    1,618;    0,773
253,864; 6301,079;    0,617;    0,682
254,462; 6221,266;    1,526;    1,591
255,060; 6208,008;    0,072;    1,318
255,658; 6489,710;   -3,292;   -0,136
256,255; 6872,463;   -0,201;   -2,045
256,853; 6756,203;    2,345;    1,409
257,451; 6753,041;    1,981;    1,864
258,048; 7022,146;    2,072;    1,864
258,646; 6768,651;    0,436;   -1,045
259,243; 6935,567;    2,981;    2,227
259,841; 6963,211;    1,799;    0,318
260,438; 6870,704;    0,254;    0,864
261,036; 7534,376;    0,617;    1,409
261,633; 7424,668;    1,526;    2,227
262,231; 7203,978;   -0,110;   -0,045
262,828; 7272,523;   -0,383;    1,136
263,425; 7315,188;   -1,928;   -0,591
264,023; 7561,917;    1,436;    0,045
264,620; 7121,238;    1,526;   -0,318
265,217; 7481,234;    2,890;    3,136
265,815; 7579,549;    2,527;    2,136
266,412; 7361,283;    0,072;    0,136
267,009; 7403,517;    0,526;    0,773
267,606; 7340,378;    0,345;   -0,955
268,203; 7312,588;   -0,383;   -0,591
268,801; 7565,118;   -0,474;    0,591
269,398; 7851,254;   -0,564;    2,500
269,995; 7802,614;    0,890;    1,591
270,592; 7623,782;    0,799;   -0,500
271,189; 7790,096;    1,981;    0,409
271,786; 7912,373;    2,072;    1,227
272,383; 7783,788;   -0,383;    0,227
272,980; 7934,269;    1,617;    0,318
273,577; 8384,125;    2,162;    1,227
274,174; 7942,246;    1,435;    2,591
274,771; 7898,982;    1,890;   -0,773
275,367; 8070,601;    3,253;    1,409
275,964; 8010,486;   -0,565;   -0,500
276,561; 8124,646;   -2,474;   -1,045
277,158; 8306,433;    1,799;   -1,773
277,755; 8465,325;   -0,110;    0,409
278,351; 7896,217;    0,436;   -1,500
278,948; 8210,141;   -0,201;    0,045
279,545; 8178,599;    0,527;    2,318
280,141; 8764,034;    1,254;   -2,045
280,738; 8583,752;    2,435;   -0,136
281,334; 8801,527;   -0,383;    0,591
281,931; 8223,445;    2,890;   -1,318
282,528; 8334,937;    4,072;   -0,500
283,124; 9020,993;    3,345;   -0,500
283,721; 8886,984;    0,709;    1,409
284,317; 8691,743;    0,163;    2,500
284,913; 9206,464;   -0,110;    0,591
285,510; 9388,464;    2,890;   -0,318
286,106; 9410,260;    2,345;   -0,955
286,703; 9004,363;    0,072;    1,955
287,299; 9221,029;    1,254;   -0,591
287,895; 9424,171;    0,890;   -1,045
288,491; 9959,981;    0,163;    2,136
289,088; 9722,314;    0,163;    2,409
289,684; 9741,346;    2,890;    1,500
290,280; 9733,279;    1,890;    0,682
290,876; 9821,327;    0,163;    5,500
291,472; 9709,820;    2,163;    2,227
292,068; 9805,308;    1,254;    0,227
292,665; 9563,393;   -0,564;    0,773
293,261; 9245,962;   -1,292;    2,136
293,857; 9600,140;    4,072;    2,136
294,453; 9561,511;   -0,928;    0,955
295,049; 9414,079;    0,253;    1,955
295,644; 9423,376;   -1,292;    0,136
296,240; 9349,619;    0,162;   -0,136
296,836; 9387,446;   -0,747;    0,318
297,432; 9619,667;    2,980;   -0,500
298,028; 9679,259;    0,435;    0,773
298,624;10028,565;    0,889;    1,864
299,220;10245,004;    0,435;    0,591
299,815; 9942,889;    0,526;   -0,409
300,411; 9735,898;    0,435;    1,773
301,007; 9751,140;    1,889;    0,227
301,602; 9775,290;    2,071;   -2,318
302,198; 9929,533;    1,435;   -0,773
302,794;10265,135;    1,526;   -0,500
303,389;10360,708;    1,071;    1,045
303,985;10432,258;    1,253;    1,409
304,580;10408,701;    0,889;    1,591
305,176;10372,511;    0,344;    0,136
305,771;10321,163;   -0,929;   -1,227
306,367;10191,901;    3,071;    0,136
306,962;10497,381;    2,889;    1,500
307,558;10185,516;    2,435;    0,136
308,153;10182,308;   -0,383;   -1,136
308,748;10390,229;    0,162;    1,682
309,344;10375,924;    0,253;   -1,318
309,939;10449,774;    2,071;   -1,318
310,534;10726,803;   -2,020;   -1,682
311,130;10646,073;   -0,656;   -2,500
311,725;10375,813;    0,526;   -0,500
312,320;10688,497;    1,253;    0,045
312,915;10543,782;    2,890;   -1,045
313,510;10614,179;    0,526;   -0,500
314,105;11119,147;   -3,565;    1,409
314,700;10493,888;   -1,656;   -1,045
315,295;10178,610;   -0,020;    0,045
315,890; 9771,514;   -0,292;    0,864
316,485;10069,317;    0,253;   -0,318
317,080;10176,066;   -0,929;    1,591
317,675;10694,658;    3,071;   -0,682
318,270;10176,700;    6,889;    3,318
318,865;10169,630;    2,435;    3,045
319,460; 9992,449;   -1,565;    0,591
320,055;10241,160;   -2,565;   -1,227
320,650; 9943,242;   -1,838;   -0,591
321,244; 9964,055;    0,889;   -1,409
321,839;10858,006;    0,980;   -0,227
322,434;10724,225;   -0,111;   -1,591
323,029;10422,254;   -0,474;    1,591
323,623;10275,865;    0,798;    0,773
324,218;10072,766;    2,707;    1,409
324,812; 9976,659;    0,889;    1,591
325,407; 9835,267;   -0,929;    2,045
326,002; 9742,656;    0,526;   -0,409
326,596;10071,405;   -0,656;    1,318
327,191;10248,488;   -0,383;   -1,045
327,785; 9850,860;   -0,747;   -0,227
328,379;10091,330;   -0,383;    0,136
328,974; 9857,990;    1,798;   -3,955
329,568;10099,389;    2,889;   -2,409
330,163; 9922,508;    2,435;    1,045
330,757;10281,594;    0,253;    1,591
331,351; 9605,122;   -0,292;    0,682
331,945; 9915,156;   -0,383;    1,409
332,540; 9523,373;    1,617;   -0,591
333,134; 9672,347;    3,344;    0,773
333,728; 9884,532;    2,799;    0,318
334,322;10212,486;    0,889;   -0,864
334,916; 9525,092;    0,344;    0,955
335,510; 9825,460;   -0,111;   -0,136
336,105;10064,398;   -0,929;    1,591
336,699; 9794,219;   -1,292;    0,591
337,293; 9740,474;    1,071;    0,318
337,887; 9834,430;    0,071;    1,955
338,481; 9934,963;    2,980;    0,591
339,074;10068,113;    2,071;    2,682
339,668; 9860,831;   -0,110;    1,227
340,262;10160,894;    7,708;    3,227
340,856; 9663,494;    1,708;   -0,682
341,450; 9076,372;    0,708;    1,864
342,044; 9874,202;    1,799;    0,136
342,637; 9682,684;    1,162;   -2,136
343,231; 9519,451;   -1,474;    0,682
343,825; 9466,968;   -0,747;   -0,591
344,419; 9477,575;   -0,474;    0,500
345,012; 9270,970;    2,889;    4,045
345,606; 9258,800;   -0,656;    1,591
346,199; 9143,733;   -0,111;   -0,227
346,793; 8718,634;    2,525;    2,045
347,386; 8927,021;    0,889;   -1,136
347,980; 8899,000;   -0,838;   -0,045
348,573; 8687,496;   -1,748;    0,409
349,167; 8409,124;    6,161;    4,773
349,760; 8780,015;    2,252;    2,682
350,354; 8761,482;    1,616;    1,136
350,947; 8502,972;    2,798;    1,682
351,540; 8215,674;    0,616;   -1,409
352,134; 8143,583;   -1,111;    1,136
352,727; 8242,015;   -0,657;    1,136
353,320; 8073,501;    2,343;    0,591
353,913; 7927,126;   -1,929;    1,864
354,507; 8132,475;    0,434;   -1,227
355,100; 8151,692;    0,071;    0,864
355,693; 7458,289;    4,798;    2,409
356,286; 7475,514;    0,980;    2,773
356,879; 7812,791;   -0,475;    1,227
357,472; 7444,569;    0,980;    1,500
358,065; 7617,246;    3,161;    2,500
358,658; 7579,539;    0,798;    2,318
359,251; 7266,951;    0,252;   -0,591
359,844; 6815,128;    0,343;   -1,136
360,437; 6969,172;    0,252;    0,045
361,030; 7241,837;    0,525;   -0,682
361,623; 6842,975;    0,434;    0,318
362,215; 6894,696;    0,979;    2,045
362,808; 6735,934;   -2,293;   -1,682
363,401; 6922,211;    0,798;    0,136
363,994; 6716,104;    3,252;   -1,500
364,586; 6637,829;    0,888;   -1,500
365,179; 6814,868;   -0,203;   -1,136
365,772; 6345,049;   -0,930;    2,045
366,364; 6604,680;    1,524;   -3,227
366,957; 6814,013;    1,342;   -0,045
367,549; 6808,743;   -0,203;   -0,864
368,142; 6495,633;    0,978;   -1,500
368,734; 6687,346;    2,523;   -2,136
369,327; 6654,383;    2,341;   -0,500
369,919; 6582,600;   -1,659;    0,409
370,512; 6390,997;   -1,023;   -0,500
371,104; 6175,785;    2,704;    1,591
371,696; 6332,411;    1,703;   -0,955
372,289; 6381,078;    0,157;    1,136
372,881; 6531,252;    1,156;    1,318
373,473; 6432,575;    4,064;    1,136
374,066; 6263,693;    1,336;    0,500
374,658; 6153,404;    0,879;    1,136
375,250; 6468,701;   -1,668;   -1,409
375,842; 6313,336;   -0,124;   -0,045
376,434; 6177,125;   -2,762;   -0,409
377,026; 6693,545;   -1,855;   -2,500
377,618; 6608,665;    0,779;   -0,682
378,210; 6477,448;    3,141;   -1,955
378,802; 6337,046;    3,412;   -0,591
379,394; 6315,918;    3,411;    0,682
379,986; 6848,232;    1,138;   -0,955
380,578; 6932,434;    1,410;    0,773
381,170; 6350,869;    0,320;    0,045
381,762; 6263,698;   -0,224;    1,409
382,354; 6443,411;   -0,223;   -1,318
382,945; 6546,266;    0,870;    0,318
383,537; 6686,858;    1,144;   -1,955
384,129; 6709,446;    0,963;   -1,136
384,721; 6866,768;    0,418;    0,955
385,312; 6780,970;   -1,399;   -0,955
385,904; 6871,124;   -0,945;    1,591
386,496; 6304,658;    0,691;    1,045
387,087; 6420,488;    0,418;    2,500
387,679; 6462,190;   -0,401;    0,045
388,270; 6587,674;   -2,401;    2,045
388,862; 6694,361;   -0,401;   -0,318
389,453; 6564,389;    1,054;    1,045
390,045; 6806,730;    3,236;   -2,682
390,636; 6728,639;    0,144;   -0,591
391,227; 6604,286;    2,054;   -0,045
391,819; 6712,110;    0,781;    0,773
392,410; 6775,854;    0,600;    0,045
393,001; 6729,473;    1,600;   -1,591
393,593; 6979,181;    0,600;   -0,045
394,184; 6811,068;    0,873;   -0,409
394,775; 6690,706;    1,146;    2,136
395,366; 6905,259;    1,782;    0,773
395,957; 6899,745;   -2,400;    0,136
396,548; 7185,106;    1,054;    2,682
397,139; 7465,039;    2,236;    0,591
397,730; 7214,642;    0,873;    0,955
398,321; 7258,773;    0,509;    0,955
398,912; 7292,991;   -0,764;    0,136
399,503; 7371,056;   -1,945;   -1,409
400,094; 6845,470;   -1,582;    1,682
400,685; 6733,880;    3,600;    0,045
401,276; 6777,867;   -0,400;   -0,955
401,867; 7084,103;   -1,127;    0,773
402,458; 7163,158;    1,509;   -2,318
403,048; 7157,592;    0,146;    0,591
403,639; 6796,972;    1,509;    0,864
404,230; 7037,300;    0,691;    0,318
404,821; 6964,602;   -0,127;    0,045
405,411; 7065,064;   -0,763;   -2,591
406,002; 6700,028;    3,237;   -1,136
406,592; 6584,138;    2,691;    0,045
407,183; 6844,557;    0,328;   -1,500
407,774; 6761,626;    1,419;   -0,136
408,364; 7066,701;    2,600;    0,409
408,954; 6715,900;   -0,036;    1,227
409,545; 6778,327;    1,873;    1,045
410,135; 6341,647;   -1,581;    0,500
410,726; 6448,163;    0,783;    0,318
411,316; 6814,261;    2,237;    0,773
411,906; 6503,003;    0,146;   -0,409
412,497; 6077,442;   -0,490;   -0,045
413,087; 6610,810;    0,783;   -0,227
413,677; 6957,368;   -2,490;    3,864
414,267; 6804,429;   -1,035;    1,409
414,857; 6832,848;    0,419;    4,227
415,448; 7087,182;   -0,763;    0,500
416,038; 6810,009;   -2,945;   -0,591
416,628; 6784,431;    0,965;    0,409
417,218; 6287,476;   -1,762;    3,318
417,808; 6555,441;    0,965;   -0,409
418,398; 6892,807;   -1,035;    2,682
418,988; 6945,224;   -2,217;    0,591
419,578; 7150,491;    3,601;    1,409
420,168; 7464,415;    0,692;   -0,955
420,757; 7081,660;    0,964;   -1,500
421,347; 6789,124;    1,601;   -0,227
421,937; 6898,210;    3,329;    1,409
422,527; 6859,755;    2,602;   -0,773
423,116; 6735,578;    2,692;   -0,045
423,706; 7027,372;    2,965;    0,318
424,296; 6994,233;    1,601;    0,682
424,885; 7375,142;    1,510;   -3,045
425,475; 7620,553;    1,147;   -2,864
426,065; 7555,437;   -1,489;   -0,318
426,654; 7208,347;    0,329;   -0,318
427,244; 7307,128;    1,147;    1,409
427,833; 6813,639;    1,056;   -0,500
428,423; 7224,283;    0,147;    1,136
429,012; 7906,260;    2,420;   -1,136
429,601; 7437,079;    2,057;    0,136
430,191; 7649,195;    2,511;    4,318
430,780; 7299,581;   -1,671;   -0,409
431,369; 7273,876;    1,329;   -0,045
431,959; 7824,976;    1,693;    0,500
432,548; 7613,663;   -1,398;   -0,045
433,137; 7727,138;    0,329;   -1,318
433,726; 8212,509;    0,148;    0,500
434,315; 7645,115;    0,148;    2,409
434,905; 7733,568;    0,693;    1,409
435,494; 7677,013;    3,148;    0,955
436,083; 8067,108;    1,420;   -0,955
436,672; 7953,582;    1,148;    0,500
437,261; 7565,005;    0,512;   -1,955
437,850; 7672,010;   -1,125;    0,682
438,439; 7632,662;    2,239;    1,955
439,027; 7507,949;    3,421;    1,773
439,616; 7814,369;    2,239;    1,227
440,205; 7676,837;    0,057;   -2,136
440,794; 7727,082;   -0,306;   -0,045
441,383; 7959,623;    1,603;   -0,591
441,971; 7827,798;   -0,306;    0,591
442,560; 7684,589;    0,603;   -1,773
443,149; 7425,946;    3,060;   -1,318
443,737; 7581,921;    0,968;   -2,318
444,326; 7823,435;    0,331;    0,318
444,915; 7862,472;   -1,851;    0,864
445,503; 8210,795;    0,058;   -0,318
446,092; 7551,263;    7,876;    2,136
446,680; 8070,674;    1,876;    0,318
447,269; 8203,007;   -1,487;   -0,318
447,857; 7985,586;    2,240;   -1,773
448,445; 8121,643;    2,149;    1,318
449,034; 8327,611;    0,876;   -1,136
449,622; 8406,681;    1,240;    3,500
450,210; 7730,139;    3,149;    2,227
450,799; 8218,173;    2,604;   -0,591
451,387; 8174,665;    1,786;   -0,591
451,975; 7874,351;   -1,305;    0,864
452,563; 7946,434;    0,422;    2,318
453,151; 7969,823;   -1,032;   -1,227
453,739; 7904,209;   -1,577;    0,136
454,328; 7773,369;    0,604;   -2,136
454,916; 7532,601;    1,150;   -0,136
455,504; 7727,758;    3,513;    1,227
456,092; 7889,146;    2,150;   -1,591
456,679; 7820,514;    0,604;    0,682
457,267; 7815,002;    3,604;    1,045
457,855; 7902,453;    3,241;    1,409
458,443; 7651,130;   -0,304;    1,682
459,031; 7827,445;    1,332;    2,409
459,619; 8250,514;   -3,577;    2,864
460,206; 8306,166;   -0,759;    2,045
460,794; 8390,076;   -0,668;   -0,227
461,382; 8592,832;    0,878;   -0,864
461,970; 8208,239;    0,605;    1,864
462,557; 8237,669;    0,878;   -0,682
463,145; 8381,604;   -0,304;   -1,682
463,732; 8517,476;    2,514;   -1,045
464,320; 8439,903;    1,514;   -3,045
464,907; 8152,251;    0,423;   -0,773
465,495; 8068,762;    2,696;   -1,227
466,082; 8206,807;    2,060;   -0,045
466,670; 8090,996;    2,605;    1,227
467,257; 8494,513;    0,060;    2,045
467,844; 8624,255;    1,514;    0,045
468,432; 8651,558;   -0,031;    3,500
469,019; 8207,309;    1,606;   -1,773
469,606; 8618,986;    0,969;    3,682
470,193; 8455,932;    2,151;    0,227
470,780; 8098,610;    0,333;    0,864
471,368; 8403,982;   -1,212;   -0,773
471,955; 8192,444;    1,060;   -0,682
472,542; 7870,738;   -0,303;   -1,136
473,129; 8063,749;   -0,485;    0,136
473,716; 7840,964;    0,060;    0,591
474,303; 8008,922;    1,333;   -0,864
474,890; 8288,501;    2,333;   -0,500
475,477; 8311,931;   -0,576;    0,409
476,064; 8206,593;    0,697;   -1,591
476,650; 8122,959;    2,152;    0,318
477,237; 7958,686;    1,879;    0,955
477,824; 8114,856;    3,879;    0,864
478,411; 8128,122;    0,606;   -0,318
478,997; 8316,274;    0,606;   -0,773
479,584; 8380,710;   -0,666;   -0,409
480,171; 8995,326;    1,243;   -0,773
480,757; 8684,144;   -0,848;    0,773
481,344; 8951,170;    0,334;    0,409
481,931; 8463,350;   -0,393;    1,045
482,517; 9349,702;    0,425;    0,318
483,104; 9768,595;    1,334;    2,864
483,690;10016,078;    0,243;    0,045
484,276;10311,820;    0,698;    0,227
484,863;10073,184;    2,152;    1,136
485,449;10602,713;    0,152;    0,318
486,035;10569,107;   -0,666;   -0,136
486,622;10964,185;   -2,393;    0,045
487,208;10925,504;    1,334;    1,500
487,794;10799,127;    0,971;    0,318
488,380;10874,049;    0,698;   -1,409
488,967;10929,864;   -1,120;   -0,409
489,553;11007,679;   -1,029;   -1,409
490,139;11190,614;    0,971;    0,773
490,725;10707,872;    0,789;   -0,227
491,311;10344,227;    1,516;    3,045
491,897; 9755,255;   -0,665;    1,500
492,483; 9625,109;    0,426;    1,227
493,069; 9444,602;    5,426;    0,864
493,655; 9401,043;    1,789;    0,682
494,241; 9359,125;    1,517;   -0,955
494,826; 9693,700;    0,335;   -1,045
495,412; 9200,542;    0,335;   -0,682
495,998; 9352,013;    0,971;   -0,318
496,584; 9409,037;    2,244;    1,045
497,169; 9392,873;    2,335;   -0,682
497,755; 9364,910;    1,244;    1,227
498,341; 9883,713;    2,153;    0,318
498,926; 9456,807;    2,881;    1,955
499,512; 9598,167;   -0,028;    2,955
500,097; 9681,337;   -0,574;   -0,318
500,683; 9650,499;   -0,028;    2,136
501,268;10032,935;    1,881;   -0,955
501,854; 9764,750;   -0,119;    1,227
502,439; 9691,069;   -0,573;   -1,773
503,024; 9860,740;    1,608;    0,500
503,610; 9922,008;    1,335;   -0,682
504,195; 9921,527;    1,245;    1,955
504,780;10020,850;    2,335;    1,227
505,366; 9840,068;    4,063;    2,864
505,951; 9598,428;   -1,119;    1,045
506,536; 9643,305;    1,427;   -3,682
507,121; 9636,399;    1,699;   -0,318
507,706;10102,791;   -0,392;    1,045
508,291;10428,498;   -2,937;    1,136
508,876; 9929,363;   -0,482;    2,591
509,461; 9419,169;    1,427;   -0,773
510,046; 9851,277;   -0,391;    0,318
510,631;10031,362;   -0,119;   -0,773
511,216; 9735,589;   -0,664;   -0,500
511,801;10081,946;   -0,755;    2,591
512,386;10325,898;    0,972;    0,500
512,971;10251,399;    0,427;    0,955
513,555; 9835,048;    1,154;   -1,500
514,140;10573,197;    1,336;   -3,136
514,725;10509,409;    1,791;   -1,136
515,309;10631,717;    1,064;    0,318
515,894;10158,533;   -0,300;   -2,227
516,479;10562,231;    1,973;   -0,955
517,063;10368,057;    0,882;    1,227
517,648;10528,337;    0,155;   -1,136
518,232;10160,692;   -1,300;   -1,409
518,817;10496,445;    1,337;    1,682
519,401;10717,820;    0,700;    0,591
519,985;10232,353;    2,700;    1,136
520,570;10098,724;   -0,118;   -1,955
521,154;10378,679;    0,064;    0,591
521,738;10485,816;    1,064;    2,409
522,323;11051,896;   -0,390;    1,682
522,907;10762,129;    2,428;   -0,136
523,491;10544,248;    1,155;    0,955
524,075;10532,273;    0,428;    0,591
524,659;10611,927;    0,973;    0,591
525,243;10147,139;    0,883;    0,409
525,827;10361,501;    0,883;   -0,045
526,411;11076,291;    1,155;   -0,136
526,995;11281,693;    0,337;    1,409
527,579;10901,096;    1,974;   -1,045
528,163;11151,328;    0,428;   -1,500
528,747;11077,342;    1,065;   -0,773
529,331;11330,743;    0,883;   -1,409
529,915;11488,400;    2,338;    0,955
530,499;11452,649;    0,247;    1,227
531,082;11207,592;    1,065;    1,591
531,666;10690,622;    0,520;    0,773
532,250;11286,186;    0,428;    2,682
532,833;11562,613;    0,610;    2,773
533,417;11442,412;    1,247;    0,864
534,001;11380,944;    0,429;   -0,318
534,584;12009,889;    1,974;    0,500
535,168;11851,386;    3,247;    1,409
535,751;11917,806;    4,520;    0,045
536,334;11360,525;    4,520;   -0,409
536,918;11944,884;    1,974;    1,591
537,501;12003,590;    1,520;    1,318
538,085;11992,533;    1,702;    1,045
538,668;12106,013;    0,883;    2,409
539,251;12371,584;    3,156;    3,773
539,834;12427,123;    0,156;    0,773
540,418;12346,738;    3,247;    4,318
541,001;12382,702;    2,702;    1,773
541,584;12364,780;    1,429;    2,227
542,167;12106,405;    0,702;    2,955
542,750;12241,875;    0,793;   -0,773
543,333;11848,702;    1,429;    2,136
543,916;12558,461;   -0,298;    2,500
544,499;13062,227;    2,520;    0,227
545,082;13042,686;    0,248;    3,591
545,665;13155,878;   -0,207;    1,500
546,248;13415,884;    0,520;   -0,318
546,830;13090,420;   -1,752;    1,955
547,413;13483,095;    0,157;   -0,773
547,996;13963,252;    0,157;    0,500
548,579;13765,416;   -0,843;    0,955
549,161;13592,330;    0,884;    2,682
549,744;13377,221;    0,612;    0,409
550,326;13833,270;    0,885;   -1,136
550,909;13597,952;    2,339;    0,591
551,492;13990,669;    0,521;    0,227
552,074;13761,534;   -0,024;   -1,318
552,657;14250,853;    2,430;    0,045
553,239;14078,930;   -3,024;   -0,773
553,821;13985,987;   -1,570;    1,045
554,404;13534,033;   -0,024;    1,136
554,986;13881,144;    2,248;    1,045
555,568;14371,129;    0,430;   -0,955
556,151;13666,882;    4,067;   -0,227
556,733;13849,340;   -1,388;   -0,864
557,315;14256,848;    4,703;    0,500
557,897;14048,363;    0,521;   -0,500
558,479;14143,436;    1,703;    1,318
559,061;14286,531;    1,067;   -0,864
559,643;14535,530;   -0,297;    0,045
560,225;14859,952;   -0,388;    2,864
560,807;14925,803;    0,340;    0,318
561,389;14475,017;   -1,206;    2,318
561,971;15059,944;   -0,660;    2,136
562,553;14939,442;    0,613;    1,591
563,135;15009,165;    1,249;    1,136
563,717;14637,163;    3,158;    1,136
564,298;15222,794;    3,976;   -0,045
564,880;14973,410;    0,340;   -1,409
565,462;15092,774;    1,977;    1,318
566,043;16096,311;   -0,933;    2,318
566,625;15659,877;    4,067;    1,227
567,207;15486,316;    0,704;    1,682
567,788;16413,665;   -0,114;    1,500
568,370;17132,388;   -1,841;   -0,500
568,951;16905,949;   -0,569;    0,227
569,533;17669,094;    0,977;   -0,500
570,114;18045,781;   -0,296;    0,682
570,695;18423,868;   -0,478;   -1,318
571,277;18757,979;   -0,205;   -1,682
571,858;19365,122;    2,704;   -1,136
572,439;20118,646;    0,795;   -1,045
573,021;20226,825;    0,432;   -2,773
573,602;20643,463;    1,795;    0,318
574,183;21411,166;   -0,114;    2,227
574,764;21411,206;    2,068;    0,409
575,345;21817,065;    0,250;   -0,136
575,926;22348,046;    2,704;    0,136
576,507;22330,575;    2,704;   -0,227
577,088;23311,097;    1,704;    1,682
577,669;23300,128;    1,704;    1,955
578,250;23881,620;   -0,750;   -1,045
578,831;24335,336;   -0,841;   -2,227
579,412;24553,608;   -1,205;    0,955
579,993;25370,794;    1,432;    0,227
580,573;25692,888;   -0,023;   -0,955
581,154;24691,676;    1,613;   -0,591
581,735;25478,580;    0,341;    0,773
582,315;24963,399;    0,523;    2,136
582,896;25262,478;   -1,750;    1,227
583,477;24823,246;    0,614;    1,227
584,057;24975,408;    1,159;    0,955
584,638;25256,067;   -2,750;    2,318
585,218;25246,268;    2,886;    2,682
585,799;25414,823;    1,977;   -0,227
586,379;25465,279;    1,250;    1,591
586,959;24417,212;    2,613;    0,318
587,540;23849,783;    0,432;    2,227
588,120;23454,581;   -1,113;   -0,045
588,700;22620,179;    2,977;    2,136
589,281;22899,205;    1,250;   -0,955
589,861;22784,556;   -0,296;   -1,682
590,441;22638,799;   -1,477;   -2,682
591,021;21742,634;    1,432;   -2,591
591,601;22034,813;    0,431;    0,500
592,181;22113,284;   -1,296;   -0,773
592,761;21398,214;    2,250;    1,409
593,341;21428,665;    1,522;    0,045
593,921;21368,801;   -0,569;    1,591
594,501;21246,054;    1,250;    1,318
595,081;21125,321;    0,522;   -0,318
595,661;21451,339;    1,068;    0,955
596,240;21942,200;   -1,023;    0,136
596,820;21528,896;    2,613;    1,955
597,400;21603,152;    1,977;    0,773
597,980;21862,392;   -0,750;    1,045
598,559;21886,488;    0,341;   -0,227
599,139;21657,362;   -0,750;   -1,227
599,718;21536,089;    0,795;   -0,409
600,298;21803,875;   -2,387;    0,682
600,877;22025,692;    4,795;    1,409
601,457;22226,025;    0,340;    1,136
602,036;22165,652;    1,795;    2,045
602,616;22294,958;    2,250;    1,682
603,195;22610,500;    0,431;    3,500
603,774;22150,805;   -0,296;    2,045
604,354;22039,104;    2,522;   -0,500
604,933;21597,240;    0,250;    1,864
605,512;21707,290;    2,340;    0,591
606,091;21762,261;    1,886;    3,773
606,671;22589,890;    0,249;    0,773
607,250;21723,938;    1,431;    3,136
607,829;21906,332;    1,158;    3,227
608,408;21780,643;    4,613;    2,591
608,987;20937,296;    2,704;    3,409
609,566;21191,136;    0,341;   -2,500
610,145;21315,280;    2,885;    0,682
610,723;21683,855;    1,613;    6,864
611,302;20995,304;    1,067;    1,682
611,881;20571,590;    5,158;   11,227
612,460;21309,503;    0,795;    3,955
613,039;21710,766;    1,703;    2,045
613,617;20546,362;    0,886;    4,773
614,196;20693,254;    1,613;    1,227
614,775;21013,967;    1,249;    2,409
615,353;20939,266;   -1,660;    0,864
615,932;20778,816;    0,249;    2,409
616,510;21324,351;    0,158;    0,591
617,089;20860,002;    8,794;   17,591
617,667;20670,977;    4,885;    6,136
618,246;20561,798;   -1,115;    1,318
618,824;20702,509;    1,612;   -0,955
619,402;20268,670;    0,431;   -1,773
619,981;20697,671;    1,067;   -1,045
620,559;20610,928;    0,794;    1,682
621,137;20205,505;    3,067;    1,864
621,715;20179,172;    3,703;   -0,682
622,293;20095,685;    1,885;   -0,773
622,871;20588,757;    0,340;    0,500
623,450;20183,060;    0,430;   -0,864
624,028;20084,881;   -0,388;   -0,955
624,606;19734,682;    2,339;    1,682
625,183;20095,135;   -0,661;   -1,136
625,761;19761,065;    1,885;    1,136
626,339;20078,462;    2,339;    2,591
626,917;20415,507;    0,339;   -0,045
627,495;20429,104;    2,794;    1,318
628,073;19927,807;    5,248;    2,864
628,650;19646,005;    3,067;    2,136
629,228;20025,167;    1,248;    4,409
629,806;19471,690;   -0,024;    1,136
630,383;19708,570;    0,066;   -0,318
630,961;19546,895;   -2,206;   -0,955
631,539;19303,226;   -2,479;    0,227
632,116;18756,077;   12,703;   15,409
632,694;19294,437;    4,885;    6,500
633,271;19509,316;    1,975;    2,682
633,848;19460,113;    1,430;    2,045
634,426;19482,595;    1,521;    1,773
635,003;18725,148;   -0,207;   -0,409
635,580;19010,777;    1,884;    3,682
636,158;19529,619;    3,793;    1,227
636,735;19447,431;    3,339;   -0,500
637,312;19543,984;    0,521;   -0,682
637,889;19627,677;    2,248;   -0,682
638,466;19184,813;    0,066;   -0,409
639,043;19169,447;    1,702;   -1,136
639,620;19458,535;    0,611;   -0,955
640,197;19732,585;    1,612;    1,682
640,774;19892,850;    1,430;    1,136
641,351;20205,389;    0,612;    1,136
641,928;19703,654;    2,794;    1,409
642,505;19377,192;    0,794;   -0,500
643,082;19510,639;    1,885;    1,227
643,658;18664,905;    1,157;    1,500
644,235;19300,988;   -2,479;    2,500
644,812;19509,890;    1,794;    0,773
645,388;19283,337;    1,612;    1,409
645,965;19347,148;    1,521;    1,682
646,542;19430,959;    3,430;   -0,227
647,118;19428,769;    3,703;   -0,955
647,695;19660,762;    0,339;    1,136
648,271;19564,118;   -2,115;    0,500
648,848;19841,384;    0,248;    2,227
649,424;19711,831;    0,976;    1,318
650,000;19464,914;   -0,388;   -1,045
650,577;19303,907;    0,158;   -0,955
651,153;19670,627;   -1,115;    0,955
651,729;20528,256;    0,521;    0,864
652,305;20619,703;    1,339;    2,773
652,881;24009,696;   -1,297;    1,136
653,458;29365,416;    0,249;    0,227
654,034;32382,408;    0,703;    1,591
654,610;33526,310;    0,339;    0,773
655,186;34703,303;    1,612;    3,045
655,762;34373,204;   -1,842;    0,409
656,338;34410,742;    0,703;    0,136
656,913;35360,462;   -0,297;    0,409
657,489;34713,455;    0,249;   -0,318
658,065;34652,811;    0,794;   -1,591
658,641;35220,895;    2,158;   -0,864
659,217;34632,978;    2,067;    0,409
659,792;34189,244;   -1,751;   -0,409
660,368;34482,964;   -0,388;   -0,682
660,944;34471,047;    1,794;    1,227
661,519;30842,494;    0,522;    0,409
662,095;25963,123;   -0,206;    0,591
662,670;22194,480;   -0,206;   -0,136
663,246;21290,018;   -0,660;   -0,409
663,821;20738,192;    0,431;    1,682
664,396;20247,458;    0,613;    1,864
664,972;20441,359;   -0,660;   -0,500
665,547;20723,716;    3,794;    0,136
666,122;20731,617;    1,340;    0,318
666,698;20989,610;    2,431;    0,318
667,273;20392,057;    0,885;    0,136
667,848;21095,413;    0,340;    1,500
668,423;20863,224;    1,795;    2,318
668,998;21305,308;    0,976;   -0,682
669,573;21824,028;    2,067;   -1,500
670,148;21642,838;    1,885;   -0,682
670,723;21424,467;   -0,024;    0,318
671,298;21841,642;   -1,296;    1,045
671,873;21849,907;   -0,296;   -0,136
672,448;21833,900;    1,704;    0,136
673,023;22111,892;    0,249;   -0,227
673,597;22408,158;    2,704;    2,318
674,172;22204,241;    2,431;    0,318
674,747;21748,325;   -0,205;   -1,045
675,321;21565,499;   -0,933;    3,318
675,896;21202,856;    2,158;    1,045
676,471;22063,030;    2,522;    1,591
677,045;21829,750;   -0,296;    0,682
677,620;21868,106;    2,158;    1,136
678,194;22223,644;    0,249;    1,136
678,769;21867,910;    0,886;   -0,318
679,343;22044,993;   -0,023;    1,773
679,917;21899,077;    0,340;    1,955
680,492;21929,978;    0,249;    3,227
681,066;22050,698;    0,613;    0,409
681,640;22085,691;    1,795;   -0,318
682,214;22782,775;    2,340;    0,500
682,788;22378,767;    0,613;   -0,773
683,363;22285,123;    1,977;    1,682
683,937;22032,298;    0,886;   -0,318
684,511;22705,200;   -1,023;   -0,591
685,085;22416,738;   -1,478;    0,318
685,659;22195,185;    1,431;    0,864
686,232;22394,996;    1,159;   -0,318
686,806;22150,988;    2,159;    0,409
687,380;22748,436;   -1,932;    0,591
687,954;22985,337;    2,432;    1,136
688,528;22646,603;    2,613;    1,955
689,101;23367,595;    0,432;    1,045
689,675;22946,497;    0,886;   -0,136
690,249;22393,126;    3,432;    0,409
690,822;22726,937;    1,159;    0,318
691,396;22822,020;    2,068;    1,227
691,969;22316,922;    2,523;    0,136
692,543;22779,278;   -0,568;   -1,955
693,116;22452,271;   -0,659;   -1,409
693,690;22295,173;   -0,296;    0,500
694,263;22760,711;    2,341;    2,955
694,836;22783,249;    2,795;    3,591
695,410;21537,151;    1,159;    1,773
695,983;21982,870;    1,614;    0,591
696,556;21981,499;   -0,750;   -1,045
697,129;22360,674;   -1,114;    1,409
697,703;22004,394;    1,341;    1,955
698,276;22005,296;    1,705;   -0,773
698,849;21804,379;   -1,023;    1,409
699,422;22161,190;    1,250;    0,591
699,995;21914,364;   -0,659;    0,136
700,568;22364,266;   -0,204;    3,045
701,140;22386,441;   -1,841;    1,682
701,713;22161,433;    0,341;    2,409
702,286;21900,062;    0,796;    0,864
702,859;21799,237;    0,614;   -0,591
703,432;21071,502;   -0,841;    0,682
704,004;21481,040;    1,978;    0,318
704,577;21302,851;    1,068;    0,136
705,150;21848,662;    0,887;    2,500
705,722;21696,109;    1,523;   -3,227
706,295;21504,465;    1,432;   -0,591
706,867;21359,821;    0,250;    1,955
707,440;21609,450;   -0,113;   -0,409
708,012;21846,170;   -0,022;    0,591
708,584;21726,072;    2,705;    0,227
709,157;21982,974;    1,160;   -0,591
709,729;21670,148;    1,069;    2,045
710,301;22469,686;   -1,204;    0,045
710,874;22450,315;    0,341;   -0,227
711,446;21393,672;   -0,295;    0,864
712,018;21296,301;   -3,022;    0,500
712,590;21090,293;   -0,204;    1,682
713,162;21535,377;   -0,477;    1,318
713,734;21831,733;    1,796;   -2,045
714,306;21730,544;    0,342;   -0,409
714,878;20524,264;   -0,295;    0,864
715,450;21303,075;   -0,113;    0,864
716,022;21531,976;    2,433;    1,318
716,593;21660,787;    0,978;    0,591
717,165;21617,961;    1,796;   -1,227
717,737;21383,500;    0,796;    0,409
718,309;21076,038;    1,160;   -0,045
718,880;21027,485;   -1,295;   -1,409
719,452;21258,659;    0,887;   -1,591
720,024;20911,379;    1,705;   -0,591
720,595;21413,190;    2,978;    0,955
721,167;21003,274;    1,160;   -2,045
721,738;20569,266;    2,069;   -1,045
722,309;20582,441;    1,251;   -1,227
722,881;20373,706;    2,705;    0,773
723,452;20927,880;    1,251;    2,864
724,023;21081,146;    1,524;    2,682
724,595;20891,775;    2,342;    0,682
725,166;20621,586;    1,524;   -0,409
725,737;20319,942;    1,887;    0,227
726,308;20376,298;    0,797;    0,318
726,879;20785,564;    1,069;    1,227
727,450;20648,920;   -2,022;   -0,045
728,021;20632,912;    1,069;    0,682
728,592;20496,996;    1,160;    0,500
729,163;20783,807;    1,433;   -0,136
729,734;20756,981;    2,160;   -0,227
730,305;21103,337;    0,615;    0,136
730,876;21369,966;    0,888;    2,955
731,447;21079,505;    0,797;    2,682
732,017;21202,770;   -0,840;    1,864
732,588;20758,399;   -0,021;    1,227
733,159;20860,573;    3,615;   -1,045
733,729;20709,475;    1,251;    0,409
734,300;20093,013;    0,160;    0,864
734,870;20459,369;   -1,385;    0,591
735,441;21017,362;    0,888;   -0,591
736,011;20768,537;    1,070;   -1,591
736,582;20720,711;    1,251;    0,045
737,152;20200,340;    0,979;   -2,045
737,722;20609,787;    1,070;   -0,682
738,293;20322,689;   -2,021;    1,318
738,863;20292,409;    1,797;    2,318
739,433;20132,220;    4,524;    0,318
740,003;20757,030;    1,524;   -0,682
740,573;20177,569;    2,252;   -1,591
741,143;20166,107;    3,615;    0,318
741,713;20852,372;    0,252;   -0,500
742,283;20598,001;    1,706;    1,591
742,853;20414,721;    0,524;    1,591
743,423;19936,168;    0,161;    0,045
743,993;19983,252;    1,070;    1,500
744,563;19451,062;    2,524;   -0,864
745,133;19444,873;   -0,112;   -0,864
745,702;20092,866;    2,797;    1,773
746,272;19343,313;    0,434;    0,591
746,842;19129,851;   -0,748;   -0,591
747,411;19528,389;   -0,839;   -0,318
747,981;19693,745;   -0,930;    0,500
748,551;19746,284;   -0,021;   -1,045
749,120;19585,276;   -0,112;   -0,227
749,690;19907,905;    2,161;    2,409
750,259;20248,352;    0,979;    2,955
750,828;20163,800;    4,070;   -1,955
751,398;20355,338;   -0,112;   -0,045
751,967;19946,058;    2,888;    0,409
752,536;20143,414;    1,161;   -0,227
753,105;20545,588;   -1,384;    0,227
753,675;20286,581;   -0,112;    1,773
754,244;20192,392;    0,888;    3,591
754,813;20252,930;    0,979;    1,227
755,382;19870,559;    0,798;    0,955
755,951;20333,279;   -0,112;    3,682
756,520;19925,999;    2,525;    1,864
757,089;20431,082;    1,888;    0,500
757,658;20521,166;    2,434;    1,227
758,227;20569,340;   -1,111;    0,318
758,795;20797,333;   -1,021;    1,136
759,364;21075,507;    0,525;   -0,591
759,933;20154,954;    1,343;   -0,045
760,501;19726,311;    0,252;   -1,318
761,070;20149,121;   -0,293;   -1,409
761,639;20821,205;    1,434;    1,318
762,207;20174,743;    0,889;   -0,955
762,776;20055,918;    2,889;    0,864
763,344;20072,183;    0,071;    0,591
763,913;19235,539;    1,616;    1,409
764,481;19921,441;    1,980;   -0,136
765,049;19822,252;    0,616;    1,409
765,618;19716,790;    1,434;    0,318
766,186;19803,692;    2,434;    0,136
766,754;19965,684;    1,798;    1,864
767,322;19055,040;    1,162;    0,409
767,890;19056,669;    0,525;   -1,773
768,459;19460,662;    2,616;   -0,318
769,027;19597,746;    2,525;    3,409
769,595;18679,829;    2,616;    2,591
770,163;19076,367;    3,344;    2,955
770,730;18885,633;    2,525;   -0,136
771,298;18754,171;    1,162;   -1,409
771,866;18864,345;    0,253;    4,955
772,434;19152,065;    1,162;   -1,864
773,002;19356,694;    2,616;    0,682
773,569;18991,050;    1,071;    1,682
774,137;18791,316;    0,889;   -0,045
774,705;19534,672;   -0,747;   -0,136
775,272;19105,755;    0,253;    0,682
775,840;18943,112;   -0,111;    2,682
776,407;18510,741;   -0,293;    1,955
776,975;18085,824;    1,162;    0,318
777,542;19089,090;    2,162;   -0,045
778,110;18949,264;    0,707;   -0,045
778,677;18635,984;    1,071;   -0,864
779,244;18423,886;   -1,020;    1,045
779,812;18483,606;    0,980;    0,864
780,379;18355,507;    2,435;    1,136
780,946;18573,227;    2,617;   -0,773
781,513;18872,674;   -0,565;    0,318
782,080;18314,394;    1,253;    2,864
782,647;18962,841;    1,708;    3,045
783,214;18632,198;   -0,201;    3,864
783,781;18267,554;    1,708;   -0,682
784,348;18173,910;    0,253;    1,500
784,915;18568,539;   -1,474;    0,318
785,482;18332,259;    2,708;    2,591
786,049;18754,434;    1,071;   -0,591
786,615;18866,335;    1,708;   -0,955
787,182;18607,873;   -3,201;   -0,682
787,749;18340,775;   -2,201;    1,409
788,315;17731,041;    0,253;   -0,409
788,882;18012,033;    0,981;   -1,227
789,448;18628,117;    1,435;   -0,955
790,015;18685,655;    1,799;    3,227
790,581;18283,829;    0,708;    0,227
791,148;18167,276;    1,344;    1,045
791,714;18383,360;   -1,019;    3,136
792,280;18071,443;    3,708;    1,591
792,847;17757,163;   -0,928;    2,500
793,413;18205,156;   -0,110;   -0,318
793,979;17823,967;    1,526;   -1,318
794,545;17922,414;    2,981;    2,682
795,111;17423,225;    2,435;    1,318
795,678;17538,763;    3,526;   -1,682
796,244;17224,028;    2,799;    0,136
796,810;17712,385;    0,799;    0,773
797,375;17456,559;   -0,292;   -2,136
797,941;17500,733;   -1,110;    0,591
798,507;17648,453;    0,254;   -0,955
799,073;17233,537;    2,708;    0,591
799,639;17317,530;    1,435;    3,136
800,205;17341,340;   -1,565;    2,682
800,770;16960,333;    1,345;    1,773
801,336;16965,780;    2,981;   -0,955
801,901;16770,227;    6,072;    3,136
802,467;17273,584;    0,526;    2,045
803,033;16685,394;   -0,019;    0,864
803,598;16849,569;    1,072;   -1,045
804,163;16923,198;    0,708;   -0,318
804,729;16881,554;   -0,110;    1,136
805,294;17200,819;    1,072;    2,227
805,859;17017,085;    0,890;   -0,409
806,425;16599,350;    3,890;    2,682
806,990;16247,252;    1,890;    4,318
807,555;16688,790;   -0,110;    2,591
808,120;16635,783;   -1,292;   -0,409
808,685;16670,321;    1,072;   -2,500
809,250;16250,677;    2,072;   -0,500
809,815;16482,397;   -0,201;    0,682
810,380;16984,662;    0,981;    1,591
810,945;17431,109;    2,890;    2,045
811,510;16731,375;   -0,200;    1,591
812,075;16455,095;    2,800;   -1,409
812,640;16506,269;    3,709;    1,409
813,204;16556,898;    2,163;   -0,227
813,769;17032,800;    0,254;   -0,045
814,334;16514,793;    0,527;    0,864
814,898;16562,967;    1,981;    0,591
815,463;16415,687;    0,981;   -0,773
816,027;16374,134;    1,345;   -2,318
816,592;16514,763;    2,163;   -2,045
817,156;16086,119;   -2,200;    1,136
817,721;15945,021;    0,982;    2,318
818,285;15892,923;    0,618;    1,500
818,849;16489,552;   -0,018;    1,682
819,414;16402,908;    0,073;    2,955
819,978;16012,082;   -0,291;    1,773
820,542;16560,621;    2,891;    0,500
821,106;16376,522;    2,800;    0,682
821,670;16419,697;    2,709;    2,591
822,234;16157,235;    1,073;    1,409
822,798;15632,046;   -0,836;    0,500
823,362;15622,493;    1,527;    4,227
823,926;15075,667;   -0,018;    1,136
824,490;15227,478;    3,527;   -0,682
825,054;15612,016;    2,527;   -1,136
825,618;15363,282;   -1,200;   -1,500
826,181;15307,638;    0,982;   -1,318
826,745;15234,358;   -0,745;   -1,045
827,309;15528,078;    2,255;    1,318
827,872;15040,070;    0,527;    0,955
828,436;15871,336;    1,982;   -0,773
828,999;16020,965;    2,436;    1,227
829,563;15008,139;   -0,654;    1,136
830,126;14807,404;   -0,018;   -0,591
830,690;14809,852;    0,709;    2,864
831,253;14373,662;   -0,473;    2,227
831,816;14497,655;   -0,018;    0,500
832,380;14456,466;    1,164;    0,864
832,943;14674,549;    3,073;   -0,500
833,506;14195,451;    0,255;   -1,227
834,069;14925,080;    2,164;   -0,955
834,632;15002,891;   -2,200;    1,318
835,195;14911,702;    1,346;    0,955
835,758;14233,240;    0,709;    1,955
836,321;14084,778;    1,073;   -1,045
836,884;14175,952;   -1,291;   -0,955
837,447;14210,945;    0,528;    1,773
838,010;14455,665;    1,800;    3,227
838,573;14712,112;    0,528;    0,773
839,135;14695,468;   -0,109;   -0,955
839,698;14213,370;    2,528;    0,409
840,261;13768,817;    0,255;   -0,227
840,823;13656,446;   -0,927;    0,864
841,386;13940,348;   -0,018;   -2,409
841,948;13841,068;    0,255;    1,773
842,511;13634,788;    0,255;    1,682
843,073;13730,235;    2,982;    0,227
843,636;13556,864;    0,619;   -0,227
844,198;13504,402;    1,255;    0,591
844,760;13671,486;    0,619;    1,955
845,322;13354,842;    0,164;    1,136
845,885;13690,380;   -0,290;    0,591
846,447;14093,736;    0,710;    0,227
847,009;13735,729;    3,983;   -0,682
847,571;14003,903;    1,346;   -2,045
848,133;14073,441;   -0,199;   -1,864
848,695;13900,889;    2,346;    1,409
849,257;13517,336;    1,346;   -1,682
849,819;13678,783;    2,983;   -0,409
850,381;13661,412;    1,801;   -0,864
850,942;14015,223;    1,892;   -0,591
851,504;13934,761;    0,983;    0,227
852,066;13940,572;    1,619;   -1,591
852,628;13626,019;    0,165;    1,955
853,189;13177,557;    0,256;    2,682
853,751;13310,004;   -0,654;    1,409
854,312;13120,542;    1,256;   -1,682
854,874;13552,717;   -0,108;   -0,773
855,435;14003,255;    0,528;   -1,682
855,997;14165,884;    3,983;   -0,136
856,558;13515,604;    0,801;    1,773
857,119;13607,596;   -0,744;    2,864
857,681;13351,771;   -0,108;    0,318
858,242;13360,218;    1,347;   -2,136
858,803;13778,483;    1,074;   -0,773
859,364;14297,567;    0,892;   -4,773
859,925;13727,741;   -0,290;   -0,955
860,486;13664,916;    0,529;   -0,955
861,047;13350,636;    0,165;   -1,227
861,608;13190,992;    0,165;   -0,773
862,169;13382,257;   -0,562;   -0,045
862,730;13148,704;   -0,290;    1,409
863,291;13394,788;    0,438;   -0,500
863,852;13676,053;   -0,926;    1,955
864,412;13255,228;   -1,835;   -0,864
864,973;12003,129;    1,892;    0,500
865,534;11878,122;    2,074;    0,227
866,094;13172,206;    2,620;    0,227
866,655;12885,471;    4,711;    3,318
867,215;13159,191;    0,074;    0,136
867,776;13038,456;   -1,199;   -0,136
868,336;13095,176;    1,529;    0,136
868,897;12676,169;    3,438;    1,682
869,457;12487,343;    3,256;    0,318
870,017;12700,972;    2,438;   -1,227
870,578;13140,328;    1,893;    0,773
871,138;12775,321;    2,620;   -0,955
871,698;12409,677;   -0,562;   -1,318
872,258;12318,852;    0,711;   -2,864
872,818;12682,481;    2,347;    0,045
873,378;12661,292;   -2,198;    1,045
873,938;12222,284;    4,984;    0,500
874,498;12485,913;    1,256;   -1,955
875,058;12418,360;    4,347;    1,773
875,618;12303,535;    1,438;   -2,682
876,177;12236,073;   -0,471;    0,136
876,737;11862,520;   -0,289;    1,955
877,297;11937,149;    2,711;    1,955
877,856;11980,324;    2,529;    0,318
878,416;11896,953;    2,438;   -0,136
878,976;12087,945;    3,438;    0,409
879,535;12259,574;    4,529;    3,136
880,095;12028,203;    1,347;    0,045
880,654;12137,014;    0,347;    1,318
881,213;12280,825;    2,347;    1,500
881,773;11951,545;    1,984;    2,682
882,332;12251,537;    6,075;    5,136
882,891;12128,530;    0,711;    2,136
883,451;12514,704;   -2,016;    1,682
884,010;12039,061;   -1,107;   -0,409
884,569;12105,144;   -2,289;   -0,045
885,128;12191,137;   -0,743;   -1,864
885,687;12246,584;   -0,743;    0,682
886,246;12032,486;    2,620;    2,136
886,805;11802,842;    1,620;    2,045
887,364;12047,107;    1,166;   -0,500
887,922;12362,646;   -0,016;    0,045
888,481;11861,002;    1,530;    0,591
889,040;12176,813;    3,711;    2,136
889,599;12699,987;    2,166;    1,409
890,157;12771,161;    2,166;    2,409
890,716;12382,972;    2,166;    0,227
891,274;12197,783;    0,075;   -1,136
891,833;12600,594;    1,166;    0,864
892,391;12511,859;    1,802;    0,500
892,950;12563,579;    0,166;   -0,773
893,508;12868,845;    0,984;   -0,409
894,067;12290,019;   -0,379;    0,136
894,625;12223,284;   -1,016;   -1,500
895,183;12424,913;   -0,198;   -0,682
895,741;12374,451;    2,257;   -1,773
896,299;12212,899;    1,621;   -2,409
896,858;12392,164;    1,530;   -1,591
897,416;12514,248;    0,166;   -1,318
897,974;12292,331;   -2,197;    0,318
898,532;12442,233;    6,530;    2,682
899,089;12365,316;    0,621;   -0,682
899,647;12410,218;    0,530;    1,318
900,205;12240,483;    0,257;    1,045
900,763;12392,112;    2,166;    0,227
901,321;12418,923;    3,530;   -1,409
901,878;11917,461;    3,257;   -0,773
902,436;11803,363;    0,257;    1,318
902,994;12174,083;    6,712;    3,682
903,551;11691,530;    1,439;    0,409
904,109;12087,341;    1,530;   -1,409
904,666;11718,152;    1,439;    1,045
905,224;11576,690;    3,894;   -0,409
905,781;11365,773;   -0,470;   -0,318
906,338;11440,130;    0,167;    1,045
906,895;11386,577;    1,894;    2,045
907,453;11293,024;    2,348;    1,136
908,010;11325,653;    3,348;    0,409
908,567;11037,646;   -0,561;    0,591
909,124;10608,547;    2,439;   -1,500
909,681;10702,176;   -1,288;    0,682
910,238;10886,078;   -0,106;   -1,318
910,795;11182,980;   -1,561;   -1,136
911,352;10830,798;   -0,379;   -2,682
911,909;10343,162;    2,803;   -0,864
912,466;10817,889;    1,985;    1,500
913,022;10369,980;   -0,924;    0,500
913,579;10716,616;   -0,470;    2,045
914,136;10495,343;   -2,561;    0,955
914,692;10800,434;    1,530;   -1,227
915,249;10410,889;    0,530;    0,409
915,806;10608,253;    1,803;    1,955
916,362;10462,253;    0,894;    1,864
916,918;10042,980;    2,439;    1,045
917,475;10077,071;    1,621;    0,955
918,031;10128,707;    0,076;   -0,045
918,587; 9689,434;    0,621;   -0,318
919,144; 9938,434;   -0,379;    0,227
919,700;10168,889;    0,167;    0,773
920,256; 9776,707;    0,439;    0,045
920,812; 9532,798;    1,439;   -1,045
921,368; 9592,162;    1,348;   -1,045
921,924; 9229,071;    0,439;   -0,136
922,480; 8877,889;    0,076;    1,227
923,036; 9441,889;   -0,652;    1,955
923,592; 9399,889;    0,621;    0,318
924,148; 9355,253;    1,894;   -0,955
924,704; 8774,343;    0,258;   -0,409
925,259; 9054,798;   -0,561;    0,591
925,815; 8825,071;    3,803;    0,500
926,371; 8436,343;    3,530;    1,409
926,926; 8380,071;    1,621;    0,591
927,482; 8114,071;    1,621;    0,773
928,037; 8014,343;   -0,833;    2,045
928,593; 8286,162;    0,258;    1,045
929,148; 8129,253;    1,167;   -1,500
929,704; 7738,071;    2,439;   -0,500
930,259; 7934,253;    0,894;   -0,136
930,814; 7211,253;    1,803;    1,955
931,369; 6988,525;    0,258;   -0,773
931,925; 6908,253;   -1,924;    0,136
932,480; 6815,434;    3,076;   -2,591
933,035; 6780,434;    3,985;   -0,318
933,590; 6602,980;   -1,742;   -1,773
934,145; 6333,434;   -1,288;   -0,318
934,700; 6618,980;    0,348;   -0,591
935,255; 6487,889;    4,803;    0,045
935,809; 5978,071;    6,258;    0,864
936,364; 5265,798;    2,167;   -0,136
936,919; 5303,343;    2,348;   -1,773
937,474; 5230,162;    1,348;    0,136
938,028; 5033,162;    3,076;    1,136
938,583; 4699,162;    6,348;    4,682
939,138; 4921,798;    0,167;    2,136
939,692; 4464,798;   -1,015;   -1,136
940,247; 4246,162;    1,167;   -1,045
940,801; 3973,525;    0,621;    0,227
941,355; 3935,253;    0,439;    2,591
941,910; 3622,889;    0,712;   -2,136
942,464; 3722,616;    2,712;   -0,318
943,018; 3631,253;    3,258;   -0,227
943,572; 3567,253;    2,803;   -0,682
944,126; 3136,071;   -0,924;   -0,409
944,681; 3020,798;    0,712;    0,227
945,235; 3007,343;    2,167;   -0,591
945,789; 2964,889;    1,258;   -1,864
946,342; 3131,525;   -0,561;   -0,591
946,896; 2900,162;    0,348;    0,955
947,450; 2710,707;   -0,561;   -0,227
948,004; 2950,162;    1,076;   -0,045
948,558; 2914,162;    1,258;   -0,864
949,111; 2842,162;   -1,197;   -0,318
949,665; 2939,798;   -0,106;   -0,682
950,219; 2842,434;    0,621;   -1,045
950,772; 2879,980;    0,258;    1,864
951,326; 2808,343;   -1,106;   -0,955
951,879; 2827,889;    1,076;   -2,318
952,433; 2886,889;    1,348;    2,227
952,986; 2729,253;    0,348;    0,682
953,539; 2666,707;    1,530;    0,591
954,093; 2617,434;    0,985;   -1,318
954,646; 2756,162;   -0,288;    1,318
955,199; 2588,434;    1,258;   -0,500
955,752; 2580,798;    1,985;    1,773
956,305; 2504,707;    0,894;    2,955
956,858; 2637,343;    0,621;   -0,318
957,411; 2783,162;    3,621;    2,136
957,964; 2597,980;    2,076;    2,136
958,517; 2599,525;    0,985;    3,136
959,070; 2473,162;   -1,197;    1,955
959,623; 2630,889;    1,076;    1,500
960,176; 2427,616;    0,712;    2,045
960,728; 2404,071;    1,712;    0,773
961,281; 2445,707;    2,258;    0,500
961,834; 2454,798;   -0,833;    0,864
962,386; 2384,798;    1,258;    1,045
962,939; 2308,707;    3,439;   -0,318
963,491; 2436,980;    2,621;    1,136
964,043; 2333,889;    0,076;    2,409
964,596; 2471,343;    1,712;    2,227
965,148; 2323,525;   -0,379;    1,773
965,700; 2243,980;   -0,015;   -0,227
966,253; 2387,071;   -0,833;    0,318
966,805; 2272,253;    1,894;    0,773
967,357; 2280,434;    0,439;   -1,500
967,909; 2296,162;    1,167;   -1,227
968,461; 2319,071;    0,894;    3,136
969,013; 2270,343;   -1,561;   -0,864
969,565; 2341,253;    1,803;   -1,136
970,117; 2536,889;    3,803;    1,045
970,669; 2280,707;    3,258;   -0,136
971,220; 2122,798;    2,167;   -1,500
971,772; 2085,343;    1,348;   -0,318
972,324; 2227,980;   -1,197;   -0,500
972,876; 2149,616;    0,167;   -0,045
973,427; 2305,071;   -1,197;   -1,045
973,979; 2302,616;    0,076;   -2,500
974,530; 2254,525;    0,803;    1,318
975,082; 2269,525;    2,167;    1,682
975,633; 2199,980;    2,894;    1,682
976,184; 2337,434;    2,076;    0,773
976,736; 2192,434;    0,348;    0,227
977,287; 2039,707;    0,258;   -0,500
977,838; 2178,707;   -0,924;   -0,318
978,389; 2201,889;    0,803;   -0,500
978,940; 2057,071;    1,258;   -0,409
979,491; 2074,616;    2,258;   -0,500
980,042; 2075,162;   -0,652;    3,045
980,593; 2100,253;    1,894;    0,227
981,144; 2203,889;    3,530;   -0,500
981,695; 2232,798;   -0,470;    1,500
982,246; 2165,343;   -1,833;    1,045
982,797; 2215,253;   -0,561;    0,682
983,347; 2326,162;    2,167;    0,591
983,898; 2522,525;    4,167;    0,409
984,449; 2385,525;    2,530;    0,773
984,999; 2226,253;    1,894;   -1,136
985,550; 2089,071;    3,167;   -0,318
986,100; 2058,980;    0,712;   -0,318
986,651; 2067,434;    0,258;    0,045
987,201; 2080,889;    0,894;   -0,591
987,751; 2145,343;   -0,288;    2,864
988,302; 2151,889;   -0,379;    1,500
988,852; 2146,253;    1,985;   -1,136
989,402; 2230,071;    0,985;    0,682
989,952; 2195,616;    1,621;    0,864
990,502; 2218,343;    1,076;    0,682
991,052; 2137,434;   -0,106;    0,045
991,602; 2050,889;    1,167;    1,318
992,152; 2080,343;    2,803;    0,682
992,702; 2063,798;    1,167;   -0,045
993,252; 1990,707;    0,076;   -0,500
993,802; 2109,525;    1,167;    1,318
994,352; 2248,071;   -0,742;    1,136
994,901; 2285,707;    1,076;    3,227
995,451; 2232,889;   -1,197;    0,318
996,000; 2302,980;    1,076;    0,318
996,550; 2092,798;    2,894;    0,227
997,100; 2092,889;   -0,561;   -0,045
997,649; 2356,616;   -0,197;    0,955
998,198; 2058,798;   -0,288;   -1,500
998,748; 2244,343;    0,348;   -2,318
999,297; 2116,343;    0,985;   -0,409
999,846; 2214,798;    1,894;   -0,773
1000,395; 2215,343;    1,530;    0,500
1000,945; 2243,253;    1,076;   -0,773
1001,494; 2303,798;    0,167;    0,682
1002,043; 2259,525;    0,712;    0,864
1002,592; 2092,434;    3,439;    1,955
1003,141; 2208,253;    2,439;   -0,682
1003,690; 2142,980;    1,258;    0,500
1004,238; 2145,525;   -0,106;   -0,045
1004,787; 1871,162;   -1,288;    1,227
1005,336; 2128,434;    1,621;    0,682
1005,885; 2180,434;   -0,197;   -2,773
1006,433; 2261,798;   -0,470;    0,955
1006,982; 2412,434;    2,167;    1,682
1007,531; 2264,162;    2,712;   -0,227
1008,079; 2193,798;    0,258;    0,500
1008,627; 2299,889;    1,621;    0,409
1009,176; 2110,343;    0,076;   -1,955
1009,724; 2147,162;   -2,742;    0,864
1010,273; 2240,434;    1,076;    0,500
1010,821; 2275,162;    1,076;    1,409
1011,369; 2053,525;    0,076;    1,318
1011,917; 2061,343;   -0,833;   -0,591
1012,465; 2292,616;    2,530;   -1,591
1013,013; 2353,162;    0,439;   -1,682
1013,561; 2316,889;   -1,288;   -0,773
1014,109; 2383,525;   -0,833;    1,682
1014,657; 2247,616;    1,348;    0,591
1015,205; 2314,616;    0,894;   -0,955
1015,753; 2289,253;    0,258;   -1,409
1016,301; 2341,434;    2,621;    3,045
1016,848; 2374,162;    2,167;    0,409
1017,396; 2401,798;    1,621;    0,045
1017,944; 2491,980;    2,621;    1,864
1018,491; 2272,889;   -0,197;    1,409
1019,039; 2537,616;   -0,652;    0,591
1019,586; 2367,798;    0,076;    1,682
1020,134; 2421,071;    0,712;    1,500
1020,681; 2466,253;    2,894;   -1,136
1021,228; 2427,253;   -0,561;   -2,227
1021,776; 2286,071;   -0,833;   -1,136
1022,323; 2552,253;    0,803;    0,773
1022,870; 2474,071;   -0,470;   -0,045
1023,417; 2418,071;    2,076;    1,864
1023,964; 2447,616;    0,621;    1,227
1024,511; 2366,525;   -0,652;    0,773
1025,058; 2193,253;    0,439;   -0,045
1025,605; 2234,071;   -1,742;    3,136
1026,152; 2475,343;   -0,106;   -0,591
1026,699; 2225,616;    0,167;    1,318
1027,245; 2336,434;    2,439;    0,318
1027,792; 2467,434;    0,712;    1,409
1028,339; 2467,162;    4,076;   -0,045
1028,885; 2304,980;    3,621;   -0,227
1029,432; 2235,980;   -0,106;    0,227
1029,978; 2326,980;    1,348;   -1,591
1030,525; 2233,980;    1,621;    0,409
1031,071; 2388,343;    0,348;    1,136
1031,618; 2583,071;    1,258;    1,682
1032,164; 2360,071;    2,076;    3,045
1032,710; 2397,071;    0,076;   -1,500
1033,256; 2306,525;    0,712;   -0,136
1033,803; 2241,707;   -0,288;    1,500
1034,349; 2027,707;    1,803;    0,136
1034,895; 2153,980;    2,621;   -0,318
1035,441; 2158,616;    0,439;    0,318
1035,987; 2182,980;   -2,288;   -0,682
1036,533; 2218,707;   -0,197;   -0,955
1037,078; 2427,798;    4,712;    1,682
1037,624; 2251,889;    2,439;   -0,955
1038,170; 2219,162;    1,712;   -0,318
1038,716; 2188,434;    2,167;   -0,409
1039,261; 2072,525;    2,167;   -0,773
1039,807; 2039,525;   -0,015;    3,409
1040,352; 2123,889;   -1,288;   -0,318
1040,898; 2139,889;    0,167;   -0,682
1041,443; 2049,162;    0,803;   -2,591
1041,989; 2188,434;    3,621;    1,591
1042,534; 2017,980;    0,985;    2,591
1043,079; 2050,343;    1,985;    0,955
1043,625; 1928,343;    0,258;    0,500
1044,170; 1993,434;    2,439;    1,045
1044,715; 2260,071;    0,167;    0,955
1045,260; 2074,253;   -0,833;   -0,955
1045,805; 2056,525;    0,258;   -0,591
1046,350; 1990,343;    0,530;   -0,409
1046,895; 2036,071;    0,803;    1,591
1047,440; 2010,162;    1,530;    0,409
1047,985; 1883,525;   -1,197;   -0,955
1048,530; 1803,889;    1,348;    1,227
1049,074; 1880,434;    2,803;    0,318
1049,619; 1834,616;   -0,924;    1,955
1050,164; 1685,980;    1,076;    0,227
1050,708; 1761,525;    2,621;    0,045
1051,253; 2144,525;    3,258;   -2,227
1051,797; 1855,798;   -0,197;   -1,318
1052,342; 1779,253;    1,348;    1,045
1052,886; 1804,798;    1,803;   -1,409
1053,430; 1693,889;    2,167;    0,136
1053,975; 1725,434;    0,894;   -0,318
1054,519; 1729,616;    1,803;    3,227
1055,063; 1779,798;    3,621;    1,318
1055,607; 1690,616;    1,348;    0,227
1056,151; 1697,616;    0,530;    1,682
1056,695; 1599,889;   -1,833;   -1,136
1057,239; 1653,798;   -1,197;   -0,682
1057,783; 1693,616;    2,258;   -1,500
1058,327; 1673,980;    3,076;    1,409
1058,871; 1910,253;    3,985;    1,318
1059,415; 1636,071;   -0,561;   -0,045
1059,958; 1918,707;    2,985;    2,591
1060,502; 1627,707;    1,348;   -0,773
1061,046; 1489,798;    1,712;   -0,955
1061,589; 1466,343;    2,803;   -1,136
1062,133; 1369,980;    0,985;    1,864
1062,676; 1366,616;    1,439;    0,864
1063,220; 1389,162;    0,985;    0,500
1063,763; 1409,980;    2,985;    1,136
1064,306; 1477,071;    0,985;    1,864
1064,849; 1396,707;    2,076;    0,591
1065,393; 1391,343;    2,894;   -1,500
1065,936; 1469,798;    2,530;   -0,409
1066,479; 1345,707;    2,621;    1,318
1067,022; 1373,253;    1,894;   -0,227
1067,565; 1294,980;   -1,197;   -1,318
1068,108; 1307,162;    1,258;   -0,591
1068,651; 1284,889;   -2,470;    1,409
1069,194; 1227,253;   -1,106;   -1,682
1069,736; 1237,798;    3,803;    0,955
1070,279; 1196,889;   -1,652;   -0,500
1070,822; 1284,434;    1,530;   -0,318
1071,364; 1403,071;    0,530;    1,318
1071,907; 1211,707;    0,348;    3,227
1072,450; 1081,343;    0,258;   -0,045
1072,992; 1114,253;   -0,561;    3,136
1073,535; 1253,253;    0,167;    2,136
1074,077; 1063,343;    2,985;    2,045
1074,619; 1050,798;    0,985;    0,591
1075,161; 1082,071;   -0,561;    1,500
1075,704; 1258,525;    0,258;    1,227
1076,246; 1051,525;    1,530;    0,682
1076,788;  973,343;   -1,015;    1,773
1077,330; 1028,434;   -2,106;    2,136
1077,872; 1029,707;   -1,924;    0,955
1078,414; 1278,071;    3,712;    0,773
1078,956; 1023,798;    0,167;   -0,227
1079,498; 1275,434;    0,439;    0,318
1080,040;  988,343;    0,985;   -1,318
1080,581;  929,162;    0,621;   -0,318
1081,123;  862,525;   -0,106;   -0,773
1081,665;  899,071;    3,803;   -0,955
1082,206; 1198,343;    3,258;   -0,500
1082,748; 1065,434;    3,258;    2,045
1083,289;  933,798;    0,167;    1,318
1083,831;  861,162;    0,258;    0,227
1084,372;  920,253;    0,894;    0,591
1084,913;  920,707;    3,348;    0,864
1085,455;  869,253;    1,530;   -2,045
1085,996;  861,162;    0,530;    0,136
1086,537;  886,980;    0,985;    0,864
1087,078;  909,071;    0,439;   -2,136
1087,619;  962,434;   -1,652;    0,227
1088,160;  881,889;    1,439;    1,318
1088,701;  861,343;   -0,742;    0,682
1089,242;  821,253;   -0,561;   -2,227
1089,783;  912,798;   -0,561;    1,409
1090,324;  875,525;   -0,833;    0,682
1090,865;  757,525;   -1,924;   -0,409
1091,405;  724,707;   -0,561;    2,227
1091,946;  763,525;   -0,197;   -0,955
1092,487;  687,525;   -1,288;   -1,409
1093,027;  855,253;    1,803;   -1,500
1093,568;  718,343;    2,258;    1,227
1094,108;  814,525;    0,621;    1,773
1094,649;  751,980;   -0,470;    0,136
1095,189;  694,071;    1,167;   -0,682
1095,729;  652,071;    0,712;    0,955
1096,269;  653,798;    1,258;   -0,955
1096,810;  950,071;   -0,197;    0,500
1097,350;  809,071;   -0,561;   -0,773
1097,890;  708,798;    2,985;    1,227
1098,430;  950,162;    4,985;    2,864
1098,970;  843,616;    1,894;    1,682
1099,510;  688,071;   -0,833;   -2,318
1100,050;  624,071;    0,258;   -1,591
1100,589;  606,616;    0,076;   -0,318
1101,129;  743,253;    0,894;   -0,955
1101,669;  883,434;    2,803;    2,136
1102,209;  705,071;    1,530;    2,227
1102,748;  668,889;    3,439;    0,955
1103,288;  658,616;    0,712;   -1,227
1103,827;  685,616;    3,530;   -2,227
1104,367;  574,889;    1,712;   -2,409
1104,906;  545,343;   -1,015;   -1,136
1105,445;  618,980;    0,985;   -1,136
1105,985;  572,798;   -0,652;    1,500
1106,524;  613,798;    1,530;   -0,682
1107,063;  584,798;    1,167;    1,409
1107,602;  548,980;    1,894;   -1,500
1108,141;  486,343;    1,621;    1,500
1108,680;  594,889;    3,985;   -0,591
1109,219;  528,071;    0,167;   -0,500
1109,758;  535,343;    4,167;    0,682
1110,297;  512,162;   -1,106;   -0,682
1110,836;  458,525;    1,439;    0,955
1111,375;  596,525;    0,348;    0,409
1111,913;  629,434;    0,985;    0,773
1112,452;  570,343;    0,894;    0,136
1112,991;  449,162;    1,076;    1,955
1113,529;  430,980;    0,167;   -0,045
1114,068;  490,343;    0,439;    2,955
1114,606;  403,071;   -0,561;   -0,955
1115,144;  559,071;    1,530;    1,045
1115,683;  495,343;    1,985;    0,318
1116,221;  536,162;    2,076;   -0,864
1116,759;  452,253;    1,621;   -0,864
1117,297;  634,980;    1,621;    1,864
1117,836;  455,798;    1,985;   -1,227
1118,374;  469,707;    0,258;   -0,682
1118,912;  422,798;    0,439;    2,682
1119,450;  404,071;    0,985;    0,864
1119,988;  449,253;    3,348;    2,136
1120,525;  883,707;    7,258;    3,318
1121,063;  597,798;    0,530;    1,864
1121,601;  423,707;    1,076;   -1,227
1122,139;  385,343;    1,076;   -2,045
1122,676;  577,071;   -1,652;    2,773
1123,214;  506,616;    0,712;    4,409
1123,751;  326,707;    0,621;    2,227
1124,289;  451,980;    0,894;   -0,409
1124,826;  334,343;   -0,379;    0,227
1125,364;  267,071;    0,712;   -0,955
1125,901;  449,343;    6,258;    1,227
1126,438;  543,343;    3,530;    0,955
1126,975;  289,253;    2,985;   -0,773
1127,513;  354,798;    2,621;    2,136
1128,050;  278,616;   -0,561;   -0,682
1128,587;  367,162;    1,348;   -0,227
1129,124;  405,071;   -0,015;    1,318
1129,661;  285,253;   -1,924;    0,227
1130,198;  439,798;    2,439;    0,773
1130,734;  391,889;   -0,379;    1,409
1131,271;  263,434;   -1,197;    0,864
1131,808;  421,889;    1,621;    3,045
1132,345;  303,071;    4,530;    0,318
1132,881;  187,798;   -0,561;   -1,864
1133,418;  312,616;    0,348;   -1,136
1133,954;  258,798;    0,712;   -2,682
1134,491;  332,707;    1,712;   -0,773
1135,027;  238,162;    2,167;    0,864
1135,564;  316,434;    1,439;    2,955
1136,100;  299,162;   -0,742;    2,136
1136,636;  202,980;   -1,015;   -1,045
1137,172;  291,798;    0,894;   -1,045
1137,708;  228,434;   -1,561;   -1,045
1138,245;  223,162;    0,803;   -1,227
1138,781;  173,071;    1,803;   -3,318
1139,317;  235,253;    1,894;   -1,409
1139,852;  236,889;    3,076;    0,136
1140,388;  335,071;    2,076;   -0,409
1140,924;  234,525;    1,076;   -2,227
1141,460;  180,343;   -0,288;    0,136
1141,996;  136,707;   -0,652;    2,682
1142,531;  165,798;    1,076;    3,318
1143,067;  357,071;    1,167;    1,045
1143,602;  410,707;    3,439;   -0,318
1144,138;  266,253;    0,803;    1,045
1144,673;  149,162;    1,621;    1,409
1145,209;  203,162;    2,894;   -0,318
1145,744;  135,980;    0,803;    0,864
1146,279;  261,525;    1,530;   -0,136
1146,815;  179,798;    1,530;   -2,682
1147,350;  223,525;   -0,924;    0,045
1147,885;  146,707;   -1,924;   -1,318
1148,420;  146,889;    2,439;    0,773
1148,955;  144,798;   -1,470;    1,864
1149,490;  148,616;   -1,106;   -1,591
1150,025;  138,707;   -1,106;   -1,773
1150,560;  244,707;   -0,288;   -0,955
1151,094;  214,162;    0,258;   -0,591
1151,629;  214,980;   -3,742;    0,864
1152,164;  147,889;   -1,288;    1,318
1152,698;  111,707;    1,258;   -0,136
1153,233;   81,162;   -1,379;   -0,682
1153,767;  122,071;   -0,288;   -2,318
1154,302;  157,889;   -0,379;    1,773
1154,836;  160,616;    0,803;   -2,136
1155,371;  208,434;    2,258;    3,682
1155,905;  166,525;    1,985;    1,682
1156,439;  133,889;    0,530;   -0,500
1156,973;  164,343;    0,439;    0,318
1157,507;  111,253;   -1,742;    0,682
1158,042;  136,525;   -0,652;    1,045
1158,576;  181,162;   -0,561;    1,773
1159,110;  166,616;    0,076;    2,409
1159,643;  143,343;   -2,470;   -0,045
1160,177;   88,343;   -2,015;    1,500

