
Integration time [ms]:   0,040
Averaging Nr. [scans]: 11
Smoothing Nr. [pixels]: 0
Data measured with spectrometer [name]: 7318044SP
Wave   ;Sample   ;Dark     ;Reference
[nm]   ;[counts] ;[counts] ;[counts] 

186,757;   30,584;   38,161;    1,318
187,357;   58,538;   26,706;    0,955
187,958;   37,521;   17,252;   -1,591
188,558;   78,354;   12,979;   -1,227
189,159;   45,566;   10,070;   -4,500
189,759;   22,654;    5,797;   -3,591
190,360;   18,351;    6,797;   -2,136
190,960;   49,204;    5,706;   -4,136
191,560;   59,646;    2,614;   -6,591
192,161;  277,765;    5,885;   -3,500
192,761;  137,701;    5,520;   -3,227
193,361;   82,031;    3,065;   -3,773
193,962;  149,112;    1,612;   -2,682
194,562;   75,948;   -0,114;   -3,955
195,162;  106,649;   -0,567;   -2,227
195,762;  251,616;    2,433;   -0,045
196,362;  195,638;    1,706;   -2,500
196,963;   84,850;    1,706;   -0,864
197,563;  145,333;    1,252;   -0,955
198,163;   92,622;   -0,111;   -0,682
198,763;  107,093;   -0,020;   -0,500
199,363;  212,461;    3,616;   -0,500
199,963;  170,972;    2,162;    0,409
200,563;  146,722;    6,344;   -1,409
201,163;  127,956;    5,435;   -0,227
201,763;  210,697;    1,435;    0,318
202,363;  154,212;    0,980;    1,500
202,963;  249,741;    1,526;    1,045
203,563;  365,541;    0,344;    0,500
204,162;  223,457;    1,889;   -1,864
204,762;  204,646;    2,071;    0,591
205,362;  172,888;    0,708;    1,955
205,962;  266,886;    3,435;    1,955
206,562;  261,828;    1,889;    2,318
207,161;  238,029;    1,708;    0,318
207,761;  392,397;    4,435;    2,409
208,361;  263,324;    1,889;    1,409
208,960;  349,888;    2,889;    1,500
209,560;  409,947;    0,435;    1,591
210,160;  400,695;    5,071;    1,864
210,759;  358,928;    0,708;    1,227
211,359;  359,178;   -0,474;    1,045
211,958;  611,359;    3,526;    2,045
212,558;  695,303;    0,799;    1,864
213,157;  526,122;   -0,929;    1,500
213,757;  945,052;    5,617;   -0,227
214,356;  663,684;    1,708;   -0,409
214,956;  982,268;    3,526;    0,409
215,555;  616,220;    0,617;    2,136
216,154;  555,334;   -0,292;   -0,591
216,754;  557,194;    1,253;    0,773
217,353;  682,339;   -0,383;   -1,045
217,952;  535,302;    2,072;    0,318
218,552;  772,462;    0,254;   -0,773
219,151;  665,689;   -1,110;    0,955
219,750;  659,791;    0,890;   -0,227
220,349;  752,789;   -2,292;    1,045
220,948;  843,859;    1,163;    1,136
221,548;  829,861;    0,617;    1,227
222,147;  929,989;   -1,292;   -0,409
222,746; 1216,285;    1,254;   -0,955
223,345; 1080,090;   -1,019;    0,500
223,944; 1083,283;    1,163;    0,773
224,543; 1228,737;    4,072;   -1,409
225,142; 1344,920;    1,345;    0,136
225,741; 1246,476;    1,163;    1,045
226,340; 1261,395;    1,254;   -0,955
226,939; 1676,213;    2,708;   -0,136
227,538; 1572,472;    1,163;   -0,773
228,137; 1738,539;    0,435;    0,864
228,735; 1853,924;    0,435;    1,227
229,334; 1623,329;   -0,474;   -0,227
229,933; 1996,061;    0,799;    0,591
230,532; 2099,949;   -1,201;   -0,409
231,131; 2146,959;    1,253;    0,318
231,729; 2224,621;    1,163;   -2,318
232,328; 2298,388;    0,435;   -1,500
232,927; 2368,425;    4,526;   -0,500
233,525; 2468,385;    0,981;    0,045
234,124; 2645,381;    1,890;   -1,591
234,723; 2656,667;    1,617;   -1,045
235,321; 2791,399;    1,163;    0,136
235,920; 2984,782;    2,526;   -1,227
236,518; 3222,332;    1,072;    0,318
237,117; 3364,635;    2,890;   -0,227
237,715; 3512,103;    1,163;   -0,500
238,314; 3531,977;    1,708;   -2,318
238,912; 3648,364;    0,526;   -1,409
239,510; 3674,266;    1,162;   -1,227
240,109; 3847,616;   -0,474;    3,773
240,707; 3880,033;   -0,474;    1,227
241,305; 4199,091;   -0,383;    0,136
241,904; 4394,364;   -0,292;   -2,045
242,502; 4366,210;    3,253;   -0,227
243,100; 4302,054;    3,344;   -0,955
243,698; 4523,523;    2,799;    1,682
244,297; 4686,672;   -0,656;    0,682
244,895; 4514,896;   -0,474;   -2,318
245,493; 4833,754;    2,981;   -0,591
246,091; 4852,814;    5,163;   -1,318
246,689; 4810,472;    2,163;    0,591
247,287; 4983,833;   -0,019;   -1,136
247,885; 5240,777;   -1,019;    1,227
248,483; 5309,740;   -0,201;   -0,500
249,081; 5408,992;    0,981;    1,591
249,679; 5561,554;   -1,019;    1,682
250,277; 5814,288;   -2,292;    0,864
250,875; 5765,215;    0,617;   -1,045
251,473; 5784,274;   -0,019;    0,500
252,071; 5985,740;   -0,383;    1,045
252,669; 6107,737;   -1,565;    0,318
253,267; 6335,934;    1,618;    0,773
253,864; 6252,833;    0,617;    0,682
254,462; 6180,567;    1,526;    1,591
255,060; 6132,945;    0,072;    1,318
255,658; 6429,919;   -3,292;   -0,136
256,255; 6822,127;   -0,201;   -2,045
256,853; 6693,595;    2,345;    1,409
257,451; 6702,432;    1,981;    1,864
258,048; 6969,264;    2,072;    1,864
258,646; 6705,407;    0,436;   -1,045
259,243; 6864,686;    2,981;    2,227
259,841; 6906,057;    1,799;    0,318
260,438; 6812,278;    0,254;    0,864
261,036; 7473,220;    0,617;    1,409
261,633; 7390,696;    1,526;    2,227
262,231; 7153,915;   -0,110;   -0,045
262,828; 7222,094;   -0,383;    1,136
263,425; 7281,488;   -1,928;   -0,591
264,023; 7528,854;    1,436;    0,045
264,620; 7091,994;    1,526;   -0,318
265,217; 7399,171;    2,890;    3,136
265,815; 7507,125;    2,527;    2,136
266,412; 7294,765;    0,072;    0,136
267,009; 7349,726;    0,526;    0,773
267,606; 7275,679;    0,345;   -0,955
268,203; 7246,068;   -0,383;   -0,591
268,801; 7478,327;   -0,474;    0,591
269,398; 7755,283;   -0,564;    2,500
269,995; 7737,094;    0,890;    1,591
270,592; 7564,444;    0,799;   -0,500
271,189; 7723,397;    1,981;    0,409
271,786; 7834,854;    2,072;    1,227
272,383; 7713,996;   -0,383;    0,227
272,980; 7894,297;    1,617;    0,318
273,577; 8345,241;    2,162;    1,227
274,174; 7905,271;    1,435;    2,591
274,771; 7857,374;    1,890;   -0,773
275,367; 8015,534;    3,253;    1,409
275,964; 7999,602;   -0,565;   -0,500
276,561; 8067,947;   -2,474;   -1,045
277,158; 8261,008;    1,799;   -1,773
277,755; 8386,719;   -0,110;    0,409
278,351; 7810,246;    0,436;   -1,500
278,948; 8091,626;   -0,201;    0,045
279,545; 8108,355;    0,527;    2,318
280,141; 8725,425;    1,254;   -2,045
280,738; 8565,507;    2,435;   -0,136
281,334; 8777,556;   -0,383;    0,591
281,931; 8181,295;    2,890;   -1,318
282,528; 8298,696;    4,072;   -0,500
283,124; 8963,204;    3,345;   -0,500
283,721; 8853,288;    0,709;    1,409
284,317; 8674,230;    0,163;    2,500
284,913; 9185,223;   -0,110;    0,591
285,510; 9348,405;    2,890;   -0,318
286,106; 9354,108;    2,345;   -0,955
286,703; 8993,302;    0,072;    1,955
287,299; 9223,148;    1,254;   -0,591
287,895; 9405,563;    0,890;   -1,045
288,491; 9927,919;    0,163;    2,136
289,088; 9667,707;    0,163;    2,409
289,684; 9724,283;    2,890;    1,500
290,280; 9716,033;    1,890;    0,682
290,876; 9763,446;    0,163;    5,500
291,472; 9682,850;    2,163;    2,227
292,068; 9790,885;    1,254;    0,227
292,665; 9519,148;   -0,564;    0,773
293,261; 9165,992;   -1,292;    2,136
293,857; 9552,530;    4,072;    2,136
294,453; 9494,810;   -0,928;    0,955
295,049; 9370,010;    0,253;    1,955
295,644; 9397,945;   -1,292;    0,136
296,240; 9322,187;    0,162;   -0,136
296,836; 9358,194;   -0,747;    0,318
297,432; 9603,685;    2,980;   -0,500
298,028; 9649,368;    0,435;    0,773
298,624;10025,858;    0,889;    1,864
299,220;10246,660;    0,435;    0,591
299,815; 9923,546;    0,526;   -0,409
300,411; 9722,646;    0,435;    1,773
301,007; 9717,159;    1,889;    0,227
301,602; 9754,401;    2,071;   -2,318
302,198; 9924,732;    1,435;   -0,773
302,794;10236,154;    1,526;   -0,500
303,389;10339,000;    1,071;    1,045
303,985;10401,641;    1,253;    1,409
304,580;10365,629;    0,889;    1,591
305,176;10329,441;    0,344;    0,136
305,771;10268,275;   -0,929;   -1,227
306,367;10153,287;    3,071;    0,136
306,962;10462,128;    2,889;    1,500
307,558;10179,718;    2,435;    0,136
308,153;10122,783;   -0,383;   -1,136
308,748;10347,795;    0,162;    1,682
309,344;10321,220;    0,253;   -1,318
309,939;10450,341;    2,071;   -1,318
310,534;10691,916;   -2,020;   -1,682
311,130;10592,184;   -0,656;   -2,500
311,725;10373,108;    0,526;   -0,500
312,320;10661,790;    1,253;    0,045
312,915;10541,350;    2,890;   -1,045
313,510;10595,292;    0,526;   -0,500
314,105;11054,711;   -3,565;    1,409
314,700;10490,907;   -1,656;   -1,045
315,295;10170,357;   -0,020;    0,045
315,890; 9755,170;   -0,292;    0,864
316,485;10060,975;    0,253;   -0,318
317,080;10214,905;   -0,929;    1,591
317,675;10676,133;    3,071;   -0,682
318,270;10121,718;    6,889;    3,318
318,865;10142,375;    2,435;    3,045
319,460; 9997,741;   -1,565;    0,591
320,055;10237,450;   -2,565;   -1,227
320,650; 9887,531;   -1,838;   -0,591
321,244; 9940,981;    0,889;   -1,409
321,839;10826,117;    0,980;   -0,227
322,434;10708,154;   -0,111;   -1,591
323,029;10405,182;   -0,474;    1,591
323,623;10236,977;    0,798;    0,773
324,218;10016,874;    2,707;    1,409
324,812; 9939,860;    0,889;    1,591
325,407; 9799,741;   -0,929;    2,045
326,002; 9721,222;    0,526;   -0,409
326,596;10031,697;   -0,656;    1,318
327,191;10228,599;   -0,383;   -1,045
327,785; 9829,788;   -0,747;   -0,227
328,379;10054,986;   -0,383;    0,136
328,974; 9854,919;    1,798;   -3,955
329,568;10069,590;    2,889;   -2,409
330,163; 9916,890;    2,435;    1,045
330,757;10273,616;    0,253;    1,591
331,351; 9633,779;   -0,292;    0,682
331,945; 9943,266;   -0,383;    1,409
332,540; 9530,758;    1,617;   -0,591
333,134; 9666,641;    3,344;    0,773
333,728; 9903,825;    2,799;    0,318
334,322;10228,233;    0,889;   -0,864
334,916; 9482,842;    0,344;    0,955
335,510; 9837,299;   -0,111;   -0,136
336,105;10069,781;   -0,929;    1,591
336,699; 9743,786;   -1,292;    0,591
337,293; 9679,042;    1,071;    0,318
337,887; 9798,905;    0,071;    1,955
338,481; 9911,438;    2,980;    0,591
339,074;10070,681;    2,071;    2,682
339,668; 9887,308;   -0,110;    1,227
340,262;10120,826;    7,708;    3,227
340,856; 9618,154;    1,708;   -0,682
341,450; 9045,033;    0,708;    1,864
342,044; 9853,406;    1,799;    0,136
342,637; 9650,798;    1,162;   -2,136
343,231; 9496,842;   -1,474;    0,682
343,825; 9443,534;   -0,747;   -0,591
344,419; 9438,504;   -0,474;    0,500
345,012; 9267,261;    2,889;    4,045
345,606; 9291,455;   -0,656;    1,591
346,199; 9139,478;   -0,111;   -0,227
346,793; 8729,468;    2,525;    2,045
347,386; 8921,949;    0,889;   -1,136
347,980; 8896,834;   -0,838;   -0,045
348,573; 8708,146;   -1,748;    0,409
349,167; 8421,773;    6,161;    4,773
349,760; 8772,664;    2,252;    2,682
350,354; 8741,127;    1,616;    1,136
350,947; 8491,256;    2,798;    1,682
351,540; 8183,139;    0,616;   -1,409
352,134; 8140,869;   -1,111;    1,136
352,727; 8226,394;   -0,657;    1,136
353,320; 8052,878;    2,343;    0,591
353,913; 7918,139;   -1,929;    1,864
354,507; 8086,944;    0,434;   -1,227
355,100; 8116,615;    0,071;    0,864
355,693; 7444,664;    4,798;    2,409
356,286; 7495,799;    0,980;    2,773
356,879; 7806,986;   -0,475;    1,227
357,472; 7413,400;    0,980;    1,500
358,065; 7644,349;    3,161;    2,500
358,658; 7579,916;    0,798;    2,318
359,251; 7259,874;    0,252;   -0,591
359,844; 6824,957;    0,343;   -1,136
360,437; 6965,368;    0,252;    0,045
361,030; 7204,941;    0,525;   -0,682
361,623; 6836,440;    0,434;    0,318
362,215; 6874,617;    0,979;    2,045
362,808; 6726,946;   -2,293;   -1,682
363,401; 6930,493;    0,798;    0,136
363,994; 6707,568;    3,252;   -1,500
364,586; 6620,018;    0,888;   -1,500
365,179; 6796,964;   -0,203;   -1,136
365,772; 6313,242;   -0,930;    2,045
366,364; 6583,868;    1,524;   -3,227
366,957; 6756,378;    1,342;   -0,045
367,549; 6787,199;   -0,203;   -0,864
368,142; 6473,814;    0,978;   -1,500
368,734; 6654,340;    2,523;   -2,136
369,327; 6641,284;    2,341;   -0,500
369,919; 6547,862;   -1,659;    0,409
370,512; 6384,438;   -1,023;   -0,500
371,104; 6168,490;    2,704;    1,591
371,696; 6332,562;    1,703;   -0,955
372,289; 6387,496;    0,157;    1,136
372,881; 6534,661;    1,156;    1,318
373,473; 6443,338;    4,064;    1,136
374,066; 6257,442;    1,336;    0,500
374,658; 6122,678;    0,879;    1,136
375,250; 6436,410;   -1,668;   -1,409
375,842; 6302,932;   -0,124;   -0,045
376,434; 6189,341;   -2,762;   -0,409
377,026; 6718,738;   -1,855;   -2,500
377,618; 6594,381;    0,779;   -0,682
378,210; 6472,326;    3,141;   -1,955
378,802; 6324,909;    3,412;   -0,591
379,394; 6283,407;    3,411;    0,682
379,986; 6806,712;    1,138;   -0,955
380,578; 6902,912;    1,410;    0,773
381,170; 6308,447;    0,320;    0,045
381,762; 6264,560;   -0,224;    1,409
382,354; 6433,106;   -0,223;   -1,318
382,945; 6515,523;    0,870;    0,318
383,537; 6684,860;    1,144;   -1,955
384,129; 6680,736;    0,963;   -1,136
384,721; 6858,062;    0,418;    0,955
385,312; 6763,995;   -1,399;   -0,955
385,904; 6871,146;   -0,945;    1,591
386,496; 6300,950;    0,691;    1,045
387,087; 6415,684;    0,418;    2,500
387,679; 6439,020;   -0,401;    0,045
388,270; 6546,411;   -2,401;    2,045
388,862; 6692,099;   -0,401;   -0,318
389,453; 6516,399;    1,054;    1,045
390,045; 6780,194;    3,236;   -2,682
390,636; 6717,828;    0,144;   -0,591
391,227; 6605,570;    2,054;   -0,045
391,819; 6688,849;    0,781;    0,773
392,410; 6736,959;    0,600;    0,045
393,001; 6683,585;    1,600;   -1,591
393,593; 6923,475;    0,600;   -0,045
394,184; 6784,815;    0,873;   -0,409
394,775; 6702,454;    1,146;    2,136
395,366; 6931,186;    1,782;    0,773
395,957; 6901,304;   -2,400;    0,136
396,548; 7196,032;    1,054;    2,682
397,139; 7441,598;    2,236;    0,591
397,730; 7190,113;    0,873;    0,955
398,321; 7251,519;    0,509;    0,955
398,912; 7258,647;   -0,764;    0,136
399,503; 7344,167;   -1,945;   -1,409
400,094; 6846,673;   -1,582;    1,682
400,685; 6721,445;    3,600;    0,045
401,276; 6782,612;   -0,400;   -0,955
401,867; 7063,487;   -1,127;    0,773
402,458; 7159,358;    1,509;   -2,318
403,048; 7131,249;    0,146;    0,591
403,639; 6792,535;    1,509;    0,864
404,230; 7010,412;    0,691;    0,318
404,821; 6944,895;   -0,127;    0,045
405,411; 7058,359;   -0,763;   -2,591
406,002; 6693,139;    3,237;   -1,136
406,592; 6593,161;    2,691;    0,045
407,183; 6849,674;    0,328;   -1,500
407,774; 6755,287;    1,419;   -0,136
408,364; 7051,907;    2,600;    0,409
408,954; 6713,016;   -0,036;    1,227
409,545; 6731,352;    1,873;    1,045
410,135; 6306,583;   -1,581;    0,500
410,726; 6461,194;    0,783;    0,318
411,316; 6797,198;    2,237;    0,773
411,906; 6474,760;    0,146;   -0,409
412,497; 6035,105;   -0,490;   -0,045
413,087; 6576,655;    0,783;   -0,227
413,677; 6956,308;   -2,490;    3,864
414,267; 6802,551;   -1,035;    1,409
414,857; 6786,970;    0,419;    4,227
415,448; 7047,664;   -0,763;    0,500
416,038; 6778,219;   -2,945;   -0,591
416,628; 6710,189;    0,965;    0,409
417,218; 6280,963;   -1,762;    3,318
417,808; 6512,565;    0,965;   -0,409
418,398; 6881,567;   -1,035;    2,682
418,988; 6890,893;   -2,217;    0,591
419,578; 7114,614;    3,601;    1,409
420,168; 7437,900;    0,692;   -0,955
420,757; 7058,870;    0,964;   -1,500
421,347; 6711,068;    1,601;   -0,227
421,937; 6872,791;    3,329;    1,409
422,527; 6852,155;    2,602;   -0,773
423,116; 6681,975;    2,692;   -0,045
423,706; 6978,406;    2,965;    0,318
424,296; 6935,448;    1,601;    0,682
424,885; 7354,357;    1,510;   -3,045
425,475; 7567,043;    1,147;   -2,864
426,065; 7481,835;   -1,489;   -0,318
426,654; 7178,295;    0,329;   -0,318
427,244; 7282,891;    1,147;    1,409
427,833; 6774,856;    1,056;   -0,500
428,423; 7205,230;    0,147;    1,136
429,012; 7899,572;    2,420;   -1,136
429,601; 7422,302;    2,057;    0,136
430,191; 7633,507;    2,511;    4,318
430,780; 7281,528;   -1,671;   -0,409
431,369; 7210,008;    1,329;   -0,045
431,959; 7780,927;    1,693;    0,500
432,548; 7586,615;   -1,398;   -0,045
433,137; 7688,363;    0,329;   -1,318
433,726; 8170,733;    0,148;    0,500
434,315; 7580,521;    0,148;    2,409
434,905; 7679,524;    0,693;    1,409
435,494; 7608,330;    3,148;    0,955
436,083; 8012,242;    1,420;   -0,955
436,672; 7897,899;    1,148;    0,500
437,261; 7518,142;    0,512;   -1,955
437,850; 7632,783;   -1,125;    0,682
438,439; 7587,165;    2,239;    1,955
439,027; 7452,179;    3,421;    1,773
439,616; 7770,965;    2,239;    1,227
440,205; 7587,340;    0,057;   -2,136
440,794; 7627,042;   -0,306;   -0,045
441,383; 7866,949;    1,603;   -0,591
441,971; 7718,578;   -0,306;    0,591
442,560; 7561,371;    0,603;   -1,773
443,149; 7360,753;    3,060;   -1,318
443,737; 7509,619;    0,968;   -2,318
444,326; 7762,035;    0,331;    0,318
444,915; 7792,800;   -1,851;    0,864
445,503; 8126,849;    0,058;   -0,318
446,092; 7456,863;    7,876;    2,136
446,680; 7956,730;    1,876;    0,318
447,269; 8103,973;   -1,487;   -0,318
447,857; 7891,644;    2,240;   -1,773
448,445; 8005,066;    2,149;    1,318
449,034; 8232,397;    0,876;   -1,136
449,622; 8304,103;    1,240;    3,500
450,210; 7638,838;    3,149;    2,227
450,799; 8135,327;    2,604;   -0,591
451,387; 8047,092;    1,786;   -0,591
451,975; 7758,777;   -1,305;    0,864
452,563; 7852,950;    0,422;    2,318
453,151; 7861,614;   -1,032;   -1,227
453,739; 7798,913;   -1,577;    0,136
454,328; 7645,526;    0,604;   -2,136
454,916; 7405,941;    1,150;   -0,136
455,504; 7547,370;    3,513;    1,227
456,092; 7736,484;    2,150;   -1,591
456,679; 7680,489;    0,604;    0,682
457,267; 7685,615;    3,604;    1,045
457,855; 7802,067;    3,241;    1,409
458,443; 7528,745;   -0,304;    1,682
459,031; 7696,333;    1,332;    2,409
459,619; 8072,309;   -3,577;    2,864
460,206; 8156,689;   -0,759;    2,045
460,794; 8276,055;   -0,668;   -0,227
461,382; 8475,177;    0,878;   -0,864
461,970; 8056,039;    0,605;    1,864
462,557; 8117,468;    0,878;   -0,682
463,145; 8262,857;   -0,304;   -1,682
463,732; 8370,550;    2,514;   -1,045
464,320; 8285,343;    1,514;   -3,045
464,907; 8016,417;    0,423;   -0,773
465,495; 7930,478;    2,696;   -1,227
466,082; 8052,883;    2,060;   -0,045
466,670; 7956,436;    2,605;    1,227
467,257; 8339,954;    0,060;    2,045
467,844; 8484,061;    1,514;    0,045
468,432; 8519,000;   -0,031;    3,500
469,019; 8069,208;    1,606;   -1,773
469,606; 8510,429;    0,969;    3,682
470,193; 8314,924;    2,151;    0,227
470,780; 7946,327;    0,333;    0,864
471,368; 8263,518;   -1,212;   -0,773
471,955; 8057,798;    1,060;   -0,682
472,542; 7743,548;   -0,303;   -1,136
473,129; 7952,285;   -0,485;    0,136
473,716; 7712,227;    0,060;    0,591
474,303; 7870,276;    1,333;   -0,864
474,890; 8128,404;    2,333;   -0,500
475,477; 8170,835;   -0,576;    0,409
476,064; 8073,591;    0,697;   -1,591
476,650; 7979,863;    2,152;    0,318
477,237; 7836,227;    1,879;    0,955
477,824; 7984,670;    3,879;    0,864
478,411; 7980,481;    0,606;   -0,318
478,997; 8139,817;    0,606;   -0,773
479,584; 8188,256;   -0,666;   -0,409
480,171; 8813,234;    1,243;   -0,773
480,757; 8516,328;   -0,848;    0,773
481,344; 8775,442;    0,334;    0,409
481,931; 8297,265;   -0,393;    1,045
482,517; 9153,888;    0,425;    0,318
483,104; 9632,414;    1,334;    2,864
483,690; 9816,351;    0,243;    0,045
484,276;10099,640;    0,698;    0,227
484,863; 9873,277;    2,152;    1,136
485,449;10387,990;    0,152;    0,318
486,035;10381,475;   -0,666;   -0,136
486,622;10773,006;   -2,393;    0,045
487,208;10695,417;    1,334;    1,500
487,794;10593,223;    0,971;    0,318
488,380;10688,874;    0,698;   -1,409
488,967;10755,420;   -1,120;   -0,409
489,553;10793,869;   -1,029;   -1,409
490,139;10983,168;    0,971;    0,773
490,725;10506,699;    0,789;   -0,227
491,311;10153,872;    1,516;    3,045
491,897; 9552,809;   -0,665;    1,500
492,483; 9424,755;    0,426;    1,227
493,069; 9321,247;    5,426;    0,864
493,655; 9261,326;    1,789;    0,682
494,241; 9206,135;    1,517;   -0,955
494,826; 9542,890;    0,335;   -1,045
495,412; 9005,186;    0,335;   -0,682
495,998; 9171,208;    0,971;   -0,318
496,584; 9286,776;    2,244;    1,045
497,169; 9244,250;    2,335;   -0,682
497,755; 9249,471;    1,244;    1,227
498,341; 9763,452;    2,153;    0,318
498,926; 9369,912;    2,881;    1,955
499,512; 9554,551;   -0,028;    2,955
500,097; 9606,628;   -0,574;   -0,318
500,683; 9571,152;   -0,028;    2,136
501,268; 9913,588;    1,881;   -0,955
501,854; 9676,313;   -0,119;    1,227
502,439; 9595,635;   -0,573;   -1,773
503,024; 9753,213;    1,608;    0,500
503,610; 9805,299;    1,335;   -0,682
504,195; 9811,637;    1,245;    1,955
504,780; 9928,322;    2,335;    1,227
505,366; 9786,630;    4,063;    2,864
505,951; 9534,815;   -1,119;    1,045
506,536; 9596,964;    1,427;   -3,682
507,121; 9575,512;    1,699;   -0,318
507,706;10032,812;   -0,392;    1,045
508,291;10392,521;   -2,937;    1,136
508,876; 9881,573;   -0,482;    2,591
509,461; 9380,013;    1,427;   -0,773
510,046; 9779,393;   -0,391;    0,318
510,631;10018,022;   -0,119;   -0,773
511,216; 9718,978;   -0,664;   -0,500
511,801;10017,696;   -0,755;    2,591
512,386;10259,286;    0,972;    0,500
512,971;10208,880;    0,427;    0,955
513,555; 9836,892;    1,154;   -1,500
514,140;10562,223;    1,336;   -3,136
514,725;10513,347;    1,791;   -1,136
515,309;10624,745;    1,064;    0,318
515,894;10163,561;   -0,300;   -2,227
516,479;10579,170;    1,973;   -0,955
517,063;10392,722;    0,882;    1,227
517,648;10539,729;    0,155;   -1,136
518,232;10138,088;   -1,300;   -1,409
518,817;10495,569;    1,337;    1,682
519,401;10706,762;    0,700;    0,591
519,985;10239,475;    2,700;    1,136
520,570;10099,757;   -0,118;   -1,955
521,154;10372,259;    0,064;    0,591
521,738;10526,581;    1,064;    2,409
522,323;11039,021;   -0,390;    1,682
522,907;10782,438;    2,428;   -0,136
523,491;10510,739;    1,155;    0,955
524,075;10505,128;    0,428;    0,591
524,659;10621,326;    0,973;    0,591
525,243;10148,175;    0,883;    0,409
525,827;10352,539;    0,883;   -0,045
526,411;11087,781;    1,155;   -0,136
526,995;11278,003;    0,337;    1,409
527,579;10901,863;    1,974;   -1,045
528,163;11151,460;    0,428;   -1,500
528,747;11093,383;    1,065;   -0,773
529,331;11368,420;    0,883;   -1,409
529,915;11517,078;    2,338;    0,955
530,499;11458,236;    0,247;    1,227
531,082;11204,723;    1,065;    1,591
531,666;10737,211;    0,520;    0,773
532,250;11303,590;    0,428;    2,682
532,833;11564,565;    0,610;    2,773
533,417;11451,728;    1,247;    0,864
534,001;11383,989;    0,429;   -0,318
534,584;12043,572;    1,974;    0,500
535,168;11894,432;    3,247;    1,409
535,751;11927,031;    4,520;    0,045
536,334;11411,388;    4,520;   -0,409
536,918;11964,292;    1,974;    1,591
537,501;12005,635;    1,520;    1,318
538,085;12003,125;    1,702;    1,045
538,668;12128,787;    0,883;    2,409
539,251;12390,267;    3,156;    3,773
539,834;12449,805;    0,156;    0,773
540,418;12370,514;    3,247;    4,318
541,001;12437,931;    2,702;    1,773
541,584;12414,377;    1,429;    2,227
542,167;12113,272;    0,702;    2,955
542,750;12234,015;    0,793;   -0,773
543,333;11854,118;    1,429;    2,136
543,916;12563,876;   -0,298;    2,500
544,499;13093,643;    2,520;    0,227
545,082;13062,829;    0,248;    3,591
545,665;13175,293;   -0,207;    1,500
546,248;13446,391;    0,520;   -0,318
546,830;13143,109;   -1,752;    1,955
547,413;13515,876;    0,157;   -0,773
547,996;13983,762;    0,157;    0,500
548,579;13777,382;   -0,843;    0,955
549,161;13578,205;    0,884;    2,682
549,744;13370,371;    0,612;    0,409
550,326;13825,420;    0,885;   -1,136
550,909;13641,284;    2,339;    0,591
551,492;14015,000;    0,521;    0,227
552,074;13813,049;   -0,024;   -1,318
552,657;14254,641;    2,430;    0,045
553,239;14108,264;   -3,024;   -0,773
553,821;13973,319;   -1,570;    1,045
554,404;13487,821;   -0,024;    1,136
554,986;13856,024;    2,248;    1,045
555,568;14408,010;    0,430;   -0,955
556,151;13706,853;    4,067;   -0,227
556,733;13881,856;   -1,388;   -0,864
557,315;14303,003;    4,703;    0,500
557,897;14065,518;    0,521;   -0,500
558,479;14171,408;    1,703;    1,318
559,061;14296,597;    1,067;   -0,864
559,643;14581,595;   -0,297;    0,045
560,225;14842,923;   -0,388;    2,864
560,807;14901,868;    0,340;    0,318
561,389;14499,900;   -1,206;    2,318
561,971;15091,558;   -0,660;    2,136
562,553;14900,872;    0,613;    1,591
563,135;15004,595;    1,249;    1,136
563,717;14640,502;    3,158;    1,136
564,298;15226,952;    3,976;   -0,045
564,880;14965,663;    0,340;   -1,409
565,462;15134,936;    1,977;    1,318
566,043;16145,833;   -0,933;    2,318
566,625;15663,399;    4,067;    1,227
567,207;15503,386;    0,704;    1,682
567,788;16449,281;   -0,114;    1,500
568,370;17132,460;   -1,841;   -0,500
568,951;16933,020;   -0,569;    0,227
569,533;17661,530;    0,977;   -0,500
570,114;18039,213;   -0,296;    0,682
570,695;18426,031;   -0,478;   -1,318
571,277;18777,871;   -0,205;   -1,682
571,858;19417,831;    2,704;   -1,136
572,439;20190,989;    0,795;   -1,045
573,021;20262,356;    0,432;   -2,773
573,602;20632,265;    1,795;    0,318
574,183;21422,605;   -0,114;    2,227
574,764;21442,372;    2,068;    0,409
575,345;21863,687;    0,250;   -0,136
575,926;22379,393;    2,704;    0,136
576,507;22342,468;    2,704;   -0,227
577,088;23337,172;    1,704;    1,682
577,669;23293,932;    1,704;    1,955
578,250;23927,151;   -0,750;   -1,045
578,831;24406,051;   -0,841;   -2,227
579,412;24607,139;   -1,205;    0,955
579,993;25434,689;    1,432;    0,227
580,573;25757,510;   -0,023;   -0,955
581,154;24761,207;    1,613;   -0,591
581,735;25536,657;    0,341;    0,773
582,315;25065,111;    0,523;    2,136
582,896;25365,372;   -1,750;    1,227
583,477;24851,051;    0,614;    1,227
584,057;25051,575;    1,159;    0,955
584,638;25239,598;   -2,750;    2,318
585,218;25297,981;    2,886;    2,682
585,799;25466,990;    1,977;   -0,227
586,379;25501,990;    1,250;    1,591
586,959;24436,652;    2,613;    0,318
587,540;23933,316;    0,432;    2,227
588,120;23497,025;   -1,113;   -0,045
588,700;22665,804;    2,977;    2,136
589,281;22980,918;    1,250;   -0,955
589,861;22865,361;   -0,296;   -1,682
590,441;22695,330;   -1,477;   -2,682
591,021;21812,347;    1,432;   -2,591
591,601;22059,433;    0,431;    0,500
592,181;22127,176;   -1,296;   -0,773
592,761;21474,566;    2,250;    1,409
593,341;21436,468;    1,522;    0,045
593,921;21364,148;   -0,569;    1,591
594,501;21295,584;    1,250;    1,318
595,081;21162,486;    0,522;   -0,318
595,661;21510,778;    1,068;    0,955
596,240;21991,274;   -1,023;    0,136
596,820;21590,150;    2,613;    1,955
597,400;21641,864;    1,977;    0,773
597,980;21911,283;   -0,750;    1,045
598,559;21960,200;    0,341;   -0,227
599,139;21700,528;   -0,750;   -1,227
599,718;21553,074;    0,795;   -0,409
600,298;21818,587;   -2,387;    0,682
600,877;22059,039;    4,795;    1,409
601,457;22259,460;    0,340;    1,136
602,036;22202,454;    1,795;    2,045
602,616;22307,759;    2,250;    1,682
603,195;22637,118;    0,431;    3,500
603,774;22214,969;   -0,296;    2,045
604,354;22072,903;    2,522;   -0,500
604,933;21627,677;    0,250;    1,864
605,512;21753,999;    2,340;    0,591
606,091;21812,605;    1,886;    3,773
606,671;22578,689;    0,249;    0,773
607,250;21760,647;    1,431;    3,136
607,829;21935,766;    1,158;    3,227
608,408;21820,896;    4,613;    2,591
608,987;20973,274;    2,704;    3,409
609,566;21194,757;    0,341;   -2,500
610,145;21370,530;    2,885;    0,682
610,723;21738,197;    1,613;    6,864
611,302;21038,917;    1,067;    1,682
611,881;20618,385;    5,158;   11,227
612,460;21341,663;    0,795;    3,955
613,039;21697,287;    1,703;    2,045
613,617;20542,069;    0,886;    4,773
614,196;20712,777;    1,613;    1,227
614,775;21059,579;    1,249;    2,409
615,353;21010,059;   -1,660;    0,864
615,932;20837,427;    0,249;    2,409
616,510;21369,963;    0,158;    0,591
617,089;20907,977;    8,794;   17,591
617,667;20730,315;    4,885;    6,136
618,246;20570,590;   -1,115;    1,318
618,824;20725,392;    1,612;   -0,955
619,402;20331,371;    0,431;   -1,773
619,981;20770,098;    1,067;   -1,045
620,559;20620,173;    0,794;    1,682
621,137;20221,478;    3,067;    1,864
621,715;20231,600;    3,703;   -0,682
622,293;20148,930;    1,885;   -0,773
622,871;20584,821;    0,340;    0,500
623,450;20218,849;    0,430;   -0,864
624,028;20131,490;   -0,388;   -0,955
624,606;19755,926;    2,339;    1,682
625,183;20113,196;   -0,661;   -1,136
625,761;19811,399;    1,885;    1,136
626,339;20102,161;    2,339;    2,591
626,917;20432,203;    0,339;   -0,045
627,495;20498,436;    2,794;    1,318
628,073;19949,956;    5,248;    2,864
628,650;19651,338;    3,067;    2,136
629,228;20069,047;    1,248;    4,409
629,806;19523,114;   -0,024;    1,136
630,383;19756,357;    0,066;   -0,318
630,961;19603,410;   -2,206;   -0,955
631,539;19391,739;   -2,479;    0,227
632,116;18803,047;   12,703;   15,409
632,694;19289,042;    4,885;    6,500
633,271;19506,373;    1,975;    2,682
633,848;19468,443;    1,430;    2,045
634,426;19476,195;    1,521;    1,773
635,003;18764,836;   -0,207;   -0,409
635,580;19007,647;    1,884;    3,682
636,158;19484,310;    3,793;    1,227
636,735;19471,851;    3,339;   -0,500
637,312;19573,405;    0,521;   -0,682
637,889;19644,913;    2,248;   -0,682
638,466;19203,591;    0,066;   -0,409
639,043;19216,132;    1,702;   -1,136
639,620;19478,311;    0,611;   -0,955
640,197;19792,915;    1,612;    1,682
640,774;19914,453;    1,430;    1,136
641,351;20204,264;    0,612;    1,136
641,928;19700,712;    2,794;    1,409
642,505;19394,341;    0,794;   -0,500
643,082;19531,061;    1,885;    1,227
643,658;18675,054;    1,157;    1,500
644,235;19323,683;   -2,479;    2,500
644,812;19525,312;    1,794;    0,773
645,388;19283,669;    1,612;    1,409
645,965;19351,843;    1,521;    1,682
646,542;19431,927;    3,430;   -0,227
647,118;19466,375;    3,703;   -0,955
647,695;19725,549;    0,339;    1,136
648,271;19634,633;   -2,115;    0,500
648,848;19883,444;    0,248;    2,227
649,424;19742,164;    0,976;    1,318
650,000;19471,157;   -0,388;   -1,045
650,577;19360,423;    0,158;   -0,955
651,153;19712,234;   -1,115;    0,955
651,729;20595,317;    0,521;    0,864
652,305;20619,219;    1,339;    2,773
652,881;24017,394;   -1,297;    1,136
653,458;29423,841;    0,249;    0,227
654,034;32397,834;    0,703;    1,591
654,610;33637,918;    0,339;    0,773
655,186;34774,365;    1,612;    3,045
655,762;34438,540;   -1,842;    0,409
656,338;34503,897;    0,703;    0,136
656,913;35437,980;   -0,297;    0,409
657,489;34806,973;    0,249;   -0,318
658,065;34794,511;    0,794;   -1,591
658,641;35325,232;    2,158;   -0,864
659,217;34814,043;    2,067;    0,409
659,792;34222,854;   -1,751;   -0,409
660,368;34530,119;   -0,388;   -0,682
660,944;34465,294;    1,794;    1,227
661,519;30877,741;    0,522;    0,409
662,095;26058,552;   -0,206;    0,591
662,670;22258,272;   -0,206;   -0,136
663,246;21312,993;   -0,660;   -0,409
663,821;20730,622;    0,431;    1,682
664,396;20258,706;    0,613;    1,864
664,972;20498,971;   -0,660;   -0,500
665,547;20735,964;    3,794;    0,136
666,122;20762,048;    1,340;    0,318
666,698;21014,495;    2,431;    0,318
667,273;20402,761;    0,885;    0,136
667,848;21123,299;    0,340;    1,500
668,423;20932,928;    1,795;    2,318
668,998;21398,648;    0,976;   -0,682
669,573;21853,278;    2,067;   -1,500
670,148;21694,634;    1,885;   -0,682
670,723;21465,263;   -0,024;    0,318
671,298;21830,438;   -1,296;    1,045
671,873;21849,340;   -0,296;   -0,136
672,448;21882,424;    1,704;    0,136
673,023;22186,598;    0,249;   -0,227
673,597;22463,773;    2,704;    2,318
674,172;22317,675;    2,431;    0,318
674,747;21812,668;   -0,205;   -1,045
675,321;21611,388;   -0,933;    3,318
675,896;21266,381;    2,158;    1,045
676,471;22106,828;    2,522;    1,591
677,045;21890,185;   -0,296;    0,682
677,620;21889,814;    2,158;    1,136
678,194;22183,989;    0,249;    1,136
678,769;21846,981;    0,886;   -0,318
679,343;22081,065;   -0,023;    1,773
679,917;21956,422;    0,340;    1,955
680,492;21978,687;    0,249;    3,227
681,066;22056,953;    0,613;    0,409
681,640;22130,127;    1,795;   -0,318
682,214;22816,484;    2,340;    0,500
682,788;22410,386;    0,613;   -0,773
683,363;22325,742;    1,977;    1,682
683,937;22038,735;    0,886;   -0,318
684,511;22723,183;   -1,023;   -0,591
685,085;22444,903;   -1,478;    0,318
685,659;22213,532;    1,431;    0,864
686,232;22459,888;    1,159;   -0,318
686,806;22218,154;    2,159;    0,409
687,380;22801,965;   -1,932;    0,591
687,954;22995,594;    2,432;    1,136
688,528;22684,496;    2,613;    1,955
689,101;23416,216;    0,432;    1,045
689,675;22994,209;    0,886;   -0,136
690,249;22390,202;    3,432;    0,409
690,822;22682,286;    1,159;    0,318
691,396;22839,551;    2,068;    1,227
691,969;22338,272;    2,523;    0,136
692,543;22808,446;   -0,568;   -1,955
693,116;22463,075;   -0,659;   -1,409
693,690;22322,796;   -0,296;    0,500
694,263;22819,334;    2,341;    2,955
694,836;22870,781;    2,795;    3,591
695,410;21607,410;    1,159;    1,773
695,983;22027,403;    1,614;    0,591
696,556;21997,669;   -0,750;   -1,045
697,129;22357,389;   -1,114;    1,409
697,703;22027,018;    1,341;    1,955
698,276;22036,829;    1,705;   -0,773
698,849;21830,095;   -1,023;    1,409
699,422;22197,179;    1,250;    0,591
699,995;21940,171;   -0,659;    0,136
700,568;22365,801;   -0,204;    3,045
701,140;22431,703;   -1,841;    1,682
701,713;22199,241;    0,341;    2,409
702,286;21930,325;    0,796;    0,864
702,859;21833,863;    0,614;   -0,591
703,432;21122,674;   -0,841;    0,682
704,004;21505,121;    1,978;    0,318
704,577;21392,205;    1,068;    0,136
705,150;21901,562;    0,887;    2,500
705,722;21749,009;    1,523;   -3,227
706,295;21552,729;    1,432;   -0,591
706,867;21373,631;    0,250;    1,955
707,440;21562,806;   -0,113;   -0,409
708,012;21791,708;   -0,022;    0,591
708,584;21663,610;    2,705;    0,227
709,157;21984,693;    1,160;   -0,591
709,729;21712,323;    1,069;    2,045
710,301;22498,679;   -1,204;    0,045
710,874;22474,763;    0,341;   -0,227
711,446;21451,392;   -0,295;    0,864
712,018;21347,294;   -3,022;    0,500
712,590;21090,287;   -0,204;    1,682
713,162;21562,916;   -0,477;    1,318
713,734;21812,454;    1,796;   -2,045
714,306;21726,356;    0,342;   -0,409
714,878;20566,258;   -0,295;    0,864
715,450;21338,160;   -0,113;    0,864
716,022;21558,244;    2,433;    1,318
716,593;21715,055;    0,978;    0,591
717,165;21646,321;    1,796;   -1,227
717,737;21399,768;    0,796;    0,409
718,309;21077,761;    1,160;   -0,045
718,880;21067,299;   -1,295;   -1,409
719,452;21249,201;    0,887;   -1,591
720,024;20926,649;    1,705;   -0,591
720,595;21430,914;    2,978;    0,955
721,167;21019,271;    1,160;   -2,045
721,738;20600,173;    2,069;   -1,045
722,309;20558,711;    1,251;   -1,227
722,881;20377,067;    2,705;    0,773
723,452;20933,151;    1,251;    2,864
724,023;21092,598;    1,524;    2,682
724,595;20910,137;    2,342;    0,682
725,166;20666,766;    1,524;   -0,409
725,737;20317,395;    1,887;    0,227
726,308;20435,661;    0,797;    0,318
726,879;20876,108;    1,069;    1,227
727,450;20698,374;   -2,022;   -0,045
728,021;20660,003;    1,069;    0,682
728,592;20439,996;    1,160;    0,500
729,163;20782,807;    1,433;   -0,136
729,734;20786,618;    2,160;   -0,227
730,305;21095,974;    0,615;    0,136
730,876;21407,240;    0,888;    2,955
731,447;21154,960;    0,797;    2,682
732,017;21268,771;   -0,840;    1,864
732,588;20791,946;   -0,021;    1,227
733,159;20934,302;    3,615;   -1,045
733,729;20776,750;    1,251;    0,409
734,300;20084,106;    0,160;    0,864
734,870;20514,008;   -1,385;    0,591
735,441;20988,365;    0,888;   -0,591
736,011;20783,812;    1,070;   -1,591
736,582;20770,078;    1,251;    0,045
737,152;20280,525;    0,979;   -2,045
737,722;20696,700;    1,070;   -0,682
738,293;20428,511;   -2,021;    1,318
738,863;20318,958;    1,797;    2,318
739,433;20159,860;    4,524;    0,318
740,003;20748,307;    1,524;   -0,682
740,573;20189,391;    2,252;   -1,591
741,143;20177,111;    3,615;    0,318
741,713;20857,377;    0,252;   -0,500
742,283;20622,461;    1,706;    1,591
742,853;20458,908;    0,524;    1,591
743,423;19967,901;    0,161;    0,045
743,993;20027,166;    1,070;    1,500
744,563;19517,341;    2,524;   -0,864
745,133;19467,607;   -0,112;   -0,864
745,702;20071,236;    2,797;    1,773
746,272;19375,774;    0,434;    0,591
746,842;19159,949;   -0,748;   -0,591
747,411;19542,124;   -0,839;   -0,318
747,981;19675,935;   -0,930;    0,500
748,551;19795,837;   -0,021;   -1,045
749,120;19665,011;   -0,112;   -0,227
749,690;19985,459;    2,161;    2,409
750,259;20296,906;    0,979;    2,955
750,828;20169,899;    4,070;   -1,955
751,398;20415,346;   -0,112;   -0,045
751,967;19937,703;    2,888;    0,409
752,536;20150,696;    1,161;   -0,227
753,105;20591,961;   -1,384;    0,227
753,675;20334,136;   -0,112;    1,773
754,244;20213,765;    0,888;    3,591
754,813;20279,122;    0,979;    1,227
755,382;19903,114;    0,798;    0,955
755,951;20349,471;   -0,112;    3,682
756,520;19966,282;    2,525;    1,864
757,089;20438,911;    1,888;    0,500
757,658;20591,540;    2,434;    1,227
758,227;20617,533;   -1,111;    0,318
758,795;20817,526;   -1,021;    1,136
759,364;21094,973;    0,525;   -0,591
759,933;20144,875;    1,343;   -0,045
760,501;19748,686;    0,252;   -1,318
761,070;20202,225;   -0,293;   -1,409
761,639;20845,581;    1,434;    1,318
762,207;20214,483;    0,889;   -0,955
762,776;20123,294;    2,889;    0,864
763,344;20143,469;    0,071;    0,591
763,913;19255,916;    1,616;    1,409
764,481;19962,545;    1,980;   -0,136
765,049;19815,811;    0,616;    1,409
765,618;19744,349;    1,434;    0,318
766,186;19832,069;    2,434;    0,136
766,754;19995,881;    1,798;    1,864
767,322;19105,419;    1,162;    0,409
767,890;19066,684;    0,525;   -1,773
768,459;19505,223;    2,616;   -0,318
769,027;19618,579;    2,525;    3,409
769,595;18730,481;    2,616;    2,591
770,163;19149,292;    3,344;    2,955
770,730;18922,012;    2,525;   -0,136
771,298;18781,551;    1,162;   -1,409
771,866;18864,089;    0,253;    4,955
772,434;19185,445;    1,162;   -1,864
773,002;19339,984;    2,616;    0,682
773,569;19002,613;    1,071;    1,682
774,137;18836,424;    0,889;   -0,045
774,705;19598,326;   -0,747;   -0,136
775,272;19124,501;    0,253;    0,682
775,840;18981,675;   -0,111;    2,682
776,407;18499,123;   -0,293;    1,955
776,975;18109,843;    1,162;    0,318
777,542;19053,108;    2,162;   -0,045
778,110;18962,192;    0,707;   -0,045
778,677;18649,185;    1,071;   -0,864
779,244;18445,632;   -1,020;    1,045
779,812;18530,898;    0,980;    0,864
780,379;18400,618;    2,435;    1,136
780,946;18606,611;    2,617;   -0,773
781,513;18920,149;   -0,565;    0,318
782,080;18343,778;    1,253;    2,864
782,647;18986,317;    1,708;    3,045
783,214;18624,219;   -0,201;    3,864
783,781;18288,939;    1,708;   -0,682
784,348;18155,568;    0,253;    1,500
784,915;18571,288;   -1,474;    0,318
785,482;18407,554;    2,708;    2,591
786,049;18803,637;    1,071;   -0,591
786,615;18926,539;    1,708;   -0,955
787,182;18699,169;   -3,201;   -0,682
787,749;18410,434;   -2,201;    1,409
788,315;17789,154;    0,253;   -0,409
788,882;18099,965;    0,981;   -1,227
789,448;18658,140;    1,435;   -0,955
790,015;18665,315;    1,799;    3,227
790,581;18289,217;    0,708;    0,227
791,148;18166,664;    1,344;    1,045
791,714;18410,748;   -1,019;    3,136
792,280;18131,013;    3,708;    1,591
792,847;17781,097;   -0,928;    2,500
793,413;18196,817;   -0,110;   -0,318
793,979;17861,356;    1,526;   -1,318
794,545;17952,167;    2,981;    2,682
795,111;17447,159;    2,435;    1,318
795,678;17571,243;    3,526;   -1,682
796,244;17267,509;    2,799;    0,136
796,810;17749,865;    0,799;    0,773
797,375;17527,131;   -0,292;   -2,136
797,941;17517,396;   -1,110;    0,591
798,507;17650,298;    0,254;   -0,955
799,073;17265,473;    2,708;    0,591
799,639;17339,920;    1,435;    3,136
800,205;17380,004;   -1,565;    2,682
800,770;16992,270;    1,345;    1,773
801,336;17046,899;    2,981;   -0,955
801,901;16822,710;    6,072;    3,136
802,467;17338,885;    0,526;    2,045
803,033;16713,968;   -0,019;    0,864
803,598;16883,780;    1,072;   -1,045
804,163;16930,863;    0,708;   -0,318
804,729;16900,674;   -0,110;    1,136
805,294;17259,758;    1,072;    2,227
805,859;17093,205;    0,890;   -0,409
806,425;16652,016;    3,890;    2,682
806,990;16312,191;    1,890;    4,318
807,555;16693,729;   -0,110;    2,591
808,120;16629,904;   -1,292;   -0,409
808,685;16672,715;    1,072;   -2,500
809,250;16294,617;    2,072;   -0,500
809,815;16537,428;   -0,201;    0,682
810,380;17002,876;    0,981;    1,591
810,945;17453,232;    2,890;    2,045
811,510;16799,861;   -0,200;    1,591
812,075;16519,854;    2,800;   -1,409
812,640;16495,574;    3,709;    1,409
813,204;16597,658;    2,163;   -0,227
813,769;17029,105;    0,254;   -0,045
814,334;16524,007;    0,527;    0,864
814,898;16585,000;    1,981;    0,591
815,463;16385,629;    0,981;   -0,773
816,027;16341,622;    1,345;   -2,318
816,592;16533,251;    2,163;   -2,045
817,156;16099,244;   -2,200;    1,136
817,721;15970,874;    0,982;    2,318
818,285;15959,685;    0,618;    1,500
818,849;16494,859;   -0,018;    1,682
819,414;16436,670;    0,073;    2,955
819,978;16057,572;   -0,291;    1,773
820,542;16547,383;    2,891;    0,500
821,106;16355,558;    2,800;    0,682
821,670;16426,278;    2,709;    2,591
822,234;16157,816;    1,073;    1,409
822,798;15665,900;   -0,836;    0,500
823,362;15679,257;    1,527;    4,227
823,926;15079,704;   -0,018;    1,136
824,490;15245,515;    3,527;   -0,682
825,054;15662,690;    2,527;   -1,136
825,618;15361,683;   -1,200;   -1,500
826,181;15293,039;    0,982;   -1,318
826,745;15243,941;   -0,745;   -1,045
827,309;15574,297;    2,255;    1,318
827,872;15089,290;    0,527;    0,955
828,436;15935,920;    1,982;   -0,773
828,999;16016,912;    2,436;    1,227
829,563;15001,814;   -0,654;    1,136
830,126;14814,898;   -0,018;   -0,591
830,690;14828,073;    0,709;    2,864
831,253;14393,066;   -0,473;    2,227
831,816;14528,786;   -0,018;    0,500
832,380;14477,869;    1,164;    0,864
832,943;14724,681;    3,073;   -0,500
833,506;14234,582;    0,255;   -1,227
834,069;14920,212;    2,164;   -0,955
834,632;15002,841;   -2,200;    1,318
835,195;14923,743;    1,346;    0,955
835,758;14248,645;    0,709;    1,955
836,321;14068,638;    1,073;   -1,045
836,884;14169,903;   -1,291;   -0,955
837,447;14225,260;    0,528;    1,773
838,010;14495,525;    1,800;    3,227
838,573;14724,609;    0,528;    0,773
839,135;14709,511;   -0,109;   -0,955
839,698;14220,049;    2,528;    0,409
840,261;13772,678;    0,255;   -0,227
840,823;13679,580;   -0,927;    0,864
841,386;13998,755;   -0,018;   -2,409
841,948;13887,566;    0,255;    1,773
842,511;13650,741;    0,255;    1,682
843,073;13752,188;    2,982;    0,227
843,636;13600,090;    0,619;   -0,227
844,198;13505,992;    1,255;    0,591
844,760;13639,712;    0,619;    1,955
845,322;13356,796;    0,164;    1,136
845,885;13705,971;   -0,290;    0,591
846,447;14088,418;    0,710;    0,227
847,009;13724,956;    3,983;   -0,682
847,571;13963,586;    1,346;   -2,045
848,133;14075,669;   -0,199;   -1,864
848,695;13899,389;    2,346;    1,409
849,257;13571,110;    1,346;   -1,682
849,819;13711,102;    2,983;   -0,409
850,381;13720,823;    1,801;   -0,864
850,942;14022,815;    1,892;   -0,591
851,504;13957,990;    0,983;    0,227
852,066;14012,619;    1,619;   -1,591
852,628;13636,612;    0,165;    1,955
853,189;13221,696;    0,256;    2,682
853,751;13352,689;   -0,654;    1,409
854,312;13182,954;    1,256;   -1,682
854,874;13609,038;   -0,108;   -0,773
855,435;14025,122;    0,528;   -1,682
855,997;14197,297;    3,983;   -0,136
856,558;13521,017;    0,801;    1,773
857,119;13637,191;   -0,744;    2,864
857,681;13394,184;   -0,108;    0,318
858,242;13358,813;    1,347;   -2,136
858,803;13764,988;    1,074;   -0,773
859,364;14323,981;    0,892;   -4,773
859,925;13792,610;   -0,290;   -0,955
860,486;13654,058;    0,529;   -0,955
861,047;13396,232;    0,165;   -1,227
861,608;13228,225;    0,165;   -0,773
862,169;13399,309;   -0,562;   -0,045
862,730;13160,483;   -0,290;    1,409
863,291;13440,840;    0,438;   -0,500
863,852;13725,651;   -0,926;    1,955
864,412;13237,735;   -1,835;   -0,864
864,973;12016,728;    1,892;    0,500
865,534;11919,266;    2,074;    0,227
866,094;13200,804;    2,620;    0,227
866,655;12859,524;    4,711;    3,318
867,215;13160,517;    0,074;    0,136
867,776;13056,601;   -1,199;   -0,136
868,336;13108,412;    1,529;    0,136
868,897;12676,678;    3,438;    1,682
869,457;12488,034;    3,256;    0,318
870,017;12732,027;    2,438;   -1,227
870,578;13202,838;    1,893;    0,773
871,138;12803,558;    2,620;   -0,955
871,698;12421,005;   -0,562;   -1,318
872,258;12293,816;    0,711;   -2,864
872,818;12700,355;    2,347;    0,045
873,378;12678,620;   -2,198;    1,045
873,938;12229,250;    4,984;    0,500
874,498;12500,152;    1,256;   -1,955
875,058;12441,235;    4,347;    1,773
875,618;12325,501;    1,438;   -2,682
876,177;12249,494;   -0,471;    0,136
876,737;11919,396;   -0,289;    1,955
877,297;11948,298;    2,711;    1,955
877,856;11966,109;    2,529;    0,318
878,416;11922,192;    2,438;   -0,136
878,976;12084,458;    3,438;    0,409
879,535;12276,905;    4,529;    3,136
880,095;12090,716;    1,347;    0,045
880,654;12177,982;    0,347;    1,318
881,213;12276,884;    2,347;    1,500
881,773;11935,240;    1,984;    2,682
882,332;12249,688;    6,075;    5,136
882,891;12140,408;    0,711;    2,136
883,451;12515,583;   -2,016;    1,682
884,010;11991,030;   -1,107;   -0,409
884,569;12131,477;   -2,289;   -0,045
885,128;12230,379;   -0,743;   -1,864
885,687;12304,190;   -0,743;    0,682
886,246;12075,001;    2,620;    2,136
886,805;11828,176;    1,620;    2,045
887,364;12041,896;    1,166;   -0,500
887,922;12333,071;   -0,016;    0,045
888,481;11883,973;    1,530;    0,591
889,040;12168,784;    3,711;    2,136
889,599;12714,959;    2,166;    1,409
890,157;12768,588;    2,166;    2,409
890,716;12402,581;    2,166;    0,227
891,274;12249,937;    0,075;   -1,136
891,833;12629,384;    1,166;    0,864
892,391;12491,195;    1,802;    0,500
892,950;12557,552;    0,166;   -0,773
893,508;12898,908;    0,984;   -0,409
894,067;12292,083;   -0,379;    0,136
894,625;12267,531;   -1,016;   -1,500
895,183;12453,251;   -0,198;   -0,682
895,741;12349,244;    2,257;   -1,773
896,299;12200,782;    1,621;   -2,409
896,858;12389,138;    1,530;   -1,591
897,416;12508,768;    0,166;   -1,318
897,974;12307,579;   -2,197;    0,318
898,532;12442,390;    6,530;    2,682
899,089;12381,928;    0,621;   -0,682
899,647;12430,284;    0,530;    1,318
900,205;12212,368;    0,257;    1,045
900,763;12352,270;    2,166;    0,227
901,321;12431,627;    3,530;   -1,409
901,878;11891,529;    3,257;   -0,773
902,436;11829,612;    0,257;    1,318
902,994;12213,151;    6,712;    3,682
903,551;11697,143;    1,439;    0,409
904,109;12068,773;    1,530;   -1,409
904,666;11758,584;    1,439;    1,045
905,224;11601,213;    3,894;   -0,409
905,781;11396,842;   -0,470;   -0,318
906,338;11411,471;    0,167;    1,045
906,895;11364,373;    1,894;    2,045
907,453;11323,730;    2,348;    1,136
908,010;11339,995;    3,348;    0,409
908,567;11065,897;   -0,561;    0,591
909,124;10639,163;    2,439;   -1,500
909,681;10668,247;   -1,288;    0,682
910,238;10898,967;   -0,106;   -1,318
910,795;11194,596;   -1,561;   -1,136
911,352;10866,232;   -0,379;   -2,682
911,909;10357,687;    2,803;   -0,864
912,466;10792,505;    1,985;    1,500
913,022;10401,051;   -0,924;    0,500
913,579;10737,596;   -0,470;    2,045
914,136;10500,051;   -2,561;    0,955
914,692;10812,596;    1,530;   -1,227
915,249;10427,960;    0,530;    0,409
915,806;10635,596;    1,803;    1,955
916,362;10466,505;    0,894;    1,864
916,918;10070,778;    2,439;    1,045
917,475;10068,232;    1,621;    0,955
918,031;10132,414;    0,076;   -0,045
918,587; 9694,778;    0,621;   -0,318
919,144; 9950,323;   -0,379;    0,227
919,700;10169,414;    0,167;    0,773
920,256; 9805,051;    0,439;    0,045
920,812; 9547,141;    1,439;   -1,045
921,368; 9549,232;    1,348;   -1,045
921,924; 9242,869;    0,439;   -0,136
922,480; 8893,778;    0,076;    1,227
923,036; 9444,141;   -0,652;    1,955
923,592; 9417,869;    0,621;    0,318
924,148; 9332,778;    1,894;   -0,955
924,704; 8789,596;    0,258;   -0,409
925,259; 9087,505;   -0,561;    0,591
925,815; 8860,869;    3,803;    0,500
926,371; 8464,687;    3,530;    1,409
926,926; 8399,141;    1,621;    0,591
927,482; 8101,778;    1,621;    0,773
928,037; 8026,687;   -0,833;    2,045
928,593; 8319,141;    0,258;    1,045
929,148; 8187,687;    1,167;   -1,500
929,704; 7748,323;    2,439;   -0,500
930,259; 7953,960;    0,894;   -0,136
930,814; 7228,051;    1,803;    1,955
931,369; 6980,323;    0,258;   -0,773
931,925; 6910,869;   -1,924;    0,136
932,480; 6836,596;    3,076;   -2,591
933,035; 6843,232;    3,985;   -0,318
933,590; 6609,505;   -1,742;   -1,773
934,145; 6327,051;   -1,288;   -0,318
934,700; 6624,869;    0,348;   -0,591
935,255; 6469,414;    4,803;    0,045
935,809; 5974,778;    6,258;    0,864
936,364; 5286,141;    2,167;   -0,136
936,919; 5307,141;    2,348;   -1,773
937,474; 5248,687;    1,348;    0,136
938,028; 5045,687;    3,076;    1,136
938,583; 4716,505;    6,348;    4,682
939,138; 4933,232;    0,167;    2,136
939,692; 4479,687;   -1,015;   -1,136
940,247; 4271,869;    1,167;   -1,045
940,801; 3963,505;    0,621;    0,227
941,355; 3905,051;    0,439;    2,591
941,910; 3616,232;    0,712;   -2,136
942,464; 3733,869;    2,712;   -0,318
943,018; 3635,778;    3,258;   -0,227
943,572; 3555,051;    2,803;   -0,682
944,126; 3154,869;   -0,924;   -0,409
944,681; 3046,505;    0,712;    0,227
945,235; 3028,687;    2,167;   -0,591
945,789; 2973,051;    1,258;   -1,864
946,342; 3146,687;   -0,561;   -0,591
946,896; 2915,414;    0,348;    0,955
947,450; 2706,687;   -0,561;   -0,227
948,004; 2946,414;    1,076;   -0,045
948,558; 2909,051;    1,258;   -0,864
949,111; 2835,960;   -1,197;   -0,318
949,665; 2952,596;   -0,106;   -0,682
950,219; 2856,596;    0,621;   -1,045
950,772; 2863,505;    0,258;    1,864
951,326; 2815,596;   -1,106;   -0,955
951,879; 2840,687;    1,076;   -2,318
952,433; 2891,232;    1,348;    2,227
952,986; 2738,960;    0,348;    0,682
953,539; 2660,051;    1,530;    0,591
954,093; 2638,778;    0,985;   -1,318
954,646; 2772,687;   -0,288;    1,318
955,199; 2596,869;    1,258;   -0,500
955,752; 2578,687;    1,985;    1,773
956,305; 2514,141;    0,894;    2,955
956,858; 2626,778;    0,621;   -0,318
957,411; 2790,505;    3,621;    2,136
957,964; 2633,232;    2,076;    2,136
958,517; 2589,687;    0,985;    3,136
959,070; 2464,869;   -1,197;    1,955
959,623; 2631,869;    1,076;    1,500
960,176; 2439,323;    0,712;    2,045
960,728; 2400,414;    1,712;    0,773
961,281; 2447,051;    2,258;    0,500
961,834; 2456,687;   -0,833;    0,864
962,386; 2393,869;    1,258;    1,045
962,939; 2320,960;    3,439;   -0,318
963,491; 2445,323;    2,621;    1,136
964,043; 2330,778;    0,076;    2,409
964,596; 2473,869;    1,712;    2,227
965,148; 2320,051;   -0,379;    1,773
965,700; 2255,232;   -0,015;   -0,227
966,253; 2412,687;   -0,833;    0,318
966,805; 2275,778;    1,894;    0,773
967,357; 2288,505;    0,439;   -1,500
967,909; 2292,596;    1,167;   -1,227
968,461; 2321,051;    0,894;    3,136
969,013; 2259,596;   -1,561;   -0,864
969,565; 2342,505;    1,803;   -1,136
970,117; 2550,141;    3,803;    1,045
970,669; 2308,323;    3,258;   -0,136
971,220; 2139,414;    2,167;   -1,500
971,772; 2107,596;    1,348;   -0,318
972,324; 2223,960;   -1,197;   -0,500
972,876; 2154,869;    0,167;   -0,045
973,427; 2326,960;   -1,197;   -1,045
973,979; 2307,051;    0,076;   -2,500
974,530; 2243,323;    0,803;    1,318
975,082; 2267,323;    2,167;    1,682
975,633; 2183,051;    2,894;    1,682
976,184; 2330,778;    2,076;    0,773
976,736; 2180,414;    0,348;    0,227
977,287; 2039,687;    0,258;   -0,500
977,838; 2167,778;   -0,924;   -0,318
978,389; 2199,687;    0,803;   -0,500
978,940; 2057,960;    1,258;   -0,409
979,491; 2086,414;    2,258;   -0,500
980,042; 2079,778;   -0,652;    3,045
980,593; 2106,232;    1,894;    0,227
981,144; 2201,414;    3,530;   -0,500
981,695; 2203,687;   -0,470;    1,500
982,246; 2151,687;   -1,833;    1,045
982,797; 2197,414;   -0,561;    0,682
983,347; 2339,051;    2,167;    0,591
983,898; 2527,323;    4,167;    0,409
984,449; 2384,505;    2,530;    0,773
984,999; 2220,687;    1,894;   -1,136
985,550; 2070,232;    3,167;   -0,318
986,100; 2038,778;    0,712;   -0,318
986,651; 2080,232;    0,258;    0,045
987,201; 2086,687;    0,894;   -0,591
987,751; 2138,323;   -0,288;    2,864
988,302; 2144,687;   -0,379;    1,500
988,852; 2162,323;    1,985;   -1,136
989,402; 2243,323;    0,985;    0,682
989,952; 2197,051;    1,621;    0,864
990,502; 2208,505;    1,076;    0,682
991,052; 2154,778;   -0,106;    0,045
991,602; 2039,960;    1,167;    1,318
992,152; 2071,051;    2,803;    0,682
992,702; 2059,869;    1,167;   -0,045
993,252; 2000,141;    0,076;   -0,500
993,802; 2110,141;    1,167;    1,318
994,352; 2262,778;   -0,742;    1,136
994,901; 2286,051;    1,076;    3,227
995,451; 2238,687;   -1,197;    0,318
996,000; 2289,051;    1,076;    0,318
996,550; 2086,687;    2,894;    0,227
997,100; 2085,687;   -0,561;   -0,045
997,649; 2347,505;   -0,197;    0,955
998,198; 2048,869;   -0,288;   -1,500
998,748; 2235,323;    0,348;   -2,318
999,297; 2119,596;    0,985;   -0,409
999,846; 2234,687;    1,894;   -0,773
1000,395; 2211,323;    1,530;    0,500
1000,945; 2245,232;    1,076;   -0,773
1001,494; 2291,960;    0,167;    0,682
1002,043; 2260,869;    0,712;    0,864
1002,592; 2073,414;    3,439;    1,955
1003,141; 2202,414;    2,439;   -0,682
1003,690; 2155,141;    1,258;    0,500
1004,238; 2158,232;   -0,106;   -0,045
1004,787; 1861,414;   -1,288;    1,227
1005,336; 2121,232;    1,621;    0,682
1005,885; 2188,596;   -0,197;   -2,773
1006,433; 2257,051;   -0,470;    0,955
1006,982; 2412,505;    2,167;    1,682
1007,531; 2276,778;    2,712;   -0,227
1008,079; 2200,687;    0,258;    0,500
1008,627; 2288,414;    1,621;    0,409
1009,176; 2112,687;    0,076;   -1,955
1009,724; 2146,414;   -2,742;    0,864
1010,273; 2251,778;    1,076;    0,500
1010,821; 2280,141;    1,076;    1,409
1011,369; 2069,141;    0,076;    1,318
1011,917; 2056,687;   -0,833;   -0,591
1012,465; 2313,141;    2,530;   -1,591
1013,013; 2368,778;    0,439;   -1,682
1013,561; 2314,141;   -1,288;   -0,773
1014,109; 2394,414;   -0,833;    1,682
1014,657; 2263,323;    1,348;    0,591
1015,205; 2312,869;    0,894;   -0,955
1015,753; 2311,778;    0,258;   -1,409
1016,301; 2365,687;    2,621;    3,045
1016,848; 2377,141;    2,167;    0,409
1017,396; 2408,596;    1,621;    0,045
1017,944; 2491,414;    2,621;    1,864
1018,491; 2273,414;   -0,197;    1,409
1019,039; 2546,141;   -0,652;    0,591
1019,586; 2381,051;    0,076;    1,682
1020,134; 2419,869;    0,712;    1,500
1020,681; 2471,323;    2,894;   -1,136
1021,228; 2425,505;   -0,561;   -2,227
1021,776; 2294,414;   -0,833;   -1,136
1022,323; 2575,232;    0,803;    0,773
1022,870; 2480,323;   -0,470;   -0,045
1023,417; 2421,232;    2,076;    1,864
1023,964; 2459,505;    0,621;    1,227
1024,511; 2364,232;   -0,652;    0,773
1025,058; 2203,141;    0,439;   -0,045
1025,605; 2236,505;   -1,742;    3,136
1026,152; 2485,687;   -0,106;   -0,591
1026,699; 2225,323;    0,167;    1,318
1027,245; 2338,414;    2,439;    0,318
1027,792; 2466,505;    0,712;    1,409
1028,339; 2462,141;    4,076;   -0,045
1028,885; 2305,051;    3,621;   -0,227
1029,432; 2244,596;   -0,106;    0,227
1029,978; 2332,414;    1,348;   -1,591
1030,525; 2237,232;    1,621;    0,409
1031,071; 2390,596;    0,348;    1,136
1031,618; 2591,778;    1,258;    1,682
1032,164; 2361,869;    2,076;    3,045
1032,710; 2401,778;    0,076;   -1,500
1033,256; 2309,232;    0,712;   -0,136
1033,803; 2233,596;   -0,288;    1,500
1034,349; 2030,505;    1,803;    0,136
1034,895; 2168,960;    2,621;   -0,318
1035,441; 2149,687;    0,439;    0,318
1035,987; 2182,687;   -2,288;   -0,682
1036,533; 2231,323;   -0,197;   -0,955
1037,078; 2430,687;    4,712;    1,682
1037,624; 2251,141;    2,439;   -0,955
1038,170; 2209,596;    1,712;   -0,318
1038,716; 2184,960;    2,167;   -0,409
1039,261; 2070,778;    2,167;   -0,773
1039,807; 2034,323;   -0,015;    3,409
1040,352; 2110,778;   -1,288;   -0,318
1040,898; 2120,232;    0,167;   -0,682
1041,443; 2034,778;    0,803;   -2,591
1041,989; 2177,869;    3,621;    1,591
1042,534; 2002,960;    0,985;    2,591
1043,079; 2047,687;    1,985;    0,955
1043,625; 1939,141;    0,258;    0,500
1044,170; 1993,323;    2,439;    1,045
1044,715; 2240,141;    0,167;    0,955
1045,260; 2071,323;   -0,833;   -0,955
1045,805; 2061,323;    0,258;   -0,591
1046,350; 1998,778;    0,530;   -0,409
1046,895; 2044,596;    0,803;    1,591
1047,440; 2010,869;    1,530;    0,409
1047,985; 1884,869;   -1,197;   -0,955
1048,530; 1815,505;    1,348;    1,227
1049,074; 1890,869;    2,803;    0,318
1049,619; 1848,232;   -0,924;    1,955
1050,164; 1694,505;    1,076;    0,227
1050,708; 1756,778;    2,621;    0,045
1051,253; 2144,232;    3,258;   -2,227
1051,797; 1853,414;   -0,197;   -1,318
1052,342; 1779,051;    1,348;    1,045
1052,886; 1821,232;    1,803;   -1,409
1053,430; 1697,414;    2,167;    0,136
1053,975; 1722,232;    0,894;   -0,318
1054,519; 1723,323;    1,803;    3,227
1055,063; 1786,778;    3,621;    1,318
1055,607; 1695,232;    1,348;    0,227
1056,151; 1712,687;    0,530;    1,682
1056,695; 1596,687;   -1,833;   -1,136
1057,239; 1672,960;   -1,197;   -0,682
1057,783; 1690,414;    2,258;   -1,500
1058,327; 1684,596;    3,076;    1,409
1058,871; 1914,596;    3,985;    1,318
1059,415; 1647,687;   -0,561;   -0,045
1059,958; 1906,323;    2,985;    2,591
1060,502; 1626,596;    1,348;   -0,773
1061,046; 1503,141;    1,712;   -0,955
1061,589; 1470,323;    2,803;   -1,136
1062,133; 1391,232;    0,985;    1,864
1062,676; 1371,323;    1,439;    0,864
1063,220; 1377,414;    0,985;    0,500
1063,763; 1415,232;    2,985;    1,136
1064,306; 1478,323;    0,985;    1,864
1064,849; 1401,869;    2,076;    0,591
1065,393; 1392,960;    2,894;   -1,500
1065,936; 1468,505;    2,530;   -0,409
1066,479; 1350,687;    2,621;    1,318
1067,022; 1378,596;    1,894;   -0,227
1067,565; 1291,505;   -1,197;   -1,318
1068,108; 1293,141;    1,258;   -0,591
1068,651; 1250,505;   -2,470;    1,409
1069,194; 1212,869;   -1,106;   -1,682
1069,736; 1233,323;    3,803;    0,955
1070,279; 1203,141;   -1,652;   -0,500
1070,822; 1285,596;    1,530;   -0,318
1071,364; 1401,232;    0,530;    1,318
1071,907; 1207,051;    0,348;    3,227
1072,450; 1082,596;    0,258;   -0,045
1072,992; 1120,141;   -0,561;    3,136
1073,535; 1261,141;    0,167;    2,136
1074,077; 1057,414;    2,985;    2,045
1074,619; 1046,505;    0,985;    0,591
1075,161; 1087,232;   -0,561;    1,500
1075,704; 1267,141;    0,258;    1,227
1076,246; 1057,141;    1,530;    0,682
1076,788;  968,505;   -1,015;    1,773
1077,330; 1025,414;   -2,106;    2,136
1077,872; 1030,414;   -1,924;    0,955
1078,414; 1270,778;    3,712;    0,773
1078,956; 1025,232;    0,167;   -0,227
1079,498; 1274,596;    0,439;    0,318
1080,040;  992,323;    0,985;   -1,318
1080,581;  938,051;    0,621;   -0,318
1081,123;  861,051;   -0,106;   -0,773
1081,665;  901,505;    3,803;   -0,955
1082,206; 1196,232;    3,258;   -0,500
1082,748; 1067,232;    3,258;    2,045
1083,289;  927,869;    0,167;    1,318
1083,831;  860,960;    0,258;    0,227
1084,372;  916,869;    0,894;    0,591
1084,913;  922,232;    3,348;    0,864
1085,455;  864,051;    1,530;   -2,045
1085,996;  854,778;    0,530;    0,136
1086,537;  884,596;    0,985;    0,864
1087,078;  892,051;    0,439;   -2,136
1087,619;  951,141;   -1,652;    0,227
1088,160;  884,778;    1,439;    1,318
1088,701;  863,323;   -0,742;    0,682
1089,242;  812,687;   -0,561;   -2,227
1089,783;  897,687;   -0,561;    1,409
1090,324;  876,505;   -0,833;    0,682
1090,865;  764,323;   -1,924;   -0,409
1091,405;  717,596;   -0,561;    2,227
1091,946;  753,051;   -0,197;   -0,955
1092,487;  691,505;   -1,288;   -1,409
1093,027;  862,687;    1,803;   -1,500
1093,568;  715,960;    2,258;    1,227
1094,108;  810,505;    0,621;    1,773
1094,649;  749,869;   -0,470;    0,136
1095,189;  683,051;    1,167;   -0,682
1095,729;  663,960;    0,712;    0,955
1096,269;  654,051;    1,258;   -0,955
1096,810;  964,778;   -0,197;    0,500
1097,350;  807,869;   -0,561;   -0,773
1097,890;  699,960;    2,985;    1,227
1098,430;  953,414;    4,985;    2,864
1098,970;  839,414;    1,894;    1,682
1099,510;  687,505;   -0,833;   -2,318
1100,050;  634,960;    0,258;   -1,591
1100,589;  608,778;    0,076;   -0,318
1101,129;  728,960;    0,894;   -0,955
1101,669;  877,141;    2,803;    2,136
1102,209;  709,414;    1,530;    2,227
1102,748;  654,505;    3,439;    0,955
1103,288;  651,505;    0,712;   -1,227
1103,827;  674,051;    3,530;   -2,227
1104,367;  562,687;    1,712;   -2,409
1104,906;  537,141;   -1,015;   -1,136
1105,445;  608,505;    0,985;   -1,136
1105,985;  566,596;   -0,652;    1,500
1106,524;  601,596;    1,530;   -0,682
1107,063;  579,232;    1,167;    1,409
1107,602;  550,687;    1,894;   -1,500
1108,141;  484,596;    1,621;    1,500
1108,680;  598,778;    3,985;   -0,591
1109,219;  540,960;    0,167;   -0,500
1109,758;  537,414;    4,167;    0,682
1110,297;  500,232;   -1,106;   -0,682
1110,836;  454,778;    1,439;    0,955
1111,375;  609,414;    0,348;    0,409
1111,913;  628,051;    0,985;    0,773
1112,452;  561,687;    0,894;    0,136
1112,991;  448,869;    1,076;    1,955
1113,529;  419,778;    0,167;   -0,045
1114,068;  484,505;    0,439;    2,955
1114,606;  396,505;   -0,561;   -0,955
1115,144;  549,869;    1,530;    1,045
1115,683;  484,323;    1,985;    0,318
1116,221;  538,960;    2,076;   -0,864
1116,759;  455,232;    1,621;   -0,864
1117,297;  630,960;    1,621;    1,864
1117,836;  465,960;    1,985;   -1,227
1118,374;  469,232;    0,258;   -0,682
1118,912;  419,232;    0,439;    2,682
1119,450;  412,687;    0,985;    0,864
1119,988;  457,414;    3,348;    2,136
1120,525;  886,051;    7,258;    3,318
1121,063;  599,141;    0,530;    1,864
1121,601;  428,051;    1,076;   -1,227
1122,139;  377,869;    1,076;   -2,045
1122,676;  577,687;   -1,652;    2,773
1123,214;  513,687;    0,712;    4,409
1123,751;  338,960;    0,621;    2,227
1124,289;  446,505;    0,894;   -0,409
1124,826;  342,141;   -0,379;    0,227
1125,364;  270,505;    0,712;   -0,955
1125,901;  448,141;    6,258;    1,227
1126,438;  532,869;    3,530;    0,955
1126,975;  294,505;    2,985;   -0,773
1127,513;  353,505;    2,621;    2,136
1128,050;  279,414;   -0,561;   -0,682
1128,587;  366,869;    1,348;   -0,227
1129,124;  398,505;   -0,015;    1,318
1129,661;  282,505;   -1,924;    0,227
1130,198;  437,869;    2,439;    0,773
1130,734;  383,778;   -0,379;    1,409
1131,271;  268,141;   -1,197;    0,864
1131,808;  416,414;    1,621;    3,045
1132,345;  301,687;    4,530;    0,318
1132,881;  185,687;   -0,561;   -1,864
1133,418;  315,505;    0,348;   -1,136
1133,954;  261,232;    0,712;   -2,682
1134,491;  324,232;    1,712;   -0,773
1135,027;  238,687;    2,167;    0,864
1135,564;  314,596;    1,439;    2,955
1136,100;  296,051;   -0,742;    2,136
1136,636;  203,505;   -1,015;   -1,045
1137,172;  270,505;    0,894;   -1,045
1137,708;  214,960;   -1,561;   -1,045
1138,245;  216,232;    0,803;   -1,227
1138,781;  179,414;    1,803;   -3,318
1139,317;  232,051;    1,894;   -1,409
1139,852;  230,869;    3,076;    0,136
1140,388;  327,051;    2,076;   -0,409
1140,924;  227,596;    1,076;   -2,227
1141,460;  173,141;   -0,288;    0,136
1141,996;  118,505;   -0,652;    2,682
1142,531;  169,141;    1,076;    3,318
1143,067;  355,778;    1,167;    1,045
1143,602;  404,869;    3,439;   -0,318
1144,138;  267,869;    0,803;    1,045
1144,673;  151,505;    1,621;    1,409
1145,209;  205,232;    2,894;   -0,318
1145,744;  137,232;    0,803;    0,864
1146,279;  257,232;    1,530;   -0,136
1146,815;  185,323;    1,530;   -2,682
1147,350;  220,960;   -0,924;    0,045
1147,885;  141,232;   -1,924;   -1,318
1148,420;  140,869;    2,439;    0,773
1148,955;  128,323;   -1,470;    1,864
1149,490;  145,323;   -1,106;   -1,591
1150,025;  127,869;   -1,106;   -1,773
1150,560;  233,778;   -0,288;   -0,955
1151,094;  207,960;    0,258;   -0,591
1151,629;  210,414;   -3,742;    0,864
1152,164;  139,687;   -1,288;    1,318
1152,698;  106,778;    1,258;   -0,136
1153,233;   73,778;   -1,379;   -0,682
1153,767;  111,869;   -0,288;   -2,318
1154,302;  157,778;   -0,379;    1,773
1154,836;  153,232;    0,803;   -2,136
1155,371;  199,232;    2,258;    3,682
1155,905;  161,960;    1,985;    1,682
1156,439;  133,414;    0,530;   -0,500
1156,973;  162,232;    0,439;    0,318
1157,507;  110,141;   -1,742;    0,682
1158,042;  134,323;   -0,652;    1,045
1158,576;  180,141;   -0,561;    1,773
1159,110;  169,596;    0,076;    2,409
1159,643;  145,505;   -2,470;   -0,045
1160,177;   89,232;   -2,015;    1,500

