
Integration time [ms]:   0,050
Averaging Nr. [scans]: 11
Smoothing Nr. [pixels]: 0
Data measured with spectrometer [name]: 7318044SP
Wave   ;Sample   ;Dark     ;Reference
[nm]   ;[counts] ;[counts] ;[counts] 

186,757;  -34,980;   38,161;    1,318
187,357;   -8,658;   26,706;    0,955
187,958;  -22,381;   17,252;   -1,591
188,558;   18,183;   12,979;   -1,227
189,159;  -12,539;   10,070;   -4,500
189,759;  -35,854;    5,797;   -3,591
190,360;  -37,298;    6,797;   -2,136
190,960;  -13,545;    5,706;   -4,136
191,560;   -6,719;    2,614;   -6,591
192,161;  172,732;    5,885;   -3,500
192,761;   55,265;    5,520;   -3,227
193,361;    7,571;    3,065;   -3,773
193,962;   39,745;    1,612;   -2,682
194,562;   -3,689;   -0,114;   -3,955
195,162;    2,340;   -0,567;   -2,227
195,762;  104,937;    2,433;   -0,045
196,362;   52,233;    1,706;   -2,500
196,963;  -12,026;    1,706;   -0,864
197,563;   19,647;    1,252;   -0,955
198,163;  -11,258;   -0,111;   -0,682
198,763;   -1,932;   -0,020;   -0,500
199,363;   33,972;    3,616;   -0,500
199,963;   14,095;    2,162;    0,409
200,563;    5,980;    6,344;   -1,409
201,163;   -8,198;    5,435;   -0,227
201,763;   15,118;    1,435;    0,318
202,363;   -4,738;    0,980;    1,500
202,963;   18,027;    1,526;    1,045
203,563;   65,682;    0,344;    0,500
204,162;   10,630;    1,889;   -1,864
204,762;    8,858;    2,071;    0,591
205,362;  -13,974;    0,708;    1,955
205,962;    6,338;    3,435;    1,955
206,562;   -1,299;    1,889;    2,318
207,161;   -6,161;    1,708;    0,318
207,761;   50,734;    4,435;    2,409
208,361;   -2,533;    1,889;    1,409
208,960;   13,175;    2,889;    1,500
209,560;    8,614;    0,435;    1,591
210,160;   26,571;    5,071;    1,864
210,759;    6,873;    0,708;    1,227
211,359;  -10,425;   -0,474;    1,045
211,958;   82,964;    3,526;    2,045
212,558;   84,361;    0,799;    1,864
213,157;   21,758;   -0,929;    1,500
213,757;  140,723;    5,617;   -0,227
214,356;   45,513;    1,708;   -0,409
214,956;  131,294;    3,526;    0,409
215,555;   26,226;    0,617;    2,136
216,154;   -0,741;   -0,292;   -0,591
216,754;    2,694;    1,253;    0,773
217,353;    9,006;   -0,383;   -1,045
217,952;  -26,699;    2,072;    0,318
218,552;   29,856;    0,254;   -0,773
219,151;    1,641;   -1,110;    0,955
219,750;   -5,384;    0,890;   -0,227
220,349;  -14,311;   -2,292;    1,045
220,948;   29,004;    1,163;    1,136
221,548;   -5,837;    0,617;    1,227
222,147;    0,876;   -1,292;   -0,409
222,746;   67,612;    1,254;   -0,955
223,345;   21,569;   -1,019;    0,500
223,944;   17,354;    1,163;    0,773
224,543;   19,594;    4,072;   -1,409
225,142;   10,090;    1,345;    0,136
225,741;   12,660;    1,163;    1,045
226,340;    7,923;    1,254;   -0,955
226,939;   50,766;    2,708;   -0,136
227,538;    1,938;    1,163;   -0,773
228,137;   58,383;    0,435;    0,864
228,735;   32,919;    0,435;    1,227
229,334;  -24,736;   -0,474;   -0,227
229,933;   57,623;    0,799;    0,591
230,532;   50,781;   -1,201;   -0,409
231,131;   93,556;    1,253;    0,318
231,729;   34,302;    1,163;   -2,318
232,328;   17,876;    0,435;   -1,500
232,927;   20,102;    4,526;   -0,500
233,525;    9,445;    0,981;    0,045
234,124;   16,838;    1,890;   -1,591
234,723;   -0,994;    1,617;   -1,045
235,321;   -7,784;    1,163;    0,136
235,920;   -5,779;    2,526;   -1,227
236,518;   56,704;    1,072;    0,318
237,117;   -1,225;    2,890;   -0,227
237,715;   11,967;    1,163;   -0,500
238,314;   16,355;    1,708;   -2,318
238,912;   59,298;    0,526;   -1,409
239,510;   24,078;    1,162;   -1,227
240,109;   64,332;   -0,474;    3,773
240,707;   45,710;   -0,474;    1,227
241,305;  -14,554;   -0,383;    0,136
241,904;   19,083;   -0,292;   -2,045
242,502;   72,566;    3,253;   -0,227
243,100;   28,857;    3,344;   -0,955
243,698;   -3,314;    2,799;    1,682
244,297;   16,728;   -0,656;    0,682
244,895;   12,287;   -0,474;   -2,318
245,493;   70,713;    2,981;   -0,591
246,091;   76,550;    5,163;   -1,318
246,689;   35,904;    2,163;    0,591
247,287;   29,225;   -0,019;   -1,136
247,885;   16,325;   -1,019;    1,227
248,483;    1,000;   -0,201;   -0,500
249,081;   36,109;    0,981;    1,591
249,679;   44,195;   -1,019;    1,682
250,277;   -0,742;   -2,292;    0,864
250,875;   34,685;    0,617;   -1,045
251,473;    2,455;   -0,019;    0,500
252,071;   42,273;   -0,383;    1,045
252,669;    9,536;   -1,565;    0,318
253,267;   -1,140;    1,618;    0,773
253,864;    7,771;    0,617;    0,682
254,462;   53,660;    1,526;    1,591
255,060;   -6,115;    0,072;    1,318
255,658;  -10,010;   -3,292;   -0,136
256,255;    5,852;   -0,201;   -2,045
256,853;   27,052;    2,345;    1,409
257,451;   11,876;    1,981;    1,864
258,048;  153,737;    2,072;    1,864
258,646;   50,105;    0,436;   -1,045
259,243;   79,598;    2,981;    2,227
259,841;   43,966;    1,799;    0,318
260,438;   -2,517;    0,254;    0,864
261,036;   26,589;    0,617;    1,409
261,633;   -3,263;    1,526;    2,227
262,231;  -14,914;   -0,110;   -0,045
262,828;  -19,841;   -0,383;    1,136
263,425;   -5,827;   -1,928;   -0,591
264,023;   -5,660;    1,436;    0,045
264,620;   39,813;    1,526;   -0,318
265,217;   67,364;    2,890;    3,136
265,815;    7,363;    2,527;    2,136
266,412;   28,473;    0,072;    0,136
267,009;   26,321;    0,526;    0,773
267,606;   60,378;    0,345;   -0,955
268,203;   10,661;   -0,383;   -0,591
268,801;   10,378;   -0,474;    0,591
269,398;   -7,158;   -0,564;    2,500
269,995;   24,977;    0,890;    1,591
270,592;    7,025;    0,799;   -0,500
271,189;  -10,943;    1,981;    0,409
271,786;  -22,421;    2,072;    1,227
272,383;   28,699;   -0,383;    0,227
272,980;   -1,148;    1,617;    0,318
273,577;   -5,453;    2,162;    1,227
274,174;  -12,382;    1,435;    2,591
274,771;   25,445;    1,890;   -0,773
275,367;  169,810;    3,253;    1,409
275,964;   76,082;   -0,565;   -0,500
276,561;    7,201;   -2,474;   -1,045
277,158;  -16,168;    1,799;   -1,773
277,755;   62,745;   -0,110;    0,409
278,351;   25,823;    0,436;   -1,500
278,948;   38,521;   -0,201;    0,045
279,545;   26,440;    0,527;    2,318
280,141;   56,383;    1,254;   -2,045
280,738;   66,971;    2,435;   -0,136
281,334;   13,660;   -0,383;    0,591
281,931;   -1,332;    2,890;   -1,318
282,528;   43,381;    4,072;   -0,500
283,124;   62,024;    3,345;   -0,500
283,721;   53,267;    0,709;    1,409
284,317;   17,199;    0,163;    2,500
284,913;   54,252;   -0,110;    0,591
285,510;  108,888;    2,890;   -0,318
286,106;   65,822;    2,345;   -0,955
286,703;   30,458;    0,072;    1,955
287,299;   10,421;    1,254;   -0,591
287,895;    7,483;    0,890;   -1,045
288,491;    0,478;    0,163;    2,136
289,088;   26,803;    0,163;    2,409
289,684;   29,718;    2,890;    1,500
290,280;   79,900;    1,890;    0,682
290,876;   60,588;    0,163;    5,500
291,472;   45,865;    2,163;    2,227
292,068;   44,386;    1,254;    0,227
292,665;   12,694;   -0,564;    0,773
293,261;  -11,924;   -1,292;    2,136
293,857;   40,063;    4,072;    2,136
294,453;   15,431;   -0,928;    0,955
295,049;   93,246;    0,253;    1,955
295,644;   43,025;   -1,292;    0,136
296,240;   -0,534;    0,162;   -0,136
296,836;   22,802;   -0,747;    0,318
297,432;   57,482;    2,980;   -0,500
298,028;   57,912;    0,435;    0,773
298,624;   28,103;    0,889;    1,864
299,220;   27,984;    0,435;    0,591
299,815;   23,802;    0,526;   -0,409
300,411;   52,337;    0,435;    1,773
301,007;   61,702;    1,889;    0,227
301,602;   17,242;    2,071;   -2,318
302,198;   67,970;    1,435;   -0,773
302,794;   26,467;    1,526;   -0,500
303,389;    4,041;    1,071;    1,045
303,985;   11,673;    1,253;    1,409
304,580;   69,912;    0,889;    1,591
305,176;   31,122;    0,344;    0,136
305,771;  -20,577;   -0,929;   -1,227
306,367;  148,911;    3,071;    0,136
306,962;   57,242;    2,889;    1,500
307,558;   78,266;    2,435;    0,136
308,153;   65,041;   -0,383;   -1,136
308,748;   13,314;    0,162;    1,682
309,344;  138,854;    0,253;   -1,318
309,939;  130,438;    2,071;   -1,318
310,534;   36,873;   -2,020;   -1,682
311,130;   24,572;   -0,656;   -2,500
311,725;    9,739;    0,526;   -0,500
312,320;   16,682;    1,253;    0,045
312,915;   53,064;    2,890;   -1,045
313,510;  138,691;    0,526;   -0,500
314,105;   30,558;   -3,565;    1,409
314,700;   -8,093;   -1,656;   -1,045
315,295;   15,458;   -0,020;    0,045
315,890;   -2,141;   -0,292;    0,864
316,485;   35,940;    0,253;   -0,318
317,080;    3,352;   -0,929;    1,591
317,675;  115,601;    3,071;   -0,682
318,270;  222,745;    6,889;    3,318
318,865;  140,008;    2,435;    3,045
319,460;   74,936;   -1,565;    0,591
320,055;   15,616;   -2,565;   -1,227
320,650;    7,899;   -1,838;   -0,591
321,244;   16,482;    0,889;   -1,409
321,839;    7,845;    0,980;   -0,227
322,434;   26,228;   -0,111;   -1,591
323,029;    4,554;   -0,474;    1,591
323,623;    0,223;    0,798;    0,773
324,218;   78,123;    2,707;    1,409
324,812;   49,113;    0,889;    1,591
325,407;   37,572;   -0,929;    2,045
326,002;  103,467;    0,526;   -0,409
326,596;   72,333;   -0,656;    1,318
327,191;   10,419;   -0,383;   -1,045
327,785;   13,879;   -0,747;   -0,227
328,379;    9,180;   -0,383;    0,136
328,974;   26,668;    1,798;   -3,955
329,568;   45,247;    2,889;   -2,409
330,163;   77,424;    2,435;    1,045
330,757;   20,571;    0,253;    1,591
331,351;    0,682;   -0,292;    0,682
331,945;   -8,179;   -0,383;    1,409
332,540;   44,055;    1,617;   -0,591
333,134;   41,466;    3,344;    0,773
333,728;   50,385;    2,799;    0,318
334,322;   11,831;    0,889;   -0,864
334,916;   13,901;    0,344;    0,955
335,510;   79,242;   -0,111;   -0,136
336,105;   69,419;   -0,929;    1,591
336,699;   29,265;   -1,292;    0,591
337,293;   60,667;    1,071;    0,318
337,887;   35,261;    0,071;    1,955
338,481;  104,624;    2,980;    0,591
339,074;  167,255;    2,071;    2,682
339,668;  158,447;   -0,110;    1,227
340,262;  529,327;    7,708;    3,227
340,856;  282,600;    1,708;   -0,682
341,450;  114,015;    0,708;    1,864
342,044;  164,212;    1,799;    0,136
342,637;  251,605;    1,162;   -2,136
343,231;  240,124;   -1,474;    0,682
343,825;  203,801;   -0,747;   -0,591
344,419;  201,242;   -0,474;    0,500
345,012;  649,735;    2,889;    4,045
345,606;  490,826;   -0,656;    1,591
346,199;  267,645;   -0,111;   -0,227
346,793;  376,564;    2,525;    2,045
347,386;  245,888;    0,889;   -1,136
347,980;  177,119;   -0,838;   -0,045
348,573;  281,933;   -1,748;    0,409
349,167;  576,910;    6,161;    4,773
349,760;  478,780;    2,252;    2,682
350,354;  450,638;    1,616;    1,136
350,947;  515,054;    2,798;    1,682
351,540;  396,614;    0,616;   -1,409
352,134;  279,905;   -1,111;    1,136
352,727;  326,253;   -0,657;    1,136
353,320;  352,804;    2,343;    0,591
353,913;  298,168;   -1,929;    1,864
354,507;  514,124;    0,434;   -1,227
355,100;  403,795;    0,071;    0,864
355,693;  791,623;    4,798;    2,409
356,286;  552,441;    0,980;    2,773
356,879;  421,981;   -0,475;    1,227
357,472;  401,134;    0,980;    1,500
358,065;  449,766;    3,161;    2,500
358,658;  312,063;    0,798;    2,318
359,251;  266,445;    0,252;   -0,591
359,844;  440,738;    0,343;   -1,136
360,437;  528,689;    0,252;    0,045
361,030;  373,412;    0,525;   -0,682
361,623;  362,552;    0,434;    0,318
362,215;  581,317;    0,979;    2,045
362,808;  433,556;   -2,293;   -1,682
363,401;  345,624;    0,798;    0,136
363,994;  553,232;    3,252;   -1,500
364,586;  345,170;    0,888;   -1,500
365,179;  290,850;   -0,203;   -1,136
365,772;  160,102;   -0,930;    2,045
366,364;  287,525;    1,524;   -3,227
366,957;  347,631;    1,342;   -0,045
367,549;  286,096;   -0,203;   -0,864
368,142;  296,039;    0,978;   -1,500
368,734;  255,596;    2,523;   -2,136
369,327;  175,869;    2,341;   -0,500
369,919;  216,794;   -1,659;    0,409
370,512;  233,188;   -1,023;   -0,500
371,104;  469,334;    2,704;    1,591
371,696;  485,940;    1,703;   -0,955
372,289;  345,851;    0,157;    1,136
372,881;  290,103;    1,156;    1,318
373,473;  182,944;    4,064;    1,136
374,066;  270,284;    1,336;    0,500
374,658;  228,110;    0,879;    1,136
375,250;  161,131;   -1,668;   -1,409
375,842;  201,694;   -0,124;   -0,045
376,434;  153,901;   -2,762;   -0,409
377,026;  148,091;   -1,855;   -2,500
377,618;  172,693;    0,779;   -0,682
378,210;   94,934;    3,141;   -1,955
378,802;   62,930;    3,412;   -0,591
379,394;  478,260;    3,411;    0,682
379,986;  230,655;    1,138;   -0,955
380,578;  126,627;    1,410;    0,773
381,170;  370,768;    0,320;    0,045
381,762;  274,543;   -0,224;    1,409
382,354;  246,916;   -0,223;   -1,318
382,945;  161,168;    0,870;    0,318
383,537;  125,760;    1,144;   -1,955
384,129;  130,850;    0,963;   -1,136
384,721;  254,269;    0,418;    0,955
385,312;  176,766;   -1,399;   -0,955
385,904;  258,264;   -0,945;    1,591
386,496;  161,031;    0,691;    1,045
387,087;  301,176;    0,418;    2,500
387,679;  235,082;   -0,401;    0,045
388,270;  208,680;   -2,401;    2,045
388,862;  176,685;   -0,401;   -0,318
389,453;  153,771;    1,054;    1,045
390,045;  172,465;    3,236;   -2,682
390,636;   75,719;    0,144;   -0,591
391,227;  123,407;    2,054;   -0,045
391,819;  107,206;    0,781;    0,773
392,410;  371,401;    0,600;    0,045
393,001;  178,566;    1,600;   -1,591
393,593;  239,743;    0,600;   -0,045
394,184;  288,131;    0,873;   -0,409
394,775;  153,538;    1,146;    2,136
395,366;   81,706;    1,782;    0,773
395,957;  269,727;   -2,400;    0,136
396,548;  150,702;    1,054;    2,682
397,139;  273,411;    2,236;    0,591
397,730;  183,017;    0,873;    0,955
398,321;  191,428;    0,509;    0,955
398,912;  129,447;   -0,764;    0,136
399,503;  136,189;   -1,945;   -1,409
400,094;  171,466;   -1,582;    1,682
400,685;  153,696;    3,600;    0,045
401,276;  109,256;   -0,400;   -0,955
401,867;   87,437;   -1,127;    0,773
402,458;   45,931;    1,509;   -2,318
403,048;  197,050;    0,146;    0,591
403,639;  132,845;    1,509;    0,864
404,230;  254,920;    0,691;    0,318
404,821;  302,461;   -0,127;    0,045
405,411;  196,576;   -0,763;   -2,591
406,002;   99,193;    3,237;   -1,136
406,592;  328,341;    2,691;    0,045
407,183;  179,962;    0,328;   -1,500
407,774;  150,713;    1,419;   -0,136
408,364;  108,048;    2,600;    0,409
408,954;  215,302;   -0,036;    1,227
409,545;  214,818;    1,873;    1,045
410,135;  158,267;   -1,581;    0,500
410,726;  109,050;    0,783;    0,318
411,316;  289,583;    2,237;    0,773
411,906;  123,553;    0,146;   -0,409
412,497;  119,597;   -0,490;   -0,045
413,087;   68,502;    0,783;   -0,227
413,677;    8,175;   -2,490;    3,864
414,267;   -1,442;   -1,035;    1,409
414,857;  -22,203;    0,419;    4,227
415,448;  -36,144;   -0,763;    0,500
416,038;  -17,609;   -2,945;   -0,591
416,628;   21,692;    0,965;    0,409
417,218;   69,610;   -1,762;    3,318
417,808;  200,485;    0,965;   -0,409
418,398;   77,710;   -1,035;    2,682
418,988;  -20,639;   -2,217;    0,591
419,578;   61,108;    3,601;    1,409
420,168;    9,027;    0,692;   -0,955
420,757;  120,525;    0,964;   -1,500
421,347;   24,480;    1,601;   -0,227
421,937;   -8,425;    3,329;    1,409
422,527;  106,063;    2,602;   -0,773
423,116;  228,007;    2,692;   -0,045
423,706;    1,188;    2,965;    0,318
424,296;  -44,922;    1,601;    0,682
424,885;   59,805;    1,510;   -3,045
425,475;   29,858;    1,147;   -2,864
426,065;  -56,583;   -1,489;   -0,318
426,654;  -79,579;    0,329;   -0,318
427,244;  153,020;    1,147;    1,409
427,833;  117,499;    1,056;   -0,500
428,423;    8,283;    0,147;    1,136
429,012;   11,540;    2,420;   -1,136
429,601;  112,616;    2,057;    0,136
430,191;   23,038;    2,511;    4,318
430,780;  -63,914;   -1,671;   -0,409
431,369;   94,808;    1,329;   -0,045
431,959;    8,798;    1,693;    0,500
432,548;  -47,231;   -1,398;   -0,045
433,137;  -95,753;    0,329;   -1,318
433,726;  -33,748;    0,148;    0,500
434,315;  -12,423;    0,148;    2,409
434,905;   74,719;    0,693;    1,409
435,494;   62,744;    3,148;    0,955
436,083;  -41,188;    1,420;   -0,955
436,672;   37,926;    1,148;    0,500
437,261;   -0,352;    0,512;   -1,955
437,850;  193,246;   -1,125;    0,682
438,439;  233,839;    2,239;    1,955
439,027;  334,733;    3,421;    1,773
439,616;  256,775;    2,239;    1,227
440,205;   55,924;    0,057;   -2,136
440,794;   24,914;   -0,306;   -0,045
441,383;  -29,517;    1,603;   -0,591
441,971;  -50,101;   -0,306;    0,591
442,560;  -40,929;    0,603;   -1,773
443,149; -120,116;    3,060;   -1,318
443,737;  -88,535;    0,968;   -2,318
444,326;  -63,446;    0,331;    0,318
444,915;  -18,279;   -1,851;    0,864
445,503;  -14,384;    0,058;   -0,318
446,092;  220,056;    7,876;    2,136
446,680;  155,563;    1,876;    0,318
447,269;   51,343;   -1,487;   -0,318
447,857;   46,715;    2,240;   -1,773
448,445;   11,725;    2,149;    1,318
449,034;  -32,390;    0,876;   -1,136
449,622;  -29,835;    1,240;    3,500
450,210;  218,302;    3,149;    2,227
450,799;  137,278;    2,604;   -0,591
451,387;  103,206;    1,786;   -0,591
451,975;   88,556;   -1,305;    0,864
452,563;  152,987;    0,422;    2,318
453,151;    0,445;   -1,032;   -1,227
453,739;   38,621;   -1,577;    0,136
454,328;  136,009;    0,604;   -2,136
454,916;   71,468;    1,150;   -0,136
455,504;   96,086;    3,513;    1,227
456,092;  -11,732;    2,150;   -1,591
456,679;  -37,646;    0,604;    0,682
457,267;  349,545;    3,604;    1,045
457,855;   54,989;    3,241;    1,409
458,443;  -75,055;   -0,304;    1,682
459,031;   55,620;    1,332;    2,409
459,619;   23,008;   -3,577;    2,864
460,206;  -54,690;   -0,759;    2,045
460,794;  -53,796;   -0,668;   -0,227
461,382;  -20,477;    0,878;   -0,864
461,970;  -19,816;    0,605;    1,864
462,557;  -74,165;    0,878;   -0,682
463,145;   28,060;   -0,304;   -1,682
463,732;  244,547;    2,514;   -1,045
464,320;   41,082;    1,514;   -3,045
464,907;  156,872;    0,423;   -0,773
465,495;   81,478;    2,696;   -1,227
466,082;   11,814;    2,060;   -0,045
466,670;   37,398;    2,605;    1,227
467,257;  -42,416;    0,060;    2,045
467,844;   43,521;    1,514;    0,045
468,432;   15,775;   -0,031;    3,500
469,019;  -23,719;    1,606;   -1,773
469,606;   53,641;    0,969;    3,682
470,193;   80,678;    2,151;    0,227
470,780;   38,913;    0,333;    0,864
471,368;  -23,882;   -1,212;   -0,773
471,955;   65,396;    1,060;   -0,682
472,542;   28,950;   -0,303;   -1,136
473,129;  -63,217;   -0,485;    0,136
473,716;  -52,862;    0,060;    0,591
474,303;  -25,389;    1,333;   -0,864
474,890;  -23,452;    2,333;   -0,500
475,477;   67,365;   -0,576;    0,409
476,064;   -9,631;    0,697;   -1,591
476,650;   99,576;    2,152;    0,318
477,237;   19,121;    1,879;    0,955
477,824;   -9,243;    3,879;    0,864
478,411;  -66,917;    0,606;   -0,318
478,997;  -78,243;    0,606;   -0,773
479,584; -120,900;   -0,666;   -0,409
480,171;   24,895;    1,243;   -0,773
480,757;   79,913;   -0,848;    0,773
481,344;   -4,665;    0,334;    0,409
481,931;  -89,108;   -0,393;    1,045
482,517;   16,204;    0,425;    0,318
483,104;   98,431;    1,334;    2,864
483,690;  -20,177;    0,243;    0,045
484,276;  -43,298;    0,698;    0,227
484,863;  144,397;    2,152;    1,136
485,449;    7,510;    0,152;    0,318
486,035;  -36,327;   -0,666;   -0,136
486,622;   49,655;   -2,393;    0,045
487,208;  -23,336;    1,334;    1,500
487,794;  -86,849;    0,971;    0,318
488,380;  -80,591;    0,698;   -1,409
488,967;  -77,310;   -1,120;   -0,409
489,553;  -71,520;   -1,029;   -1,409
490,139;   -0,352;    0,971;    0,773
490,725;  -60,123;    0,789;   -0,227
491,311;  -29,295;    1,516;    3,045
491,897;  -38,448;   -0,665;    1,500
492,483;  -35,793;    0,426;    1,227
493,069;  371,738;    5,426;    0,864
493,655;  107,680;    1,789;    0,682
494,241;   -5,764;    1,517;   -0,955
494,826;   -2,166;    0,335;   -1,045
495,412;   55,231;    0,335;   -0,682
495,998;  -25,191;    0,971;   -0,318
496,584;   19,991;    2,244;    1,045
497,169;   37,426;    2,335;   -0,682
497,755;  -22,173;    1,244;    1,227
498,341;   94,598;    2,153;    0,318
498,926;  209,990;    2,881;    1,955
499,512;  -14,768;   -0,028;    2,955
500,097;  -26,820;   -0,574;   -0,318
500,683;    1,157;   -0,028;    2,136
501,268;  -40,518;    1,881;   -0,955
501,854;  -18,983;   -0,119;    1,227
502,439;  -30,443;   -0,573;   -1,773
503,024;   -9,667;    1,608;    0,500
503,610;   12,338;    1,335;   -0,682
504,195;  -35,342;    1,245;    1,955
504,780;   46,429;    2,335;    1,227
505,366;  110,917;    4,063;    2,864
505,951;   50,853;   -1,119;    1,045
506,536;   -9,989;    1,427;   -3,682
507,121;   30,476;    1,699;   -0,318
507,706;   -4,405;   -0,392;    1,045
508,291;  -40,319;   -2,937;    1,136
508,876;  -46,488;   -0,482;    2,591
509,461;  -14,689;    1,427;   -0,773
510,046;   14,852;   -0,391;    0,318
510,631;   28,963;   -0,119;   -0,773
511,216;  -36,028;   -0,664;   -0,500
511,801;   16,006;   -0,755;    2,591
512,386;   34,096;    0,972;    0,500
512,971;   46,272;    0,427;    0,955
513,555;   74,694;    1,154;   -1,500
514,140;   38,249;    1,336;   -3,136
514,725;  157,430;    1,791;   -1,136
515,309;   80,554;    1,064;    0,318
515,894;    9,148;   -0,300;   -2,227
516,479;   54,789;    1,973;   -0,955
517,063;   69,885;    0,882;    1,227
517,648;   45,286;    0,155;   -1,136
518,232;   47,060;   -1,300;   -1,409
518,817;  170,591;    1,337;    1,682
519,401;  348,682;    0,700;    0,591
519,985;  355,151;    2,700;    1,136
520,570;  264,174;   -0,118;   -1,955
521,154;  480,184;    0,064;    0,591
521,738;  817,451;    1,064;    2,409
522,323;  751,126;   -0,390;    1,682
522,907;  834,661;    2,428;   -0,136
523,491;  888,326;    1,155;    0,955
524,075; 1016,948;    0,428;    0,591
524,659; 1433,274;    0,973;    0,591
525,243; 1528,255;    0,883;    0,409
525,827; 1777,197;    0,883;   -0,045
526,411; 2274,638;    1,155;   -0,136
526,995; 2838,518;    0,337;    1,409
527,579; 3089,507;    1,974;   -1,045
528,163; 3575,693;    0,428;   -1,500
528,747; 4146,100;    1,065;   -0,773
529,331; 4725,177;    0,883;   -1,409
529,915; 5197,291;    2,338;    0,955
530,499; 5737,712;    0,247;    1,227
531,082; 6069,306;    1,065;    1,591
531,666; 6269,702;    0,520;    0,773
532,250; 7212,904;    0,428;    2,682
532,833; 7944,803;    0,610;    2,773
533,417; 8333,946;    1,247;    0,864
534,001; 8742,252;    0,429;   -0,318
534,584; 9824,213;    1,974;    0,500
535,168;10137,375;    3,247;    1,409
535,751;10610,199;    4,520;    0,045
536,334;10518,013;    4,520;   -0,409
536,918;11506,199;    1,974;    1,591
537,501;11929,060;    1,520;    1,318
538,085;12258,763;    1,702;    1,045
538,668;12674,203;    0,883;    2,409
539,251;13323,280;    3,156;    3,773
539,834;13683,242;    0,156;    0,773
540,418;13884,360;    3,247;    4,318
541,001;14241,614;    2,702;    1,773
541,584;14513,120;    1,429;    2,227
542,167;14388,614;    0,702;    2,955
542,750;14752,915;    0,793;   -0,773
543,333;14532,651;    1,429;    2,136
543,916;15481,384;   -0,298;    2,500
544,499;16264,991;    2,520;    0,227
545,082;16427,622;    0,248;    3,591
545,665;16723,761;   -0,207;    1,500
546,248;17202,651;    0,520;   -0,318
546,830;17006,751;   -1,752;    1,955
547,413;17511,119;    0,157;   -0,773
547,996;18213,028;    0,157;    0,500
548,579;18060,066;   -0,843;    0,955
549,161;18024,788;    0,884;    2,682
549,744;17892,189;    0,612;    0,409
550,326;18501,845;    0,885;   -1,136
550,909;18287,854;    2,339;    0,591
551,492;18758,151;    0,521;    0,227
552,074;18630,236;   -0,024;   -1,318
552,657;19264,031;    2,430;    0,045
553,239;19109,806;   -3,024;   -0,773
553,821;19078,615;   -1,570;    1,045
554,404;18604,533;   -0,024;    1,136
554,986;19043,284;    2,248;    1,045
555,568;19723,513;    0,430;   -0,955
556,151;18923,044;    4,067;   -0,227
556,733;19160,509;   -1,388;   -0,864
557,315;19721,178;    4,703;    0,500
557,897;19547,197;    0,521;   -0,500
558,479;19754,068;    1,703;    1,318
559,061;19883,263;    1,067;   -0,864
559,643;20267,914;   -0,297;    0,045
560,225;20700,418;   -0,388;    2,864
560,807;20774,551;    0,340;    0,318
561,389;20229,211;   -1,206;    2,318
561,971;20987,482;   -0,660;    2,136
562,553;20855,761;    0,613;    1,591
563,135;20991,856;    1,249;    1,136
563,717;20591,359;    3,158;    1,136
564,298;21360,033;    3,976;   -0,045
564,880;21070,773;    0,340;   -1,409
565,462;21291,955;    1,977;    1,318
566,043;22485,401;   -0,933;    2,318
566,625;22059,755;    4,067;    1,227
567,207;21908,018;    0,704;    1,682
567,788;23101,975;   -0,114;    1,500
568,370;23988,816;   -1,841;   -0,500
568,951;23768,008;   -0,569;    0,227
569,533;24665,040;    0,977;   -0,500
570,114;25209,884;   -0,296;    0,682
570,695;25723,983;   -0,478;   -1,318
571,277;26356,552;   -0,205;   -1,682
571,858;27089,036;    2,704;   -1,136
572,439;28030,424;    0,795;   -1,045
573,021;28199,508;    0,432;   -2,773
573,602;28785,021;    1,795;    0,318
574,183;29763,293;   -0,114;    2,227
574,764;29930,413;    2,068;    0,409
575,345;30525,881;    0,250;   -0,136
575,926;31180,825;    2,704;    0,136
576,507;31165,193;    2,704;   -0,227
577,088;32281,432;    1,704;    1,682
577,669;32370,035;    1,704;    1,955
578,250;33154,929;   -0,750;   -1,045
578,831;33846,129;   -0,841;   -2,227
579,412;34117,293;   -1,205;    0,955
579,993;35099,106;    1,432;    0,227
580,573;35436,240;   -0,023;   -0,955
581,154;34427,168;    1,613;   -0,591
581,735;35268,082;    0,341;    0,773
582,315;34784,537;    0,523;    2,136
582,896;35124,504;   -1,750;    1,227
583,477;34603,823;    0,614;    1,227
584,057;34836,164;    1,159;    0,955
584,638;35140,924;   -2,750;    2,318
585,218;35130,145;    2,886;    2,682
585,799;35271,647;    1,977;   -0,227
586,379;35311,978;    1,250;    1,591
586,959;34060,269;    2,613;    0,318
587,540;33403,818;    0,432;    2,227
588,120;32859,392;   -1,113;   -0,045
588,700;31759,479;    2,977;    2,136
589,281;32081,082;    1,250;   -0,955
589,861;32016,173;   -0,296;   -1,682
590,441;31808,101;   -1,477;   -2,682
591,021;30765,460;    1,432;   -2,591
591,601;31030,126;    0,431;    0,500
592,181;31031,667;   -1,296;   -0,773
592,761;30325,091;    2,250;    1,409
593,341;30234,953;    1,522;    0,045
593,921;30182,671;   -0,569;    1,591
594,501;30032,666;    1,250;    1,318
595,081;29927,050;    0,522;   -0,318
595,661;30288,848;    1,068;    0,955
596,240;30823,342;   -1,023;    0,136
596,820;30445,285;    2,613;    1,955
597,400;30670,489;    1,977;    0,773
597,980;30905,026;   -0,750;    1,045
598,559;30909,552;    0,341;   -0,227
599,139;30622,609;   -0,750;   -1,227
599,718;30535,245;    0,795;   -0,409
600,298;30803,222;   -2,387;    0,682
600,877;31019,055;    4,795;    1,409
601,457;31269,180;    0,340;    1,136
602,036;31210,571;    1,795;    2,045
602,616;31434,835;    2,250;    1,682
603,195;31732,897;    0,431;    3,500
603,774;31332,648;   -0,296;    2,045
604,354;31181,179;    2,522;   -0,500
604,933;30654,279;    0,250;    1,864
605,512;30796,356;    2,340;    0,591
606,091;30823,070;    1,886;    3,773
606,671;31654,792;    0,249;    0,773
607,250;30763,357;    1,431;    3,136
607,829;30983,228;    1,158;    3,227
608,408;30848,017;    4,613;    2,591
608,987;29825,813;    2,704;    3,409
609,566;30172,676;    0,341;   -2,500
610,145;30254,817;    2,885;    0,682
610,723;30688,071;    1,613;    6,864
611,302;29932,454;    1,067;    1,682
611,881;29342,985;    5,158;   11,227
612,460;30200,434;    0,795;    3,955
613,039;30659,732;    1,703;    2,045
613,617;29379,754;    0,886;    4,773
614,196;29561,377;    1,613;    1,227
614,775;29899,861;    1,249;    2,409
615,353;29856,541;   -1,660;    0,864
615,932;29542,809;    0,249;    2,409
616,510;30148,579;    0,158;    0,591
617,089;29651,258;    8,794;   17,591
617,667;29430,818;    4,885;    6,136
618,246;29239,374;   -1,115;    1,318
618,824;29389,015;    1,612;   -0,955
619,402;28958,842;    0,431;   -1,773
619,981;29508,537;    1,067;   -1,045
620,559;29408,326;    0,794;    1,682
621,137;28918,077;    3,067;    1,864
621,715;28847,240;    3,703;   -0,682
622,293;28772,671;    1,885;   -0,773
622,871;29260,723;    0,340;    0,500
623,450;28813,413;    0,430;   -0,864
624,028;28705,805;   -0,388;   -0,955
624,606;28338,006;    2,339;    1,682
625,183;28742,203;   -0,661;   -1,136
625,761;28315,193;    1,885;    1,136
626,339;28624,929;    2,339;    2,591
626,917;29016,357;    0,339;   -0,045
627,495;29069,146;    2,794;    1,318
628,073;28518,309;    5,248;    2,864
628,650;28163,141;    3,067;    2,136
629,228;28605,499;    1,248;    4,409
629,806;27991,705;   -0,024;    1,136
630,383;28259,055;    0,066;   -0,318
630,961;28050,921;   -2,206;   -0,955
631,539;27780,821;   -2,479;    0,227
632,116;27031,012;   12,703;   15,409
632,694;27626,802;    4,885;    6,500
633,271;27909,893;    1,975;    2,682
633,848;27861,754;    1,430;    2,045
634,426;27935,946;    1,521;    1,773
635,003;27056,115;   -0,207;   -0,409
635,580;27392,259;    1,884;    3,682
636,158;27933,674;    3,793;    1,227
636,735;27932,654;    3,339;   -0,500
637,312;28043,950;    0,521;   -0,682
637,889;28166,956;    2,248;   -0,682
638,466;27645,474;    0,066;   -0,409
639,043;27643,049;    1,702;   -1,136
639,620;27974,461;    0,611;   -0,955
640,197;28281,348;    1,612;    1,682
640,774;28389,508;    1,430;    1,136
641,351;28812,486;    0,612;    1,136
641,928;28206,737;    2,794;    1,409
642,505;27908,352;    0,794;   -0,500
643,082;27978,603;    1,885;    1,227
643,658;26956,581;    1,157;    1,500
644,235;27745,377;   -2,479;    2,500
644,812;28048,082;    1,794;    0,773
645,388;27759,606;    1,612;    1,409
645,965;27828,039;    1,521;    1,682
646,542;27918,199;    3,430;   -0,227
647,118;27915,722;    3,703;   -0,955
647,695;28226,246;    0,339;    1,136
648,271;28103,497;   -2,115;    0,500
648,848;28448,202;    0,248;    2,227
649,424;28305,817;    0,976;    1,318
650,000;28008,613;   -0,388;   -1,045
650,577;27868,773;    0,158;   -0,955
651,153;28356,478;   -1,115;    0,955
651,729;29374,366;    0,521;    0,864
652,305;29545,162;    1,339;    2,773
652,881;34070,140;   -1,297;    1,136
653,458;41243,300;    0,249;    0,227
654,034;45243,005;    0,703;    1,591
654,610;46842,165;    0,339;    0,773
655,186;48321,053;    1,612;    3,045
655,762;48000,303;   -1,842;    0,409
656,338;48121,372;    0,703;    0,136
656,913;49128,623;   -0,297;    0,409
657,489;48445,783;    0,249;   -0,318
658,065;48374,034;    0,794;   -1,591
658,641;48978,467;    2,158;   -0,864
659,217;48314,990;    2,067;    0,409
659,792;47706,241;   -1,751;   -0,409
660,368;48058,219;   -0,388;   -0,682
660,944;47760,834;    1,794;    1,227
661,519;43047,812;    0,522;    0,409
662,095;36565,881;   -0,206;    0,591
662,670;31579,859;   -0,206;   -0,136
663,246;30345,201;   -0,660;   -0,409
663,821;29576,270;    0,431;    1,682
664,396;29122,430;    0,613;    1,864
664,972;29413,954;   -0,660;   -0,500
665,547;29737,568;    3,794;    0,136
666,122;29794,001;    1,340;    0,318
666,698;30091,706;    2,431;    0,318
667,273;29354,048;    0,885;    0,136
667,848;30192,208;    0,340;    1,500
668,423;29944,004;    1,795;    2,318
668,998;30522,437;    0,976;   -0,682
669,573;31129,688;    2,067;   -1,500
670,148;30964,939;    1,885;   -0,682
670,723;30769,553;   -0,024;    0,318
671,298;31185,077;   -1,296;    1,045
671,873;31311,237;   -0,296;   -0,136
672,448;31262,578;    1,704;    0,136
673,023;31628,738;    0,249;   -0,227
673,597;31970,080;    2,704;    2,318
674,172;31682,422;    2,431;    0,318
674,747;31209,491;   -0,205;   -1,045
675,321;31099,015;   -0,933;    3,318
675,896;30679,629;    2,158;    1,045
676,471;31643,425;    2,522;    1,591
677,045;31393,767;   -0,296;    0,682
677,620;31463,200;    2,158;    1,136
678,194;31795,178;    0,249;    1,136
678,769;31309,520;    0,886;   -0,318
679,343;31490,952;   -0,023;    1,773
679,917;31356,749;    0,340;    1,955
680,492;31442,727;    0,249;    3,227
681,066;31587,250;    0,613;    0,409
681,640;31622,501;    1,795;   -0,318
682,214;32455,389;    2,340;    0,500
682,788;31927,549;    0,613;   -0,773
683,363;31929,527;    1,977;    1,682
683,937;31634,778;    0,886;   -0,318
684,511;32441,847;   -1,023;   -0,591
685,085;32091,825;   -1,478;    0,318
685,659;31846,257;    1,431;    0,864
686,232;32038,508;    1,159;   -0,318
686,806;31793,577;    2,159;    0,409
687,380;32512,737;   -1,932;    0,591
687,954;32728,624;    2,432;    1,136
688,528;32362,421;    2,613;    1,955
689,101;33238,853;    0,432;    1,045
689,675;32733,650;    0,886;   -0,136
690,249;32095,446;    3,432;    0,409
690,822;32412,970;    1,159;    0,318
691,396;32507,584;    2,068;    1,227
691,969;31977,199;    2,523;    0,136
692,543;32430,086;   -0,568;   -1,955
693,116;32099,064;   -0,659;   -1,409
693,690;31888,497;   -0,296;    0,500
694,263;32444,111;    2,341;    2,955
694,836;32452,544;    2,795;    3,591
695,410;31095,977;    1,159;    1,773
695,983;31552,591;    1,614;    0,591
696,556;31532,478;   -0,750;   -1,045
697,129;31893,638;   -1,114;    1,409
697,703;31548,435;    1,341;    1,955
698,276;31548,049;    1,705;   -0,773
698,849;31342,936;   -1,023;    1,409
699,422;31791,369;    1,250;    0,591
699,995;31371,620;   -0,659;    0,136
700,568;31928,053;   -0,204;    3,045
701,140;31922,303;   -1,841;    1,682
701,713;31589,463;    0,341;    2,409
702,286;31390,351;    0,796;    0,864
702,859;31341,511;    0,614;   -0,591
703,432;30412,398;   -0,841;    0,682
704,004;30972,285;    1,978;    0,318
704,577;30788,354;    1,068;    0,136
705,150;31397,423;    0,887;    2,500
705,722;31159,947;    1,523;   -3,227
706,295;30920,834;    1,432;   -0,591
706,867;30724,630;    0,250;    1,955
707,440;30934,245;   -0,113;   -0,409
708,012;31255,768;   -0,022;    0,591
708,584;31066,201;    2,705;    0,227
709,157;31371,997;    1,160;   -0,591
709,729;31052,430;    1,069;    2,045
710,301;31964,317;   -1,204;    0,045
710,874;31953,659;    0,341;   -0,227
711,446;30804,001;   -0,295;    0,864
712,018;30733,070;   -3,022;    0,500
712,590;30399,684;   -0,204;    1,682
713,162;30950,026;   -0,477;    1,318
713,734;31177,186;    1,796;   -2,045
714,306;31086,801;    0,342;   -0,409
714,878;29747,961;   -0,295;    0,864
715,450;30563,848;   -0,113;    0,864
716,022;30871,735;    2,433;    1,318
716,593;30986,895;    0,978;    0,591
717,165;30896,509;    1,796;   -1,227
717,737;30648,760;    0,796;    0,409
718,309;30323,920;    1,160;   -0,045
718,880;30200,444;   -1,295;   -1,409
719,452;30447,695;    0,887;   -1,591
720,024;29966,127;    1,705;   -0,591
720,595;30537,106;    2,978;    0,955
721,167;30092,538;    1,160;   -2,045
721,738;29567,153;    2,069;   -1,045
722,309;29480,858;    1,251;   -1,227
722,881;29241,109;    2,705;    0,773
723,452;29947,723;    1,251;    2,864
724,023;30167,429;    1,524;    2,682
724,595;29913,952;    2,342;    0,682
725,166;29608,749;    1,524;   -0,409
725,737;29197,454;    1,887;    0,227
726,308;29292,523;    0,797;    0,318
726,879;29735,320;    1,069;    1,227
727,450;29639,934;   -2,022;   -0,045
728,021;29608,912;    1,069;    0,682
728,592;29420,163;    1,160;    0,500
729,163;29730,050;    1,433;   -0,136
729,734;29687,847;    2,160;   -0,227
730,305;30002,643;    0,615;    0,136
730,876;30376,076;    0,888;    2,955
731,447;30094,145;    0,797;    2,682
732,017;30241,395;   -0,840;    1,864
732,588;29704,737;   -0,021;    1,227
733,159;29844,988;    3,615;   -1,045
733,729;29679,239;    1,251;    0,409
734,300;28905,490;    0,160;    0,864
734,870;29350,559;   -1,385;    0,591
735,441;29962,537;    0,888;   -0,591
736,011;29681,879;    1,070;   -1,591
736,582;29705,857;    1,251;    0,045
737,152;29103,290;    0,979;   -2,045
737,722;29560,086;    1,070;   -0,682
738,293;29308,064;   -2,021;    1,318
738,863;29154,860;    1,797;    2,318
739,433;28934,657;    4,524;    0,318
740,003;29540,271;    1,524;   -0,682
740,573;28955,977;    2,252;   -1,591
741,143;28948,318;    3,615;    0,318
741,713;29710,842;    0,252;   -0,500
742,283;29404,820;    1,706;    1,591
742,853;29109,253;    0,524;    1,591
743,423;28612,413;    0,161;    0,045
743,993;28745,573;    1,070;    1,500
744,563;28110,914;    2,524;   -0,864
745,133;27991,529;   -0,112;   -0,864
745,702;28712,234;    2,797;    1,773
746,272;27869,394;    0,434;    0,591
746,842;27640,191;   -0,748;   -0,591
747,411;28090,987;   -0,839;   -0,318
747,981;28285,056;   -0,930;    0,500
748,551;28361,943;   -0,021;   -1,045
749,120;28196,103;   -0,112;   -0,227
749,690;28599,809;    2,161;    2,409
750,259;28920,514;    0,979;    2,955
750,828;28822,674;    4,070;   -1,955
751,398;29066,561;   -0,112;   -0,045
751,967;28516,994;    2,888;    0,409
752,536;28749,972;    1,161;   -0,227
753,105;29159,223;   -1,384;    0,227
753,675;28914,292;   -0,112;    1,773
754,244;28904,816;    0,888;    3,591
754,813;28957,703;    0,979;    1,227
755,382;28563,681;    0,798;    0,955
755,951;29095,568;   -0,112;    3,682
756,520;28602,819;    2,525;    1,864
757,089;29183,070;    1,888;    0,500
757,658;29285,593;    2,434;    1,227
758,227;29272,390;   -1,111;    0,318
758,795;29593,550;   -1,021;    1,136
759,364;29898,073;    0,525;   -0,591
759,933;28840,688;    1,343;   -0,045
760,501;28390,575;    0,252;   -1,318
761,070;28864,644;   -0,293;   -1,409
761,639;29571,531;    1,434;    1,318
762,207;28831,146;    0,889;   -0,955
762,776;28804,306;    2,889;    0,864
763,344;28745,375;    0,071;    0,591
763,913;27909,080;    1,616;    1,409
764,481;28689,877;    1,980;   -0,136
765,049;28388,218;    0,616;    1,409
765,618;28302,560;    1,434;    0,318
766,186;28407,993;    2,434;    0,136
766,754;28598,971;    1,798;    1,864
767,322;27477,494;    1,162;    0,409
767,890;27535,473;    0,525;   -1,773
768,459;27928,633;    2,616;   -0,318
769,027;28105,338;    2,525;    3,409
769,595;27088,589;    2,616;    2,591
770,163;27522,294;    3,344;    2,955
770,730;27213,909;    2,525;   -0,136
771,298;27100,341;    1,162;   -1,409
771,866;27209,774;    0,253;    4,955
772,434;27490,752;    1,162;   -1,864
773,002;27689,367;    2,616;    0,682
773,569;27306,072;    1,071;    1,682
774,137;27130,868;    0,889;   -0,045
774,705;27922,938;   -0,747;   -0,136
775,272;27367,461;    0,253;    0,682
775,840;27141,530;   -0,111;    2,682
776,407;26644,508;   -0,293;    1,955
776,975;26221,577;    1,162;    0,318
777,542;27303,101;    2,162;   -0,045
778,110;27169,170;    0,707;   -0,045
778,677;26779,057;    1,071;   -0,864
779,244;26492,944;   -1,020;    1,045
779,812;26641,195;    0,980;    0,864
780,379;26435,264;    2,435;    1,136
780,946;26688,788;    2,617;   -0,773
781,513;26988,584;   -0,565;    0,318
782,080;26301,835;    1,253;    2,864
782,647;27085,904;    1,708;    3,045
783,214;26675,064;   -0,201;    3,864
783,781;26261,588;    1,708;   -0,682
784,348;26141,202;    0,253;    1,500
784,915;26627,180;   -1,474;    0,318
785,482;26354,158;    2,708;    2,591
786,049;26831,046;    1,071;   -0,591
786,615;26967,751;    1,708;   -0,955
787,182;26736,366;   -3,201;   -0,682
787,749;26378,980;   -2,201;    1,409
788,315;25696,686;    0,253;   -0,409
788,882;25962,664;    0,981;   -1,227
789,448;26672,551;    1,435;   -0,955
790,015;26692,620;    1,799;    3,227
790,581;26214,234;    0,708;    0,227
791,148;26090,667;    1,344;    1,045
791,714;26330,554;   -1,019;    3,136
792,280;25992,078;    3,708;    1,591
792,847;25554,329;   -0,928;    2,500
793,413;26125,943;   -0,110;   -0,318
793,979;25616,194;    1,526;   -1,318
794,545;25697,172;    2,981;    2,682
795,111;25100,605;    2,435;    1,318
795,678;25297,310;    3,526;   -1,682
796,244;24922,561;    2,799;    0,136
796,810;25482,358;    0,799;    0,773
797,375;25175,063;   -0,292;   -2,136
797,941;25259,223;   -1,110;    0,591
798,507;25350,837;    0,254;   -0,955
799,073;24930,634;    2,708;    0,591
799,639;25006,248;    1,435;    3,136
800,205;25046,408;   -1,565;    2,682
800,770;24484,205;    1,345;    1,773
801,336;24546,819;    2,981;   -0,955
801,901;24209,343;    6,072;    3,136
802,467;24796,684;    0,526;    2,045
803,033;24152,844;   -0,019;    0,864
803,598;24312,277;    1,072;   -1,045
804,163;24398,619;    0,708;   -0,318
804,729;24319,415;   -0,110;    1,136
805,294;24744,939;    1,072;    2,227
805,859;24587,826;    0,890;   -0,409
806,425;24013,713;    3,890;    2,682
806,990;23638,328;    1,890;    4,318
807,555;24198,760;   -0,110;    2,591
808,120;24084,920;   -1,292;   -0,409
808,685;24145,444;    1,072;   -2,500
809,250;23569,877;    2,072;   -0,500
809,815;23919,127;   -0,201;    0,682
810,380;24487,560;    0,981;    1,591
810,945;24984,266;    2,890;    2,045
811,510;24183,425;   -0,200;    1,591
812,075;23873,949;    2,800;   -1,409
812,640;23903,200;    3,709;    1,409
813,204;23890,996;    2,163;   -0,227
813,769;24395,974;    0,254;   -0,045
814,334;23789,043;    0,527;    0,864
814,898;23880,294;    1,981;    0,591
815,463;23711,727;    0,981;   -0,773
816,027;23676,978;    1,345;   -2,318
816,592;23750,683;    2,163;   -2,045
817,156;23252,570;   -2,200;    1,136
817,721;23035,458;    0,982;    2,318
818,285;22991,890;    0,618;    1,500
818,849;23710,959;   -0,018;    1,682
819,414;23588,392;    0,073;    2,955
819,978;23153,007;   -0,291;    1,773
820,542;23756,621;    2,891;    0,500
821,106;23497,690;    2,800;    0,682
821,670;23531,032;    2,709;    2,591
822,234;23215,374;    1,073;    1,409
822,798;22595,079;   -0,836;    0,500
823,362;22559,330;    1,527;    4,227
823,926;21866,854;   -0,018;    1,136
824,490;22127,468;    3,527;   -0,682
825,054;22576,992;    2,527;   -1,136
825,618;22189,879;   -1,200;   -1,500
826,181;22108,039;    0,982;   -1,318
826,745;21946,835;   -0,745;   -1,045
827,309;22374,268;    2,255;    1,318
827,872;21707,610;    0,527;    0,955
828,436;22726,042;    1,982;   -0,773
828,999;22808,020;    2,436;    1,227
829,563;21612,817;   -0,654;    1,136
830,126;21401,886;   -0,018;   -0,591
830,690;21404,046;    0,709;    2,864
831,253;20890,115;   -0,473;    2,227
831,816;21046,275;   -0,018;    0,500
832,380;20967,980;    1,164;    0,864
832,943;21166,231;    3,073;   -0,500
833,506;20655,573;    0,255;   -1,227
834,069;21531,551;    2,164;   -0,955
834,632;21594,529;   -2,200;    1,318
835,195;21419,780;    1,346;    0,955
835,758;20592,758;    0,709;    1,955
836,321;20428,736;    1,073;   -1,045
836,884;20532,078;   -1,291;   -0,955
837,447;20563,602;    0,528;    1,773
838,010;20805,216;    1,800;    3,227
838,573;21144,285;    0,528;    0,773
839,135;21083,172;   -0,109;   -0,955
839,698;20499,332;    2,528;    0,409
840,261;20022,401;    0,255;   -0,227
840,823;19889,198;   -0,927;    0,864
841,386;20171,085;   -0,018;   -2,409
841,948;20025,063;    0,255;    1,773
842,511;19774,587;    0,255;    1,682
843,073;19975,292;    2,982;    0,227
843,636;19706,179;    0,619;   -0,227
844,198;19644,612;    1,255;    0,591
844,760;19778,045;    0,619;    1,955
845,322;19389,114;    0,164;    1,136
845,885;19820,364;   -0,290;    0,591
846,447;20269,161;    0,710;    0,227
847,009;19807,775;    3,983;   -0,682
847,571;20132,935;    1,346;   -2,045
848,133;20243,368;   -0,199;   -1,864
848,695;20084,619;    2,346;    1,409
849,257;19590,779;    1,346;   -1,682
849,819;19778,939;    2,983;   -0,409
850,381;19835,826;    1,801;   -0,864
850,942;20183,168;    1,892;   -0,591
851,504;20115,146;    0,983;    0,227
852,066;20143,124;    1,619;   -1,591
852,628;19682,284;    0,165;    1,955
853,189;19205,989;    0,256;    2,682
853,751;19370,331;   -0,654;    1,409
854,312;19177,309;    1,256;   -1,682
854,874;19694,106;   -0,108;   -0,773
855,435;20164,538;    0,528;   -1,682
855,997;20340,698;    3,983;   -0,136
856,558;19550,495;    0,801;    1,773
857,119;19709,836;   -0,744;    2,864
857,681;19399,178;   -0,108;    0,318
858,242;19416,520;    1,347;   -2,136
858,803;19897,407;    1,074;   -0,773
859,364;20447,385;    0,892;   -4,773
859,925;19762,545;   -0,290;   -0,955
860,486;19691,705;    0,529;   -0,955
861,047;19419,956;    0,165;   -1,227
861,608;19186,934;    0,165;   -0,773
862,169;19344,549;   -0,562;   -0,045
862,730;19084,072;   -0,290;    1,409
863,291;19368,596;    0,438;   -0,500
863,852;19667,574;   -0,926;    1,955
864,412;19125,370;   -1,835;   -0,864
864,973;17692,076;    1,892;    0,500
865,534;17547,963;    2,074;    0,227
866,094;19054,486;    2,620;    0,227
866,655;18695,374;    4,711;    3,318
867,215;19020,170;    0,074;    0,136
867,776;18876,330;   -1,199;   -0,136
868,336;18957,217;    1,529;    0,136
868,897;18378,014;    3,438;    1,682
869,457;18155,901;    3,256;    0,318
870,017;18360,697;    2,438;   -1,227
870,578;18882,221;    1,893;    0,773
871,138;18546,108;    2,620;   -0,955
871,698;18102,268;   -0,562;   -1,318
872,258;17952,701;    0,711;   -2,864
872,818;18327,133;    2,347;    0,045
873,378;18295,566;   -2,198;    1,045
873,938;17874,817;    4,984;    0,500
874,498;18159,068;    1,256;   -1,955
875,058;18025,864;    4,347;    1,773
875,618;17845,115;    1,438;   -2,682
876,177;17852,911;   -0,471;    0,136
876,737;17417,162;   -0,289;    1,955
877,297;17410,595;    2,711;    1,955
877,856;17394,482;    2,529;    0,318
878,416;17328,824;    2,438;   -0,136
878,976;17553,893;    3,438;    0,409
879,535;17767,507;    4,529;    3,136
880,095;17482,394;    1,347;    0,045
880,654;17611,100;    0,347;    1,318
881,213;17685,896;    2,347;    1,500
881,773;17312,238;    1,984;    2,682
882,332;17699,034;    6,075;    5,136
882,891;17549,376;    0,711;    2,136
883,451;18054,263;   -2,016;    1,682
884,010;17513,060;   -1,107;   -0,409
884,569;17572,401;   -2,289;   -0,045
885,128;17668,925;   -0,743;   -1,864
885,687;17718,903;   -0,743;    0,682
886,246;17443,881;    2,620;    2,136
886,805;17232,223;    1,620;    2,045
887,364;17555,019;    1,166;   -0,500
887,922;17910,179;   -0,016;    0,045
888,481;17408,612;    1,530;    0,591
889,040;17695,045;    3,711;    2,136
889,599;18412,841;    2,166;    1,409
890,157;18469,637;    2,166;    2,409
890,716;18136,161;    2,166;    0,227
891,274;17924,957;    0,075;   -1,136
891,833;18320,753;    1,166;    0,864
892,391;18213,913;    1,802;    0,500
892,950;18320,346;    0,166;   -0,773
893,508;18687,779;    0,984;   -0,409
894,067;18016,575;   -0,379;    0,136
894,625;17941,917;   -1,016;   -1,500
895,183;18119,622;   -0,198;   -0,682
895,741;18031,964;    2,257;   -1,773
896,299;17825,851;    1,621;   -2,409
896,858;18040,739;    1,530;   -1,591
897,416;18182,171;    0,166;   -1,318
897,974;17900,331;   -2,197;    0,318
898,532;18043,037;    6,530;    2,682
899,089;17923,560;    0,621;   -0,682
899,647;18018,175;    0,530;    1,318
900,205;17735,880;    0,257;    1,045
900,763;17913,585;    2,166;    0,227
901,321;17967,200;    3,530;   -1,409
901,878;17369,996;    3,257;   -0,773
902,436;17196,429;    0,257;    1,318
902,994;17559,680;    6,712;    3,682
903,551;17042,931;    1,439;    0,409
904,109;17447,182;    1,530;   -1,409
904,666;17034,069;    1,439;    1,045
905,224;16796,138;    3,894;   -0,409
905,781;16497,207;   -0,470;   -0,318
906,338;16601,458;    0,167;    1,045
906,895;16560,709;    1,894;    2,045
907,453;16464,323;    2,348;    1,136
908,010;16462,119;    3,348;    0,409
908,567;16082,916;   -0,561;    0,591
909,124;15599,712;    2,439;   -1,500
909,681;15666,690;   -1,288;    0,682
910,238;15834,305;   -0,106;   -1,318
910,795;16163,101;   -1,561;   -1,136
911,352;15788,283;   -0,379;   -2,682
911,909;15175,646;    2,803;   -0,864
912,466;15669,283;    1,985;    1,500
913,022;15211,192;   -0,924;    0,500
913,579;15569,283;   -0,470;    2,045
914,136;15241,556;   -2,561;    0,955
914,692;15648,465;    1,530;   -1,227
915,249;15217,556;    0,530;    0,409
915,806;15401,828;    1,803;    1,955
916,362;15081,828;    0,894;    1,864
916,918;14621,828;    2,439;    1,045
917,475;14639,192;    1,621;    0,955
918,031;14781,556;    0,076;   -0,045
918,587;14232,646;    0,621;   -0,318
919,144;14427,556;   -0,379;    0,227
919,700;14742,374;    0,167;    0,773
920,256;14314,283;    0,439;    0,045
920,812;13871,192;    1,439;   -1,045
921,368;13881,283;    1,348;   -1,045
921,924;13550,828;    0,439;   -0,136
922,480;13139,556;    0,076;    1,227
923,036;13729,828;   -0,652;    1,955
923,592;13673,374;    0,621;    0,318
924,148;13587,646;    1,894;   -0,955
924,704;12905,010;    0,258;   -0,409
925,259;13162,556;   -0,561;    0,591
925,815;12880,465;    3,803;    0,500
926,371;12433,283;    3,530;    1,409
926,926;12316,101;    1,621;    0,591
927,482;11893,828;    1,621;    0,773
928,037;11779,465;   -0,833;    2,045
928,593;12047,283;    0,258;    1,045
929,148;11858,374;    1,167;   -1,500
929,704;11379,737;    2,439;   -0,500
930,259;11585,737;    0,894;   -0,136
930,814;10647,283;    1,803;    1,955
931,369;10318,283;    0,258;   -0,773
931,925;10203,374;   -1,924;    0,136
932,480;10068,465;    3,076;   -2,591
933,035; 9955,101;    3,985;   -0,318
933,590; 9707,556;   -1,742;   -1,773
934,145; 9358,737;   -1,288;   -0,318
934,700; 9732,192;    0,348;   -0,591
935,255; 9488,828;    4,803;    0,045
935,809; 8733,101;    6,258;    0,864
936,364; 7858,646;    2,167;   -0,136
936,919; 7831,556;    2,348;   -1,773
937,474; 7704,192;    1,348;    0,136
938,028; 7472,919;    3,076;    1,136
938,583; 6884,465;    6,348;    4,682
939,138; 7180,919;    0,167;    2,136
939,692; 6637,919;   -1,015;   -1,136
940,247; 6287,374;    1,167;   -1,045
940,801; 5822,283;    0,621;    0,227
941,355; 5722,374;    0,439;    2,591
941,910; 5409,465;    0,712;   -2,136
942,464; 5477,192;    2,712;   -0,318
943,018; 5233,374;    3,258;   -0,227
943,572; 5170,556;    2,803;   -0,682
944,126; 4543,646;   -0,924;   -0,409
944,681; 4419,465;    0,712;    0,227
945,235; 4415,919;    2,167;   -0,591
945,789; 4370,283;    1,258;   -1,864
946,342; 4443,828;   -0,561;   -0,591
946,896; 4256,737;    0,348;    0,955
947,450; 4007,192;   -0,561;   -0,227
948,004; 4201,646;    1,076;   -0,045
948,558; 4240,192;    1,258;   -0,864
949,111; 4135,646;   -1,197;   -0,318
949,665; 4172,556;   -0,106;   -0,682
950,219; 4032,192;    0,621;   -1,045
950,772; 4108,465;    0,258;    1,864
951,326; 4035,465;   -1,106;   -0,955
951,879; 4130,192;    1,076;   -2,318
952,433; 4159,192;    1,348;    2,227
952,986; 4003,010;    0,348;    0,682
953,539; 3909,010;    1,530;    0,591
954,093; 3863,737;    0,985;   -1,318
954,646; 3990,192;   -0,288;    1,318
955,199; 3815,465;    1,258;   -0,500
955,752; 3658,101;    1,985;    1,773
956,305; 3608,465;    0,894;    2,955
956,858; 3801,283;    0,621;   -0,318
957,411; 4003,192;    3,621;    2,136
957,964; 3812,556;    2,076;    2,136
958,517; 3817,919;    0,985;    3,136
959,070; 3657,192;   -1,197;    1,955
959,623; 3686,646;    1,076;    1,500
960,176; 3445,737;    0,712;    2,045
960,728; 3426,556;    1,712;    0,773
961,281; 3503,101;    2,258;    0,500
961,834; 3536,556;   -0,833;    0,864
962,386; 3463,101;    1,258;    1,045
962,939; 3380,828;    3,439;   -0,318
963,491; 3536,283;    2,621;    1,136
964,043; 3380,646;    0,076;    2,409
964,596; 3510,374;    1,712;    2,227
965,148; 3338,010;   -0,379;    1,773
965,700; 3257,101;   -0,015;   -0,227
966,253; 3442,374;   -0,833;    0,318
966,805; 3255,465;    1,894;    0,773
967,357; 3315,919;    0,439;   -1,500
967,909; 3254,737;    1,167;   -1,227
968,461; 3391,919;    0,894;    3,136
969,013; 3298,465;   -1,561;   -0,864
969,565; 3374,828;    1,803;   -1,136
970,117; 3428,465;    3,803;    1,045
970,669; 3259,828;    3,258;   -0,136
971,220; 3141,919;    2,167;   -1,500
971,772; 3051,283;    1,348;   -0,318
972,324; 3171,101;   -1,197;   -0,500
972,876; 3150,919;    0,167;   -0,045
973,427; 3244,465;   -1,197;   -1,045
973,979; 3219,646;    0,076;   -2,500
974,530; 3252,828;    0,803;    1,318
975,082; 3282,101;    2,167;    1,682
975,633; 3157,374;    2,894;    1,682
976,184; 3327,919;    2,076;    0,773
976,736; 3113,465;    0,348;    0,227
977,287; 2877,919;    0,258;   -0,500
977,838; 3092,010;   -0,924;   -0,318
978,389; 3120,192;    0,803;   -0,500
978,940; 2997,919;    1,258;   -0,409
979,491; 3016,919;    2,258;   -0,500
980,042; 2971,919;   -0,652;    3,045
980,593; 3048,919;    1,894;    0,227
981,144; 3085,465;    3,530;   -0,500
981,695; 3050,646;   -0,470;    1,500
982,246; 3025,465;   -1,833;    1,045
982,797; 3180,010;   -0,561;    0,682
983,347; 3308,192;    2,167;    0,591
983,898; 3443,283;    4,167;    0,409
984,449; 3255,919;    2,530;    0,773
984,999; 3194,283;    1,894;   -1,136
985,550; 2941,646;    3,167;   -0,318
986,100; 2993,192;    0,712;   -0,318
986,651; 3015,374;    0,258;    0,045
987,201; 3020,192;    0,894;   -0,591
987,751; 3093,465;   -0,288;    2,864
988,302; 3080,646;   -0,379;    1,500
988,852; 3099,919;    1,985;   -1,136
989,402; 3137,374;    0,985;    0,682
989,952; 3045,556;    1,621;    0,864
990,502; 3182,919;    1,076;    0,682
991,052; 3130,556;   -0,106;    0,045
991,602; 2978,192;    1,167;    1,318
992,152; 2968,192;    2,803;    0,682
992,702; 2946,283;    1,167;   -0,045
993,252; 2878,919;    0,076;   -0,500
993,802; 2963,737;    1,167;    1,318
994,352; 3203,283;   -0,742;    1,136
994,901; 3323,646;    1,076;    3,227
995,451; 3235,374;   -1,197;    0,318
996,000; 3333,101;    1,076;    0,318
996,550; 3019,556;    2,894;    0,227
997,100; 3025,646;   -0,561;   -0,045
997,649; 3321,646;   -0,197;    0,955
998,198; 2945,192;   -0,288;   -1,500
998,748; 3114,374;    0,348;   -2,318
999,297; 3032,192;    0,985;   -0,409
999,846; 3123,737;    1,894;   -0,773
1000,395; 3160,737;    1,530;    0,500
1000,945; 3089,192;    1,076;   -0,773
1001,494; 3167,010;    0,167;    0,682
1002,043; 3173,465;    0,712;    0,864
1002,592; 3026,374;    3,439;    1,955
1003,141; 3163,828;    2,439;   -0,682
1003,690; 2995,556;    1,258;    0,500
1004,238; 3083,283;   -0,106;   -0,045
1004,787; 2695,010;   -1,288;    1,227
1005,336; 2938,374;    1,621;    0,682
1005,885; 3102,192;   -0,197;   -2,773
1006,433; 3260,828;   -0,470;    0,955
1006,982; 3305,556;    2,167;    1,682
1007,531; 3223,010;    2,712;   -0,227
1008,079; 3177,101;    0,258;    0,500
1008,627; 3334,737;    1,621;    0,409
1009,176; 3044,192;    0,076;   -1,955
1009,724; 3107,465;   -2,742;    0,864
1010,273; 3138,010;    1,076;    0,500
1010,821; 3269,919;    1,076;    1,409
1011,369; 2989,101;    0,076;    1,318
1011,917; 2976,465;   -0,833;   -0,591
1012,465; 3275,010;    2,530;   -1,591
1013,013; 3376,192;    0,439;   -1,682
1013,561; 3234,919;   -1,288;   -0,773
1014,109; 3278,828;   -0,833;    1,682
1014,657; 3157,828;    1,348;    0,591
1015,205; 3282,737;    0,894;   -0,955
1015,753; 3338,374;    0,258;   -1,409
1016,301; 3380,828;    2,621;    3,045
1016,848; 3385,101;    2,167;    0,409
1017,396; 3429,101;    1,621;    0,045
1017,944; 3548,556;    2,621;    1,864
1018,491; 3303,101;   -0,197;    1,409
1019,039; 3428,010;   -0,652;    0,591
1019,586; 3365,556;    0,076;    1,682
1020,134; 3477,192;    0,712;    1,500
1020,681; 3490,283;    2,894;   -1,136
1021,228; 3504,374;   -0,561;   -2,227
1021,776; 3332,192;   -0,833;   -1,136
1022,323; 3555,374;    0,803;    0,773
1022,870; 3485,374;   -0,470;   -0,045
1023,417; 3360,192;    2,076;    1,864
1023,964; 3542,556;    0,621;    1,227
1024,511; 3349,737;   -0,652;    0,773
1025,058; 3141,646;    0,439;   -0,045
1025,605; 3193,646;   -1,742;    3,136
1026,152; 3402,646;   -0,106;   -0,591
1026,699; 3127,374;    0,167;    1,318
1027,245; 3309,737;    2,439;    0,318
1027,792; 3555,556;    0,712;    1,409
1028,339; 3399,465;    4,076;   -0,045
1028,885; 3259,283;    3,621;   -0,227
1029,432; 3208,283;   -0,106;    0,227
1029,978; 3250,737;    1,348;   -1,591
1030,525; 3122,192;    1,621;    0,409
1031,071; 3420,101;    0,348;    1,136
1031,618; 3491,283;    1,258;    1,682
1032,164; 3289,101;    2,076;    3,045
1032,710; 3343,192;    0,076;   -1,500
1033,256; 3263,465;    0,712;   -0,136
1033,803; 3251,556;   -0,288;    1,500
1034,349; 2995,737;    1,803;    0,136
1034,895; 3138,737;    2,621;   -0,318
1035,441; 3115,828;    0,439;    0,318
1035,987; 3108,465;   -2,288;   -0,682
1036,533; 3093,828;   -0,197;   -0,955
1037,078; 3309,556;    4,712;    1,682
1037,624; 3131,646;    2,439;   -0,955
1038,170; 3163,283;    1,712;   -0,318
1038,716; 3044,919;    2,167;   -0,409
1039,261; 2965,374;    2,167;   -0,773
1039,807; 2907,010;   -0,015;    3,409
1040,352; 2964,465;   -1,288;   -0,318
1040,898; 3010,283;    0,167;   -0,682
1041,443; 2936,374;    0,803;   -2,591
1041,989; 2941,101;    3,621;    1,591
1042,534; 2833,465;    0,985;    2,591
1043,079; 2969,646;    1,985;    0,955
1043,625; 2724,010;    0,258;    0,500
1044,170; 2750,283;    2,439;    1,045
1044,715; 3011,192;    0,167;    0,955
1045,260; 2828,919;   -0,833;   -0,955
1045,805; 2890,646;    0,258;   -0,591
1046,350; 2851,646;    0,530;   -0,409
1046,895; 2787,646;    0,803;    1,591
1047,440; 2712,646;    1,530;    0,409
1047,985; 2623,556;   -1,197;   -0,955
1048,530; 2536,919;    1,348;    1,227
1049,074; 2613,465;    2,803;    0,318
1049,619; 2589,283;   -0,924;    1,955
1050,164; 2387,828;    1,076;    0,227
1050,708; 2441,192;    2,621;    0,045
1051,253; 2791,101;    3,258;   -2,227
1051,797; 2501,192;   -0,197;   -1,318
1052,342; 2539,919;    1,348;    1,045
1052,886; 2510,010;    1,803;   -1,409
1053,430; 2395,556;    2,167;    0,136
1053,975; 2425,737;    0,894;   -0,318
1054,519; 2397,556;    1,803;    3,227
1055,063; 2394,556;    3,621;    1,318
1055,607; 2269,919;    1,348;    0,227
1056,151; 2297,737;    0,530;    1,682
1056,695; 2228,737;   -1,833;   -1,136
1057,239; 2299,374;   -1,197;   -0,682
1057,783; 2298,828;    2,258;   -1,500
1058,327; 2241,556;    3,076;    1,409
1058,871; 2462,283;    3,985;    1,318
1059,415; 2174,010;   -0,561;   -0,045
1059,958; 2408,374;    2,985;    2,591
1060,502; 2140,828;    1,348;   -0,773
1061,046; 2060,192;    1,712;   -0,955
1061,589; 2052,101;    2,803;   -1,136
1062,133; 1919,556;    0,985;    1,864
1062,676; 1860,374;    1,439;    0,864
1063,220; 1856,010;    0,985;    0,500
1063,763; 1862,828;    2,985;    1,136
1064,306; 1950,737;    0,985;    1,864
1064,849; 1841,374;    2,076;    0,591
1065,393; 1844,737;    2,894;   -1,500
1065,936; 1952,828;    2,530;   -0,409
1066,479; 1839,101;    2,621;    1,318
1067,022; 1877,192;    1,894;   -0,227
1067,565; 1763,465;   -1,197;   -1,318
1068,108; 1814,192;    1,258;   -0,591
1068,651; 1779,283;   -2,470;    1,409
1069,194; 1700,556;   -1,106;   -1,682
1069,736; 1696,010;    3,803;    0,955
1070,279; 1679,737;   -1,652;   -0,500
1070,822; 1702,737;    1,530;   -0,318
1071,364; 1773,919;    0,530;    1,318
1071,907; 1620,101;    0,348;    3,227
1072,450; 1539,737;    0,258;   -0,045
1072,992; 1533,283;   -0,561;    3,136
1073,535; 1645,101;    0,167;    2,136
1074,077; 1456,374;    2,985;    2,045
1074,619; 1422,828;    0,985;    0,591
1075,161; 1446,374;   -0,561;    1,500
1075,704; 1622,919;    0,258;    1,227
1076,246; 1423,646;    1,530;    0,682
1076,788; 1359,283;   -1,015;    1,773
1077,330; 1450,556;   -2,106;    2,136
1077,872; 1398,374;   -1,924;    0,955
1078,414; 1619,192;    3,712;    0,773
1078,956; 1343,828;    0,167;   -0,227
1079,498; 1577,737;    0,439;    0,318
1080,040; 1288,374;    0,985;   -1,318
1080,581; 1248,101;    0,621;   -0,318
1081,123; 1185,646;   -0,106;   -0,773
1081,665; 1235,374;    3,803;   -0,955
1082,206; 1511,010;    3,258;   -0,500
1082,748; 1371,646;    3,258;    2,045
1083,289; 1269,283;    0,167;    1,318
1083,831; 1173,919;    0,258;    0,227
1084,372; 1193,283;    0,894;    0,591
1084,913; 1188,192;    3,348;    0,864
1085,455; 1184,919;    1,530;   -2,045
1085,996; 1141,374;    0,530;    0,136
1086,537; 1157,737;    0,985;    0,864
1087,078; 1196,192;    0,439;   -2,136
1087,619; 1232,556;   -1,652;    0,227
1088,160; 1144,192;    1,439;    1,318
1088,701; 1126,828;   -0,742;    0,682
1089,242; 1075,101;   -0,561;   -2,227
1089,783; 1167,101;   -0,561;    1,409
1090,324; 1136,646;   -0,833;    0,682
1090,865; 1015,465;   -1,924;   -0,409
1091,405;  991,010;   -0,561;    2,227
1091,946; 1027,556;   -0,197;   -0,955
1092,487;  954,010;   -1,288;   -1,409
1093,027; 1104,556;    1,803;   -1,500
1093,568;  960,646;    2,258;    1,227
1094,108; 1023,828;    0,621;    1,773
1094,649;  989,919;   -0,470;    0,136
1095,189;  929,101;    1,167;   -0,682
1095,729;  877,374;    0,712;    0,955
1096,269;  889,465;    1,258;   -0,955
1096,810; 1185,919;   -0,197;    0,500
1097,350; 1012,465;   -0,561;   -0,773
1097,890;  927,101;    2,985;    1,227
1098,430; 1167,737;    4,985;    2,864
1098,970; 1039,283;    1,894;    1,682
1099,510;  918,828;   -0,833;   -2,318
1100,050;  845,919;    0,258;   -1,591
1100,589;  807,646;    0,076;   -0,318
1101,129;  932,283;    0,894;   -0,955
1101,669; 1057,283;    2,803;    2,136
1102,209;  894,283;    1,530;    2,227
1102,748;  853,374;    3,439;    0,955
1103,288;  831,737;    0,712;   -1,227
1103,827;  860,737;    3,530;   -2,227
1104,367;  740,828;    1,712;   -2,409
1104,906;  694,465;   -1,015;   -1,136
1105,445;  773,737;    0,985;   -1,136
1105,985;  724,919;   -0,652;    1,500
1106,524;  774,374;    1,530;   -0,682
1107,063;  732,465;    1,167;    1,409
1107,602;  718,646;    1,894;   -1,500
1108,141;  642,737;    1,621;    1,500
1108,680;  730,919;    3,985;   -0,591
1109,219;  676,465;    0,167;   -0,500
1109,758;  679,192;    4,167;    0,682
1110,297;  660,828;   -1,106;   -0,682
1110,836;  602,646;    1,439;    0,955
1111,375;  751,374;    0,348;    0,409
1111,913;  764,374;    0,985;    0,773
1112,452;  702,828;    0,894;    0,136
1112,991;  597,101;    1,076;    1,955
1113,529;  547,737;    0,167;   -0,045
1114,068;  616,283;    0,439;    2,955
1114,606;  517,919;   -0,561;   -0,955
1115,144;  679,374;    1,530;    1,045
1115,683;  610,465;    1,985;    0,318
1116,221;  664,465;    2,076;   -0,864
1116,759;  578,465;    1,621;   -0,864
1117,297;  764,192;    1,621;    1,864
1117,836;  577,646;    1,985;   -1,227
1118,374;  574,919;    0,258;   -0,682
1118,912;  527,919;    0,439;    2,682
1119,450;  506,737;    0,985;    0,864
1119,988;  564,192;    3,348;    2,136
1120,525; 1006,192;    7,258;    3,318
1121,063;  709,374;    0,530;    1,864
1121,601;  524,646;    1,076;   -1,227
1122,139;  482,465;    1,076;   -2,045
1122,676;  673,737;   -1,652;    2,773
1123,214;  601,556;    0,712;    4,409
1123,751;  425,101;    0,621;    2,227
1124,289;  546,737;    0,894;   -0,409
1124,826;  424,919;   -0,379;    0,227
1125,364;  349,919;    0,712;   -0,955
1125,901;  526,192;    6,258;    1,227
1126,438;  629,283;    3,530;    0,955
1126,975;  375,010;    2,985;   -0,773
1127,513;  432,465;    2,621;    2,136
1128,050;  354,192;   -0,561;   -0,682
1128,587;  444,646;    1,348;   -0,227
1129,124;  479,374;   -0,015;    1,318
1129,661;  363,556;   -1,924;    0,227
1130,198;  516,192;    2,439;    0,773
1130,734;  462,556;   -0,379;    1,409
1131,271;  325,646;   -1,197;    0,864
1131,808;  498,374;    1,621;    3,045
1132,345;  367,101;    4,530;    0,318
1132,881;  254,192;   -0,561;   -1,864
1133,418;  381,646;    0,348;   -1,136
1133,954;  328,283;    0,712;   -2,682
1134,491;  391,283;    1,712;   -0,773
1135,027;  291,919;    2,167;    0,864
1135,564;  372,010;    1,439;    2,955
1136,100;  352,374;   -0,742;    2,136
1136,636;  259,737;   -1,015;   -1,045
1137,172;  328,737;    0,894;   -1,045
1137,708;  268,192;   -1,561;   -1,045
1138,245;  278,737;    0,803;   -1,227
1138,781;  237,465;    1,803;   -3,318
1139,317;  293,192;    1,894;   -1,409
1139,852;  281,192;    3,076;    0,136
1140,388;  388,192;    2,076;   -0,409
1140,924;  279,192;    1,076;   -2,227
1141,460;  224,646;   -0,288;    0,136
1141,996;  165,101;   -0,652;    2,682
1142,531;  200,828;    1,076;    3,318
1143,067;  407,192;    1,167;    1,045
1143,602;  454,192;    3,439;   -0,318
1144,138;  305,828;    0,803;    1,045
1144,673;  197,737;    1,621;    1,409
1145,209;  264,465;    2,894;   -0,318
1145,744;  178,283;    0,803;    0,864
1146,279;  292,010;    1,530;   -0,136
1146,815;  230,101;    1,530;   -2,682
1147,350;  268,374;   -0,924;    0,045
1147,885;  183,192;   -1,924;   -1,318
1148,420;  174,101;    2,439;    0,773
1148,955;  160,010;   -1,470;    1,864
1149,490;  191,192;   -1,106;   -1,591
1150,025;  168,556;   -1,106;   -1,773
1150,560;  269,283;   -0,288;   -0,955
1151,094;  233,374;    0,258;   -0,591
1151,629;  237,646;   -3,742;    0,864
1152,164;  176,283;   -1,288;    1,318
1152,698;  139,828;    1,258;   -0,136
1153,233;   98,283;   -1,379;   -0,682
1153,767;  151,919;   -0,288;   -2,318
1154,302;  196,101;   -0,379;    1,773
1154,836;  191,556;    0,803;   -2,136
1155,371;  237,828;    2,258;    3,682
1155,905;  200,374;    1,985;    1,682
1156,439;  161,919;    0,530;   -0,500
1156,973;  190,737;    0,439;    0,318
1157,507;  139,374;   -1,742;    0,682
1158,042;  149,101;   -0,652;    1,045
1158,576;  192,646;   -0,561;    1,773
1159,110;  187,101;    0,076;    2,409
1159,643;  165,465;   -2,470;   -0,045
1160,177;  112,465;   -2,015;    1,500

