
Integration time [ms]:   0,040
Averaging Nr. [scans]: 11
Smoothing Nr. [pixels]: 0
Data measured with spectrometer [name]: 7318044SP
Wave   ;Sample   ;Dark     ;Reference
[nm]   ;[counts] ;[counts] ;[counts] 

186,757;   34,635;   38,161;    1,318
187,357;   59,413;   26,706;    0,955
187,958;   37,578;   17,252;   -1,591
188,558;   70,951;   12,979;   -1,227
189,159;   37,895;   10,070;   -4,500
189,759;   21,529;    5,797;   -3,591
190,360;   15,054;    6,797;   -2,136
190,960;   52,099;    5,706;   -4,136
191,560;   63,564;    2,614;   -6,591
192,161;  275,821;    5,885;   -3,500
192,761;  141,437;    5,520;   -3,227
193,361;   96,500;    3,065;   -3,773
193,962;  143,827;    1,612;   -2,682
194,562;   69,241;   -0,114;   -3,955
195,162;  106,821;   -0,567;   -2,227
195,762;  257,230;    2,433;   -0,045
196,362;  206,703;    1,706;   -2,500
196,963;   79,002;    1,706;   -0,864
197,563;  146,838;    1,252;   -0,955
198,163;   94,483;   -0,111;   -0,682
198,763;  115,049;   -0,020;   -0,500
199,363;  216,235;    3,616;   -0,500
199,963;  181,011;    2,162;    0,409
200,563;  157,667;    6,344;   -1,409
201,163;  134,897;    5,435;   -0,227
201,763;  213,912;    1,435;    0,318
202,363;  158,789;    0,980;    1,500
202,963;  260,587;    1,526;    1,045
203,563;  357,389;    0,344;    0,500
204,162;  216,031;    1,889;   -1,864
204,762;  209,847;    2,071;    0,591
205,362;  172,002;    0,708;    1,955
205,962;  271,736;    3,435;    1,955
206,562;  264,853;    1,889;    2,318
207,161;  236,136;    1,708;    0,318
207,761;  387,603;    4,435;    2,409
208,361;  268,534;    1,889;    1,409
208,960;  354,096;    2,889;    1,500
209,560;  414,511;    0,435;    1,591
210,160;  392,262;    5,071;    1,864
210,759;  361,315;    0,708;    1,227
211,359;  361,556;   -0,474;    1,045
211,958;  620,471;    3,526;    2,045
212,558;  688,053;    0,799;    1,864
213,157;  535,141;   -0,929;    1,500
213,757;  957,520;    5,617;   -0,227
214,356;  667,064;    1,708;   -0,409
214,956;  993,474;    3,526;    0,409
215,555;  620,232;    0,617;    2,136
216,154;  559,710;   -0,292;   -0,591
216,754;  566,661;    1,253;    0,773
217,353;  682,447;   -0,383;   -1,045
217,952;  543,854;    2,072;    0,318
218,552;  778,651;    0,254;   -0,773
219,151;  667,875;   -1,110;    0,955
219,750;  671,246;    0,890;   -0,227
220,349;  751,886;   -2,292;    1,045
220,948;  839,862;    1,163;    1,136
221,548;  831,142;    0,617;    1,227
222,147;  939,362;   -1,292;   -0,409
222,746; 1209,562;    1,254;   -0,955
223,345; 1071,001;   -1,019;    0,500
223,944; 1080,199;    1,163;    0,773
224,543; 1237,838;    4,072;   -1,409
225,142; 1362,099;    1,345;    0,136
225,741; 1259,209;    1,163;    1,045
226,340; 1277,308;    1,254;   -0,955
226,939; 1691,950;    2,708;   -0,136
227,538; 1604,841;    1,163;   -0,773
228,137; 1765,097;    0,435;    0,864
228,735; 1869,936;    0,435;    1,227
229,334; 1639,433;   -0,474;   -0,227
229,933; 2008,164;    0,799;    0,591
230,532; 2116,055;   -1,201;   -0,409
231,131; 2183,975;    1,253;    0,318
231,729; 2267,089;    1,163;   -2,318
232,328; 2349,856;    0,435;   -1,500
232,927; 2388,897;    4,526;   -0,500
233,525; 2486,121;    0,981;    0,045
234,124; 2710,486;    1,890;   -1,591
234,723; 2723,953;    1,617;   -1,045
235,321; 2837,136;    1,163;    0,136
235,920; 3041,704;    2,526;   -1,227
236,518; 3299,069;    1,072;    0,318
237,117; 3445,734;    2,890;   -0,227
237,715; 3567,661;    1,163;   -0,500
238,314; 3618,719;    1,708;   -2,318
238,912; 3717,833;    0,526;   -1,409
239,510; 3745,372;    1,162;   -1,227
240,109; 3908,727;   -0,474;    3,773
240,707; 3923,870;   -0,474;    1,227
241,305; 4239,199;   -0,383;    0,136
241,904; 4438,109;   -0,292;   -2,045
242,502; 4427,590;    3,253;   -0,227
243,100; 4338,704;    3,344;   -0,955
243,698; 4547,358;    2,799;    1,682
244,297; 4712,048;   -0,656;    0,682
244,895; 4569,815;   -0,474;   -2,318
245,493; 4868,943;    2,981;   -0,591
246,091; 4893,550;    5,163;   -1,318
246,689; 4864,844;    2,163;    0,591
247,287; 5021,933;   -0,019;   -1,136
247,885; 5283,600;   -1,019;    1,227
248,483; 5358,204;   -0,201;   -0,500
249,081; 5453,083;    0,981;    1,591
249,679; 5600,100;   -1,019;    1,682
250,277; 5872,567;   -2,292;    0,864
250,875; 5851,864;    0,617;   -1,045
251,473; 5852,645;   -0,019;    0,500
252,071; 6048,386;   -0,383;    1,045
252,669; 6185,472;   -1,565;    0,318
253,267; 6403,387;    1,618;    0,773
253,864; 6325,660;    0,617;    0,682
254,462; 6245,573;    1,526;    1,591
255,060; 6200,042;    0,072;    1,318
255,658; 6472,472;   -3,292;   -0,136
256,255; 6847,227;   -0,201;   -2,045
256,853; 6720,055;    2,345;    1,409
257,451; 6705,168;    1,981;    1,864
258,048; 7007,637;    2,072;    1,864
258,646; 6740,867;    0,436;   -1,045
259,243; 6913,145;    2,981;    2,227
259,841; 6956,609;    1,799;    0,318
260,438; 6859,919;    0,254;    0,864
261,036; 7505,141;    0,617;    1,409
261,633; 7436,247;    1,526;    2,227
262,231; 7198,377;   -0,110;   -0,045
262,828; 7281,653;   -0,383;    1,136
263,425; 7322,771;   -1,928;   -0,591
264,023; 7549,770;    1,436;    0,045
264,620; 7131,364;    1,526;   -0,318
265,217; 7466,541;    2,890;    3,136
265,815; 7563,398;    2,527;    2,136
266,412; 7347,499;    0,072;    0,136
267,009; 7385,007;    0,526;    0,773
267,606; 7318,776;    0,345;   -0,955
268,203; 7311,716;   -0,383;   -0,591
268,801; 7571,607;   -0,474;    0,591
269,398; 7829,741;   -0,564;    2,500
269,995; 7801,926;    0,890;    1,591
270,592; 7588,093;    0,799;   -0,500
271,189; 7768,128;    1,981;    0,409
271,786; 7896,136;    2,072;    1,227
272,383; 7749,917;   -0,383;    0,227
272,980; 7927,487;    1,617;    0,318
273,577; 8374,983;    2,162;    1,227
274,174; 7932,558;    1,435;    2,591
274,771; 7906,381;    1,890;   -0,773
275,367; 8053,732;    3,253;    1,409
275,964; 8007,706;   -0,565;   -0,500
276,561; 8107,590;   -2,474;   -1,045
277,158; 8302,009;    1,799;   -1,773
277,755; 8415,901;   -0,110;    0,409
278,351; 7875,161;    0,436;   -1,500
278,948; 8152,172;   -0,201;    0,045
279,545; 8155,268;    0,527;    2,318
280,141; 8756,707;    1,254;   -2,045
280,738; 8602,878;    2,435;   -0,136
281,334; 8791,105;   -0,383;    0,591
281,931; 8217,837;    2,890;   -1,318
282,528; 8335,057;    4,072;   -0,500
283,124; 8985,300;    3,345;   -0,500
283,721; 8902,467;    0,709;    1,409
284,317; 8710,226;    0,163;    2,500
284,913; 9215,765;   -0,110;    0,591
285,510; 9373,674;    2,890;   -0,318
286,106; 9400,290;    2,345;   -0,955
286,703; 9008,849;    0,072;    1,955
287,299; 9188,609;    1,254;   -0,591
287,895; 9369,387;    0,890;   -1,045
288,491; 9912,287;    0,163;    2,136
289,088; 9652,709;    0,163;    2,409
289,684; 9723,381;    2,890;    1,500
290,280; 9700,861;    1,890;    0,682
290,876; 9808,271;    0,163;    5,500
291,472; 9734,214;    2,163;    2,227
292,068; 9827,702;    1,254;    0,227
292,665; 9517,154;   -0,564;    0,773
293,261; 9226,086;   -1,292;    2,136
293,857; 9581,813;    4,072;    2,136
294,453; 9492,186;   -0,928;    0,955
295,049; 9379,853;    0,253;    1,955
295,644; 9400,963;   -1,292;    0,136
296,240; 9314,028;    0,162;   -0,136
296,836; 9380,676;   -0,747;    0,318
297,432; 9595,081;    2,980;   -0,500
298,028; 9624,491;    0,435;    0,773
298,624;10016,067;    0,889;    1,864
299,220;10234,143;    0,435;    0,591
299,815; 9902,663;    0,526;   -0,409
300,411; 9725,035;    0,435;    1,773
301,007; 9746,009;    1,889;    0,227
301,602; 9756,156;    2,071;   -2,318
302,198; 9909,130;    1,435;   -0,773
302,794;10224,729;    1,526;   -0,500
303,389;10346,120;    1,071;    1,045
303,985;10421,306;    1,253;    1,409
304,580;10380,932;    0,889;    1,591
305,176;10343,648;    0,344;    0,136
305,771;10266,935;   -0,929;   -1,227
306,367;10172,672;    3,071;    0,136
306,962;10480,428;    2,889;    1,500
307,558;10182,109;    2,435;    0,136
308,153;10175,899;   -0,383;   -1,136
308,748;10400,640;    0,162;    1,682
309,344;10340,968;    0,253;   -1,318
309,939;10442,728;    2,071;   -1,318
310,534;10693,666;   -2,020;   -1,682
311,130;10612,756;   -0,656;   -2,500
311,725;10379,586;    0,526;   -0,500
312,320;10643,363;    1,253;    0,045
312,915;10549,645;    2,890;   -1,045
313,510;10607,406;    0,526;   -0,500
314,105;11048,742;   -3,565;    1,409
314,700;10489,209;   -1,656;   -1,045
315,295;10161,205;   -0,020;    0,045
315,890; 9753,016;   -0,292;    0,864
316,485;10070,544;    0,253;   -0,318
317,080;10176,568;   -0,929;    1,591
317,675;10687,069;    3,071;   -0,682
318,270;10151,842;    6,889;    3,318
318,865;10175,591;    2,435;    3,045
319,460; 9999,860;   -1,565;    0,591
320,055;10228,213;   -2,565;   -1,227
320,650; 9906,114;   -1,838;   -0,591
321,244; 9980,380;    0,889;   -1,409
321,839;10828,055;    0,980;   -0,227
322,434;10714,181;   -0,111;   -1,591
323,029;10397,214;   -0,474;    1,591
323,623;10248,640;    0,798;    0,773
324,218;10053,090;    2,707;    1,409
324,812; 9990,072;    0,889;    1,591
325,407; 9760,314;   -0,929;    2,045
326,002; 9696,703;    0,526;   -0,409
326,596;10069,636;   -0,656;    1,318
327,191;10222,900;   -0,383;   -1,045
327,785; 9826,727;   -0,747;   -0,227
328,379;10061,105;   -0,383;    0,136
328,974; 9857,492;    1,798;   -3,955
329,568;10069,074;    2,889;   -2,409
330,163; 9895,922;    2,435;    1,045
330,757;10236,911;    0,253;    1,591
331,351; 9583,350;   -0,292;    0,682
331,945; 9898,114;   -0,383;    1,409
332,540; 9516,874;    1,617;   -0,591
333,134; 9664,118;    3,344;    0,773
333,728; 9878,396;    2,799;    0,318
334,322;10182,625;    0,889;   -0,864
334,916; 9515,498;    0,344;    0,955
335,510; 9805,961;   -0,111;   -0,136
336,105;10034,355;   -0,929;    1,591
336,699; 9741,719;   -1,292;    0,591
337,293; 9690,881;    1,071;    0,318
337,887; 9802,477;    0,071;    1,955
338,481; 9912,464;    2,980;    0,591
339,074;10064,338;    2,071;    2,682
339,668; 9874,784;   -0,110;    1,227
340,262;10108,484;    7,708;    3,227
340,856; 9597,354;    1,708;   -0,682
341,450; 9048,867;    0,708;    1,864
342,044; 9864,790;    1,799;    0,136
342,637; 9653,908;    1,162;   -2,136
343,231; 9502,578;   -1,474;    0,682
343,825; 9455,922;   -0,747;   -0,591
344,419; 9449,260;   -0,474;    0,500
345,012; 9251,928;    2,889;    4,045
345,606; 9273,759;   -0,656;    1,591
346,199; 9131,331;   -0,111;   -0,227
346,793; 8707,141;    2,525;    2,045
347,386; 8892,251;    0,889;   -1,136
347,980; 8872,964;   -0,838;   -0,045
348,573; 8689,280;   -1,748;    0,409
349,167; 8408,093;    6,161;    4,773
349,760; 8743,892;    2,252;    2,682
350,354; 8738,730;    1,616;    1,136
350,947; 8481,763;    2,798;    1,682
351,540; 8198,737;    0,616;   -1,409
352,134; 8149,552;   -1,111;    1,136
352,727; 8234,252;   -0,657;    1,136
353,320; 8036,469;    2,343;    0,591
353,913; 7903,365;   -1,929;    1,864
354,507; 8082,259;    0,434;   -1,227
355,100; 8092,568;    0,071;    0,864
355,693; 7420,625;    4,798;    2,409
356,286; 7496,573;    0,980;    2,773
356,879; 7829,304;   -0,475;    1,227
357,472; 7448,628;    0,980;    1,500
358,065; 7645,216;    3,161;    2,500
358,658; 7546,598;    0,798;    2,318
359,251; 7230,101;    0,252;   -0,591
359,844; 6805,916;    0,343;   -1,136
360,437; 6975,593;    0,252;    0,045
361,030; 7226,442;    0,525;   -0,682
361,623; 6866,310;    0,434;    0,318
362,215; 6860,576;    0,979;    2,045
362,808; 6731,994;   -2,293;   -1,682
363,401; 6897,184;    0,798;    0,136
363,994; 6687,897;    3,252;   -1,500
364,586; 6620,171;    0,888;   -1,500
365,179; 6808,485;   -0,203;   -1,136
365,772; 6305,202;   -0,930;    2,045
366,364; 6589,024;    1,524;   -3,227
366,957; 6782,726;    1,342;   -0,045
367,549; 6789,186;   -0,203;   -0,864
368,142; 6475,079;    0,978;   -1,500
368,734; 6664,890;    2,523;   -2,136
369,327; 6632,747;    2,341;   -0,500
369,919; 6546,878;   -1,659;    0,409
370,512; 6391,192;   -1,023;   -0,500
371,104; 6176,083;    2,704;    1,591
371,696; 6306,996;    1,703;   -0,955
372,289; 6388,763;    0,157;    1,136
372,881; 6520,136;    1,156;    1,318
373,473; 6444,562;    4,064;    1,136
374,066; 6254,615;    1,336;    0,500
374,658; 6136,449;    0,879;    1,136
375,250; 6446,777;   -1,668;   -1,409
375,842; 6301,084;   -0,124;   -0,045
376,434; 6200,810;   -2,762;   -0,409
377,026; 6737,087;   -1,855;   -2,500
377,618; 6623,153;    0,779;   -0,682
378,210; 6458,877;    3,141;   -1,955
378,802; 6334,588;    3,412;   -0,591
379,394; 6292,480;    3,411;    0,682
379,986; 6813,807;    1,138;   -0,955
380,578; 6903,832;    1,410;    0,773
381,170; 6324,981;    0,320;    0,045
381,762; 6287,246;   -0,224;    1,409
382,354; 6460,387;   -0,223;   -1,318
382,945; 6544,760;    0,870;    0,318
383,537; 6671,687;    1,144;   -1,955
384,129; 6678,616;    0,963;   -1,136
384,721; 6843,202;    0,418;    0,955
385,312; 6763,580;   -1,399;   -0,955
385,904; 6850,920;   -0,945;    1,591
386,496; 6292,550;    0,691;    1,045
387,087; 6423,753;    0,418;    2,500
387,679; 6454,095;   -0,401;    0,045
388,270; 6596,401;   -2,401;    2,045
388,862; 6682,812;   -0,401;   -0,318
389,453; 6549,569;    1,054;    1,045
390,045; 6810,001;    3,236;   -2,682
390,636; 6747,368;    0,144;   -0,591
391,227; 6601,102;    2,054;   -0,045
391,819; 6692,287;    0,781;    0,773
392,410; 6757,027;    0,600;    0,045
393,001; 6687,818;    1,600;   -1,591
393,593; 6937,160;    0,600;   -0,045
394,184; 6832,594;    0,873;   -0,409
394,775; 6712,505;    1,146;    2,136
395,366; 6933,336;    1,782;    0,773
395,957; 6879,281;   -2,400;    0,136
396,548; 7157,184;    1,054;    2,682
397,139; 7453,305;    2,236;    0,591
397,730; 7208,173;    0,873;    0,955
398,321; 7246,482;    0,509;    0,955
398,912; 7272,245;   -0,764;    0,136
399,503; 7353,220;   -1,945;   -1,409
400,094; 6837,722;   -1,582;    1,682
400,685; 6707,045;    3,600;    0,045
401,276; 6791,851;   -0,400;   -0,955
401,867; 7082,903;   -1,127;    0,773
402,458; 7144,234;    1,509;   -2,318
403,048; 7124,663;    0,146;    0,591
403,639; 6773,866;    1,509;    0,864
404,230; 7010,826;    0,691;    0,318
404,821; 6957,584;   -0,127;    0,045
405,411; 7085,771;   -0,763;   -2,591
406,002; 6708,553;    3,237;   -1,136
406,592; 6597,478;    2,691;    0,045
407,183; 6856,347;    0,328;   -1,500
407,774; 6767,327;    1,419;   -0,136
408,364; 7048,949;    2,600;    0,409
408,954; 6709,056;   -0,036;    1,227
409,545; 6747,210;    1,873;    1,045
410,135; 6306,526;   -1,581;    0,500
410,726; 6455,580;    0,783;    0,318
411,316; 6792,774;    2,237;    0,773
411,906; 6517,240;    0,146;   -0,409
412,497; 6072,230;   -0,490;   -0,045
413,087; 6602,870;    0,783;   -0,227
413,677; 6973,330;   -2,490;    3,864
414,267; 6811,483;   -1,035;    1,409
414,857; 6809,265;    0,419;    4,227
415,448; 7090,333;   -0,763;    0,500
416,038; 6820,523;   -2,945;   -0,591
416,628; 6749,212;    0,965;    0,409
417,218; 6300,619;   -1,762;    3,318
417,808; 6531,583;    0,965;   -0,409
418,398; 6911,585;   -1,035;    2,682
418,988; 6899,274;   -2,217;    0,591
419,578; 7146,634;    3,601;    1,409
420,168; 7466,834;    0,692;   -0,955
420,757; 7072,265;    0,964;   -1,500
421,347; 6753,080;    1,601;   -0,227
421,937; 6916,167;    3,329;    1,409
422,527; 6913,891;    2,602;   -0,773
423,116; 6744,084;    2,692;   -0,045
423,706; 7015,240;    2,965;    0,318
424,296; 6993,737;    1,601;    0,682
424,885; 7378,555;    1,510;   -3,045
425,475; 7616,419;    1,147;   -2,864
426,065; 7526,757;   -1,489;   -0,318
426,654; 7206,661;    0,329;   -0,318
427,244; 7315,266;    1,147;    1,409
427,833; 6785,142;    1,056;   -0,500
428,423; 7201,144;    0,147;    1,136
429,012; 7902,299;    2,420;   -1,136
429,601; 7441,025;    2,057;    0,136
430,191; 7661,873;    2,511;    4,318
430,780; 7309,806;   -1,671;   -0,409
431,369; 7265,459;    1,329;   -0,045
431,959; 7822,012;    1,693;    0,500
432,548; 7602,972;   -1,398;   -0,045
433,137; 7717,627;    0,329;   -1,318
433,726; 8203,272;    0,148;    0,500
434,315; 7618,512;    0,148;    2,409
434,905; 7717,779;    0,693;    1,409
435,494; 7670,953;    3,148;    0,955
436,083; 8057,234;    1,420;   -0,955
436,672; 7930,161;    1,148;    0,500
437,261; 7551,217;    0,512;   -1,955
437,850; 7669,587;   -1,125;    0,682
438,439; 7652,780;    2,239;    1,955
439,027; 7479,974;    3,421;    1,773
439,616; 7793,118;    2,239;    1,227
440,205; 7660,316;    0,057;   -2,136
440,794; 7701,012;   -0,306;   -0,045
441,383; 7946,914;    1,603;   -0,591
441,971; 7798,726;   -0,306;    0,591
442,560; 7656,149;    0,603;   -1,773
443,149; 7421,557;    3,060;   -1,318
443,737; 7570,106;    0,968;   -2,318
444,326; 7840,358;    0,331;    0,318
444,915; 7853,760;   -1,851;    0,864
445,503; 8185,993;    0,058;   -0,318
446,092; 7539,733;    7,876;    2,136
446,680; 8033,142;    1,876;    0,318
447,269; 8204,383;   -1,487;   -0,318
447,857; 7969,413;    2,240;   -1,773
448,445; 8065,106;    2,149;    1,318
449,034; 8311,711;    0,876;   -1,136
449,622; 8402,690;    1,240;    3,500
450,210; 7713,415;    3,149;    2,227
450,799; 8220,721;    2,604;   -0,591
451,387; 8150,302;    1,786;   -0,591
451,975; 7851,717;   -1,305;    0,864
452,563; 7949,802;    0,422;    2,318
453,151; 7989,188;   -1,032;   -1,227
453,739; 7888,113;   -1,577;    0,136
454,328; 7746,093;    0,604;   -2,136
454,916; 7506,140;    1,150;   -0,136
455,504; 7702,573;    3,513;    1,227
456,092; 7840,144;    2,150;   -1,591
456,679; 7780,512;    0,604;    0,682
457,267; 7770,997;    3,604;    1,045
457,855; 7869,901;    3,241;    1,409
458,443; 7613,483;   -0,304;    1,682
459,031; 7781,619;    1,332;    2,409
459,619; 8168,508;   -3,577;    2,864
460,206; 8276,250;   -0,759;    2,045
460,794; 8386,522;   -0,668;   -0,227
461,382; 8563,454;    0,878;   -0,864
461,970; 8192,044;    0,605;    1,864
462,557; 8244,382;    0,878;   -0,682
463,145; 8395,865;   -0,304;   -1,682
463,732; 8495,005;    2,514;   -1,045
464,320; 8405,610;    1,514;   -3,045
464,907; 8142,687;    0,423;   -0,773
465,495; 8033,464;    2,696;   -1,227
466,082; 8178,879;    2,060;   -0,045
466,670; 8060,703;    2,605;    1,227
467,257; 8475,127;    0,060;    2,045
467,844; 8616,323;    1,514;    0,045
468,432; 8641,262;   -0,031;    3,500
469,019; 8175,281;    1,606;   -1,773
469,606; 8604,870;    0,969;    3,682
470,193; 8425,720;    2,151;    0,227
470,780; 8048,948;    0,333;    0,864
471,368; 8393,680;   -1,212;   -0,773
471,955; 8205,235;    1,060;   -0,682
472,542; 7822,525;   -0,303;   -1,136
473,129; 8071,448;   -0,485;    0,136
473,716; 7845,755;    0,060;    0,591
474,303; 8008,167;    1,333;   -0,864
474,890; 8252,558;    2,333;   -0,500
475,477; 8286,622;   -0,576;    0,409
476,064; 8192,917;    0,697;   -1,591
476,650; 8074,922;    2,152;    0,318
477,237; 7950,922;    1,879;    0,955
477,824; 8119,182;    3,879;    0,864
478,411; 8127,267;    0,606;   -0,318
478,997; 8288,961;    0,606;   -0,773
479,584; 8354,029;   -0,666;   -0,409
480,171; 8980,102;    1,243;   -0,773
480,757; 8659,098;   -0,848;    0,773
481,344; 8934,581;    0,334;    0,409
481,931; 8430,841;   -0,393;    1,045
482,517; 9309,653;    0,425;    0,318
483,104; 9749,460;    1,334;    2,864
483,690;10001,669;    0,243;    0,045
484,276;10296,408;    0,698;    0,227
484,863;10033,320;    2,152;    1,136
485,449;10567,299;    0,152;    0,318
486,035;10571,056;   -0,666;   -0,136
486,622;10968,501;   -2,393;    0,045
487,208;10911,181;    1,334;    1,500
487,794;10783,983;    0,971;    0,318
488,380;10875,268;    0,698;   -1,409
488,967;10950,532;   -1,120;   -0,409
489,553;10991,440;   -1,029;   -1,409
490,139;11176,920;    0,971;    0,773
490,725;10659,632;    0,789;   -0,227
491,311;10338,624;    1,516;    3,045
491,897; 9732,469;   -0,665;    1,500
492,483; 9601,687;    0,426;    1,227
493,069; 9443,543;    5,426;    0,864
493,655; 9390,073;    1,789;    0,682
494,241; 9300,064;    1,517;   -0,955
494,826; 9669,825;    0,335;   -1,045
495,412; 9158,939;    0,335;   -0,682
495,998; 9320,130;    0,971;   -0,318
496,584; 9396,429;    2,244;    1,045
497,169; 9368,718;    2,335;   -0,682
497,755; 9362,386;    1,244;    1,227
498,341; 9877,467;    2,153;    0,318
498,926; 9461,468;    2,881;    1,955
499,512; 9604,543;   -0,028;    2,955
500,097; 9675,082;   -0,574;   -0,318
500,683; 9621,791;   -0,028;    2,136
501,268; 9981,045;    1,881;   -0,955
501,854; 9728,858;   -0,119;    1,227
502,439; 9663,901;   -0,573;   -1,773
503,024; 9823,302;    1,608;    0,500
503,610; 9901,570;    1,335;   -0,682
504,195; 9875,906;    1,245;    1,955
504,780; 9989,506;    2,335;    1,227
505,366; 9853,178;    4,063;    2,864
505,951; 9592,075;   -1,119;    1,045
506,536; 9615,316;    1,427;   -3,682
507,121; 9604,412;    1,699;   -0,318
507,706;10080,439;   -0,392;    1,045
508,291;10407,508;   -2,937;    1,136
508,876; 9879,002;   -0,482;    2,591
509,461; 9385,629;    1,427;   -0,773
510,046; 9811,010;   -0,391;    0,318
510,631;10023,006;   -0,119;   -0,773
511,216; 9701,777;   -0,664;   -0,500
511,801;10060,411;   -0,755;    2,591
512,386;10276,723;    0,972;    0,500
512,971;10232,493;    0,427;    0,955
513,555; 9854,600;    1,154;   -1,500
514,140;10548,838;    1,336;   -3,136
514,725;10509,773;    1,791;   -1,136
515,309;10631,354;    1,064;    0,318
515,894;10151,807;   -0,300;   -2,227
516,479;10577,504;    1,973;   -0,955
517,063;10371,058;    0,882;    1,227
517,648;10517,065;    0,155;   -1,136
518,232;10101,049;   -1,300;   -1,409
518,817;10455,438;    1,337;    1,682
519,401;10718,178;    0,700;    0,591
519,985;10209,075;    2,700;    1,136
520,570;10101,444;   -0,118;   -1,955
521,154;10338,397;    0,064;    0,591
521,738;10516,621;    1,064;    2,409
522,323;11062,706;   -0,390;    1,682
522,907;10799,480;    2,428;   -0,136
523,491;10537,871;    1,155;    0,955
524,075;10506,350;    0,428;    0,591
524,659;10592,552;    0,973;    0,591
525,243;10101,491;    0,883;    0,409
525,827;10325,851;    0,883;   -0,045
526,411;11061,916;    1,155;   -0,136
526,995;11251,771;    0,337;    1,409
527,579;10873,714;    1,974;   -1,045
528,163;11141,398;    0,428;   -1,500
528,747;11067,959;    1,065;   -0,773
529,331;11319,452;    0,883;   -1,409
529,915;11472,834;    2,338;    0,955
530,499;11455,538;    0,247;    1,227
531,082;11148,211;    1,065;    1,591
531,666;10680,052;    0,520;    0,773
532,250;11252,893;    0,428;    2,682
532,833;11540,317;    0,610;    2,773
533,417;11424,752;    1,247;    0,864
534,001;11384,282;    0,429;   -0,318
534,584;12017,405;    1,974;    0,500
535,168;11837,447;    3,247;    1,409
535,751;11873,509;    4,520;    0,045
536,334;11393,045;    4,520;   -0,409
536,918;11929,132;    1,974;    1,591
537,501;11973,290;    1,520;    1,318
538,085;11970,687;    1,702;    1,045
538,668;12072,076;    0,883;    2,409
539,251;12370,464;    3,156;    3,773
539,834;12420,095;    0,156;    0,773
540,418;12350,252;    3,247;    4,318
541,001;12406,580;    2,702;    1,773
541,584;12369,560;    1,429;    2,227
542,167;12084,190;    0,702;    2,955
542,750;12198,659;    0,793;   -0,773
543,333;11804,936;    1,429;    2,136
543,916;12476,789;   -0,298;    2,500
544,499;13012,827;    2,520;    0,227
545,082;13022,922;    0,248;    3,591
545,665;13145,024;   -0,207;    1,500
546,248;13397,572;    0,520;   -0,318
546,830;13100,928;   -1,752;    1,955
547,413;13474,871;    0,157;   -0,773
547,996;14006,209;    0,157;    0,500
548,579;13714,734;   -0,843;    0,955
549,161;13522,284;    0,884;    2,682
549,744;13331,264;    0,612;    0,409
550,326;13796,494;    0,885;   -1,136
550,909;13600,174;    2,339;    0,591
551,492;13954,985;    0,521;    0,227
552,074;13716,573;   -0,024;   -1,318
552,657;14228,438;    2,430;    0,045
553,239;14068,786;   -3,024;   -0,773
553,821;13987,574;   -1,570;    1,045
554,404;13493,890;   -0,024;    1,136
554,986;13836,727;    2,248;    1,045
555,568;14357,803;    0,430;   -0,955
556,151;13617,737;    4,067;   -0,227
556,733;13780,924;   -1,388;   -0,864
557,315;14202,700;    4,703;    0,500
557,897;14020,489;    0,521;   -0,500
558,479;14157,651;    1,703;    1,318
559,061;14222,106;    1,067;   -0,864
559,643;14502,380;   -0,297;    0,045
560,225;14850,898;   -0,388;    2,864
560,807;14862,198;    0,340;    0,318
561,389;14399,138;   -1,206;    2,318
561,971;15012,151;   -0,660;    2,136
562,553;14872,472;    0,613;    1,591
563,135;14965,650;    1,249;    1,136
563,717;14597,466;    3,158;    1,136
564,298;15178,368;    3,976;   -0,045
564,880;14900,524;    0,340;   -1,409
565,462;15036,160;    1,977;    1,318
566,043;16061,792;   -0,933;    2,318
566,625;15620,632;    4,067;    1,227
567,207;15449,795;    0,704;    1,682
567,788;16335,235;   -0,114;    1,500
568,370;17067,591;   -1,841;   -0,500
568,951;16839,518;   -0,569;    0,227
569,533;17622,112;    0,977;   -0,500
570,114;17991,806;   -0,296;    0,682
570,695;18373,343;   -0,478;   -1,318
571,277;18713,089;   -0,205;   -1,682
571,858;19323,324;    2,704;   -1,136
572,439;20060,667;    0,795;   -1,045
573,021;20144,203;    0,432;   -2,773
573,602;20538,479;    1,795;    0,318
574,183;21360,180;   -0,114;    2,227
574,764;21365,129;    2,068;    0,409
575,345;21794,442;    0,250;   -0,136
575,926;22347,063;    2,704;    0,136
576,507;22292,500;    2,704;   -0,227
577,088;23249,477;    1,704;    1,682
577,669;23222,142;    1,704;    1,955
578,250;23827,180;   -0,750;   -1,045
578,831;24289,799;   -0,841;   -2,227
579,412;24470,621;   -1,205;    0,955
579,993;25321,989;    1,432;    0,227
580,573;25674,082;   -0,023;   -0,955
581,154;24677,235;    1,613;   -0,591
581,735;25469,321;    0,341;    0,773
582,315;24977,776;    0,523;    2,136
582,896;25211,311;   -1,750;    1,227
583,477;24779,893;    0,614;    1,227
584,057;24912,057;    1,159;    0,955
584,638;25158,898;   -2,750;    2,318
585,218;25213,917;    2,886;    2,682
585,799;25365,474;    1,977;   -0,227
586,379;25369,477;    1,250;    1,591
586,959;24283,863;    2,613;    0,318
587,540;23767,066;    0,432;    2,227
588,120;23409,587;   -1,113;   -0,045
588,700;22594,279;    2,977;    2,136
589,281;22899,854;    1,250;   -0,955
589,861;22756,568;   -0,296;   -1,682
590,441;22616,811;   -1,477;   -2,682
591,021;21713,192;    1,432;   -2,591
591,601;21941,467;    0,431;    0,500
592,181;22038,938;   -1,296;   -0,773
592,761;21383,949;    2,250;    1,409
593,341;21325,679;    1,522;    0,045
593,921;21291,999;   -0,569;    1,591
594,501;21225,431;    1,250;    1,318
595,081;21073,974;    0,522;   -0,318
595,661;21417,808;    1,068;    0,955
596,240;21861,581;   -1,023;    0,136
596,820;21508,734;    2,613;    1,955
597,400;21606,259;    1,977;    0,773
597,980;21819,319;   -0,750;    1,045
598,559;21831,959;    0,341;   -0,227
599,139;21612,740;   -0,750;   -1,227
599,718;21490,922;    0,795;   -0,409
600,298;21724,618;   -2,387;    0,682
600,877;21956,255;    4,795;    1,409
601,457;22149,863;    0,340;    1,136
602,036;22107,488;    1,795;    2,045
602,616;22254,613;    2,250;    1,682
603,195;22584,885;    0,431;    3,500
603,774;22083,007;   -0,296;    2,045
604,354;21996,578;    2,522;   -0,500
604,933;21592,894;    0,250;    1,864
605,512;21701,491;    2,340;    0,591
606,091;21777,373;    1,886;    3,773
606,671;22478,364;    0,249;    0,773
607,250;21672,322;    1,431;    3,136
607,829;21871,446;    1,158;    3,227
608,408;21784,483;    4,613;    2,591
608,987;20871,959;    2,704;    3,409
609,566;21106,969;    0,341;   -2,500
610,145;21226,033;    2,885;    0,682
610,723;21677,880;    1,613;    6,864
611,302;20961,059;    1,067;    1,682
611,881;20493,616;    5,158;   11,227
612,460;21261,530;    0,795;    3,955
613,039;21686,250;    1,703;    2,045
613,617;20516,203;    0,886;    4,773
614,196;20653,462;    1,613;    1,227
614,775;21028,087;    1,249;    2,409
615,353;20922,479;   -1,660;    0,864
615,932;20689,392;    0,249;    2,409
616,510;21263,745;    0,158;    0,591
617,089;20870,396;    8,794;   17,591
617,667;20613,553;    4,885;    6,136
618,246;20499,012;   -1,115;    1,318
618,824;20660,904;    1,612;   -0,955
619,402;20215,883;    0,431;   -1,773
619,981;20664,886;    1,067;   -1,045
620,559;20588,508;    0,794;    1,682
621,137;20159,630;    3,067;    1,864
621,715;20094,932;    3,703;   -0,682
622,293;20078,628;    1,885;   -0,773
622,871;20555,063;    0,340;    0,500
623,450;20172,460;    0,430;   -0,864
624,028;20019,552;   -0,388;   -0,955
624,606;19689,809;    2,339;    1,682
625,183;20072,719;   -0,661;   -1,136
625,761;19770,558;    1,885;    1,136
626,339;20010,498;    2,339;    2,591
626,917;20370,912;    0,339;   -0,045
627,495;20391,508;    2,794;    1,318
628,073;19864,213;    5,248;    2,864
628,650;19602,590;    3,067;    2,136
629,228;20007,023;    1,248;    4,409
629,806;19440,639;   -0,024;    1,136
630,383;19694,976;    0,066;   -0,318
630,961;19540,207;   -2,206;   -0,955
631,539;19296,541;   -2,479;    0,227
632,116;18744,117;   12,703;   15,409
632,694;19214,388;    4,885;    6,500
633,271;19410,090;    1,975;    2,682
633,848;19432,157;    1,430;    2,045
634,426;19467,642;    1,521;    1,773
635,003;18648,201;   -0,207;   -0,409
635,580;18939,103;    1,884;    3,682
636,158;19467,578;    3,793;    1,227
636,735;19394,749;    3,339;   -0,500
637,312;19496,936;    0,521;   -0,682
637,889;19572,634;    2,248;   -0,682
638,466;19122,322;    0,066;   -0,409
639,043;19127,687;    1,702;   -1,136
639,620;19408,321;    0,611;   -0,955
640,197;19676,448;    1,612;    1,682
640,774;19853,350;    1,430;    1,136
641,351;20181,705;    0,612;    1,136
641,928;19674,152;    2,794;    1,409
642,505;19349,508;    0,794;   -0,500
643,082;19471,955;    1,885;    1,227
643,658;18572,220;    1,157;    1,500
644,235;19248,030;   -2,479;    2,500
644,812;19489,568;    1,794;    0,773
645,388;19235,924;    1,612;    1,409
645,965;19309,462;    1,521;    1,682
646,542;19369,545;    3,430;   -0,227
647,118;19375,719;    3,703;   -0,955
647,695;19619,711;    0,339;    1,136
648,271;19563,067;   -2,115;    0,500
648,848;19791,514;    0,248;    2,227
649,424;19653,779;    0,976;    1,318
650,000;19394,953;   -0,388;   -1,045
650,577;19245,582;    0,158;   -0,955
651,153;19628,483;   -1,115;    0,955
651,729;20491,839;    0,521;    0,864
652,305;20578,195;    1,339;    2,773
652,881;23914,642;   -1,297;    1,136
653,458;29344,089;    0,249;    0,227
654,034;32310,081;    0,703;    1,591
654,610;33477,619;    0,339;    0,773
655,186;34631,338;    1,612;    3,045
655,762;34302,058;   -1,842;    0,409
656,338;34381,141;    0,703;    0,136
656,913;35351,770;   -0,297;    0,409
657,489;34647,944;    0,249;   -0,318
658,065;34611,209;    0,794;   -1,591
658,641;35184,746;    2,158;   -0,864
659,217;34600,648;    2,067;    0,409
659,792;34103,731;   -1,751;   -0,409
660,368;34403,814;   -0,388;   -0,682
660,944;34373,170;    1,794;    1,227
661,519;30749,435;    0,522;    0,409
662,095;25872,518;   -0,206;    0,591
662,670;22159,420;   -0,206;   -0,136
663,246;21256,775;   -0,660;   -0,409
663,821;20709,404;    0,431;    1,682
664,396;20182,487;    0,613;    1,864
664,972;20431,116;   -0,660;   -0,500
665,547;20737,108;    3,794;    0,136
666,122;20775,282;    1,340;    0,318
666,698;20948,911;    2,431;    0,318
667,273;20316,176;    0,885;    0,136
667,848;21051,895;    0,340;    1,500
668,423;20850,070;    1,795;    2,318
668,998;21304,698;    0,976;   -0,682
669,573;21762,781;    2,067;   -1,500
670,148;21643,501;    1,885;   -0,682
670,723;21394,130;   -0,024;    0,318
671,298;21755,849;   -1,296;    1,045
671,873;21842,387;   -0,296;   -0,136
672,448;21791,834;    1,704;    0,136
673,023;22071,190;    0,249;   -0,227
673,597;22410,727;    2,704;    2,318
674,172;22196,538;    2,431;    0,318
674,747;21727,985;   -0,205;   -1,045
675,321;21552,704;   -0,933;    3,318
675,896;21155,696;    2,158;    1,045
676,471;22006,871;    2,522;    1,591
677,045;21798,408;   -0,296;    0,682
677,620;21805,219;    2,158;    1,136
678,194;22153,938;    0,249;    1,136
678,769;21798,658;    0,886;   -0,318
679,343;22027,559;   -0,023;    1,773
679,917;21848,642;    0,340;    1,955
680,492;21893,998;    0,249;    3,227
681,066;21982,354;    0,613;    0,409
681,640;22024,983;    1,795;   -0,318
682,214;22748,248;    2,340;    0,500
682,788;22323,422;    0,613;   -0,773
683,363;22234,596;    1,977;    1,682
683,937;21955,588;    0,886;   -0,318
684,511;22668,035;   -1,023;   -0,591
685,085;22375,391;   -1,478;    0,318
685,659;22135,292;    1,431;    0,864
686,232;22383,466;    1,159;   -0,318
686,806;22075,459;    2,159;    0,409
687,380;22658,815;   -1,932;    0,591
687,954;22873,898;    2,432;    1,136
688,528;22548,072;    2,613;    1,955
689,101;23325,428;    0,432;    1,045
689,675;22936,329;    0,886;   -0,136
690,249;22310,685;    3,432;    0,409
690,822;22649,859;    1,159;    0,318
691,396;22821,397;    2,068;    1,227
691,969;22313,480;    2,523;    0,136
692,543;22697,109;   -0,568;   -1,955
693,116;22388,828;   -0,659;   -1,409
693,690;22270,457;   -0,296;    0,500
694,263;22775,722;    2,341;    2,955
694,836;22754,896;    2,795;    3,591
695,410;21538,616;    1,159;    1,773
695,983;21911,153;    1,614;    0,591
696,556;21968,509;   -0,750;   -1,045
697,129;22300,774;   -1,114;    1,409
697,703;21957,676;    1,341;    1,955
698,276;21975,213;    1,705;   -0,773
698,849;21765,660;   -1,023;    1,409
699,422;22088,198;    1,250;    0,591
699,995;21883,190;   -0,659;    0,136
700,568;22283,364;   -0,204;    3,045
701,140;22310,811;   -1,841;    1,682
701,713;22072,894;    0,341;    2,409
702,286;21890,341;    0,796;    0,864
702,859;21734,151;    0,614;   -0,591
703,432;21072,326;   -0,841;    0,682
704,004;21481,772;    1,978;    0,318
704,577;21359,401;    1,068;    0,136
705,150;21853,302;    0,887;    2,500
705,722;21667,204;    1,523;   -3,227
706,295;21456,741;    1,432;   -0,591
706,867;21321,643;    0,250;    1,955
707,440;21506,726;   -0,113;   -0,409
708,012;21783,718;   -0,022;    0,591
708,584;21644,074;    2,705;    0,227
709,157;21900,521;    1,160;   -0,591
709,729;21631,513;    1,069;    2,045
710,301;22408,233;   -1,204;    0,045
710,874;22360,043;    0,341;   -0,227
711,446;21358,217;   -0,295;    0,864
712,018;21248,664;   -3,022;    0,500
712,590;21019,475;   -0,204;    1,682
713,162;21479,194;   -0,477;    1,318
713,734;21731,096;    1,796;   -2,045
714,306;21626,633;    0,342;   -0,409
714,878;20448,535;   -0,295;    0,864
715,450;21212,800;   -0,113;    0,864
716,022;21482,156;    2,433;    1,318
716,593;21613,421;    0,978;    0,591
717,165;21540,231;    1,796;   -1,227
717,737;21303,314;    0,796;    0,409
718,309;21030,579;    1,160;   -0,045
718,880;21028,571;   -1,295;   -1,409
719,452;21214,200;    0,887;   -1,591
720,024;20868,556;    1,705;   -0,591
720,595;21379,548;    2,978;    0,955
721,167;20988,086;    1,160;   -2,045
721,738;20507,078;    2,069;   -1,045
722,309;20497,798;    1,251;   -1,227
722,881;20320,336;    2,705;    0,773
723,452;20885,419;    1,251;    2,864
724,023;21064,502;    1,524;    2,682
724,595;20869,494;    2,342;    0,682
725,166;20641,941;    1,524;   -0,409
725,737;20257,842;    1,887;    0,227
726,308;20383,289;    0,797;    0,318
726,879;20747,191;    1,069;    1,227
727,450;20597,546;   -2,022;   -0,045
728,021;20579,993;    1,069;    0,682
728,592;20423,804;    1,160;    0,500
729,163;20717,432;    1,433;   -0,136
729,734;20677,516;    2,160;   -0,227
730,305;21036,417;    0,615;    0,136
730,876;21319,591;    0,888;    2,955
731,447;21065,129;    0,797;    2,682
732,017;21152,939;   -0,840;    1,864
732,588;20722,568;   -0,021;    1,227
733,159;20912,287;    3,615;   -1,045
733,729;20678,280;    1,251;    0,409
734,300;20033,908;    0,160;    0,864
734,870;20440,719;   -1,385;    0,591
735,441;20891,893;    0,888;   -0,591
736,011;20743,612;    1,070;   -1,591
736,582;20693,786;    1,251;    0,045
737,152;20176,688;    0,979;   -2,045
737,722;20613,862;    1,070;   -0,682
738,293;20370,672;   -2,021;    1,318
738,863;20258,937;    1,797;    2,318
739,433;20097,930;    4,524;    0,318
740,003;20632,376;    1,524;   -0,682
740,573;20129,278;    2,252;   -1,591
741,143;20122,997;    3,615;    0,318
741,713;20801,626;    0,252;   -0,500
742,283;20538,164;    1,706;    1,591
742,853;20369,974;    0,524;    1,591
743,423;19908,239;    0,161;    0,045
743,993;19958,141;    1,070;    1,500
744,563;19402,769;    2,524;   -0,864
745,133;19405,398;   -0,112;   -0,864
745,702;20039,936;    2,797;    1,773
746,272;19290,928;    0,434;    0,591
746,842;19090,829;   -0,748;   -0,591
747,411;19512,549;   -0,839;   -0,318
747,981;19642,268;   -0,930;    0,500
748,551;19718,352;   -0,021;   -1,045
749,120;19545,617;   -0,112;   -0,227
749,690;19886,882;    2,161;    2,409
750,259;20232,419;    0,979;    2,955
750,828;20095,321;    4,070;   -1,955
751,398;20378,586;   -0,112;   -0,045
751,967;19898,760;    2,888;    0,409
752,536;20085,297;    1,161;   -0,227
753,105;20447,381;   -1,384;    0,227
753,675;20195,827;   -0,112;    1,773
754,244;20182,820;    0,888;    3,591
754,813;20220,812;    0,979;    1,227
755,382;19801,622;    0,798;    0,955
755,951;20289,342;   -0,112;    3,682
756,520;19926,971;    2,525;    1,864
757,089;20397,145;    1,888;    0,500
757,658;20466,955;    2,434;    1,227
758,227;20490,766;   -1,111;    0,318
758,795;20754,212;   -1,021;    1,136
759,364;21062,841;    0,525;   -0,591
759,933;20128,015;    1,343;   -0,045
760,501;19711,280;    0,252;   -1,318
761,070;20130,272;   -0,293;   -1,409
761,639;20803,265;    1,434;    1,318
762,207;20131,621;    0,889;   -0,955
762,776;20079,158;    2,889;    0,864
763,344;20072,696;    0,071;    0,591
763,913;19189,597;    1,616;    1,409
764,481;19858,681;    1,980;   -0,136
765,049;19768,491;    0,616;    1,409
765,618;19668,483;    1,434;    0,318
766,186;19754,930;    2,434;    0,136
766,754;19936,559;    1,798;    1,864
767,322;19021,006;    1,162;    0,409
767,890;19014,725;    0,525;   -1,773
768,459;19407,717;    2,616;   -0,318
769,027;19561,528;    2,525;    3,409
769,595;18676,520;    2,616;    2,591
770,163;19046,603;    3,344;    2,955
770,730;18870,505;    2,525;   -0,136
771,298;18736,406;    1,162;   -1,409
771,866;18826,671;    0,253;    4,955
772,434;19103,118;    1,162;   -1,864
773,002;19299,928;    2,616;    0,682
773,569;18976,648;    1,071;    1,682
774,137;18765,095;    0,889;   -0,045
774,705;19478,814;   -0,747;   -0,136
775,272;19085,716;    0,253;    0,682
775,840;18878,799;   -0,111;    2,682
776,407;18441,518;   -0,293;    1,955
776,975;18098,147;    1,162;    0,318
777,542;18997,776;    2,162;   -0,045
778,110;18903,768;    0,707;   -0,045
778,677;18620,760;    1,071;   -0,864
779,244;18366,025;   -1,020;    1,045
779,812;18457,927;    0,980;    0,864
780,379;18347,192;    2,435;    1,136
780,946;18569,547;    2,617;   -0,773
781,513;18830,085;   -0,565;    0,318
782,080;18236,805;    1,253;    2,864
782,647;18907,070;    1,708;    3,045
783,214;18589,789;   -0,201;    3,864
783,781;18208,418;    1,708;   -0,682
784,348;18104,865;    0,253;    1,500
784,915;18512,402;   -1,474;    0,318
785,482;18305,031;    2,708;    2,591
786,049;18747,751;    1,071;   -0,591
786,615;18867,743;    1,708;   -0,955
787,182;18604,826;   -3,201;   -0,682
787,749;18338,818;   -2,201;    1,409
788,315;17716,083;    0,253;   -0,409
788,882;18024,076;    0,981;   -1,227
789,448;18621,068;    1,435;   -0,955
790,015;18615,787;    1,799;    3,227
790,581;18247,507;    0,708;    0,227
791,148;18122,408;    1,344;    1,045
791,714;18307,582;   -1,019;    3,136
792,280;18028,120;    3,708;    1,591
792,847;17725,294;   -0,928;    2,500
793,413;18145,923;   -0,110;   -0,318
793,979;17777,370;    1,526;   -1,318
794,545;17879,180;    2,981;    2,682
795,111;17368,354;    2,435;    1,318
795,678;17500,892;    3,526;   -1,682
796,244;17197,521;    2,799;    0,136
796,810;17739,967;    0,799;    0,773
797,375;17474,687;   -0,292;   -2,136
797,941;17506,497;   -1,110;    0,591
798,507;17575,308;    0,254;   -0,955
799,073;17196,118;    2,708;    0,591
799,639;17297,474;    1,435;    3,136
800,205;17306,194;   -1,565;    2,682
800,770;16927,277;    1,345;    1,773
801,336;16961,542;    2,981;   -0,955
801,901;16701,534;    6,072;    3,136
802,467;17229,527;    0,526;    2,045
803,033;16629,792;   -0,019;    0,864
803,598;16783,511;    1,072;   -1,045
804,163;16868,049;    0,708;   -0,318
804,729;16847,041;   -0,110;    1,136
805,294;17135,942;    1,072;    2,227
805,859;16966,298;    0,890;   -0,409
806,425;16586,291;    3,890;    2,682
806,990;16258,192;    1,890;    4,318
807,555;16655,184;   -0,110;    2,591
808,120;16602,540;   -1,292;   -0,409
808,685;16618,896;    1,072;   -2,500
809,250;16230,979;    2,072;   -0,500
809,815;16515,608;   -0,201;    0,682
810,380;16944,327;    0,981;    1,591
810,945;17373,229;    2,890;    2,045
811,510;16690,857;   -0,200;    1,591
812,075;16422,122;    2,800;   -1,409
812,640;16444,933;    3,709;    1,409
813,204;16562,107;    2,163;   -0,227
813,769;16973,645;    0,254;   -0,045
814,334;16486,910;    0,527;    0,864
814,898;16526,538;    1,981;    0,591
815,463;16395,622;    0,981;   -0,773
816,027;16341,341;    1,345;   -2,318
816,592;16476,333;    2,163;   -2,045
817,156;16045,235;   -2,200;    1,136
817,721;15940,954;    0,982;    2,318
818,285;15897,219;    0,618;    1,500
818,849;16432,666;   -0,018;    1,682
819,414;16359,295;    0,073;    2,955
819,978;15983,196;   -0,291;    1,773
820,542;16474,734;    2,891;    0,500
821,106;16296,090;    2,800;    0,682
821,670;16352,718;    2,709;    2,591
822,234;16102,165;    1,073;    1,409
822,798;15606,794;   -0,836;    0,500
823,362;15619,877;    1,527;    4,227
823,926;15034,506;   -0,018;    1,136
824,490;15251,407;    3,527;   -0,682
825,054;15613,763;    2,527;   -1,136
825,618;15312,664;   -1,200;   -1,500
826,181;15278,657;    0,982;   -1,318
826,745;15186,285;   -0,745;   -1,045
827,309;15505,914;    2,255;    1,318
827,872;15016,815;    0,527;    0,955
828,436;15896,535;    1,982;   -0,773
828,999;15970,254;    2,436;    1,227
829,563;14967,247;   -0,654;    1,136
830,126;14769,603;   -0,018;   -0,591
830,690;14773,322;    0,709;    2,864
831,253;14334,223;   -0,473;    2,227
831,816;14515,488;   -0,018;    0,500
832,380;14446,390;    1,164;    0,864
832,943;14662,473;    3,073;   -0,500
833,506;14193,647;    0,255;   -1,227
834,069;14851,548;    2,164;   -0,955
834,632;14975,359;   -2,200;    1,318
835,195;14889,806;    1,346;    0,955
835,758;14215,889;    0,709;    1,955
836,321;14067,881;    1,073;   -1,045
836,884;14175,510;   -1,291;   -0,955
837,447;14199,593;    0,528;    1,773
838,010;14424,767;    1,800;    3,227
838,573;14669,941;    0,528;    0,773
839,135;14672,115;   -0,109;   -0,955
839,698;14174,744;    2,528;    0,409
840,261;13775,009;    0,255;   -0,227
840,823;13650,456;   -0,927;    0,864
841,386;13943,084;   -0,018;   -2,409
841,948;13844,168;    0,255;    1,773
842,511;13589,614;    0,255;    1,682
843,073;13728,334;    2,982;    0,227
843,636;13534,326;    0,619;   -0,227
844,198;13485,773;    1,255;    0,591
844,760;13604,765;    0,619;    1,955
845,322;13280,394;    0,164;    1,136
845,885;13648,023;   -0,290;    0,591
846,447;14064,106;    0,710;    0,227
847,009;13704,462;    3,983;   -0,682
847,571;13956,818;    1,346;   -2,045
848,133;14045,810;   -0,199;   -1,864
848,695;13901,075;    2,346;    1,409
849,257;13477,794;    1,346;   -1,682
849,819;13621,605;    2,983;   -0,409
850,381;13642,597;    1,801;   -0,864
850,942;13968,862;    1,892;   -0,591
851,504;13905,582;    0,983;    0,227
852,066;13948,119;    1,619;   -1,591
852,628;13592,748;    0,165;    1,955
853,189;13176,286;    0,256;    2,682
853,751;13287,187;   -0,654;    1,409
854,312;13132,816;    1,256;   -1,682
854,874;13554,444;   -0,108;   -0,773
855,435;14007,800;    0,528;   -1,682
855,997;14140,611;    3,983;   -0,136
856,558;13472,330;    0,801;    1,773
857,119;13604,504;   -0,744;    2,864
857,681;13313,497;   -0,108;    0,318
858,242;13311,307;    1,347;   -2,136
858,803;13711,845;    1,074;   -0,773
859,364;14262,473;    0,892;   -4,773
859,925;13751,920;   -0,290;   -0,955
860,486;13596,549;    0,529;   -0,955
861,047;13333,541;    0,165;   -1,227
861,608;13174,806;    0,165;   -0,773
862,169;13364,708;   -0,562;   -0,045
862,730;13154,700;   -0,290;    1,409
863,291;13352,783;    0,438;   -0,500
863,852;13622,048;   -0,926;    1,955
864,412;13174,949;   -1,835;   -0,864
864,973;11993,487;    1,892;    0,500
865,534;11852,298;    2,074;    0,227
866,094;13129,290;    2,620;    0,227
866,655;12817,464;    4,711;    3,318
867,215;13117,547;    0,074;    0,136
867,776;13009,085;   -1,199;   -0,136
868,336;13107,623;    1,529;    0,136
868,897;12658,978;    3,438;    1,682
869,457;12433,607;    3,256;    0,318
870,017;12682,145;    2,438;   -1,227
870,578;13118,410;    1,893;    0,773
871,138;12745,766;    2,620;   -0,955
871,698;12387,576;   -0,562;   -1,318
872,258;12257,023;    0,711;   -2,864
872,818;12652,379;    2,347;    0,045
873,378;12589,462;   -2,198;    1,045
873,938;12211,363;    4,984;    0,500
874,498;12484,810;    1,256;   -1,955
875,058;12392,348;    4,347;    1,773
875,618;12256,795;    1,438;   -2,682
876,177;12218,242;   -0,471;    0,136
876,737;11880,507;   -0,289;    1,955
877,297;11936,044;    2,711;    1,955
877,856;11952,218;    2,529;    0,318
878,416;11888,483;    2,438;   -0,136
878,976;12075,930;    3,438;    0,409
879,535;12233,650;    4,529;    3,136
880,095;12032,824;    1,347;    0,045
880,654;12106,634;    0,347;    1,318
881,213;12244,808;    2,347;    1,500
881,773;11900,255;    1,984;    2,682
882,332;12193,520;    6,075;    5,136
882,891;12084,058;    0,711;    2,136
883,451;12460,323;   -2,016;    1,682
884,010;11966,861;   -1,107;   -0,409
884,569;12069,944;   -2,289;   -0,045
885,128;12217,573;   -0,743;   -1,864
885,687;12243,383;   -0,743;    0,682
886,246;12000,648;    2,620;    2,136
886,805;11754,913;    1,620;    2,045
887,364;11979,178;    1,166;   -0,500
887,922;12321,625;   -0,016;    0,045
888,481;11822,526;    1,530;    0,591
889,040;12116,700;    3,711;    2,136
889,599;12679,693;    2,166;    1,409
890,157;12735,049;    2,166;    2,409
890,716;12385,404;    2,166;    0,227
891,274;12213,215;    0,075;   -1,136
891,833;12617,389;    1,166;    0,864
892,391;12476,199;    1,802;    0,500
892,950;12534,010;    0,166;   -0,773
893,508;12871,366;    0,984;   -0,409
894,067;12310,631;   -0,379;    0,136
894,625;12217,987;   -1,016;   -1,500
895,183;12408,070;   -0,198;   -0,682
895,741;12369,971;    2,257;   -1,773
896,299;12184,873;    1,621;   -2,409
896,858;12316,410;    1,530;   -1,591
897,416;12476,312;    0,166;   -1,318
897,974;12254,940;   -2,197;    0,318
898,532;12395,751;    6,530;    2,682
899,089;12317,743;    0,621;   -0,682
899,647;12406,735;    0,530;    1,318
900,205;12213,728;    0,257;    1,045
900,763;12349,538;    2,166;    0,227
901,321;12376,712;    3,530;   -1,409
901,878;11874,250;    3,257;   -0,773
902,436;11775,788;    0,257;    1,318
902,994;12182,144;    6,712;    3,682
903,551;11686,409;    1,439;    0,409
904,109;12004,492;    1,530;   -1,409
904,666;11658,757;    1,439;    1,045
905,224;11527,567;    3,894;   -0,409
905,781;11334,105;   -0,470;   -0,318
906,338;11383,643;    0,167;    1,045
906,895;11371,999;    1,894;    2,045
907,453;11302,173;    2,348;    1,136
908,010;11317,438;    3,348;    0,409
908,567;11014,521;   -0,561;    0,591
909,124;10582,877;    2,439;   -1,500
909,681;10633,960;   -1,288;    0,682
910,238;10840,861;   -0,106;   -1,318
910,795;11160,490;   -1,561;   -1,136
911,352;10827,308;   -0,379;   -2,682
911,909;10334,672;    2,803;   -0,864
912,466;10773,399;    1,985;    1,500
913,022;10360,763;   -0,924;    0,500
913,579;10680,581;   -0,470;    2,045
914,136;10453,944;   -2,561;    0,955
914,692;10753,763;    1,530;   -1,227
915,249;10398,854;    0,530;    0,409
915,806;10603,126;    1,803;    1,955
916,362;10465,490;    0,894;    1,864
916,918;10044,217;    2,439;    1,045
917,475;10045,490;    1,621;    0,955
918,031;10124,672;    0,076;   -0,045
918,587; 9686,763;    0,621;   -0,318
919,144; 9918,126;   -0,379;    0,227
919,700;10157,763;    0,167;    0,773
920,256; 9788,581;    0,439;    0,045
920,812; 9494,490;    1,439;   -1,045
921,368; 9537,944;    1,348;   -1,045
921,924; 9231,308;    0,439;   -0,136
922,480; 8872,399;    0,076;    1,227
923,036; 9419,763;   -0,652;    1,955
923,592; 9397,763;    0,621;    0,318
924,148; 9302,672;    1,894;   -0,955
924,704; 8755,944;    0,258;   -0,409
925,259; 9025,854;   -0,561;    0,591
925,815; 8841,672;    3,803;    0,500
926,371; 8441,490;    3,530;    1,409
926,926; 8376,399;    1,621;    0,591
927,482; 8104,217;    1,621;    0,773
928,037; 8009,581;   -0,833;    2,045
928,593; 8289,672;    0,258;    1,045
929,148; 8134,126;    1,167;   -1,500
929,704; 7728,035;    2,439;   -0,500
930,259; 7894,672;    0,894;   -0,136
930,814; 7169,854;    1,803;    1,955
931,369; 6964,035;    0,258;   -0,773
931,925; 6869,581;   -1,924;    0,136
932,480; 6796,308;    3,076;   -2,591
933,035; 6761,490;    3,985;   -0,318
933,590; 6584,490;   -1,742;   -1,773
934,145; 6341,672;   -1,288;   -0,318
934,700; 6640,308;    0,348;   -0,591
935,255; 6474,854;    4,803;    0,045
935,809; 5962,399;    6,258;    0,864
936,364; 5259,399;    2,167;   -0,136
936,919; 5298,217;    2,348;   -1,773
937,474; 5242,399;    1,348;    0,136
938,028; 5041,854;    3,076;    1,136
938,583; 4683,672;    6,348;    4,682
939,138; 4907,308;    0,167;    2,136
939,692; 4454,490;   -1,015;   -1,136
940,247; 4247,399;    1,167;   -1,045
940,801; 3955,126;    0,621;    0,227
941,355; 3902,308;    0,439;    2,591
941,910; 3625,763;    0,712;   -2,136
942,464; 3707,399;    2,712;   -0,318
943,018; 3619,490;    3,258;   -0,227
943,572; 3537,854;    2,803;   -0,682
944,126; 3146,308;   -0,924;   -0,409
944,681; 3051,126;    0,712;    0,227
945,235; 2994,854;    2,167;   -0,591
945,789; 2932,763;    1,258;   -1,864
946,342; 3121,035;   -0,561;   -0,591
946,896; 2906,399;    0,348;    0,955
947,450; 2700,581;   -0,561;   -0,227
948,004; 2945,126;    1,076;   -0,045
948,558; 2897,672;    1,258;   -0,864
949,111; 2824,126;   -1,197;   -0,318
949,665; 2951,763;   -0,106;   -0,682
950,219; 2835,035;    0,621;   -1,045
950,772; 2837,126;    0,258;    1,864
951,326; 2777,944;   -1,106;   -0,955
951,879; 2824,672;    1,076;   -2,318
952,433; 2898,126;    1,348;    2,227
952,986; 2710,308;    0,348;    0,682
953,539; 2658,490;    1,530;    0,591
954,093; 2612,854;    0,985;   -1,318
954,646; 2766,944;   -0,288;    1,318
955,199; 2586,308;    1,258;   -0,500
955,752; 2582,308;    1,985;    1,773
956,305; 2511,490;    0,894;    2,955
956,858; 2641,672;    0,621;   -0,318
957,411; 2771,308;    3,621;    2,136
957,964; 2594,217;    2,076;    2,136
958,517; 2586,581;    0,985;    3,136
959,070; 2462,581;   -1,197;    1,955
959,623; 2622,126;    1,076;    1,500
960,176; 2444,763;    0,712;    2,045
960,728; 2411,399;    1,712;    0,773
961,281; 2452,581;    2,258;    0,500
961,834; 2455,854;   -0,833;    0,864
962,386; 2412,035;    1,258;    1,045
962,939; 2331,217;    3,439;   -0,318
963,491; 2426,763;    2,621;    1,136
964,043; 2331,126;    0,076;    2,409
964,596; 2467,763;    1,712;    2,227
965,148; 2321,854;   -0,379;    1,773
965,700; 2261,763;   -0,015;   -0,227
966,253; 2390,035;   -0,833;    0,318
966,805; 2269,672;    1,894;    0,773
967,357; 2276,944;    0,439;   -1,500
967,909; 2288,672;    1,167;   -1,227
968,461; 2316,490;    0,894;    3,136
969,013; 2251,672;   -1,561;   -0,864
969,565; 2336,581;    1,803;   -1,136
970,117; 2535,581;    3,803;    1,045
970,669; 2298,581;    3,258;   -0,136
971,220; 2118,035;    2,167;   -1,500
971,772; 2102,035;    1,348;   -0,318
972,324; 2229,672;   -1,197;   -0,500
972,876; 2155,581;    0,167;   -0,045
973,427; 2310,763;   -1,197;   -1,045
973,979; 2300,126;    0,076;   -2,500
974,530; 2237,308;    0,803;    1,318
975,082; 2247,490;    2,167;    1,682
975,633; 2177,672;    2,894;    1,682
976,184; 2320,763;    2,076;    0,773
976,736; 2172,217;    0,348;    0,227
977,287; 2026,490;    0,258;   -0,500
977,838; 2150,490;   -0,924;   -0,318
978,389; 2191,763;    0,803;   -0,500
978,940; 2055,308;    1,258;   -0,409
979,491; 2083,944;    2,258;   -0,500
980,042; 2091,672;   -0,652;    3,045
980,593; 2101,672;    1,894;    0,227
981,144; 2203,308;    3,530;   -0,500
981,695; 2215,399;   -0,470;    1,500
982,246; 2151,763;   -1,833;    1,045
982,797; 2194,035;   -0,561;    0,682
983,347; 2332,944;    2,167;    0,591
983,898; 2517,217;    4,167;    0,409
984,449; 2378,399;    2,530;    0,773
984,999; 2229,490;    1,894;   -1,136
985,550; 2089,399;    3,167;   -0,318
986,100; 2059,944;    0,712;   -0,318
986,651; 2074,035;    0,258;    0,045
987,201; 2062,854;    0,894;   -0,591
987,751; 2131,308;   -0,288;    2,864
988,302; 2137,490;   -0,379;    1,500
988,852; 2153,854;    1,985;   -1,136
989,402; 2240,581;    0,985;    0,682
989,952; 2173,490;    1,621;    0,864
990,502; 2198,490;    1,076;    0,682
991,052; 2136,763;   -0,106;    0,045
991,602; 2039,763;    1,167;    1,318
992,152; 2072,308;    2,803;    0,682
992,702; 2055,944;    1,167;   -0,045
993,252; 1994,672;    0,076;   -0,500
993,802; 2098,944;    1,167;    1,318
994,352; 2256,581;   -0,742;    1,136
994,901; 2285,217;    1,076;    3,227
995,451; 2224,035;   -1,197;    0,318
996,000; 2289,217;    1,076;    0,318
996,550; 2094,672;    2,894;    0,227
997,100; 2096,035;   -0,561;   -0,045
997,649; 2345,581;   -0,197;    0,955
998,198; 2036,217;   -0,288;   -1,500
998,748; 2220,944;    0,348;   -2,318
999,297; 2115,944;    0,985;   -0,409
999,846; 2216,126;    1,894;   -0,773
1000,395; 2224,581;    1,530;    0,500
1000,945; 2240,581;    1,076;   -0,773
1001,494; 2301,490;    0,167;    0,682
1002,043; 2252,944;    0,712;    0,864
1002,592; 2085,763;    3,439;    1,955
1003,141; 2210,854;    2,439;   -0,682
1003,690; 2165,035;    1,258;    0,500
1004,238; 2158,035;   -0,106;   -0,045
1004,787; 1860,763;   -1,288;    1,227
1005,336; 2136,399;    1,621;    0,682
1005,885; 2189,217;   -0,197;   -2,773
1006,433; 2255,126;   -0,470;    0,955
1006,982; 2415,399;    2,167;    1,682
1007,531; 2273,672;    2,712;   -0,227
1008,079; 2186,672;    0,258;    0,500
1008,627; 2285,126;    1,621;    0,409
1009,176; 2100,217;    0,076;   -1,955
1009,724; 2124,763;   -2,742;    0,864
1010,273; 2235,944;    1,076;    0,500
1010,821; 2275,581;    1,076;    1,409
1011,369; 2061,581;    0,076;    1,318
1011,917; 2042,763;   -0,833;   -0,591
1012,465; 2293,308;    2,530;   -1,591
1013,013; 2353,217;    0,439;   -1,682
1013,561; 2314,490;   -1,288;   -0,773
1014,109; 2391,944;   -0,833;    1,682
1014,657; 2244,763;    1,348;    0,591
1015,205; 2306,672;    0,894;   -0,955
1015,753; 2304,944;    0,258;   -1,409
1016,301; 2337,944;    2,621;    3,045
1016,848; 2360,672;    2,167;    0,409
1017,396; 2406,672;    1,621;    0,045
1017,944; 2500,944;    2,621;    1,864
1018,491; 2273,308;   -0,197;    1,409
1019,039; 2536,672;   -0,652;    0,591
1019,586; 2356,854;    0,076;    1,682
1020,134; 2404,854;    0,712;    1,500
1020,681; 2445,854;    2,894;   -1,136
1021,228; 2416,672;   -0,561;   -2,227
1021,776; 2294,944;   -0,833;   -1,136
1022,323; 2543,672;    0,803;    0,773
1022,870; 2464,581;   -0,470;   -0,045
1023,417; 2415,763;    2,076;    1,864
1023,964; 2455,126;    0,621;    1,227
1024,511; 2364,944;   -0,652;    0,773
1025,058; 2191,672;    0,439;   -0,045
1025,605; 2217,399;   -1,742;    3,136
1026,152; 2471,581;   -0,106;   -0,591
1026,699; 2217,399;    0,167;    1,318
1027,245; 2321,217;    2,439;    0,318
1027,792; 2460,763;    0,712;    1,409
1028,339; 2455,854;    4,076;   -0,045
1028,885; 2296,126;    3,621;   -0,227
1029,432; 2236,672;   -0,106;    0,227
1029,978; 2314,399;    1,348;   -1,591
1030,525; 2228,763;    1,621;    0,409
1031,071; 2378,944;    0,348;    1,136
1031,618; 2583,035;    1,258;    1,682
1032,164; 2349,672;    2,076;    3,045
1032,710; 2401,944;    0,076;   -1,500
1033,256; 2299,308;    0,712;   -0,136
1033,803; 2237,035;   -0,288;    1,500
1034,349; 2028,126;    1,803;    0,136
1034,895; 2153,217;    2,621;   -0,318
1035,441; 2152,035;    0,439;    0,318
1035,987; 2175,490;   -2,288;   -0,682
1036,533; 2216,126;   -0,197;   -0,955
1037,078; 2422,490;    4,712;    1,682
1037,624; 2241,944;    2,439;   -0,955
1038,170; 2214,672;    1,712;   -0,318
1038,716; 2167,399;    2,167;   -0,409
1039,261; 2054,672;    2,167;   -0,773
1039,807; 2037,217;   -0,015;    3,409
1040,352; 2108,217;   -1,288;   -0,318
1040,898; 2130,581;    0,167;   -0,682
1041,443; 2032,944;    0,803;   -2,591
1041,989; 2189,035;    3,621;    1,591
1042,534; 2009,854;    0,985;    2,591
1043,079; 2050,399;    1,985;    0,955
1043,625; 1930,944;    0,258;    0,500
1044,170; 1992,126;    2,439;    1,045
1044,715; 2239,490;    0,167;    0,955
1045,260; 2064,944;   -0,833;   -0,955
1045,805; 2063,581;    0,258;   -0,591
1046,350; 1992,672;    0,530;   -0,409
1046,895; 2049,126;    0,803;    1,591
1047,440; 2023,399;    1,530;    0,409
1047,985; 1879,490;   -1,197;   -0,955
1048,530; 1800,854;    1,348;    1,227
1049,074; 1877,035;    2,803;    0,318
1049,619; 1841,672;   -0,924;    1,955
1050,164; 1691,035;    1,076;    0,227
1050,708; 1757,399;    2,621;    0,045
1051,253; 2141,035;    3,258;   -2,227
1051,797; 1844,944;   -0,197;   -1,318
1052,342; 1785,126;    1,348;    1,045
1052,886; 1820,672;    1,803;   -1,409
1053,430; 1696,763;    2,167;    0,136
1053,975; 1729,308;    0,894;   -0,318
1054,519; 1712,035;    1,803;    3,227
1055,063; 1790,308;    3,621;    1,318
1055,607; 1701,672;    1,348;    0,227
1056,151; 1700,490;    0,530;    1,682
1056,695; 1600,944;   -1,833;   -1,136
1057,239; 1679,217;   -1,197;   -0,682
1057,783; 1696,308;    2,258;   -1,500
1058,327; 1682,763;    3,076;    1,409
1058,871; 1903,217;    3,985;    1,318
1059,415; 1631,581;   -0,561;   -0,045
1059,958; 1914,581;    2,985;    2,591
1060,502; 1605,035;    1,348;   -0,773
1061,046; 1501,581;    1,712;   -0,955
1061,589; 1471,399;    2,803;   -1,136
1062,133; 1369,217;    0,985;    1,864
1062,676; 1353,217;    1,439;    0,864
1063,220; 1381,217;    0,985;    0,500
1063,763; 1412,763;    2,985;    1,136
1064,306; 1479,763;    0,985;    1,864
1064,849; 1384,035;    2,076;    0,591
1065,393; 1387,763;    2,894;   -1,500
1065,936; 1459,581;    2,530;   -0,409
1066,479; 1342,854;    2,621;    1,318
1067,022; 1369,035;    1,894;   -0,227
1067,565; 1277,581;   -1,197;   -1,318
1068,108; 1296,308;    1,258;   -0,591
1068,651; 1267,944;   -2,470;    1,409
1069,194; 1222,035;   -1,106;   -1,682
1069,736; 1242,672;    3,803;    0,955
1070,279; 1193,581;   -1,652;   -0,500
1070,822; 1296,490;    1,530;   -0,318
1071,364; 1412,763;    0,530;    1,318
1071,907; 1210,672;    0,348;    3,227
1072,450; 1086,217;    0,258;   -0,045
1072,992; 1117,763;   -0,561;    3,136
1073,535; 1258,672;    0,167;    2,136
1074,077; 1063,581;    2,985;    2,045
1074,619; 1053,854;    0,985;    0,591
1075,161; 1082,126;   -0,561;    1,500
1075,704; 1263,399;    0,258;    1,227
1076,246; 1054,126;    1,530;    0,682
1076,788;  967,126;   -1,015;    1,773
1077,330; 1033,490;   -2,106;    2,136
1077,872; 1030,035;   -1,924;    0,955
1078,414; 1272,490;    3,712;    0,773
1078,956; 1013,581;    0,167;   -0,227
1079,498; 1280,854;    0,439;    0,318
1080,040; 1002,308;    0,985;   -1,318
1080,581;  937,126;    0,621;   -0,318
1081,123;  851,581;   -0,106;   -0,773
1081,665;  889,854;    3,803;   -0,955
1082,206; 1189,308;    3,258;   -0,500
1082,748; 1058,672;    3,258;    2,045
1083,289;  931,126;    0,167;    1,318
1083,831;  874,217;    0,258;    0,227
1084,372;  915,944;    0,894;    0,591
1084,913;  922,399;    3,348;    0,864
1085,455;  863,399;    1,530;   -2,045
1085,996;  856,035;    0,530;    0,136
1086,537;  893,672;    0,985;    0,864
1087,078;  911,490;    0,439;   -2,136
1087,619;  958,399;   -1,652;    0,227
1088,160;  874,854;    1,439;    1,318
1088,701;  856,217;   -0,742;    0,682
1089,242;  813,672;   -0,561;   -2,227
1089,783;  909,854;   -0,561;    1,409
1090,324;  877,217;   -0,833;    0,682
1090,865;  762,308;   -1,924;   -0,409
1091,405;  712,399;   -0,561;    2,227
1091,946;  754,308;   -0,197;   -0,955
1092,487;  683,490;   -1,288;   -1,409
1093,027;  853,217;    1,803;   -1,500
1093,568;  717,763;    2,258;    1,227
1094,108;  824,126;    0,621;    1,773
1094,649;  761,490;   -0,470;    0,136
1095,189;  697,944;    1,167;   -0,682
1095,729;  663,308;    0,712;    0,955
1096,269;  655,763;    1,258;   -0,955
1096,810;  951,490;   -0,197;    0,500
1097,350;  795,399;   -0,561;   -0,773
1097,890;  693,672;    2,985;    1,227
1098,430;  957,672;    4,985;    2,864
1098,970;  843,308;    1,894;    1,682
1099,510;  689,944;   -0,833;   -2,318
1100,050;  629,854;    0,258;   -1,591
1100,589;  601,672;    0,076;   -0,318
1101,129;  726,672;    0,894;   -0,955
1101,669;  871,035;    2,803;    2,136
1102,209;  711,217;    1,530;    2,227
1102,748;  669,763;    3,439;    0,955
1103,288;  658,399;    0,712;   -1,227
1103,827;  672,763;    3,530;   -2,227
1104,367;  569,854;    1,712;   -2,409
1104,906;  554,490;   -1,015;   -1,136
1105,445;  615,581;    0,985;   -1,136
1105,985;  565,399;   -0,652;    1,500
1106,524;  612,763;    1,530;   -0,682
1107,063;  589,217;    1,167;    1,409
1107,602;  554,672;    1,894;   -1,500
1108,141;  486,217;    1,621;    1,500
1108,680;  592,126;    3,985;   -0,591
1109,219;  532,763;    0,167;   -0,500
1109,758;  526,944;    4,167;    0,682
1110,297;  507,035;   -1,106;   -0,682
1110,836;  455,035;    1,439;    0,955
1111,375;  606,126;    0,348;    0,409
1111,913;  621,854;    0,985;    0,773
1112,452;  559,308;    0,894;    0,136
1112,991;  443,126;    1,076;    1,955
1113,529;  427,308;    0,167;   -0,045
1114,068;  503,944;    0,439;    2,955
1114,606;  412,217;   -0,561;   -0,955
1115,144;  551,944;    1,530;    1,045
1115,683;  499,217;    1,985;    0,318
1116,221;  534,763;    2,076;   -0,864
1116,759;  452,126;    1,621;   -0,864
1117,297;  640,399;    1,621;    1,864
1117,836;  460,217;    1,985;   -1,227
1118,374;  456,035;    0,258;   -0,682
1118,912;  417,308;    0,439;    2,682
1119,450;  416,217;    0,985;    0,864
1119,988;  455,126;    3,348;    2,136
1120,525;  879,672;    7,258;    3,318
1121,063;  608,672;    0,530;    1,864
1121,601;  430,217;    1,076;   -1,227
1122,139;  384,490;    1,076;   -2,045
1122,676;  568,490;   -1,652;    2,773
1123,214;  510,035;    0,712;    4,409
1123,751;  332,126;    0,621;    2,227
1124,289;  447,217;    0,894;   -0,409
1124,826;  331,944;   -0,379;    0,227
1125,364;  269,672;    0,712;   -0,955
1125,901;  446,126;    6,258;    1,227
1126,438;  532,217;    3,530;    0,955
1126,975;  287,672;    2,985;   -0,773
1127,513;  352,308;    2,621;    2,136
1128,050;  267,581;   -0,561;   -0,682
1128,587;  365,035;    1,348;   -0,227
1129,124;  406,217;   -0,015;    1,318
1129,661;  283,217;   -1,924;    0,227
1130,198;  431,490;    2,439;    0,773
1130,734;  380,672;   -0,379;    1,409
1131,271;  251,581;   -1,197;    0,864
1131,808;  414,399;    1,621;    3,045
1132,345;  304,581;    4,530;    0,318
1132,881;  182,581;   -0,561;   -1,864
1133,418;  315,399;    0,348;   -1,136
1133,954;  255,672;    0,712;   -2,682
1134,491;  319,944;    1,712;   -0,773
1135,027;  234,490;    2,167;    0,864
1135,564;  317,763;    1,439;    2,955
1136,100;  303,126;   -0,742;    2,136
1136,636;  205,217;   -1,015;   -1,045
1137,172;  283,035;    0,894;   -1,045
1137,708;  218,035;   -1,561;   -1,045
1138,245;  222,581;    0,803;   -1,227
1138,781;  175,490;    1,803;   -3,318
1139,317;  234,581;    1,894;   -1,409
1139,852;  230,581;    3,076;    0,136
1140,388;  333,308;    2,076;   -0,409
1140,924;  230,399;    1,076;   -2,227
1141,460;  174,490;   -0,288;    0,136
1141,996;  121,763;   -0,652;    2,682
1142,531;  157,399;    1,076;    3,318
1143,067;  353,308;    1,167;    1,045
1143,602;  411,217;    3,439;   -0,318
1144,138;  264,490;    0,803;    1,045
1144,673;  154,217;    1,621;    1,409
1145,209;  213,126;    2,894;   -0,318
1145,744;  135,217;    0,803;    0,864
1146,279;  254,308;    1,530;   -0,136
1146,815;  178,399;    1,530;   -2,682
1147,350;  222,490;   -0,924;    0,045
1147,885;  147,126;   -1,924;   -1,318
1148,420;  149,490;    2,439;    0,773
1148,955;  131,581;   -1,470;    1,864
1149,490;  148,672;   -1,106;   -1,591
1150,025;  134,035;   -1,106;   -1,773
1150,560;  237,944;   -0,288;   -0,955
1151,094;  204,490;    0,258;   -0,591
1151,629;  206,944;   -3,742;    0,864
1152,164;  138,672;   -1,288;    1,318
1152,698;  107,490;    1,258;   -0,136
1153,233;   77,217;   -1,379;   -0,682
1153,767;  111,944;   -0,288;   -2,318
1154,302;  162,763;   -0,379;    1,773
1154,836;  156,854;    0,803;   -2,136
1155,371;  205,490;    2,258;    3,682
1155,905;  170,581;    1,985;    1,682
1156,439;  137,854;    0,530;   -0,500
1156,973;  163,763;    0,439;    0,318
1157,507;  104,399;   -1,742;    0,682
1158,042;  130,581;   -0,652;    1,045
1158,576;  179,035;   -0,561;    1,773
1159,110;  164,399;    0,076;    2,409
1159,643;  144,035;   -2,470;   -0,045
1160,177;   83,581;   -2,015;    1,500

