
Integration time [ms]:   0,050
Averaging Nr. [scans]: 11
Smoothing Nr. [pixels]: 0
Data measured with spectrometer [name]: 7318044SP
Wave   ;Sample   ;Dark     ;Reference
[nm]   ;[counts] ;[counts] ;[counts] 

186,757;  -12,599;   38,161;    1,318
187,357;   27,844;   26,706;    0,955
187,958;    6,663;   17,252;   -1,591
188,558;   51,748;   12,979;   -1,227
189,159;   24,051;   10,070;   -4,500
189,759;    0,555;    5,797;   -3,591
190,360;   -1,566;    6,797;   -2,136
190,960;   39,057;    5,706;   -4,136
191,560;   46,813;    2,614;   -6,591
192,161;  284,044;    5,885;   -3,500
192,761;  125,161;    5,520;   -3,227
193,361;   82,398;    3,065;   -3,773
193,962;  137,445;    1,612;   -2,682
194,562;   64,080;   -0,114;   -3,955
195,162;   99,236;   -0,567;   -2,227
195,762;  262,946;    2,433;   -0,045
196,362;  208,592;    1,706;   -2,500
196,963;   84,768;    1,706;   -0,864
197,563;  155,757;    1,252;   -0,955
198,163;  111,174;   -0,111;   -0,682
198,763;  131,428;   -0,020;   -0,500
199,363;  233,602;    3,616;   -0,500
199,963;  199,143;    2,162;    0,409
200,563;  172,649;    6,344;   -1,409
201,163;  148,271;    5,435;   -0,227
201,763;  242,956;    1,435;    0,318
202,363;  186,090;    0,980;    1,500
202,963;  290,654;    1,526;    1,045
203,563;  408,140;    0,344;    0,500
204,162;  252,537;    1,889;   -1,864
204,762;  248,625;    2,071;    0,591
205,362;  220,177;    0,708;    1,955
205,962;  319,353;    3,435;    1,955
206,562;  318,407;    1,889;    2,318
207,161;  282,139;    1,708;    0,318
207,761;  446,804;    4,435;    2,409
208,361;  321,281;    1,889;    1,409
208,960;  418,522;    2,889;    1,500
209,560;  508,377;    0,435;    1,591
210,160;  482,351;    5,071;    1,864
210,759;  454,209;    0,708;    1,227
211,359;  452,231;   -0,474;    1,045
211,958;  717,740;    3,526;    2,045
212,558;  804,235;    0,799;    1,864
213,157;  651,162;   -0,929;    1,500
213,757; 1111,190;    5,617;   -0,227
214,356;  805,725;    1,708;   -0,409
214,956; 1154,267;    3,526;    0,409
215,555;  791,777;    0,617;    2,136
216,154;  701,538;   -0,292;   -0,591
216,754;  733,157;    1,253;    0,773
217,353;  881,584;   -0,383;   -1,045
217,952;  735,102;    2,072;    0,318
218,552;  963,565;    0,254;   -0,773
219,151;  877,244;   -1,110;    0,955
219,750;  881,743;    0,890;   -0,227
220,349; 1060,210;   -2,292;    1,045
220,948; 1097,419;    1,163;    1,136
221,548; 1160,060;    0,617;    1,227
222,147; 1287,051;   -1,292;   -0,409
222,746; 1586,575;    1,254;   -0,955
223,345; 1460,617;   -1,019;    0,500
223,944; 1495,243;    1,163;    0,773
224,543; 1704,043;    4,072;   -1,409
225,142; 1797,388;    1,345;    0,136
225,741; 1721,814;    1,163;    1,045
226,340; 1767,707;    1,254;   -0,955
226,939; 2277,580;    2,708;   -0,136
227,538; 2310,004;    1,163;   -0,773
228,137; 2421,298;    0,435;    0,864
228,735; 2642,381;    0,435;    1,227
229,334; 2368,455;   -0,474;   -0,227
229,933; 2768,629;    0,799;    0,591
230,532; 2917,255;   -1,201;   -0,409
231,131; 2969,494;    1,253;    0,318
231,729; 3149,223;    1,163;   -2,318
232,328; 3375,347;    0,435;   -1,500
232,927; 3519,774;    4,526;   -0,500
233,525; 3675,614;    0,981;    0,045
234,124; 3892,949;    1,890;   -1,591
234,723; 3960,653;    1,617;   -1,045
235,321; 4156,663;    1,163;    0,136
235,920; 4440,322;    2,526;   -1,227
236,518; 4750,969;    1,072;    0,318
237,117; 5038,854;    2,890;   -0,227
237,715; 5194,157;    1,163;   -0,500
238,314; 5231,735;    1,708;   -2,318
238,912; 5341,950;    0,526;   -1,409
239,510; 5460,189;    1,162;   -1,227
240,109; 5677,649;   -0,474;    3,773
240,707; 5734,385;   -0,474;    1,227
241,305; 6221,114;   -0,383;    0,136
241,904; 6445,295;   -0,292;   -2,045
242,502; 6414,684;    3,253;   -0,227
243,100; 6401,595;    3,344;   -0,955
243,698; 6665,717;    2,799;    1,682
244,297; 6859,190;   -0,656;    0,682
244,895; 6675,465;   -0,474;   -2,318
245,493; 7078,788;    2,981;   -0,591
246,091; 7156,721;    5,163;   -1,318
246,689; 7136,713;    2,163;    0,591
247,287; 7355,581;   -0,019;   -1,136
247,885; 7741,839;   -1,019;    1,227
248,483; 7875,175;   -0,201;   -0,500
249,081; 8016,420;    0,981;    1,591
249,679; 8178,056;   -1,019;    1,682
250,277; 8507,053;   -2,292;    0,864
250,875; 8500,785;    0,617;   -1,045
251,473; 8545,713;   -0,019;    0,500
252,071; 8748,721;   -0,383;    1,045
252,669; 8942,970;   -1,565;    0,318
253,267; 9300,983;    1,618;    0,773
253,864; 9224,126;    0,617;    0,682
254,462; 9046,814;    1,526;    1,591
255,060; 9065,954;    0,072;    1,318
255,658; 9487,970;   -3,292;   -0,136
256,255; 9933,390;   -0,201;   -2,045
256,853; 9770,021;    2,345;    1,409
257,451; 9817,953;    1,981;    1,864
258,048;10052,366;    2,072;    1,864
258,646; 9837,260;    0,436;   -1,045
259,243;10057,385;    2,981;    2,227
259,841;10143,037;    1,799;    0,318
260,438;10015,542;    0,254;    0,864
261,036;10851,323;    0,617;    1,409
261,633;10774,351;    1,526;    2,227
262,231;10502,251;   -0,110;   -0,045
262,828;10596,173;   -0,383;    1,136
263,425;10667,167;   -1,928;   -0,591
264,023;10949,045;    1,436;    0,045
264,620;10449,516;    1,526;   -0,318
265,217;10854,161;    2,890;    3,136
265,815;11014,949;    2,527;    2,136
266,412;10727,450;    0,072;    0,136
267,009;10812,854;    0,526;    0,773
267,606;10669,533;    0,345;   -0,955
268,203;10644,299;   -0,383;   -0,591
268,801;10995,540;   -0,474;    0,591
269,398;11328,898;   -0,564;    2,500
269,995;11339,264;    0,890;    1,591
270,592;11079,670;    0,799;   -0,500
271,189;11356,385;    1,981;    0,409
271,786;11470,845;    2,072;    1,227
272,383;11255,067;   -0,383;    0,227
272,980;11482,292;    1,617;    0,318
273,577;12054,751;    2,162;    1,227
274,174;11592,727;    1,435;    2,591
274,771;11557,698;    1,890;   -0,773
275,367;11710,288;    3,253;    1,409
275,964;11667,909;   -0,565;   -0,500
276,561;11833,086;   -2,474;   -1,045
277,158;12122,147;    1,799;   -1,773
277,755;12190,966;   -0,110;    0,409
278,351;11504,434;    0,436;   -1,500
278,948;11894,651;   -0,201;    0,045
279,545;11974,129;    0,527;    2,318
280,141;12619,374;    1,254;   -2,045
280,738;12451,408;    2,435;   -0,136
281,334;12737,898;   -0,383;    0,591
281,931;12083,050;    2,890;   -1,318
282,528;12208,314;    4,072;   -0,500
283,124;13055,814;    3,345;   -0,500
283,721;12936,380;    0,709;    1,409
284,317;12724,125;    0,163;    2,500
284,913;13345,546;   -0,110;    0,591
285,510;13544,000;    2,890;   -0,318
286,106;13602,222;    2,345;   -0,955
286,703;13142,866;    0,072;    1,955
287,299;13369,946;    1,254;   -0,591
287,895;13639,731;    0,890;   -1,045
288,491;14351,352;    0,163;    2,136
289,088;13970,667;    0,163;    2,409
289,684;14067,334;    2,890;    1,500
290,280;14084,349;    1,890;    0,682
290,876;14180,838;    0,163;    5,500
291,472;14078,453;    2,163;    2,227
292,068;14137,784;    1,254;    0,227
292,665;13864,400;   -0,564;    0,773
293,261;13422,857;   -1,292;    2,136
293,857;13830,787;    4,072;    2,136
294,453;13800,984;   -0,928;    0,955
295,049;13626,771;    0,253;    1,955
295,644;13635,336;   -1,292;    0,136
296,240;13581,433;    0,162;   -0,136
296,836;13692,885;   -0,747;    0,318
297,432;13975,858;    2,980;   -0,500
298,028;13974,197;    0,435;    0,773
298,624;14450,274;    0,889;    1,864
299,220;14784,711;    0,435;    0,591
299,815;14341,877;    0,526;   -0,409
300,411;14149,589;    0,435;    1,773
301,007;14192,263;    1,889;    0,227
301,602;14265,869;    2,071;   -2,318
302,198;14420,815;    1,435;   -0,773
302,794;14766,925;    1,526;   -0,500
303,389;14936,223;    1,071;    1,045
303,985;14990,579;    1,253;    1,409
304,580;14937,553;    0,889;    1,591
305,176;14945,010;    0,344;    0,136
305,771;14899,664;   -0,929;   -1,227
306,367;14622,781;    3,071;    0,136
306,962;15067,959;    2,889;    1,500
307,558;14827,802;    2,435;    0,136
308,153;14774,746;   -0,383;   -1,136
308,748;15032,390;    0,162;    1,682
309,344;14987,814;    0,253;   -1,318
309,939;15046,135;    2,071;   -1,318
310,534;15368,293;   -2,020;   -1,682
311,130;15382,192;   -0,656;   -2,500
311,725;15091,350;    0,526;   -0,500
312,320;15412,216;    1,253;    0,045
312,915;15225,665;    2,890;   -1,045
313,510;15259,300;    0,526;   -0,500
314,105;15860,660;   -3,565;    1,409
314,700;15225,090;   -1,656;   -1,045
315,295;14787,553;   -0,020;    0,045
315,890;14316,124;   -0,292;    0,864
316,485;14681,730;    0,253;   -0,318
317,080;14838,522;   -0,929;    1,591
317,675;15424,952;    3,071;   -0,682
318,270;14673,493;    6,889;    3,318
318,865;14769,758;    2,435;    3,045
319,460;14584,199;   -1,565;    0,591
320,055;14831,376;   -2,565;   -1,227
320,650;14486,392;   -1,838;   -0,591
321,244;14540,600;    0,889;   -1,409
321,839;15597,934;    0,980;   -0,227
322,434;15507,216;   -0,111;   -1,591
323,029;15054,296;   -0,474;    1,591
323,623;14894,753;    0,798;    0,773
324,218;14591,782;    2,707;    1,409
324,812;14479,842;    0,889;    1,591
325,407;14302,108;   -0,929;    2,045
326,002;14189,274;    0,526;   -0,409
326,596;14563,156;   -0,656;    1,318
327,191;14826,414;   -0,383;   -1,045
327,785;14313,974;   -0,747;   -0,227
328,379;14578,265;   -0,383;    0,136
328,974;14388,752;    1,798;   -3,955
329,568;14595,338;    2,889;   -2,409
330,163;14408,346;    2,435;    1,045
330,757;14793,813;    0,253;    1,591
331,351;14068,027;   -0,292;    0,682
331,945;14333,280;   -0,383;    1,409
332,540;13917,126;    1,617;   -0,591
333,134;14061,433;    3,344;    0,773
333,728;14335,729;    2,799;    0,318
334,322;14689,827;    0,889;   -0,864
334,916;13920,765;    0,344;    0,955
335,510;14262,316;   -0,111;   -0,136
336,105;14560,050;   -0,929;    1,591
336,699;14174,969;   -1,292;    0,591
337,293;14084,261;    1,071;    0,318
337,887;14275,703;    0,071;    1,955
338,481;14346,060;    2,980;    0,591
339,074;14510,757;    2,071;    2,682
339,668;14294,591;   -0,110;    1,227
340,262;14568,475;    7,708;    3,227
340,856;14054,088;    1,708;   -0,682
341,450;13320,676;    0,708;    1,864
342,044;14277,533;    1,799;    0,136
342,637;14054,286;    1,162;   -2,136
343,231;13863,928;   -1,474;    0,682
343,825;13804,961;   -0,747;   -0,591
344,419;13752,058;   -0,474;    0,500
345,012;13461,379;    2,889;    4,045
345,606;13443,387;   -0,656;    1,591
346,199;13271,129;   -0,111;   -0,227
346,793;12773,690;    2,525;    2,045
347,386;12945,528;    0,889;   -1,136
347,980;12948,532;   -0,838;   -0,045
348,573;12697,910;   -1,748;    0,409
349,167;12296,544;    6,161;    4,773
349,760;12683,321;    2,252;    2,682
350,354;12655,505;    1,616;    1,136
350,947;12361,987;    2,798;    1,682
351,540;11988,640;    0,616;   -1,409
352,134;11951,172;   -1,111;    1,136
352,727;12010,944;   -0,657;    1,136
353,320;11809,975;    2,343;    0,591
353,913;11653,513;   -1,929;    1,864
354,507;11809,918;    0,434;   -1,227
355,100;11812,322;    0,071;    0,864
355,693;10889,376;    4,798;    2,409
356,286;10951,800;    0,980;    2,773
356,879;11385,611;   -0,475;    1,227
357,472;10895,851;    0,980;    1,500
358,065;11107,683;    3,161;    2,500
358,658;11089,511;    0,798;    2,318
359,251;10648,983;    0,252;   -0,591
359,844;10009,476;    0,343;   -1,136
360,437;10162,942;    0,252;    0,045
361,030;10502,677;    0,525;   -0,682
361,623;10056,302;    0,434;    0,318
362,215;10062,509;    0,979;    2,045
362,808; 9923,742;   -2,293;   -1,682
363,401;10126,383;    0,798;    0,136
363,994; 9784,911;    3,252;   -1,500
364,586; 9733,973;    0,888;   -1,500
365,179; 9964,310;   -0,203;   -1,136
365,772; 9387,120;   -0,930;    2,045
366,364; 9731,154;    1,524;   -3,227
366,957; 9924,496;    1,342;   -0,045
367,549; 9921,155;   -0,203;   -0,864
368,142; 9536,128;    0,978;   -1,500
368,734; 9747,559;    2,523;   -2,136
369,327; 9722,582;    2,341;   -0,500
369,919; 9622,636;   -1,659;    0,409
370,512; 9356,993;   -1,023;   -0,500
371,104; 9038,239;    2,704;    1,591
371,696; 9228,416;    1,703;   -0,955
372,289; 9358,582;    0,157;    1,136
372,881; 9510,783;    1,156;    1,318
373,473; 9458,639;    4,064;    1,136
374,066; 9214,361;    1,336;    0,500
374,658; 9026,176;    0,879;    1,136
375,250; 9440,810;   -1,668;   -1,409
375,842; 9242,565;   -0,124;   -0,045
376,434; 9114,359;   -2,762;   -0,409
377,026; 9800,764;   -1,855;   -2,500
377,618; 9669,931;    0,779;   -0,682
378,210; 9477,614;    3,141;   -1,955
378,802; 9334,429;    3,412;   -0,591
379,394; 9245,000;    3,411;    0,682
379,986; 9929,508;    1,138;   -0,955
380,578;10038,876;    1,410;    0,773
381,170; 9266,087;    0,320;    0,045
381,762; 9210,351;   -0,224;    1,409
382,354; 9470,605;   -0,223;   -1,318
382,945; 9603,099;    0,870;    0,318
383,537; 9765,455;    1,144;   -1,955
384,129; 9790,904;    0,963;   -1,136
384,721; 9997,804;    0,418;    0,955
385,312; 9914,346;   -1,399;   -0,955
385,904; 9966,607;   -0,945;    1,591
386,496; 9302,594;    0,691;    1,045
387,087; 9474,537;    0,418;    2,500
387,679; 9523,839;   -0,401;    0,045
388,270; 9644,737;   -2,401;    2,045
388,862; 9771,905;   -0,401;   -0,318
389,453; 9670,548;    1,054;    1,045
390,045; 9973,879;    3,236;   -2,682
390,636; 9936,801;    0,144;   -0,591
391,227; 9763,268;    2,054;   -0,045
391,819; 9836,592;    0,781;    0,773
392,410; 9915,397;    0,600;    0,045
393,001; 9807,480;    1,600;   -1,591
393,593;10159,003;    0,600;   -0,045
394,184; 9977,770;    0,873;   -0,409
394,775; 9904,084;    1,146;    2,136
395,366;10146,476;    1,782;    0,773
395,957;10182,447;   -2,400;    0,136
396,548;10529,119;    1,054;    2,682
397,139;10852,966;    2,236;    0,591
397,730;10518,608;    0,873;    0,955
398,321;10608,718;    0,509;    0,955
398,912;10629,091;   -0,764;    0,136
399,503;10733,471;   -1,945;   -1,409
400,094;10091,548;   -1,582;    1,682
400,685; 9959,809;    3,600;    0,045
401,276;10057,287;   -0,400;   -0,955
401,867;10424,810;   -1,127;    0,773
402,458;10519,146;    1,509;   -2,318
403,048;10490,232;    0,146;    0,591
403,639;10032,518;    1,509;    0,864
404,230;10278,373;    0,691;    0,318
404,821;10210,835;   -0,127;    0,045
405,411;10326,564;   -0,763;   -2,591
406,002; 9897,464;    3,237;   -1,136
406,592; 9670,765;    2,691;    0,045
407,183;10008,257;    0,328;   -1,500
407,774; 9899,569;    1,419;   -0,136
408,364;10323,915;    2,600;    0,409
408,954; 9865,792;   -0,036;    1,227
409,545; 9914,040;    1,873;    1,045
410,135; 9391,638;   -1,581;    0,500
410,726; 9601,545;    0,783;    0,318
411,316; 9981,028;    2,237;    0,773
411,906; 9639,337;    0,146;   -0,409
412,497; 9042,060;   -0,490;   -0,045
413,087; 9754,506;    0,783;   -0,227
413,677;10193,942;   -2,490;    3,864
414,267;10010,785;   -1,035;    1,409
414,857;10027,653;    0,419;    4,227
415,448;10323,581;   -0,763;    0,500
416,038; 9966,656;   -2,945;   -0,591
416,628; 9952,190;    0,965;    0,409
417,218; 9324,910;   -1,762;    3,318
417,808; 9623,415;    0,965;   -0,409
418,398;10219,184;   -1,035;    2,682
418,988;10204,193;   -2,217;    0,591
419,578;10487,777;    3,601;    1,409
420,168;10871,354;    0,692;   -0,955
420,757;10401,705;    0,964;   -1,500
421,347;10054,741;    1,601;   -0,227
421,937;10224,476;    3,329;    1,409
422,527;10133,403;    2,602;   -0,773
423,116; 9945,754;    2,692;   -0,045
423,706;10381,739;    2,965;    0,318
424,296;10347,359;    1,601;    0,682
424,885;10776,086;    1,510;   -3,045
425,475;11120,757;    1,147;   -2,864
426,065;11045,501;   -1,489;   -0,318
426,654;10607,002;    0,329;   -0,318
427,244;10699,097;    1,147;    1,409
427,833;10095,220;    1,056;   -0,500
428,423;10646,058;    0,147;    1,136
429,012;11512,194;    2,420;   -1,136
429,601;10922,799;    2,057;    0,136
430,191;11191,887;    2,511;    4,318
430,780;10788,860;   -1,671;   -0,409
431,369;10708,626;    1,329;   -0,045
431,959;11430,701;    1,693;    0,500
432,548;11178,759;   -1,398;   -0,045
433,137;11353,587;    0,329;   -1,318
433,726;11913,602;    0,148;    0,500
434,315;11195,827;    0,148;    2,409
434,905;11308,104;    0,693;    1,409
435,494;11196,697;    3,148;    0,955
436,083;11723,429;    1,420;   -0,955
436,672;11564,348;    1,148;    0,500
437,261;11055,772;    0,512;   -1,955
437,850;11177,837;   -1,125;    0,682
438,439;11139,387;    2,239;    1,955
439,027;10926,182;    3,421;    1,773
439,616;11354,201;    2,239;    1,227
440,205;11270,554;    0,057;   -2,136
440,794;11381,606;   -0,306;   -0,045
441,383;11621,055;    1,603;   -0,591
441,971;11499,386;   -0,306;    0,591
442,560;11331,256;    0,603;   -1,773
443,149;11138,382;    3,060;   -1,318
443,737;11266,382;    0,968;   -2,318
444,326;11498,827;    0,331;    0,318
444,915;11589,727;   -1,851;    0,864
445,503;11969,999;    0,058;   -0,318
446,092;11213,975;    7,876;    2,136
446,680;11820,192;    1,876;    0,318
447,269;12015,052;   -1,487;   -0,318
447,857;11760,947;    2,240;   -1,773
448,445;11878,948;    2,149;    1,318
449,034;12119,476;    0,876;   -1,136
449,622;12271,030;    1,240;    3,500
450,210;11357,027;    3,149;    2,227
450,799;11937,086;    2,604;   -0,591
451,387;11863,277;    1,786;   -0,591
451,975;11502,185;   -1,305;    0,864
452,563;11614,092;    0,422;    2,318
453,151;11660,426;   -1,032;   -1,227
453,739;11561,191;   -1,577;    0,136
454,328;11368,958;    0,604;   -2,136
454,916;11042,398;    1,150;   -0,136
455,504;11306,578;    3,513;    1,227
456,092;11493,229;    2,150;   -1,591
456,679;11451,949;    0,604;    0,682
457,267;11288,480;    3,604;    1,045
457,855;11551,184;    3,241;    1,409
458,443;11318,294;   -0,304;    1,682
459,031;11415,169;    1,332;    2,409
459,619;11933,754;   -3,577;    2,864
460,206;12077,317;   -0,759;    2,045
460,794;12183,377;   -0,668;   -0,227
461,382;12417,934;    0,878;   -0,864
461,970;11952,322;    0,605;    1,864
462,557;12006,157;    0,878;   -0,682
463,145;12231,759;   -0,304;   -1,682
463,732;12359,936;    2,514;   -1,045
464,320;12290,898;    1,514;   -3,045
464,907;11924,789;    0,423;   -0,773
465,495;11809,886;    2,696;   -1,227
466,082;11971,451;    2,060;   -0,045
466,670;11870,212;    2,605;    1,227
467,257;12335,660;    0,060;    2,045
467,844;12543,223;    1,514;    0,045
468,432;12534,562;   -0,031;    3,500
469,019;11962,309;    1,606;   -1,773
469,606;12460,324;    0,969;    3,682
470,193;12242,502;    2,151;    0,227
470,780;11763,953;    0,333;    0,864
471,368;12156,046;   -1,212;   -0,773
471,955;11931,516;    1,060;   -0,682
472,542;11538,131;   -0,303;   -1,136
473,129;11796,261;   -0,485;    0,136
473,716;11536,805;    0,060;    0,591
474,303;11769,004;    1,333;   -0,864
474,890;12088,886;    2,333;   -0,500
475,477;12053,689;   -0,576;    0,409
476,064;11974,932;    0,697;   -1,591
476,650;11906,078;    2,152;    0,318
477,237;11746,259;    1,879;    0,955
477,824;11931,797;    3,879;    0,864
478,411;11992,855;    0,606;   -0,318
478,997;12176,957;    0,606;   -0,773
479,584;12267,084;   -0,666;   -0,409
480,171;12998,166;    1,243;   -0,773
480,757;12669,334;   -0,848;    0,773
481,344;12963,967;    0,334;    0,409
481,931;12439,159;   -0,393;    1,045
482,517;13508,329;    0,425;    0,318
483,104;14214,051;    1,334;    2,864
483,690;14607,804;    0,243;    0,045
484,276;15035,385;    0,698;    0,227
484,863;14777,549;    2,152;    1,136
485,449;15442,445;    0,152;    0,318
486,035;15409,512;   -0,666;   -0,136
486,622;15881,790;   -2,393;    0,045
487,208;15812,511;    1,334;    1,500
487,794;15708,067;    0,971;    0,318
488,380;15804,043;    0,698;   -1,409
488,967;15871,461;   -1,120;   -0,409
489,553;15926,087;   -1,029;   -1,409
490,139;16089,435;    0,971;    0,773
490,725;15500,749;    0,789;   -0,227
491,311;15017,129;    1,516;    3,045
491,897;14178,699;   -0,665;    1,500
492,483;13969,436;    0,426;    1,227
493,069;13611,427;    5,426;    0,864
493,655;13600,711;    1,789;    0,682
494,241;13558,272;    1,517;   -0,955
494,826;13970,897;    0,335;   -1,045
495,412;13402,657;    0,335;   -0,682
495,998;13577,722;    0,971;   -0,318
496,584;13732,282;    2,244;    1,045
497,169;13703,887;    2,335;   -0,682
497,755;13671,701;    1,244;    1,227
498,341;14245,060;    2,153;    0,318
498,926;13764,161;    2,881;    1,955
499,512;13985,221;   -0,028;    2,955
500,097;14150,572;   -0,574;   -0,318
500,683;14063,289;   -0,028;    2,136
501,268;14481,521;    1,881;   -0,955
501,854;14201,043;   -0,119;    1,227
502,439;14109,733;   -0,573;   -1,773
503,024;14321,895;    1,608;    0,500
503,610;14392,085;    1,335;   -0,682
504,195;14417,574;    1,245;    1,955
504,780;14499,100;    2,335;    1,227
505,366;14294,413;    4,063;    2,864
505,951;14036,000;   -1,119;    1,045
506,536;14053,256;    1,427;   -3,682
507,121;14005,097;    1,699;   -0,318
507,706;14561,577;   -0,392;    1,045
508,291;15011,918;   -2,937;    1,136
508,876;14434,957;   -0,482;    2,591
509,461;13884,327;    1,427;   -0,773
510,046;14287,963;   -0,391;    0,318
510,631;14552,184;   -0,119;   -0,773
511,216;14181,268;   -0,664;   -0,500
511,801;14610,975;   -0,755;    2,591
512,386;14916,309;    0,972;    0,500
512,971;14830,634;    0,427;    0,955
513,555;14370,260;    1,154;   -1,500
514,140;15191,716;    1,336;   -3,136
514,725;15229,133;    1,791;   -1,136
515,309;15356,446;    1,064;    0,318
515,894;14736,223;   -0,300;   -2,227
516,479;15225,579;    1,973;   -0,955
517,063;15081,231;    0,882;    1,227
517,648;15267,628;    0,155;   -1,136
518,232;14881,254;   -1,300;   -1,409
518,817;15181,420;    1,337;    1,682
519,401;15390,427;    0,700;    0,591
519,985;14872,087;    2,700;    1,136
520,570;14783,726;   -0,118;   -1,955
521,154;15127,992;    0,064;    0,591
521,738;15293,318;    1,064;    2,409
522,323;15909,033;   -0,390;    1,682
522,907;15613,623;    2,428;   -0,136
523,491;15321,285;    1,155;    0,955
524,075;15281,450;    0,428;    0,591
524,659;15406,523;    0,973;    0,591
525,243;14776,498;    0,883;    0,409
525,827;15024,880;    0,883;   -0,045
526,411;15938,432;    1,155;   -0,136
526,995;16178,210;    0,337;    1,409
527,579;15766,338;    1,974;   -1,045
528,163;16117,687;    0,428;   -1,500
528,747;16031,555;    1,065;   -0,773
529,331;16306,091;    0,883;   -1,409
529,915;16530,465;    2,338;    0,955
530,499;16514,977;    0,247;    1,227
531,082;16150,594;    1,065;    1,591
531,666;15591,484;    0,520;    0,773
532,250;16332,356;    0,428;    2,682
532,833;16669,136;    0,610;    2,773
533,417;16559,459;    1,247;    0,864
534,001;16483,470;    0,429;   -0,318
534,584;17254,497;    1,974;    0,500
535,168;17070,298;    3,247;    1,409
535,751;17091,707;    4,520;    0,045
536,334;16554,874;    4,520;   -0,409
536,918;17212,700;    1,974;    1,591
537,501;17315,090;    1,520;    1,318
538,085;17298,422;    1,702;    1,045
538,668;17453,769;    0,883;    2,409
539,251;17789,298;    3,156;    3,773
539,834;17809,537;    0,156;    0,773
540,418;17741,714;    3,247;    4,318
541,001;17906,614;    2,702;    1,773
541,584;17922,430;    1,429;    2,227
542,167;17572,690;    0,702;    2,955
542,750;17756,617;    0,793;   -0,773
543,333;17327,860;    1,429;    2,136
543,916;18126,982;   -0,298;    2,500
544,499;18787,214;    2,520;    0,227
545,082;18795,116;    0,248;    3,591
545,665;18957,536;   -0,207;    1,500
546,248;19311,951;    0,520;   -0,318
546,830;18924,876;   -1,752;    1,955
547,413;19416,218;    0,157;   -0,773
547,996;19974,112;    0,157;    0,500
548,579;19739,858;   -0,843;    0,955
549,161;19550,214;    0,884;    2,682
549,744;19349,050;    0,612;    0,409
550,326;19854,522;    0,885;   -1,136
550,909;19570,242;    2,339;    0,591
551,492;20017,290;    0,521;    0,227
552,074;19810,525;   -0,024;   -1,318
552,657;20448,227;    2,430;    0,045
553,239;20146,905;   -3,024;   -0,773
553,821;20035,192;   -1,570;    1,045
554,404;19511,095;   -0,024;    1,136
554,986;19907,377;    2,248;    1,045
555,568;20526,692;    0,430;   -0,955
556,151;19680,585;    4,067;   -0,227
556,733;19946,244;   -1,388;   -0,864
557,315;20426,695;    4,703;    0,500
557,897;20225,901;    0,521;   -0,500
558,479;20393,041;    1,703;    1,318
559,061;20518,202;    1,067;   -0,864
559,643;20836,779;   -0,297;    0,045
560,225;21251,593;   -0,388;    2,864
560,807;21310,688;    0,340;    0,318
561,389;20779,160;   -1,206;    2,318
561,971;21532,751;   -0,660;    2,136
562,553;21347,425;    0,613;    1,591
563,135;21524,979;    1,249;    1,136
563,717;21089,028;    3,158;    1,136
564,298;21846,054;    3,976;   -0,045
564,880;21532,473;    0,340;   -1,409
565,462;21734,200;    1,977;    1,318
566,043;22980,502;   -0,933;    2,318
566,625;22506,857;    4,067;    1,227
567,207;22362,735;    0,704;    1,682
567,788;23562,414;   -0,114;    1,500
568,370;24446,045;   -1,841;   -0,500
568,951;24240,257;   -0,569;    0,227
569,533;25180,435;    0,977;   -0,500
570,114;25724,792;   -0,296;    0,682
570,695;26270,483;   -0,478;   -1,318
571,277;26825,220;   -0,205;   -1,682
571,858;27637,987;    2,704;   -1,136
572,439;28642,209;    0,795;   -1,045
573,021;28825,232;    0,432;   -2,773
573,602;29404,123;    1,795;    0,318
574,183;30350,017;   -0,114;    2,227
574,764;30620,504;    2,068;    0,409
575,345;31207,597;    0,250;   -0,136
575,926;31874,660;    2,704;    0,136
576,507;31906,387;    2,704;   -0,227
577,088;32965,263;    1,704;    1,682
577,669;33041,481;    1,704;    1,955
578,250;33826,835;   -0,750;   -1,045
578,831;34583,815;   -0,841;   -2,227
579,412;34893,101;   -1,205;    0,955
579,993;35905,365;    1,432;    0,227
580,573;36199,680;   -0,023;   -0,955
581,154;35129,249;    1,613;   -0,591
581,735;36020,712;    0,341;    0,773
582,315;35467,075;    0,523;    2,136
582,896;35840,141;   -1,750;    1,227
583,477;35272,342;    0,614;    1,227
584,057;35521,969;    1,159;    0,955
584,638;35729,729;   -2,750;    2,318
585,218;35746,861;    2,886;    2,682
585,799;35871,372;    1,977;   -0,227
586,379;35823,991;    1,250;    1,591
586,959;34553,811;    2,613;    0,318
587,540;33812,145;    0,432;    2,227
588,120;33264,504;   -1,113;   -0,045
588,700;32198,071;    2,977;    2,136
589,281;32499,977;    1,250;   -0,955
589,861;32425,970;   -0,296;   -1,682
590,441;32225,539;   -1,477;   -2,682
591,021;31124,630;    1,432;   -2,591
591,601;31360,601;    0,431;    0,500
592,181;31315,419;   -1,296;   -0,773
592,761;30570,766;    2,250;    1,409
593,341;30494,315;    1,522;    0,045
593,921;30436,230;   -0,569;    1,591
594,501;30271,662;    1,250;    1,318
595,081;30181,065;    0,522;   -0,318
595,661;30505,760;    1,068;    0,955
596,240;31054,362;   -1,023;    0,136
596,820;30634,417;    2,613;    1,955
597,400;30876,677;    1,977;    0,773
597,980;31183,873;   -0,750;    1,045
598,559;31163,379;    0,341;   -0,227
599,139;30780,521;   -0,750;   -1,227
599,718;30666,521;    0,795;   -0,409
600,298;30936,958;   -2,387;    0,682
600,877;31153,262;    4,795;    1,409
601,457;31460,681;    0,340;    1,136
602,036;31343,138;    1,795;    2,045
602,616;31620,774;    2,250;    1,682
603,195;31928,764;    0,431;    3,500
603,774;31456,508;   -0,296;    2,045
604,354;31355,492;    2,522;   -0,500
604,933;30770,485;    0,250;    1,864
605,512;30880,484;    2,340;    0,591
606,091;30968,672;    1,886;    3,773
606,671;31756,929;    0,249;    0,773
607,250;30788,128;    1,431;    3,136
607,829;31069,935;    1,158;    3,227
608,408;30897,440;    4,613;    2,591
608,987;29888,817;    2,704;    3,409
609,566;30204,405;    0,341;   -2,500
610,145;30289,362;    2,885;    0,682
610,723;30732,611;    1,613;    6,864
611,302;29933,650;    1,067;    1,682
611,881;29360,535;    5,158;   11,227
612,460;30218,164;    0,795;    3,955
613,039;30676,211;    1,703;    2,045
613,617;29392,547;    0,886;    4,773
614,196;29517,288;    1,613;    1,227
614,775;29931,707;    1,249;    2,409
615,353;29859,490;   -1,660;    0,864
615,932;29524,482;    0,249;    2,409
616,510;30137,698;    0,158;    0,591
617,089;29569,020;    8,794;   17,591
617,667;29318,491;    4,885;    6,136
618,246;29131,605;   -1,115;    1,318
618,824;29297,151;    1,612;   -0,955
619,402;28838,432;    0,431;   -1,773
619,981;29386,232;    1,067;   -1,045
620,559;29263,487;    0,794;    1,682
621,137;28774,232;    3,067;    1,864
621,715;28698,298;    3,703;   -0,682
622,293;28607,554;    1,885;   -0,773
622,871;29091,695;    0,340;    0,500
623,450;28639,502;    0,430;   -0,864
624,028;28560,785;   -0,388;   -0,955
624,606;28184,998;    2,339;    1,682
625,183;28575,848;   -0,661;   -1,136
625,761;28164,930;    1,885;    1,136
626,339;28448,189;    2,339;    2,591
626,917;28862,299;    0,339;   -0,045
627,495;28900,630;    2,794;    1,318
628,073;28295,810;    5,248;    2,864
628,650;27970,251;    3,067;    2,136
629,228;28417,956;    1,248;    4,409
629,806;27784,177;   -0,024;    1,136
630,383;28060,638;    0,066;   -0,318
630,961;27833,119;   -2,206;   -0,955
631,539;27508,952;   -2,479;    0,227
632,116;26755,119;   12,703;   15,409
632,694;27426,382;    4,885;    6,500
633,271;27760,692;    1,975;    2,682
633,848;27654,082;    1,430;    2,045
634,426;27701,848;    1,521;    1,773
635,003;26781,331;   -0,207;   -0,409
635,580;27077,206;    1,884;    3,682
636,158;27626,954;    3,793;    1,227
636,735;27623,089;    3,339;   -0,500
637,312;27746,636;    0,521;   -0,682
637,889;27868,500;    2,248;   -0,682
638,466;27328,611;    0,066;   -0,409
639,043;27378,219;    1,702;   -1,136
639,620;27707,177;    0,611;   -0,955
640,197;27992,409;    1,612;    1,682
640,774;28093,930;    1,430;    1,136
641,351;28496,723;    0,612;    1,136
641,928;27935,062;    2,794;    1,409
642,505;27521,310;    0,794;   -0,500
643,082;27692,740;    1,885;    1,227
643,658;26652,624;    1,157;    1,500
644,235;27415,872;   -2,479;    2,500
644,812;27710,757;    1,794;    0,773
645,388;27481,096;    1,612;    1,409
645,965;27533,525;    1,521;    1,682
646,542;27587,501;    3,430;   -0,227
647,118;27609,021;    3,703;   -0,955
647,695;27930,724;    0,339;    1,136
648,271;27800,517;   -2,115;    0,500
648,848;28148,493;    0,248;    2,227
649,424;27964,923;    0,976;    1,318
650,000;27672,352;   -0,388;   -1,045
650,577;27527,237;    0,158;   -0,955
651,153;28013,939;   -1,115;    0,955
651,729;28969,733;    0,521;    0,864
652,305;29239,344;    1,339;    2,773
652,881;34018,410;   -1,297;    1,136
653,458;41436,658;    0,249;    0,227
654,034;45665,270;    0,703;    1,591
654,610;47405,427;    0,339;    0,773
655,186;48779,675;    1,612;    3,045
655,762;48511,105;   -1,842;    0,409
656,338;48598,626;    0,703;    0,136
656,913;49627,237;   -0,297;    0,409
657,489;48915,031;    0,249;   -0,318
658,065;48858,733;    0,794;   -1,591
658,641;49381,345;    2,158;   -0,864
659,217;48698,684;    2,067;    0,409
659,792;48167,295;   -1,751;   -0,409
660,368;48484,634;   -0,388;   -0,682
660,944;48046,882;    1,794;    1,227
661,519;43185,130;    0,522;    0,409
662,095;36451,106;   -0,206;    0,591
662,670;31368,263;   -0,206;   -0,136
663,246;30107,965;   -0,660;   -0,409
663,821;29325,122;    0,431;    1,682
664,396;28784,370;    0,613;    1,864
664,972;29037,437;   -0,660;   -0,500
665,547;29365,412;    3,794;    0,136
666,122;29343,205;    1,340;    0,318
666,698;29708,999;    2,431;    0,318
667,273;29010,883;    0,885;    0,136
667,848;29815,131;    0,340;    1,500
668,423;29582,106;    1,795;    2,318
668,998;30156,991;    0,976;   -0,682
669,573;30746,966;    2,067;   -1,500
670,148;30492,487;    1,885;   -0,682
670,723;30378,644;   -0,024;    0,318
671,298;30824,710;   -1,296;    1,045
671,873;31002,503;   -0,296;   -0,136
672,448;30907,206;    1,704;    0,136
673,023;31238,454;    0,249;   -0,227
673,597;31580,975;    2,704;    2,318
674,172;31326,314;    2,431;    0,318
674,747;30778,925;   -0,205;   -1,045
675,321;30717,809;   -0,933;    3,318
675,896;30219,512;    2,158;    1,045
676,471;31236,487;    2,522;    1,591
677,045;30976,190;   -0,296;    0,682
677,620;31048,165;    2,158;    1,136
678,194;31369,231;    0,249;    1,136
678,769;30895,479;    0,886;   -0,318
679,343;31105,000;   -0,023;    1,773
679,917;30954,157;    0,340;    1,955
680,492;31076,223;    0,249;    3,227
681,066;31249,199;    0,613;    0,409
681,640;31309,356;    1,795;   -0,318
682,214;32118,967;    2,340;    0,500
682,788;31546,215;    0,613;   -0,773
683,363;31541,827;    1,977;    1,682
683,937;31234,438;    0,886;   -0,318
684,511;32030,686;   -1,023;   -0,591
685,085;31757,298;   -1,478;    0,318
685,659;31523,728;    1,431;    0,864
686,232;31668,885;    1,159;   -0,318
686,806;31460,678;    2,159;    0,409
687,380;32118,108;   -1,932;    0,591
687,954;32375,720;    2,432;    1,136
688,528;31995,513;    2,613;    1,955
689,101;32779,398;    0,432;    1,045
689,675;32356,646;    0,886;   -0,136
690,249;31679,439;    3,432;    0,409
690,822;32013,778;    1,159;    0,318
691,396;32124,662;    2,068;    1,227
691,969;31563,729;    2,523;    0,136
692,543;32069,340;   -0,568;   -1,955
693,116;31652,588;   -0,659;   -1,409
693,690;31496,563;   -0,296;    0,500
694,263;32069,175;    2,341;    2,955
694,836;32132,332;    2,795;    3,591
695,410;30734,853;    1,159;    1,773
695,983;31171,465;    1,614;    0,591
696,556;31126,803;   -0,750;   -1,045
697,129;31617,961;   -1,114;    1,409
697,703;31208,209;    1,341;    1,955
698,276;31204,366;    1,705;   -0,773
698,849;30951,977;   -1,023;    1,409
699,422;31319,771;    1,250;    0,591
699,995;30992,382;   -0,659;    0,136
700,568;31545,358;   -0,204;    3,045
701,140;31552,424;   -1,841;    1,682
701,713;31283,217;    0,341;    2,409
702,286;31035,011;    0,796;    0,864
702,859;30899,622;    0,614;   -0,591
703,432;30012,961;   -0,841;    0,682
704,004;30560,391;    1,978;    0,318
704,577;30449,548;    1,068;    0,136
705,150;30968,432;    0,887;    2,500
705,722;30712,680;    1,523;   -3,227
706,295;30541,928;    1,432;   -0,591
706,867;30311,358;    0,250;    1,955
707,440;30532,515;   -0,113;   -0,409
708,012;30794,309;   -0,022;    0,591
708,584;30720,466;    2,705;    0,227
709,157;31064,168;    1,160;   -0,591
709,729;30710,598;    1,069;    2,045
710,301;31555,028;   -1,204;    0,045
710,874;31599,821;    0,341;   -0,227
711,446;30427,251;   -0,295;    0,864
712,018;30313,408;   -3,022;    0,500
712,590;30007,747;   -0,204;    1,682
713,162;30541,995;   -0,477;    1,318
713,734;30784,061;    1,796;   -2,045
714,306;30702,855;    0,342;   -0,409
714,878;29354,648;   -0,295;    0,864
715,450;30195,624;   -0,113;    0,864
716,022;30469,599;    2,433;    1,318
716,593;30605,483;    0,978;    0,591
717,165;30543,549;    1,796;   -1,227
717,737;30275,979;    0,796;    0,409
718,309;29943,954;    1,160;   -0,045
718,880;29875,112;   -1,295;   -1,409
719,452;30074,269;    0,887;   -1,591
720,024;29554,153;    1,705;   -0,591
720,595;30122,037;    2,978;    0,955
721,167;29688,558;    1,160;   -2,045
721,738;29179,988;    2,069;   -1,045
722,309;29106,236;    1,251;   -1,227
722,881;28898,484;    2,705;    0,773
723,452;29601,186;    1,251;    2,864
724,023;29814,707;    1,524;    2,682
724,595;29563,864;    2,342;    0,682
725,166;29197,021;    1,524;   -0,409
725,737;28870,542;    1,887;    0,227
726,308;28998,699;    0,797;    0,318
726,879;29444,402;    1,069;    1,227
727,450;29281,195;   -2,022;   -0,045
728,021;29257,079;    1,069;    0,682
728,592;29052,509;    1,160;    0,500
729,163;29399,303;    1,433;   -0,136
729,734;29374,005;    2,160;   -0,227
730,305;29761,071;    0,615;    0,136
730,876;30062,774;    0,888;    2,955
731,447;29805,386;    0,797;    2,682
732,017;29867,906;   -0,840;    1,864
732,588;29372,518;   -0,021;    1,227
733,159;29570,675;    3,615;   -1,045
733,729;29350,741;    1,251;    0,409
734,300;28639,353;    0,160;    0,864
734,870;29023,783;   -1,385;    0,591
735,441;29584,576;    0,888;   -0,591
736,011;29395,733;    1,070;   -1,591
736,582;29341,981;    1,251;    0,045
737,152;28794,956;    0,979;   -2,045
737,722;29281,477;    1,070;   -0,682
738,293;29012,361;   -2,021;    1,318
738,863;28855,064;    1,797;    2,318
739,433;28600,676;    4,524;    0,318
740,003;29292,924;    1,524;   -0,682
740,573;28642,081;    2,252;   -1,591
741,143;28635,056;    3,615;    0,318
741,713;29431,304;    0,252;   -0,500
742,283;29035,643;    1,706;    1,591
742,853;28820,255;    0,524;    1,591
743,423;28252,866;    0,161;    0,045
743,993;28390,751;    1,070;    1,500
744,563;27733,999;    2,524;   -0,864
745,133;27649,065;   -0,112;   -0,864
745,702;28356,858;    2,797;    1,773
746,272;27592,742;    0,434;    0,591
746,842;27346,445;   -0,748;   -0,591
747,411;27755,420;   -0,839;   -0,318
747,981;27986,759;   -0,930;    0,500
748,551;28040,825;   -0,021;   -1,045
749,120;27897,710;   -0,112;   -0,227
749,690;28275,503;    2,161;    2,409
750,259;28619,297;    0,979;    2,955
750,828;28477,908;    4,070;   -1,955
751,398;28797,702;   -0,112;   -0,045
751,967;28227,859;    2,888;    0,409
752,536;28431,107;    1,161;   -0,227
753,105;28822,809;   -1,384;    0,227
753,675;28648,057;   -0,112;    1,773
754,244;28613,851;    0,888;    3,591
754,813;28642,371;    0,979;    1,227
755,382;28235,347;    0,798;    0,955
755,951;28815,322;   -0,112;    3,682
756,520;28304,025;    2,525;    1,864
757,089;28874,636;    1,888;    0,500
757,658;29023,066;    2,434;    1,227
758,227;29028,678;   -1,111;    0,318
758,795;29363,835;   -1,021;    1,136
759,364;29585,810;    0,525;   -0,591
759,933;28513,785;    1,343;   -0,045
760,501;28115,215;    0,252;   -1,318
761,070;28599,827;   -0,293;   -1,409
761,639;29307,893;    1,434;    1,318
762,207;28609,504;    0,889;   -0,955
762,776;28560,116;    2,889;    0,864
763,344;28512,455;    0,071;    0,591
763,913;27631,521;    1,616;    1,409
764,481;28311,315;    1,980;   -0,136
765,049;28144,744;    0,616;    1,409
765,618;28054,720;    1,434;    0,318
766,186;28117,877;    2,434;    0,136
766,754;28327,943;    1,798;    1,864
767,322;27278,100;    1,162;    0,409
767,890;27288,803;    0,525;   -1,773
768,459;27617,323;    2,616;   -0,318
769,027;27823,389;    2,525;    3,409
769,595;26778,728;    2,616;    2,591
770,163;27229,704;    3,344;    2,955
770,730;26963,770;    2,525;   -0,136
771,298;26827,200;    1,162;   -1,409
771,866;26939,902;    0,253;    4,955
772,434;27241,514;    1,162;   -1,864
773,002;27353,216;    2,616;    0,682
773,569;26996,737;    1,071;    1,682
774,137;26836,349;    0,889;   -0,045
774,705;27649,506;   -0,747;   -0,136
775,272;27068,845;    0,253;    0,682
775,840;26838,093;   -0,111;    2,682
776,407;26335,795;   -0,293;    1,955
776,975;25908,043;    1,162;    0,318
777,542;26946,564;    2,162;   -0,045
778,110;26833,812;    0,707;   -0,045
778,677;26493,060;    1,071;   -0,864
779,244;26199,490;   -1,020;    1,045
779,812;26326,465;    0,980;    0,864
780,379;26150,713;    2,435;    1,136
780,946;26429,961;    2,617;   -0,773
781,513;26743,754;   -0,565;    0,318
782,080;26059,184;    1,253;    2,864
782,647;26810,796;    1,708;    3,045
783,214;26441,408;   -0,201;    3,864
783,781;25956,565;    1,708;   -0,682
784,348;25882,449;    0,253;    1,500
784,915;26358,333;   -1,474;    0,318
785,482;26105,218;    2,708;    2,591
786,049;26547,284;    1,071;   -0,591
786,615;26663,259;    1,708;   -0,955
787,182;26435,962;   -3,201;   -0,682
787,749;26114,210;   -2,201;    1,409
788,315;25386,730;    0,253;   -0,409
788,882;25711,342;    0,981;   -1,227
789,448;26396,408;    1,435;   -0,955
790,015;26405,474;    1,799;    3,227
790,581;25913,813;    0,708;    0,227
791,148;25789,152;    1,344;    1,045
791,714;26028,582;   -1,019;    3,136
792,280;25729,921;    3,708;    1,591
792,847;25301,078;   -0,928;    2,500
793,413;25908,508;   -0,110;   -0,318
793,979;25398,301;    1,526;   -1,318
794,545;25434,640;    2,981;    2,682
795,111;24824,979;    2,435;    1,318
795,678;25005,045;    3,526;   -1,682
796,244;24622,839;    2,799;    0,136
796,810;25255,632;    0,799;    0,773
797,375;24954,062;   -0,292;   -2,136
797,941;24955,037;   -1,110;    0,591
798,507;25117,649;    0,254;   -0,955
799,073;24589,533;    2,708;    0,591
799,639;24704,781;    1,435;    3,136
800,205;24775,120;   -1,565;    2,682
800,770;24240,095;    1,345;    1,773
801,336;24283,980;    2,981;   -0,955
801,901;23973,500;    6,072;    3,136
802,467;24552,385;    0,526;    2,045
803,033;23887,269;   -0,019;    0,864
803,598;24063,790;    1,072;   -1,045
804,163;24145,856;    0,708;   -0,318
804,729;24070,377;   -0,110;    1,136
805,294;24450,807;    1,072;    2,227
805,859;24255,236;    0,890;   -0,409
806,425;23690,212;    3,890;    2,682
806,990;23412,641;    1,890;    4,318
807,555;23908,344;   -0,110;    2,591
808,120;23809,410;   -1,292;   -0,409
808,685;23814,385;    1,072;   -2,500
809,250;23290,815;    2,072;   -0,500
809,815;23684,336;   -0,201;    0,682
810,380;24205,402;    0,981;    1,591
810,945;24669,923;    2,890;    2,045
811,510;23890,716;   -0,200;    1,591
812,075;23577,419;    2,800;   -1,409
812,640;23645,758;    3,709;    1,409
813,204;23698,006;    2,163;   -0,227
813,769;24201,436;    0,254;   -0,045
814,334;23536,320;    0,527;    0,864
814,898;23587,568;    1,981;    0,591
815,463;23438,998;    0,981;   -0,773
816,027;23422,064;    1,345;   -2,318
816,592;23540,766;    2,163;   -2,045
817,156;22999,105;   -2,200;    1,136
817,721;22792,171;    0,982;    2,318
818,285;22773,147;    0,618;    1,500
818,849;23459,849;   -0,018;    1,682
819,414;23316,188;    0,073;    2,955
819,978;22877,800;   -0,291;    1,773
820,542;23462,593;    2,891;    0,500
821,106;23226,569;    2,800;    0,682
821,670;23284,907;    2,709;    2,591
822,234;22974,883;    1,073;    1,409
822,798;22350,858;   -0,836;    0,500
823,362;22354,833;    1,527;    4,227
823,926;21634,263;   -0,018;    1,136
824,490;21822,056;    3,527;   -0,682
825,054;22281,577;    2,527;   -1,136
825,618;21897,734;   -1,200;   -1,500
826,181;21811,255;    0,982;   -1,318
826,745;21724,048;   -0,745;   -1,045
827,309;22081,024;    2,255;    1,318
827,872;21473,363;    0,527;    0,955
828,436;22475,520;    1,982;   -0,773
828,999;22516,950;    2,436;    1,227
829,563;21305,743;   -0,654;    1,136
830,126;21144,809;   -0,018;   -0,591
830,690;21172,875;    0,709;    2,864
831,253;20625,032;   -0,473;    2,227
831,816;20785,553;   -0,018;    0,500
832,380;20691,347;    1,164;    0,864
832,943;20893,504;    3,073;   -0,500
833,506;20395,661;    0,255;   -1,227
834,069;21207,363;    2,164;   -0,955
834,632;21262,793;   -2,200;    1,318
835,195;21164,041;    1,346;    0,955
835,758;20358,925;    0,709;    1,955
836,321;20150,446;    1,073;   -1,045
836,884;20284,058;   -1,291;   -0,955
837,447;20334,488;    0,528;    1,773
838,010;20577,190;    1,800;    3,227
838,573;20879,347;    0,528;    0,773
839,135;20830,050;   -0,109;   -0,955
839,698;20258,752;    2,528;    0,409
840,261;19821,091;    0,255;   -0,227
840,823;19652,885;   -0,927;    0,864
841,386;19929,405;   -0,018;   -2,409
841,948;19792,017;    0,255;    1,773
842,511;19503,265;    0,255;    1,682
843,073;19659,058;    2,982;    0,227
843,636;19445,761;    0,619;   -0,227
844,198;19378,827;    1,255;    0,591
844,760;19535,075;    0,619;    1,955
845,322;19150,141;    0,164;    1,136
845,885;19603,753;   -0,290;    0,591
846,447;20004,546;    0,710;    0,227
847,009;19537,067;    3,983;   -0,682
847,571;19920,224;    1,346;   -2,045
848,133;19998,199;   -0,199;   -1,864
848,695;19815,084;    2,346;    1,409
849,257;19326,514;    1,346;   -1,682
849,819;19514,398;    2,983;   -0,409
850,381;19630,737;    1,801;   -0,864
850,942;20016,894;    1,892;   -0,591
851,504;19883,415;    0,983;    0,227
852,066;19910,572;    1,619;   -1,591
852,628;19452,729;    0,165;    1,955
853,189;19017,250;    0,256;    2,682
853,751;19145,679;   -0,654;    1,409
854,312;18946,746;    1,256;   -1,682
854,874;19480,721;   -0,108;   -0,773
855,435;19956,787;    0,528;   -1,682
855,997;20100,126;    3,983;   -0,136
856,558;19333,101;    0,801;    1,773
857,119;19507,076;   -0,744;    2,864
857,681;19180,506;   -0,108;    0,318
858,242;19188,300;    1,347;   -2,136
858,803;19648,275;    1,074;   -0,773
859,364;20257,068;    0,892;   -4,773
859,925;19572,044;   -0,290;   -0,955
860,486;19465,201;    0,529;   -0,955
861,047;19199,267;    0,165;   -1,227
861,608;19005,151;    0,165;   -0,773
862,169;19113,218;   -0,562;   -0,045
862,730;18918,738;   -0,290;    1,409
863,291;19135,077;    0,438;   -0,500
863,852;19471,961;   -0,926;    1,955
864,412;18926,573;   -1,835;   -0,864
864,973;17451,003;    1,892;    0,500
865,534;17259,069;    2,074;    0,227
866,094;18815,499;    2,620;    0,227
866,655;18476,747;    4,711;    3,318
867,215;18763,904;    0,074;    0,136
867,776;18601,970;   -1,199;   -0,136
868,336;18680,309;    1,529;    0,136
868,897;18119,193;    3,438;    1,682
869,457;17885,532;    3,256;    0,318
870,017;18159,508;    2,438;   -1,227
870,578;18724,301;    1,893;    0,773
871,138;18320,913;    2,620;   -0,955
871,698;17864,433;   -0,562;   -1,318
872,258;17678,318;    0,711;   -2,864
872,818;18056,111;    2,347;    0,045
873,378;18041,996;   -2,198;    1,045
873,938;17624,880;    4,984;    0,500
874,498;17954,492;    1,256;   -1,955
875,058;17817,103;    4,347;    1,773
875,618;17678,260;    1,438;   -2,682
876,177;17642,690;   -0,471;    0,136
876,737;17245,574;   -0,289;    1,955
877,297;17202,913;    2,711;    1,955
877,856;17181,161;    2,529;    0,318
878,416;17151,318;    2,438;   -0,136
878,976;17424,203;    3,438;    0,409
879,535;17594,269;    4,529;    3,136
880,095;17263,790;    1,347;    0,045
880,654;17389,129;    0,347;    1,318
881,213;17462,558;    2,347;    1,500
881,773;17129,534;    1,984;    2,682
882,332;17475,963;    6,075;    5,136
882,891;17346,393;    0,711;    2,136
883,451;17785,550;   -2,016;    1,682
884,010;17287,344;   -1,107;   -0,409
884,569;17379,683;   -2,289;   -0,045
885,128;17505,476;   -0,743;   -1,864
885,687;17552,906;   -0,743;    0,682
886,246;17237,881;    2,620;    2,136
886,805;16949,584;    1,620;    2,045
887,364;17292,195;    1,166;   -0,500
887,922;17688,716;   -0,016;    0,045
888,481;17188,964;    1,530;    0,591
889,040;17497,212;    3,711;    2,136
889,599;18185,733;    2,166;    1,409
890,157;18275,435;    2,166;    2,409
890,716;17894,229;    2,166;    0,227
891,274;17662,568;    0,075;   -1,136
891,833;18128,907;    1,166;    0,864
892,391;18025,064;    1,802;    0,500
892,950;18121,857;    0,166;   -0,773
893,508;18432,014;    0,984;   -0,409
894,067;17788,899;   -0,379;    0,136
894,625;17724,601;   -1,016;   -1,500
895,183;17933,304;   -0,198;   -0,682
895,741;17875,188;    2,257;   -1,773
896,299;17681,072;    1,621;   -2,409
896,858;17857,229;    1,530;   -1,591
897,416;17963,568;    0,166;   -1,318
897,974;17717,453;   -2,197;    0,318
898,532;17829,519;    6,530;    2,682
899,089;17668,131;    0,621;   -0,682
899,647;17752,288;    0,530;    1,318
900,205;17467,990;    0,257;    1,045
900,763;17683,147;    2,166;    0,227
901,321;17704,668;    3,530;   -1,409
901,878;17154,643;    3,257;   -0,773
902,436;17010,800;    0,257;    1,318
902,994;17390,139;    6,712;    3,682
903,551;16831,751;    1,439;    0,409
904,109;17264,181;    1,530;   -1,409
904,666;16837,338;    1,439;    1,045
905,224;16631,586;    3,894;   -0,409
905,781;16350,288;   -0,470;   -0,318
906,338;16412,264;    0,167;    1,045
906,895;16360,239;    1,894;    2,045
907,453;16316,669;    2,348;    1,136
908,010;16271,371;    3,348;    0,409
908,567;15922,710;   -0,561;    0,591
909,124;15420,776;    2,439;   -1,500
909,681;15512,751;   -1,288;    0,682
910,238;15648,818;   -0,106;   -1,318
910,795;15944,702;   -1,561;   -1,136
911,352;15654,520;   -0,379;   -2,682
911,909;15009,520;    2,803;   -0,864
912,466;15518,611;    1,985;    1,500
913,022;15049,247;   -0,924;    0,500
913,579;15397,975;   -0,470;    2,045
914,136;15094,702;   -2,561;    0,955
914,692;15459,429;    1,530;   -1,227
915,249;14998,884;    0,530;    0,409
915,806;15206,338;    1,803;    1,955
916,362;14930,066;    0,894;    1,864
916,918;14491,520;    2,439;    1,045
917,475;14461,702;    1,621;    0,955
918,031;14592,702;    0,076;   -0,045
918,587;14021,884;    0,621;   -0,318
919,144;14235,157;   -0,379;    0,227
919,700;14565,884;    0,167;    0,773
920,256;14129,338;    0,439;    0,045
920,812;13715,793;    1,439;   -1,045
921,368;13715,611;    1,348;   -1,045
921,924;13380,247;    0,439;   -0,136
922,480;12905,611;    0,076;    1,227
923,036;13525,611;   -0,652;    1,955
923,592;13509,066;    0,621;    0,318
924,148;13416,066;    1,894;   -0,955
924,704;12725,338;    0,258;   -0,409
925,259;13026,066;   -0,561;    0,591
925,815;12731,793;    3,803;    0,500
926,371;12262,066;    3,530;    1,409
926,926;12147,793;    1,621;    0,591
927,482;11759,884;    1,621;    0,773
928,037;11617,793;   -0,833;    2,045
928,593;11974,429;    0,258;    1,045
929,148;11760,884;    1,167;   -1,500
929,704;11248,247;    2,439;   -0,500
930,259;11449,702;    0,894;   -0,136
930,814;10485,520;    1,803;    1,955
931,369;10207,520;    0,258;   -0,773
931,925;10079,884;   -1,924;    0,136
932,480; 9958,066;    3,076;   -2,591
933,035; 9812,975;    3,985;   -0,318
933,590; 9560,884;   -1,742;   -1,773
934,145; 9256,793;   -1,288;   -0,318
934,700; 9617,611;    0,348;   -0,591
935,255; 9366,429;    4,803;    0,045
935,809; 8619,702;    6,258;    0,864
936,364; 7748,520;    2,167;   -0,136
936,919; 7701,702;    2,348;   -1,773
937,474; 7617,884;    1,348;    0,136
938,028; 7362,429;    3,076;    1,136
938,583; 6788,247;    6,348;    4,682
939,138; 7067,429;    0,167;    2,136
939,692; 6540,611;   -1,015;   -1,136
940,247; 6199,793;    1,167;   -1,045
940,801; 5721,884;    0,621;    0,227
941,355; 5647,611;    0,439;    2,591
941,910; 5331,429;    0,712;   -2,136
942,464; 5411,066;    2,712;   -0,318
943,018; 5168,884;    3,258;   -0,227
943,572; 5115,247;    2,803;   -0,682
944,126; 4518,247;   -0,924;   -0,409
944,681; 4384,975;    0,712;    0,227
945,235; 4391,066;    2,167;   -0,591
945,789; 4320,793;    1,258;   -1,864
946,342; 4398,884;   -0,561;   -0,591
946,896; 4217,975;    0,348;    0,955
947,450; 3974,157;   -0,561;   -0,227
948,004; 4151,884;    1,076;   -0,045
948,558; 4166,520;    1,258;   -0,864
949,111; 4081,429;   -1,197;   -0,318
949,665; 4103,702;   -0,106;   -0,682
950,219; 3971,975;    0,621;   -1,045
950,772; 4049,157;    0,258;    1,864
951,326; 3982,338;   -1,106;   -0,955
951,879; 4082,429;    1,076;   -2,318
952,433; 4095,975;    1,348;    2,227
952,986; 3924,611;    0,348;    0,682
953,539; 3859,702;    1,530;    0,591
954,093; 3826,702;    0,985;   -1,318
954,646; 3942,066;   -0,288;    1,318
955,199; 3743,066;    1,258;   -0,500
955,752; 3607,702;    1,985;    1,773
956,305; 3583,157;    0,894;    2,955
956,858; 3758,702;    0,621;   -0,318
957,411; 3959,520;    3,621;    2,136
957,964; 3753,429;    2,076;    2,136
958,517; 3748,066;    0,985;    3,136
959,070; 3588,520;   -1,197;    1,955
959,623; 3638,702;    1,076;    1,500
960,176; 3432,702;    0,712;    2,045
960,728; 3412,338;    1,712;    0,773
961,281; 3462,338;    2,258;    0,500
961,834; 3490,793;   -0,833;    0,864
962,386; 3399,520;    1,258;    1,045
962,939; 3324,338;    3,439;   -0,318
963,491; 3472,066;    2,621;    1,136
964,043; 3326,702;    0,076;    2,409
964,596; 3451,066;    1,712;    2,227
965,148; 3295,157;   -0,379;    1,773
965,700; 3245,975;   -0,015;   -0,227
966,253; 3397,793;   -0,833;    0,318
966,805; 3220,611;    1,894;    0,773
967,357; 3280,157;    0,439;   -1,500
967,909; 3202,520;    1,167;   -1,227
968,461; 3340,702;    0,894;    3,136
969,013; 3269,793;   -1,561;   -0,864
969,565; 3342,066;    1,803;   -1,136
970,117; 3397,247;    3,803;    1,045
970,669; 3249,157;    3,258;   -0,136
971,220; 3097,157;    2,167;   -1,500
971,772; 3007,429;    1,348;   -0,318
972,324; 3116,157;   -1,197;   -0,500
972,876; 3088,066;    0,167;   -0,045
973,427; 3211,520;   -1,197;   -1,045
973,979; 3180,520;    0,076;   -2,500
974,530; 3231,338;    0,803;    1,318
975,082; 3235,884;    2,167;    1,682
975,633; 3102,157;    2,894;    1,682
976,184; 3283,247;    2,076;    0,773
976,736; 3072,157;    0,348;    0,227
977,287; 2849,702;    0,258;   -0,500
977,838; 3035,520;   -0,924;   -0,318
978,389; 3095,884;    0,803;   -0,500
978,940; 2950,338;    1,258;   -0,409
979,491; 2990,520;    2,258;   -0,500
980,042; 2931,611;   -0,652;    3,045
980,593; 2990,793;    1,894;    0,227
981,144; 3050,793;    3,530;   -0,500
981,695; 3007,157;   -0,470;    1,500
982,246; 2976,702;   -1,833;    1,045
982,797; 3149,884;   -0,561;    0,682
983,347; 3265,157;    2,167;    0,591
983,898; 3419,429;    4,167;    0,409
984,449; 3231,157;    2,530;    0,773
984,999; 3157,247;    1,894;   -1,136
985,550; 2921,520;    3,167;   -0,318
986,100; 2974,338;    0,712;   -0,318
986,651; 3009,157;    0,258;    0,045
987,201; 2980,157;    0,894;   -0,591
987,751; 3051,520;   -0,288;    2,864
988,302; 3037,520;   -0,379;    1,500
988,852; 3046,884;    1,985;   -1,136
989,402; 3087,429;    0,985;    0,682
989,952; 3006,338;    1,621;    0,864
990,502; 3123,247;    1,076;    0,682
991,052; 3090,884;   -0,106;    0,045
991,602; 2934,338;    1,167;    1,318
992,152; 2932,157;    2,803;    0,682
992,702; 2921,884;    1,167;   -0,045
993,252; 2852,520;    0,076;   -0,500
993,802; 2934,066;    1,167;    1,318
994,352; 3180,884;   -0,742;    1,136
994,901; 3277,338;    1,076;    3,227
995,451; 3200,429;   -1,197;    0,318
996,000; 3280,793;    1,076;    0,318
996,550; 2963,520;    2,894;    0,227
997,100; 2985,702;   -0,561;   -0,045
997,649; 3277,611;   -0,197;    0,955
998,198; 2897,611;   -0,288;   -1,500
998,748; 3071,247;    0,348;   -2,318
999,297; 2988,793;    0,985;   -0,409
999,846; 3060,247;    1,894;   -0,773
1000,395; 3124,520;    1,530;    0,500
1000,945; 3052,157;    1,076;   -0,773
1001,494; 3119,429;    0,167;    0,682
1002,043; 3120,702;    0,712;    0,864
1002,592; 2973,429;    3,439;    1,955
1003,141; 3129,884;    2,439;   -0,682
1003,690; 2966,066;    1,258;    0,500
1004,238; 3027,702;   -0,106;   -0,045
1004,787; 2671,157;   -1,288;    1,227
1005,336; 2897,066;    1,621;    0,682
1005,885; 3059,611;   -0,197;   -2,773
1006,433; 3219,611;   -0,470;    0,955
1006,982; 3268,338;    2,167;    1,682
1007,531; 3194,611;    2,712;   -0,227
1008,079; 3146,611;    0,258;    0,500
1008,627; 3284,429;    1,621;    0,409
1009,176; 3009,338;    0,076;   -1,955
1009,724; 3068,247;   -2,742;    0,864
1010,273; 3100,338;    1,076;    0,500
1010,821; 3228,157;    1,076;    1,409
1011,369; 2964,247;    0,076;    1,318
1011,917; 2945,429;   -0,833;   -0,591
1012,465; 3222,520;    2,530;   -1,591
1013,013; 3335,429;    0,439;   -1,682
1013,561; 3205,975;   -1,288;   -0,773
1014,109; 3236,520;   -0,833;    1,682
1014,657; 3128,157;    1,348;    0,591
1015,205; 3262,793;    0,894;   -0,955
1015,753; 3299,247;    0,258;   -1,409
1016,301; 3334,884;    2,621;    3,045
1016,848; 3356,793;    2,167;    0,409
1017,396; 3374,066;    1,621;    0,045
1017,944; 3507,611;    2,621;    1,864
1018,491; 3253,793;   -0,197;    1,409
1019,039; 3410,157;   -0,652;    0,591
1019,586; 3330,975;    0,076;    1,682
1020,134; 3434,429;    0,712;    1,500
1020,681; 3446,702;    2,894;   -1,136
1021,228; 3456,338;   -0,561;   -2,227
1021,776; 3300,520;   -0,833;   -1,136
1022,323; 3478,702;    0,803;    0,773
1022,870; 3428,429;   -0,470;   -0,045
1023,417; 3317,975;    2,076;    1,864
1023,964; 3489,066;    0,621;    1,227
1024,511; 3296,975;   -0,652;    0,773
1025,058; 3090,247;    0,439;   -0,045
1025,605; 3152,884;   -1,742;    3,136
1026,152; 3362,702;   -0,106;   -0,591
1026,699; 3095,793;    0,167;    1,318
1027,245; 3290,338;    2,439;    0,318
1027,792; 3513,066;    0,712;    1,409
1028,339; 3365,066;    4,076;   -0,045
1028,885; 3230,157;    3,621;   -0,227
1029,432; 3170,157;   -0,106;    0,227
1029,978; 3212,429;    1,348;   -1,591
1030,525; 3094,793;    1,621;    0,409
1031,071; 3358,884;    0,348;    1,136
1031,618; 3459,429;    1,258;    1,682
1032,164; 3258,429;    2,076;    3,045
1032,710; 3304,884;    0,076;   -1,500
1033,256; 3232,338;    0,712;   -0,136
1033,803; 3220,157;   -0,288;    1,500
1034,349; 2950,429;    1,803;    0,136
1034,895; 3099,884;    2,621;   -0,318
1035,441; 3065,157;    0,439;    0,318
1035,987; 3084,975;   -2,288;   -0,682
1036,533; 3072,884;   -0,197;   -0,955
1037,078; 3256,429;    4,712;    1,682
1037,624; 3097,793;    2,439;   -0,955
1038,170; 3120,066;    1,712;   -0,318
1038,716; 3003,520;    2,167;   -0,409
1039,261; 2930,429;    2,167;   -0,773
1039,807; 2868,884;   -0,015;    3,409
1040,352; 2918,338;   -1,288;   -0,318
1040,898; 2975,066;    0,167;   -0,682
1041,443; 2885,702;    0,803;   -2,591
1041,989; 2899,247;    3,621;    1,591
1042,534; 2785,702;    0,985;    2,591
1043,079; 2923,975;    1,985;    0,955
1043,625; 2687,520;    0,258;    0,500
1044,170; 2721,247;    2,439;    1,045
1044,715; 2993,702;    0,167;    0,955
1045,260; 2798,611;   -0,833;   -0,955
1045,805; 2853,702;    0,258;   -0,591
1046,350; 2807,429;    0,530;   -0,409
1046,895; 2763,884;    0,803;    1,591
1047,440; 2691,702;    1,530;    0,409
1047,985; 2604,884;   -1,197;   -0,955
1048,530; 2520,793;    1,348;    1,227
1049,074; 2588,338;    2,803;    0,318
1049,619; 2544,702;   -0,924;    1,955
1050,164; 2350,066;    1,076;    0,227
1050,708; 2408,793;    2,621;    0,045
1051,253; 2755,702;    3,258;   -2,227
1051,797; 2472,975;   -0,197;   -1,318
1052,342; 2502,702;    1,348;    1,045
1052,886; 2478,975;    1,803;   -1,409
1053,430; 2373,975;    2,167;    0,136
1053,975; 2385,975;    0,894;   -0,318
1054,519; 2365,429;    1,803;    3,227
1055,063; 2367,975;    3,621;    1,318
1055,607; 2259,338;    1,348;    0,227
1056,151; 2285,520;    0,530;    1,682
1056,695; 2202,611;   -1,833;   -1,136
1057,239; 2264,247;   -1,197;   -0,682
1057,783; 2247,793;    2,258;   -1,500
1058,327; 2208,338;    3,076;    1,409
1058,871; 2421,611;    3,985;    1,318
1059,415; 2137,702;   -0,561;   -0,045
1059,958; 2382,884;    2,985;    2,591
1060,502; 2121,884;    1,348;   -0,773
1061,046; 2046,520;    1,712;   -0,955
1061,589; 2012,520;    2,803;   -1,136
1062,133; 1903,611;    0,985;    1,864
1062,676; 1827,975;    1,439;    0,864
1063,220; 1815,611;    0,985;    0,500
1063,763; 1845,066;    2,985;    1,136
1064,306; 1921,611;    0,985;    1,864
1064,849; 1808,975;    2,076;    0,591
1065,393; 1823,793;    2,894;   -1,500
1065,936; 1939,884;    2,530;   -0,409
1066,479; 1838,429;    2,621;    1,318
1067,022; 1857,429;    1,894;   -0,227
1067,565; 1759,066;   -1,197;   -1,318
1068,108; 1785,702;    1,258;   -0,591
1068,651; 1762,157;   -2,470;    1,409
1069,194; 1663,702;   -1,106;   -1,682
1069,736; 1651,793;    3,803;    0,955
1070,279; 1652,520;   -1,652;   -0,500
1070,822; 1705,066;    1,530;   -0,318
1071,364; 1755,611;    0,530;    1,318
1071,907; 1590,975;    0,348;    3,227
1072,450; 1521,247;    0,258;   -0,045
1072,992; 1512,520;   -0,561;    3,136
1073,535; 1639,884;    0,167;    2,136
1074,077; 1438,157;    2,985;    2,045
1074,619; 1400,884;    0,985;    0,591
1075,161; 1432,429;   -0,561;    1,500
1075,704; 1613,157;    0,258;    1,227
1076,246; 1412,338;    1,530;    0,682
1076,788; 1342,429;   -1,015;    1,773
1077,330; 1427,520;   -2,106;    2,136
1077,872; 1380,611;   -1,924;    0,955
1078,414; 1598,338;    3,712;    0,773
1078,956; 1335,975;    0,167;   -0,227
1079,498; 1581,975;    0,439;    0,318
1080,040; 1271,429;    0,985;   -1,318
1080,581; 1225,066;    0,621;   -0,318
1081,123; 1179,429;   -0,106;   -0,773
1081,665; 1226,702;    3,803;   -0,955
1082,206; 1494,611;    3,258;   -0,500
1082,748; 1376,429;    3,258;    2,045
1083,289; 1261,429;    0,167;    1,318
1083,831; 1166,157;    0,258;    0,227
1084,372; 1175,793;    0,894;    0,591
1084,913; 1176,157;    3,348;    0,864
1085,455; 1167,429;    1,530;   -2,045
1085,996; 1133,975;    0,530;    0,136
1086,537; 1139,975;    0,985;    0,864
1087,078; 1170,157;    0,439;   -2,136
1087,619; 1215,429;   -1,652;    0,227
1088,160; 1139,611;    1,439;    1,318
1088,701; 1117,429;   -0,742;    0,682
1089,242; 1054,066;   -0,561;   -2,227
1089,783; 1149,066;   -0,561;    1,409
1090,324; 1124,884;   -0,833;    0,682
1090,865; 1006,247;   -1,924;   -0,409
1091,405;  981,338;   -0,561;    2,227
1091,946; 1008,338;   -0,197;   -0,955
1092,487;  940,884;   -1,288;   -1,409
1093,027; 1088,611;    1,803;   -1,500
1093,568;  944,975;    2,258;    1,227
1094,108; 1033,338;    0,621;    1,773
1094,649;  984,884;   -0,470;    0,136
1095,189;  928,520;    1,167;   -0,682
1095,729;  862,520;    0,712;    0,955
1096,269;  881,793;    1,258;   -0,955
1096,810; 1181,793;   -0,197;    0,500
1097,350; 1009,611;   -0,561;   -0,773
1097,890;  911,338;    2,985;    1,227
1098,430; 1152,247;    4,985;    2,864
1098,970; 1026,975;    1,894;    1,682
1099,510;  911,247;   -0,833;   -2,318
1100,050;  832,066;    0,258;   -1,591
1100,589;  797,611;    0,076;   -0,318
1101,129;  911,157;    0,894;   -0,955
1101,669; 1045,884;    2,803;    2,136
1102,209;  870,702;    1,530;    2,227
1102,748;  830,975;    3,439;    0,955
1103,288;  828,338;    0,712;   -1,227
1103,827;  849,975;    3,530;   -2,227
1104,367;  734,520;    1,712;   -2,409
1104,906;  702,429;   -1,015;   -1,136
1105,445;  770,793;    0,985;   -1,136
1105,985;  710,066;   -0,652;    1,500
1106,524;  749,702;    1,530;   -0,682
1107,063;  731,884;    1,167;    1,409
1107,602;  707,157;    1,894;   -1,500
1108,141;  637,884;    1,621;    1,500
1108,680;  725,884;    3,985;   -0,591
1109,219;  673,338;    0,167;   -0,500
1109,758;  679,520;    4,167;    0,682
1110,297;  652,611;   -1,106;   -0,682
1110,836;  601,702;    1,439;    0,955
1111,375;  748,702;    0,348;    0,409
1111,913;  762,702;    0,985;    0,773
1112,452;  708,247;    0,894;    0,136
1112,991;  597,520;    1,076;    1,955
1113,529;  554,611;    0,167;   -0,045
1114,068;  620,066;    0,439;    2,955
1114,606;  516,884;   -0,561;   -0,955
1115,144;  666,157;    1,530;    1,045
1115,683;  604,066;    1,985;    0,318
1116,221;  653,611;    2,076;   -0,864
1116,759;  573,338;    1,621;   -0,864
1117,297;  752,611;    1,621;    1,864
1117,836;  573,520;    1,985;   -1,227
1118,374;  564,702;    0,258;   -0,682
1118,912;  522,066;    0,439;    2,682
1119,450;  510,157;    0,985;    0,864
1119,988;  558,975;    3,348;    2,136
1120,525;  994,702;    7,258;    3,318
1121,063;  701,338;    0,530;    1,864
1121,601;  518,066;    1,076;   -1,227
1122,139;  475,702;    1,076;   -2,045
1122,676;  664,702;   -1,652;    2,773
1123,214;  608,884;    0,712;    4,409
1123,751;  420,429;    0,621;    2,227
1124,289;  546,611;    0,894;   -0,409
1124,826;  421,338;   -0,379;    0,227
1125,364;  351,884;    0,712;   -0,955
1125,901;  524,520;    6,258;    1,227
1126,438;  620,066;    3,530;    0,955
1126,975;  361,702;    2,985;   -0,773
1127,513;  424,975;    2,621;    2,136
1128,050;  343,429;   -0,561;   -0,682
1128,587;  435,157;    1,348;   -0,227
1129,124;  476,793;   -0,015;    1,318
1129,661;  361,338;   -1,924;    0,227
1130,198;  502,066;    2,439;    0,773
1130,734;  450,520;   -0,379;    1,409
1131,271;  318,702;   -1,197;    0,864
1131,808;  490,611;    1,621;    3,045
1132,345;  356,247;    4,530;    0,318
1132,881;  248,338;   -0,561;   -1,864
1133,418;  370,793;    0,348;   -1,136
1133,954;  323,066;    0,712;   -2,682
1134,491;  387,702;    1,712;   -0,773
1135,027;  296,066;    2,167;    0,864
1135,564;  368,520;    1,439;    2,955
1136,100;  350,793;   -0,742;    2,136
1136,636;  257,884;   -1,015;   -1,045
1137,172;  331,793;    0,894;   -1,045
1137,708;  274,338;   -1,561;   -1,045
1138,245;  272,247;    0,803;   -1,227
1138,781;  234,702;    1,803;   -3,318
1139,317;  288,702;    1,894;   -1,409
1139,852;  274,066;    3,076;    0,136
1140,388;  387,702;    2,076;   -0,409
1140,924;  276,066;    1,076;   -2,227
1141,460;  215,884;   -0,288;    0,136
1141,996;  158,066;   -0,652;    2,682
1142,531;  200,975;    1,076;    3,318
1143,067;  400,157;    1,167;    1,045
1143,602;  450,157;    3,439;   -0,318
1144,138;  305,338;    0,803;    1,045
1144,673;  192,429;    1,621;    1,409
1145,209;  250,884;    2,894;   -0,318
1145,744;  172,702;    0,803;    0,864
1146,279;  299,520;    1,530;   -0,136
1146,815;  223,247;    1,530;   -2,682
1147,350;  257,157;   -0,924;    0,045
1147,885;  182,157;   -1,924;   -1,318
1148,420;  179,611;    2,439;    0,773
1148,955;  160,975;   -1,470;    1,864
1149,490;  185,884;   -1,106;   -1,591
1150,025;  167,975;   -1,106;   -1,773
1150,560;  268,975;   -0,288;   -0,955
1151,094;  237,338;    0,258;   -0,591
1151,629;  244,066;   -3,742;    0,864
1152,164;  177,611;   -1,288;    1,318
1152,698;  133,520;    1,258;   -0,136
1153,233;   96,884;   -1,379;   -0,682
1153,767;  148,429;   -0,288;   -2,318
1154,302;  181,247;   -0,379;    1,773
1154,836;  181,429;    0,803;   -2,136
1155,371;  231,338;    2,258;    3,682
1155,905;  192,338;    1,985;    1,682
1156,439;  162,793;    0,530;   -0,500
1156,973;  197,611;    0,439;    0,318
1157,507;  134,520;   -1,742;    0,682
1158,042;  163,611;   -0,652;    1,045
1158,576;  197,338;   -0,561;    1,773
1159,110;  195,611;    0,076;    2,409
1159,643;  162,793;   -2,470;   -0,045
1160,177;  112,975;   -2,015;    1,500

