
Integration time [ms]:   0,050
Averaging Nr. [scans]: 11
Smoothing Nr. [pixels]: 0
Data measured with spectrometer [name]: 7318044SP
Wave   ;Sample   ;Dark     ;Reference
[nm]   ;[counts] ;[counts] ;[counts] 

186,757;  -28,620;   38,161;    1,318
187,357;    5,476;   26,706;    0,955
187,958;  -11,357;   17,252;   -1,591
188,558;   18,371;   12,979;   -1,227
189,159;   -5,057;   10,070;   -4,500
189,759;  -28,274;    5,797;   -3,591
190,360;  -28,766;    6,797;   -2,136
190,960;   -2,961;    5,706;   -4,136
191,560;    5,554;    2,614;   -6,591
192,161;  193,791;    5,885;   -3,500
192,761;   69,230;    5,520;   -3,227
193,361;   18,907;    3,065;   -3,773
193,962;   58,325;    1,612;   -2,682
194,562;    1,287;   -0,114;   -3,955
195,162;    8,020;   -0,567;   -2,227
195,762;  117,944;    2,433;   -0,045
196,362;   70,815;    1,706;   -2,500
196,963;  -11,171;    1,706;   -0,864
197,563;   28,648;    1,252;   -0,955
198,163;   -6,805;   -0,111;   -0,682
198,763;   -0,574;   -0,020;   -0,500
199,363;   46,044;    3,616;   -0,500
199,963;   19,819;    2,162;    0,409
200,563;    4,453;    6,344;   -1,409
201,163;   -0,719;    5,435;   -0,227
201,763;   22,441;    1,435;    0,318
202,363;    1,994;    0,980;    1,500
202,963;   30,218;    1,526;    1,045
203,563;   76,747;    0,344;    0,500
204,162;   11,946;    1,889;   -1,864
204,762;    5,679;    2,071;    0,591
205,362;  -12,427;    0,708;    1,955
205,962;   16,731;    3,435;    1,955
206,562;   16,293;    1,889;    2,318
207,161;   -5,851;    1,708;    0,318
207,761;   59,052;    4,435;    2,409
208,361;    8,410;    1,889;    1,409
208,960;   24,789;    2,889;    1,500
209,560;   31,146;    0,435;    1,591
210,160;   43,540;    5,071;    1,864
210,759;   13,165;    0,708;    1,227
211,359;    3,848;   -0,474;    1,045
211,958;  109,008;    3,526;    2,045
212,558;  112,891;    0,799;    1,864
213,157;   52,674;   -0,929;    1,500
213,757;  202,510;    5,617;   -0,227
214,356;   75,927;    1,708;   -0,409
214,956;  174,133;    3,526;    0,409
215,555;   53,714;    0,617;    2,136
216,154;   28,109;   -0,292;   -0,591
216,754;   28,464;    1,253;    0,773
217,353;   37,705;   -0,383;   -1,045
217,952;  -10,591;    2,072;    0,318
218,552;   66,687;    0,254;   -0,773
219,151;   26,589;   -1,110;    0,955
219,750;   11,007;    0,890;   -0,227
220,349;    8,222;   -2,292;    1,045
220,948;   74,646;    1,163;    1,136
221,548;   22,751;    0,617;    1,227
222,147;   38,852;   -1,292;   -0,409
222,746;  126,906;    1,254;   -0,955
223,345;   61,019;   -1,019;    0,500
223,944;   68,177;    1,163;    0,773
224,543;   78,757;    4,072;   -1,409
225,142;   63,256;    1,345;    0,136
225,741;   64,903;    1,163;    1,045
226,340;   58,047;    1,254;   -0,955
226,939;  122,480;    2,708;   -0,136
227,538;   45,376;    1,163;   -0,773
228,137;  129,323;    0,435;    0,864
228,735;   97,773;    0,435;    1,227
229,334;   16,582;   -0,474;   -0,227
229,933;  133,473;    0,799;    0,591
230,532;  125,602;   -1,201;   -0,409
231,131;  179,236;    1,253;    0,318
231,729;   95,905;    1,163;   -2,318
232,328;   54,315;    0,435;   -1,500
232,927;   56,632;    4,526;   -0,500
233,525;   48,483;    0,981;    0,045
234,124;   71,116;    1,890;   -1,591
234,723;   33,514;    1,617;   -1,045
235,321;   21,734;    1,163;    0,136
235,920;   41,546;    2,526;   -1,227
236,518;  142,129;    1,072;    0,318
237,117;   45,451;    2,890;   -0,227
237,715;   64,009;    1,163;   -0,500
238,314;   76,797;    1,708;   -2,318
238,912;  155,011;    0,526;   -1,409
239,510;  102,266;    1,162;   -1,227
240,109;  165,448;   -0,474;    3,773
240,707;  147,801;   -0,474;    1,227
241,305;   67,318;   -0,383;    0,136
241,904;  126,954;   -0,292;   -2,045
242,502;  215,967;    3,253;   -0,227
243,100;  150,364;    3,344;   -0,955
243,698;  105,377;    2,799;    1,682
244,297;  148,859;   -0,656;    0,682
244,895;  155,634;   -0,474;   -2,318
245,493;  312,919;    2,981;   -0,591
246,091;  323,688;    5,163;   -1,318
246,689;  284,229;    2,163;    0,591
247,287;  269,284;   -0,019;   -1,136
247,885;  264,371;   -1,019;    1,227
248,483;  241,975;   -0,201;   -0,500
249,081;  343,240;    0,981;    1,591
249,679;  397,981;   -1,019;    1,682
250,277;  296,068;   -2,292;    0,864
250,875;  438,823;    0,617;   -1,045
251,473;  362,033;   -0,019;    0,500
252,071;  467,430;   -0,383;    1,045
252,669;  409,450;   -1,565;    0,318
253,267;  386,052;    1,618;    0,773
253,864;  459,829;    0,617;    0,682
254,462;  631,721;    1,526;    1,591
255,060;  418,881;    0,072;    1,318
255,658;  430,450;   -3,292;   -0,136
256,255;  547,734;   -0,201;   -2,045
256,853;  597,462;    2,345;    1,409
257,451;  591,637;    1,981;    1,864
258,048; 1097,707;    2,072;    1,864
258,646;  762,353;    0,436;   -1,045
259,243;  896,734;    2,981;    2,227
259,841;  781,422;    1,799;    0,318
260,438;  632,616;    0,254;    0,864
261,036;  808,077;    0,617;    1,409
261,633;  740,368;    1,526;    2,227
262,231;  700,014;   -0,110;   -0,045
262,828;  734,229;   -0,383;    1,136
263,425;  821,152;   -1,928;   -0,591
264,023;  842,700;    1,436;    0,045
264,620;  999,435;    1,526;   -0,318
265,217; 1167,091;    2,890;    3,136
265,815;  905,867;    2,527;    2,136
266,412; 1034,190;    0,072;    0,136
267,009; 1088,360;    0,526;    0,773
267,606; 1221,262;    0,345;   -0,955
268,203;  983,854;   -0,383;   -0,591
268,801; 1078,659;   -0,474;    0,591
269,398; 1033,688;   -0,564;    2,500
269,995; 1199,592;    0,890;    1,591
270,592; 1064,069;    0,799;   -0,500
271,189; 1042,174;    1,981;    0,409
271,786; 1059,279;    2,072;    1,227
272,383; 1308,722;   -0,383;    0,227
272,980; 1146,155;    1,617;    0,318
273,577; 1157,289;    2,162;    1,227
274,174; 1043,066;    1,435;    2,591
274,771; 1159,359;    1,890;   -0,773
275,367; 1635,649;    3,253;    1,409
275,964; 1430,946;   -0,565;   -0,500
276,561; 1229,372;   -2,474;   -1,045
277,158; 1195,254;    1,799;   -1,773
277,755; 1465,876;   -0,110;    0,409
278,351; 1216,985;    0,436;   -1,500
278,948; 1369,022;   -0,201;    0,045
279,545; 1258,819;    0,527;    2,318
280,141; 1638,620;    1,254;   -2,045
280,738; 1484,714;    2,435;   -0,136
281,334; 1340,415;   -0,383;    0,591
281,931; 1313,163;    2,890;   -1,318
282,528; 1435,537;    4,072;   -0,500
283,124; 1685,630;    3,345;   -0,500
283,721; 1660,146;    0,709;    1,409
284,317; 1515,595;    0,163;    2,500
284,913; 1837,305;   -0,110;    0,591
285,510; 2214,305;    2,890;   -0,318
286,106; 2047,398;    2,345;   -0,955
286,703; 1657,341;    0,072;    1,955
287,299; 1714,786;    1,254;   -0,591
287,895; 1853,104;    0,890;   -1,045
288,491; 2073,688;    0,163;    2,136
289,088; 2140,514;    0,163;    2,409
289,684; 2208,814;    2,890;    1,500
290,280; 2392,607;    1,890;    0,682
290,876; 2484,945;    0,163;    5,500
291,472; 2456,649;    2,163;    2,227
292,068; 2580,316;    1,254;    0,227
292,665; 2441,968;   -0,564;    0,773
293,261; 2411,729;   -1,292;    2,136
293,857; 2665,326;    4,072;    2,136
294,453; 2723,196;   -0,928;    0,955
295,049; 2898,293;    0,253;    1,955
295,644; 2910,565;   -1,292;    0,136
296,240; 2929,368;    0,162;   -0,136
296,836; 3143,091;   -0,747;    0,318
297,432; 3438,317;    2,980;   -0,500
298,028; 3615,653;    0,435;    0,773
298,624; 3760,922;    0,889;    1,864
299,220; 3968,033;    0,435;    0,591
299,815; 3844,876;    0,526;   -0,409
300,411; 3914,384;    0,435;    1,773
301,007; 4028,368;    1,889;    0,227
301,602; 3996,795;    2,071;   -2,318
302,198; 4212,779;    1,435;   -0,773
302,794; 4434,261;    1,526;   -0,500
303,389; 4566,819;    1,071;    1,045
303,985; 4642,164;    1,253;    1,409
304,580; 4690,438;    0,889;    1,591
305,176; 4684,352;    0,344;    0,136
305,771; 4621,241;   -0,929;   -1,227
306,367; 4801,149;    3,071;    0,136
306,962; 4902,431;    2,889;    1,500
307,558; 4638,186;    2,435;    0,136
308,153; 4630,084;   -0,383;   -1,136
308,748; 4693,299;    0,162;    1,682
309,344; 4789,362;    0,253;   -1,318
309,939; 4919,446;    2,071;   -1,318
310,534; 4926,495;   -2,020;   -1,682
311,130; 4780,367;   -0,656;   -2,500
311,725; 4538,674;    0,526;   -0,500
312,320; 4720,772;    1,253;    0,045
312,915; 4739,681;    2,890;   -1,045
313,510; 4768,710;    0,526;   -0,500
314,105; 4932,385;   -3,565;    1,409
314,700; 4404,420;   -1,656;   -1,045
315,295; 4241,075;   -0,020;    0,045
315,890; 3952,786;   -0,292;    0,864
316,485; 4072,774;    0,253;   -0,318
317,080; 4093,440;   -0,929;    1,591
317,675; 4410,594;    3,071;   -0,682
318,270; 4182,164;    6,889;    3,318
318,865; 4138,978;    2,435;    3,045
319,460; 3912,400;   -1,565;    0,591
320,055; 3947,816;   -2,565;   -1,227
320,650; 3718,217;   -1,838;   -0,591
321,244; 3727,202;    0,889;   -1,409
321,839; 4235,342;    0,980;   -0,227
322,434; 4123,045;   -0,111;   -1,591
323,029; 3932,945;   -0,474;    1,591
323,623; 3854,208;    0,798;    0,773
324,218; 3833,551;    2,707;    1,409
324,812; 3764,902;    0,889;    1,591
325,407; 3702,218;   -0,929;    2,045
326,002; 3732,922;    0,526;   -0,409
326,596; 3923,952;   -0,656;    1,318
327,191; 4009,628;   -0,383;   -1,045
327,785; 3831,589;   -0,747;   -0,227
328,379; 4114,750;   -0,383;    0,136
328,974; 3960,327;    1,798;   -3,955
329,568; 4261,392;    2,889;   -2,409
330,163; 4291,258;    2,435;    1,045
330,757; 4525,209;    0,253;    1,591
331,351; 4238,557;   -0,292;    0,682
331,945; 4515,348;   -0,383;    1,409
332,540; 4460,743;    1,617;   -0,591
333,134; 4606,914;    3,344;    0,773
333,728; 4772,802;    2,799;    0,318
334,322; 5124,410;    0,889;   -0,864
334,916; 4754,566;    0,344;    0,955
335,510; 5127,398;   -0,111;   -0,136
336,105; 5425,991;   -0,929;    1,591
336,699; 5272,665;   -1,292;    0,591
337,293; 5348,253;    1,071;    0,318
337,887; 5537,076;    0,071;    1,955
338,481; 5771,952;    2,980;    0,591
339,074; 6092,289;    2,071;    2,682
339,668; 6067,417;   -0,110;    1,227
340,262; 6538,222;    7,708;    3,227
340,856; 6158,759;    1,708;   -0,682
341,450; 5794,221;    0,708;    1,864
342,044; 6562,980;    1,799;    0,136
342,637; 6526,266;    1,162;   -2,136
343,231; 6517,519;   -1,474;    0,682
343,825; 6530,661;   -0,747;   -0,591
344,419; 6658,010;   -0,474;    0,500
345,012; 6725,730;    2,889;    4,045
345,606; 6797,036;   -0,656;    1,591
346,199; 6735,193;   -0,111;   -0,227
346,793; 6483,048;    2,525;    2,045
347,386; 6726,229;    0,889;   -1,136
347,980; 6751,574;   -0,838;   -0,045
348,573; 6700,745;   -1,748;    0,409
349,167; 6545,817;    6,161;    4,773
349,760; 6913,221;    2,252;    2,682
350,354; 6877,412;    1,616;    1,136
350,947; 6702,263;    2,798;    1,682
351,540; 6475,558;    0,616;   -1,409
352,134; 6462,435;   -1,111;    1,136
352,727; 6536,097;   -0,657;    1,136
353,320; 6431,034;    2,343;    0,591
353,913; 6285,091;   -1,929;    1,864
354,507; 6448,477;    0,434;   -1,227
355,100; 6508,269;    0,071;    0,864
355,693; 5937,926;    4,798;    2,409
356,286; 5939,521;    0,980;    2,773
356,879; 6189,139;   -0,475;    1,227
357,472; 5830,820;    0,980;    1,500
358,065; 6043,901;    3,161;    2,500
358,658; 5964,316;    0,798;    2,318
359,251; 5641,598;    0,252;   -0,591
359,844; 5263,069;    0,343;   -1,136
360,437; 5414,882;    0,252;    0,045
361,030; 5604,202;    0,525;   -0,682
361,623; 5233,935;    0,434;    0,318
362,215; 5261,283;    0,979;    2,045
362,808; 5145,673;   -2,293;   -1,682
363,401; 5249,050;    0,798;    0,136
363,994; 5098,980;    3,252;   -1,500
364,586; 4967,249;    0,888;   -1,500
365,179; 5076,112;   -0,203;   -1,136
365,772; 4639,466;   -0,930;    2,045
366,364; 4823,187;    1,524;   -3,227
366,957; 5017,260;    1,342;   -0,045
367,549; 4927,967;   -0,203;   -0,864
368,142; 4682,404;    0,978;   -1,500
368,734; 4805,309;    2,523;   -2,136
369,327; 4771,590;    2,341;   -0,500
369,919; 4687,052;   -1,659;    0,409
370,512; 4553,148;   -1,023;   -0,500
371,104; 4363,379;    2,704;    1,591
371,696; 4493,877;    1,703;   -0,955
372,289; 4508,481;    0,157;    1,136
372,881; 4559,685;    1,156;    1,318
373,473; 4441,191;    4,064;    1,136
374,066; 4338,162;    1,336;    0,500
374,658; 4240,536;    0,879;    1,136
375,250; 4436,775;   -1,668;   -1,409
375,842; 4303,980;   -0,124;   -0,045
376,434; 4179,924;   -2,762;   -0,409
377,026; 4600,678;   -1,855;   -2,500
377,618; 4510,693;    0,779;   -0,682
378,210; 4363,926;    3,141;   -1,955
378,802; 4168,476;    3,412;   -0,591
379,394; 4278,939;    3,411;    0,682
379,986; 4612,664;    1,138;   -0,955
380,578; 4627,692;    1,410;    0,773
381,170; 4203,054;    0,320;    0,045
381,762; 4135,069;   -0,224;    1,409
382,354; 4229,950;   -0,223;   -1,318
382,945; 4292,694;    0,870;    0,318
383,537; 4410,402;    1,144;   -1,955
384,129; 4428,379;    0,963;   -1,136
384,721; 4543,322;    0,418;    0,955
385,312; 4447,250;   -1,399;   -0,955
385,904; 4560,179;   -0,945;    1,591
386,496; 4044,213;    0,691;    1,045
387,087; 4187,494;    0,418;    2,500
387,679; 4171,641;   -0,401;    0,045
388,270; 4283,086;   -2,401;    2,045
388,862; 4348,551;   -0,401;   -0,318
389,453; 4150,689;    1,054;    1,045
390,045; 4404,658;    3,236;   -2,682
390,636; 4350,054;    0,144;   -0,591
391,227; 4258,474;    2,054;   -0,045
391,819; 4343,730;    0,781;    0,773
392,410; 4435,075;    0,600;    0,045
393,001; 4358,234;    1,600;   -1,591
393,593; 4538,330;    0,600;   -0,045
394,184; 4405,242;    0,873;   -0,409
394,775; 4269,369;    1,146;    2,136
395,366; 4496,818;    1,782;    0,773
395,957; 4447,025;   -2,400;    0,136
396,548; 4641,683;    1,054;    2,682
397,139; 4875,782;    2,236;    0,591
397,730; 4619,413;    0,873;    0,955
398,321; 4701,518;    0,509;    0,955
398,912; 4633,584;   -0,764;    0,136
399,503; 4808,607;   -1,945;   -1,409
400,094; 4390,981;   -1,582;    1,682
400,685; 4289,623;    3,600;    0,045
401,276; 4278,225;   -0,400;   -0,955
401,867; 4486,216;   -1,127;    0,773
402,458; 4533,639;    1,509;   -2,318
403,048; 4534,156;    0,146;    0,591
403,639; 4192,385;    1,509;    0,864
404,230; 4466,832;    0,691;    0,318
404,821; 4404,334;   -0,127;    0,045
405,411; 4427,899;   -0,763;   -2,591
406,002; 4081,742;    3,237;   -1,136
406,592; 4070,486;    2,691;    0,045
407,183; 4146,298;    0,328;   -1,500
407,774; 3974,573;    1,419;   -0,136
408,364; 4162,412;    2,600;    0,409
408,954; 3925,337;   -0,036;    1,227
409,545; 3917,142;    1,873;    1,045
410,135; 3499,263;   -1,581;    0,500
410,726; 3579,694;    0,783;    0,318
411,316; 3812,415;    2,237;    0,773
411,906; 3503,542;    0,146;   -0,409
412,497; 3154,413;   -0,490;   -0,045
413,087; 3440,122;    0,783;   -0,227
413,677; 3572,908;   -2,490;    3,864
414,267; 3382,586;   -1,035;    1,409
414,857; 3293,521;    0,419;    4,227
415,448; 3394,630;   -0,763;    0,500
416,038; 3170,683;   -2,945;   -0,591
416,628; 3039,167;    0,965;    0,409
417,218; 2857,015;   -1,762;    3,318
417,808; 2975,313;    0,965;   -0,409
418,398; 2980,986;   -1,035;    2,682
418,988; 2814,339;   -2,217;    0,591
419,578; 2840,993;    3,601;    1,409
420,168; 2965,733;    0,692;   -0,955
420,757; 2765,662;    0,964;   -1,500
421,347; 2436,344;    1,601;   -0,227
421,937; 2410,999;    3,329;    1,409
422,527; 2427,237;    2,602;   -0,773
423,116; 2369,740;    2,692;   -0,045
423,706; 2293,674;    2,965;    0,318
424,296; 2089,120;    1,601;    0,682
424,885; 2350,302;    1,510;   -3,045
425,475; 2313,822;    1,147;   -2,864
426,065; 2127,936;   -1,489;   -0,318
426,654; 1990,541;    0,329;   -0,318
427,244; 2239,871;    1,147;    1,409
427,833; 1968,022;    1,056;   -0,500
428,423; 1845,643;    0,147;    1,136
429,012; 2041,397;    2,420;   -1,136
429,601; 1956,671;    2,057;    0,136
430,191; 1803,590;    2,511;    4,318
430,780; 1509,984;   -1,671;   -0,409
431,369; 1760,312;    1,329;   -0,045
431,959; 1768,183;    1,693;    0,500
432,548; 1553,046;   -1,398;   -0,045
433,137; 1445,462;    0,329;   -1,318
433,726; 1616,332;    0,148;    0,500
434,315; 1423,703;    0,148;    2,409
434,905; 1522,999;    0,693;    1,409
435,494; 1555,581;    3,148;    0,955
436,083; 1369,686;    1,420;   -0,955
436,672; 1335,738;    1,148;    0,500
437,261; 1222,256;    0,512;   -1,955
437,850; 1558,817;   -1,125;    0,682
438,439; 1536,219;    2,239;    1,955
439,027; 1600,345;    3,421;    1,773
439,616; 1535,191;    2,239;    1,227
440,205; 1158,258;    0,057;   -2,136
440,794;  980,667;   -0,306;   -0,045
441,383;  860,107;    1,603;   -0,591
441,971;  730,090;   -0,306;    0,591
442,560;  712,771;    0,603;   -1,773
443,149;  567,937;    3,060;   -1,318
443,737;  635,042;    0,968;   -2,318
444,326;  609,784;    0,331;    0,318
444,915;  654,976;   -1,851;    0,864
445,503;  648,110;    0,058;   -0,318
446,092;  956,236;    7,876;    2,136
446,680;  871,119;    1,876;    0,318
447,269;  738,672;   -1,487;   -0,318
447,857;  653,304;    2,240;   -1,773
448,445;  558,730;    2,149;    1,318
449,034;  479,281;    0,876;   -1,136
449,622;  436,195;    1,240;    3,500
450,210;  840,563;    3,149;    2,227
450,799;  724,594;    2,604;   -0,591
451,387;  590,751;    1,786;   -0,591
451,975;  554,976;   -1,305;    0,864
452,563;  663,321;    0,422;    2,318
453,151;  376,083;   -1,032;   -1,227
453,739;  427,502;   -1,577;    0,136
454,328;  584,141;    0,604;   -2,136
454,916;  452,515;    1,150;   -0,136
455,504;  438,663;    3,513;    1,227
456,092;  302,639;    2,150;   -1,591
456,679;  234,893;    0,604;    0,682
457,267;  778,889;    3,604;    1,045
457,855;  347,636;    3,241;    1,409
458,443;  134,013;   -0,304;    1,682
459,031;  355,766;    1,332;    2,409
459,619;  304,496;   -3,577;    2,864
460,206;  164,294;   -0,759;    2,045
460,794;  167,387;   -0,668;   -0,227
461,382;  229,458;    0,878;   -0,864
461,970;  203,849;    0,605;    1,864
462,557;  110,963;    0,878;   -0,682
463,145;  276,883;   -0,304;   -1,682
463,732;  551,204;    2,514;   -1,045
464,320;  268,613;    1,514;   -3,045
464,907;  425,178;    0,423;   -0,773
465,495;  311,082;    2,696;   -1,227
466,082;  211,450;    2,060;   -0,045
466,670;  218,740;    2,605;    1,227
467,257;   94,601;    0,060;    2,045
467,844;  235,491;    1,514;    0,045
468,432;  194,812;   -0,031;    3,500
469,019;  131,539;    1,606;   -1,773
469,606;  218,710;    0,969;    3,682
470,193;  251,471;    2,151;    0,227
470,780;  202,677;    0,333;    0,864
471,368;  104,423;   -1,212;   -0,773
471,955;  217,021;    1,060;   -0,682
472,542;  169,620;   -0,303;   -1,136
473,129;   34,924;   -0,485;    0,136
473,716;   37,407;    0,060;    0,591
474,303;   78,689;    1,333;   -0,864
474,890;   83,561;    2,333;   -0,500
475,477;  185,313;   -0,576;    0,409
476,064;   79,439;    0,697;   -1,591
476,650;  191,599;    2,152;    0,318
477,237;   94,508;    1,879;    0,955
477,824;   63,838;    3,879;    0,864
478,411;  -25,634;    0,606;   -0,318
478,997;  -33,625;    0,606;   -0,773
479,584;  -82,254;   -0,666;   -0,409
480,171;   99,967;    1,243;   -0,773
480,757;  148,571;   -0,848;    0,773
481,344;   41,944;    0,334;    0,409
481,931;  -58,918;   -0,393;    1,045
482,517;   69,207;    0,425;    0,318
483,104;  155,351;    1,334;    2,864
483,690;   24,000;    0,243;    0,045
484,276;   -1,054;    0,698;    0,227
484,863;  207,344;    2,152;    1,136
485,449;   52,570;    0,152;    0,318
486,035;    3,164;   -0,666;   -0,136
486,622;  100,346;   -2,393;    0,045
487,208;   21,011;    1,334;    1,500
487,794;  -55,147;    0,971;    0,318
488,380;  -53,658;    0,698;   -1,409
488,967;  -48,762;   -1,120;   -0,409
489,553;  -39,799;   -1,029;   -1,409
490,139;   35,360;    0,971;    0,773
490,725;  -32,619;    0,789;   -0,227
491,311;   16,146;    1,516;    3,045
491,897;  -10,114;   -0,665;    1,500
492,483;   -2,956;    0,426;    1,227
493,069;  438,054;    5,426;    0,864
493,655;  155,713;    1,789;    0,682
494,241;   35,933;    1,517;   -0,955
494,826;   45,287;    0,335;   -1,045
495,412;  109,955;    0,335;   -0,682
495,998;   24,086;    0,971;   -0,318
496,584;   78,334;    2,244;    1,045
497,169;  108,532;    2,335;   -0,682
497,755;   50,384;    1,244;    1,227
498,341;  204,528;    2,153;    0,318
498,926;  354,474;    2,881;    1,955
499,512;   70,667;   -0,028;    2,955
500,097;   86,883;   -0,574;   -0,318
500,683;  133,558;   -0,028;    2,136
501,268;   85,690;    1,881;   -0,955
501,854;  138,801;   -0,119;    1,227
502,439;  142,741;   -0,573;   -1,773
503,024;  225,804;    1,608;    0,500
503,610;  304,096;    1,335;   -0,682
504,195;  236,630;    1,245;    1,955
504,780;  415,616;    2,335;    1,227
505,366;  617,681;    4,063;    2,864
505,951;  569,363;   -1,119;    1,045
506,536;  540,278;    1,427;   -3,682
507,121;  698,167;    1,699;   -0,318
507,706;  753,180;   -0,392;    1,045
508,291;  801,186;   -2,937;    1,136
508,876;  916,456;   -0,482;    2,591
509,461; 1115,547;    1,427;   -0,773
510,046; 1409,652;   -0,391;    0,318
510,631; 1591,033;   -0,119;   -0,773
511,216; 1709,789;   -0,664;   -0,500
511,801; 2197,714;   -0,755;    2,591
512,386; 2499,672;    0,972;    0,500
512,971; 2841,976;    0,427;    0,955
513,555; 3085,043;    1,154;   -1,500
514,140; 3791,014;    1,336;   -3,136
514,725; 4175,031;    1,791;   -1,136
515,309; 4644,641;    1,064;    0,318
515,894; 4850,514;   -0,300;   -2,227
516,479; 5541,739;    1,973;   -0,955
517,063; 5830,609;    0,882;    1,227
517,648; 6445,536;    0,155;   -1,136
518,232; 6516,780;   -1,300;   -1,409
518,817; 7281,303;    1,337;    1,682
519,401; 7969,972;    0,700;    0,591
519,985; 7950,756;    2,700;    1,136
520,570; 8273,047;   -0,118;   -1,955
521,154; 8940,258;    0,064;    0,591
521,738; 9477,380;    1,064;    2,409
522,323;10406,687;   -0,390;    1,682
522,907;10512,699;    2,428;   -0,136
523,491;10582,166;    1,155;    0,955
524,075;10883,234;    0,428;    0,591
524,659;11293,465;    0,973;    0,591
525,243;11073,059;    0,883;    0,409
525,827;11515,752;    0,883;   -0,045
526,411;12556,374;    1,155;   -0,136
526,995;13007,749;    0,337;    1,409
527,579;12834,910;    1,974;   -1,045
528,163;13299,375;    0,428;   -1,500
528,747;13407,444;    1,065;   -0,773
529,331;13820,636;    0,883;   -1,409
529,915;14186,779;    2,338;    0,955
530,499;14299,201;    0,247;    1,227
531,082;14110,537;    1,065;    1,591
531,666;13645,247;    0,520;    0,773
532,250;14462,875;    0,428;    2,682
532,833;14885,557;    0,610;    2,773
533,417;14836,324;    1,247;    0,864
534,001;14860,711;    0,429;   -0,318
534,584;15662,471;    1,974;    0,500
535,168;15570,917;    3,247;    1,409
535,751;15656,919;    4,520;    0,045
536,334;15158,504;    4,520;   -0,409
536,918;15844,522;    1,974;    1,591
537,501;15965,401;    1,520;    1,318
538,085;15983,613;    1,702;    1,045
538,668;16199,318;    0,883;    2,409
539,251;16564,567;    3,156;    3,773
539,834;16647,914;    0,156;    0,773
540,418;16601,249;    3,247;    4,318
541,001;16724,091;    2,702;    1,773
541,584;16743,627;    1,429;    2,227
542,167;16468,752;    0,702;    2,955
542,750;16656,914;    0,793;   -0,773
543,333;16242,844;    1,429;    2,136
543,916;17086,144;   -0,298;    2,500
544,499;17757,610;    2,520;    0,227
545,082;17730,046;    0,248;    3,591
545,665;17922,043;   -0,207;    1,500
546,248;18288,662;    0,520;   -0,318
546,830;17959,881;   -1,752;    1,955
547,413;18393,768;    0,157;   -0,773
547,996;18944,883;    0,157;    0,500
548,579;18714,198;   -0,843;    0,955
549,161;18519,816;    0,884;    2,682
549,744;18322,312;    0,612;    0,409
550,326;18889,048;    0,885;   -1,136
550,909;18613,077;    2,339;    0,591
551,492;19031,840;    0,521;    0,227
552,074;18815,144;   -0,024;   -1,318
552,657;19385,207;    2,430;    0,045
553,239;19162,502;   -3,024;   -0,773
553,821;19113,142;   -1,570;    1,045
554,404;18557,626;   -0,024;    1,136
554,986;18990,678;    2,248;    1,045
555,568;19602,700;    0,430;   -0,955
556,151;18820,404;    4,067;   -0,227
556,733;19003,747;   -1,388;   -0,864
557,315;19490,704;    4,703;    0,500
557,897;19300,837;    0,521;   -0,500
558,479;19445,695;    1,703;    1,318
559,061;19550,008;    1,067;   -0,864
559,643;19895,188;   -0,297;    0,045
560,225;20306,135;   -0,388;    2,864
560,807;20381,460;    0,340;    0,318
561,389;19824,455;   -1,206;    2,318
561,971;20507,529;   -0,660;    2,136
562,553;20383,407;    0,613;    1,591
563,135;20532,062;    1,249;    1,136
563,717;20118,572;    3,158;    1,136
564,298;20845,192;    3,976;   -0,045
564,880;20563,075;    0,340;   -1,409
565,462;20723,802;    1,977;    1,318
566,043;21954,872;   -0,933;    2,318
566,625;21449,141;    4,067;    1,227
567,207;21313,310;    0,704;    1,682
567,788;22461,150;   -0,114;    1,500
568,370;23307,045;   -1,841;   -0,500
568,951;23108,239;   -0,569;    0,227
569,533;24051,651;    0,977;   -0,500
570,114;24580,761;   -0,296;    0,682
570,695;25048,840;   -0,478;   -1,318
571,277;25576,074;   -0,205;   -1,682
571,858;26367,789;    2,704;   -1,136
572,439;27332,701;    0,795;   -1,045
573,021;27524,054;    0,432;   -2,773
573,602;27986,543;    1,795;    0,318
574,183;29009,113;   -0,114;    2,227
574,764;29163,250;    2,068;    0,409
575,345;29720,116;    0,250;   -0,136
575,926;30372,644;    2,704;    0,136
576,507;30402,266;    2,704;   -0,227
577,088;31443,507;    1,704;    1,682
577,669;31455,467;    1,704;    1,955
578,250;32252,204;   -0,750;   -1,045
578,831;32922,774;   -0,841;   -2,227
579,412;33192,534;   -1,205;    0,955
579,993;34151,697;    1,432;    0,227
580,573;34515,097;   -0,023;   -0,955
581,154;33451,412;    1,613;   -0,591
581,735;34350,885;    0,341;    0,773
582,315;33815,885;    0,523;    2,136
582,896;34188,432;   -1,750;    1,227
583,477;33674,809;    0,614;    1,227
584,057;33811,120;    1,159;    0,955
584,638;34044,516;   -2,750;    2,318
585,218;34036,384;    2,886;    2,682
585,799;34145,745;    1,977;   -0,227
586,379;34180,870;    1,250;    1,591
586,959;32955,722;    2,613;    0,318
587,540;32266,393;    0,432;    2,227
588,120;31734,183;   -1,113;   -0,045
588,700;30739,024;    2,977;    2,136
589,281;31026,761;    1,250;   -0,955
589,861;30941,091;   -0,296;   -1,682
590,441;30713,861;   -1,477;   -2,682
591,021;29708,329;    1,432;   -2,591
591,601;29936,781;    0,431;    0,500
592,181;29917,159;   -1,296;   -0,773
592,761;29191,236;    2,250;    1,409
593,341;29071,958;    1,522;    0,045
593,921;29037,020;   -0,569;    1,591
594,501;28902,026;    1,250;    1,318
595,081;28739,407;    0,522;   -0,318
595,661;29089,332;    1,068;    0,955
596,240;29655,994;   -1,023;    0,136
596,820;29216,125;    2,613;    1,955
597,400;29467,715;    1,977;    0,773
597,980;29729,537;   -0,750;    1,045
598,559;29749,974;    0,341;   -0,227
599,139;29423,273;   -0,750;   -1,227
599,718;29313,546;    0,795;   -0,409
600,298;29606,461;   -2,387;    0,682
600,877;29741,186;    4,795;    1,409
601,457;30066,863;    0,340;    1,136
602,036;29945,413;    1,795;    2,045
602,616;30156,896;    2,250;    1,682
603,195;30514,858;    0,431;    3,500
603,774;30046,762;   -0,296;    2,045
604,354;29955,739;    2,522;   -0,500
604,933;29373,768;    0,250;    1,864
605,512;29573,720;    2,340;    0,591
606,091;29594,887;    1,886;    3,773
606,671;30384,199;    0,249;    0,773
607,250;29412,753;    1,431;    3,136
607,829;29676,108;    1,158;    3,227
608,408;29499,847;    4,613;    2,591
608,987;28594,348;    2,704;    3,409
609,566;28909,700;    0,341;   -2,500
610,145;28946,334;    2,885;    0,682
610,723;29392,838;    1,613;    6,864
611,302;28588,491;    1,067;    1,682
611,881;28061,071;    5,158;   11,227
612,460;28883,598;    0,795;    3,955
613,039;29338,270;    1,703;    2,045
613,617;28094,339;    0,886;    4,773
614,196;28238,448;    1,613;    1,227
614,775;28628,957;    1,249;    2,409
615,353;28525,968;   -1,660;    0,864
615,932;28234,859;    0,249;    2,409
616,510;28892,044;    0,158;    0,591
617,089;28345,022;    8,794;   17,591
617,667;28109,136;    4,885;    6,136
618,246;27881,116;   -1,115;    1,318
618,824;28039,465;    1,612;   -0,955
619,402;27616,287;    0,431;   -1,773
619,981;28158,231;    1,067;   -1,045
620,559;28041,887;    0,794;    1,682
621,137;27521,063;    3,067;    1,864
621,715;27465,294;    3,703;   -0,682
622,293;27416,936;    1,885;   -0,773
622,871;27890,431;    0,340;    0,500
623,450;27402,332;    0,430;   -0,864
624,028;27344,369;   -0,388;   -0,955
624,606;26951,899;    2,339;    1,682
625,183;27331,261;   -0,661;   -1,136
625,761;26952,165;    1,885;    1,136
626,339;27270,707;    2,339;    2,591
626,917;27687,711;    0,339;   -0,045
627,495;27705,392;    2,794;    1,318
628,073;27144,540;    5,248;    2,864
628,650;26844,795;    3,067;    2,136
629,228;27291,346;    1,248;    4,409
629,806;26641,258;   -0,024;    1,136
630,383;26891,516;    0,066;   -0,318
630,961;26631,289;   -2,206;   -0,955
631,539;26375,203;   -2,479;    0,227
632,116;25627,199;   12,703;   15,409
632,694;26298,252;    4,885;    6,500
633,271;26604,872;    1,975;    2,682
633,848;26481,660;    1,430;    2,045
634,426;26496,342;    1,521;    1,773
635,003;25640,336;   -0,207;   -0,409
635,580;25917,046;    1,884;    3,682
636,158;26505,863;    3,793;    1,227
636,735;26485,813;    3,339;   -0,500
637,312;26602,741;    0,521;   -0,682
637,889;26728,834;    2,248;   -0,682
638,466;26228,474;    0,066;   -0,409
639,043;26192,562;    1,702;   -1,136
639,620;26470,980;    0,611;   -0,955
640,197;26864,552;    1,612;    1,682
640,774;27002,063;    1,430;    1,136
641,351;27374,119;    0,612;    1,136
641,928;26784,175;    2,794;    1,409
642,505;26415,140;    0,794;   -0,500
643,082;26553,196;    1,885;    1,227
643,658;25517,889;    1,157;    1,500
644,235;26303,854;   -2,479;    2,500
644,812;26554,910;    1,794;    0,773
645,388;26319,148;    1,612;    1,409
645,965;26400,295;    1,521;    1,682
646,542;26469,078;    3,430;   -0,227
647,118;26473,316;    3,703;   -0,955
647,695;26800,827;    0,339;    1,136
648,271;26681,337;   -2,115;    0,500
648,848;26991,302;    0,248;    2,227
649,424;26804,631;    0,976;    1,318
650,000;26569,233;   -0,388;   -1,045
650,577;26421,834;    0,158;   -0,955
651,153;26837,072;   -1,115;    0,955
651,729;27815,583;    0,521;    0,864
652,305;28003,548;    1,339;    2,773
652,881;32551,422;   -1,297;    1,136
653,458;39513,751;    0,249;    0,227
654,034;43504,807;    0,703;    1,591
654,610;45070,954;    0,339;    0,773
655,186;46473,556;    1,612;    3,045
655,762;46213,430;   -1,842;    0,409
656,338;46223,122;    0,703;    0,136
656,913;47281,360;   -0,297;    0,409
657,489;46651,689;    0,249;   -0,318
658,065;46552,654;    0,794;   -1,591
658,641;47149,801;    2,158;   -0,864
659,217;46480,312;    2,067;    0,409
659,792;45893,731;   -1,751;   -0,409
660,368;46222,606;   -0,388;   -0,682
660,944;45943,116;    1,794;    1,227
661,519;41308,718;    0,522;    0,409
662,095;34901,319;   -0,206;    0,591
662,670;30051,012;   -0,206;   -0,136
663,246;28855,795;   -0,660;   -0,409
663,821;28088,397;    0,431;    1,682
664,396;27615,907;    0,613;    1,864
664,972;27906,054;   -0,660;   -0,500
665,547;28232,565;    3,794;    0,136
666,122;28227,257;    1,340;    0,318
666,698;28520,950;    2,431;    0,318
667,273;27790,551;    0,885;    0,136
667,848;28639,971;    0,340;    1,500
668,423;28384,391;    1,795;    2,318
668,998;28943,356;    0,976;   -0,682
669,573;29467,776;    2,067;   -1,500
670,148;29278,832;    1,885;   -0,682
670,723;29189,251;   -0,024;    0,318
671,298;29669,853;   -1,296;    1,045
671,873;29718,091;   -0,296;   -0,136
672,448;29637,238;    1,704;    0,136
673,023;30008,657;    0,249;   -0,227
673,597;30356,895;    2,704;    2,318
674,172;30142,679;    2,431;    0,318
674,747;29646,644;   -0,205;   -1,045
675,321;29468,154;   -0,933;    3,318
675,896;28996,211;    2,158;    1,045
676,471;30006,358;    2,522;    1,591
677,045;29730,504;   -0,296;    0,682
677,620;29745,833;    2,158;    1,136
678,194;30118,344;    0,249;    1,136
678,769;29662,309;    0,886;   -0,318
679,343;29882,365;   -0,023;    1,773
679,917;29696,967;    0,340;    1,955
680,492;29821,659;    0,249;    3,227
681,066;29966,988;    0,613;    0,409
681,640;30007,135;    1,795;   -0,318
682,214;30800,100;    2,340;    0,500
682,788;30309,883;    0,613;   -0,773
683,363;30259,667;    1,977;    1,682
683,937;29985,814;    0,886;   -0,318
684,511;30777,324;   -1,023;   -0,591
685,085;30461,199;   -1,478;    0,318
685,659;30247,618;    1,431;    0,864
686,232;30445,765;    1,159;   -0,318
686,806;30194,276;    2,159;    0,409
687,380;30862,423;   -1,932;    0,591
687,954;31075,752;    2,432;    1,136
688,528;30728,353;    2,613;    1,955
689,101;31514,591;    0,432;    1,045
689,675;31086,829;    0,886;   -0,136
690,249;30402,885;    3,432;    0,409
690,822;30747,577;    1,159;    0,318
691,396;30839,088;    2,068;    1,227
691,969;30264,780;    2,523;    0,136
692,543;30796,200;   -0,568;   -1,955
693,116;30453,711;   -0,659;   -1,409
693,690;30265,949;   -0,296;    0,500
694,263;30835,732;    2,341;    2,955
694,836;30862,788;    2,795;    3,591
695,410;29424,299;    1,159;    1,773
695,983;29896,900;    1,614;    0,591
696,556;29874,411;   -0,750;   -1,045
697,129;30306,921;   -1,114;    1,409
697,703;29906,796;    1,341;    1,955
698,276;29884,397;    1,705;   -0,773
698,849;29677,272;   -1,023;    1,409
699,422;30061,509;    1,250;    0,591
699,995;29778,656;   -0,659;    0,136
700,568;30263,076;   -0,204;    3,045
701,140;30279,678;   -1,841;    1,682
701,713;29959,006;    0,341;    2,409
702,286;29774,608;    0,796;    0,864
702,859;29644,209;    0,614;   -0,591
703,432;28740,993;   -0,841;    0,682
704,004;29317,776;    1,978;    0,318
704,577;29185,378;    1,068;    0,136
705,150;29733,979;    0,887;    2,500
705,722;29535,308;    1,523;   -3,227
706,295;29333,546;    1,432;   -0,591
706,867;29144,329;    0,250;    1,955
707,440;29406,567;   -0,113;   -0,409
708,012;29593,896;   -0,022;    0,591
708,584;29423,861;    2,705;    0,227
709,157;29770,372;    1,160;   -0,591
709,729;29450,882;    1,069;    2,045
710,301;30306,666;   -1,204;    0,045
710,874;30345,176;    0,341;   -0,227
711,446;29221,596;   -0,295;    0,864
712,018;29081,470;   -3,022;    0,500
712,590;28808,617;   -0,204;    1,682
713,162;29337,401;   -0,477;    1,318
713,734;29593,548;    1,796;   -2,045
714,306;29429,695;    0,342;   -0,409
714,878;28093,660;   -0,295;    0,864
715,450;28937,807;   -0,113;    0,864
716,022;29256,226;    2,433;    1,318
716,593;29400,282;    0,978;    0,591
717,165;29326,520;    1,796;   -1,227
717,737;28966,395;    0,796;    0,409
718,309;28688,087;    1,160;   -0,045
718,880;28620,507;   -1,295;   -1,409
719,452;28896,926;    0,887;   -1,591
720,024;28423,073;    1,705;   -0,591
720,595;28956,948;    2,978;    0,955
721,167;28462,004;    1,160;   -2,045
721,738;28051,423;    2,069;   -1,045
722,309;27907,207;    1,251;   -1,227
722,881;27650,717;    2,705;    0,773
723,452;28412,228;    1,251;    2,864
724,023;28597,920;    1,524;    2,682
724,595;28350,704;    2,342;    0,682
725,166;28087,851;    1,524;   -0,409
725,737;27707,543;    1,887;    0,227
726,308;27833,508;    0,797;    0,318
726,879;28215,837;    1,069;    1,227
727,450;28089,711;   -2,022;   -0,045
728,021;28064,131;    1,069;    0,682
728,592;27891,914;    1,160;    0,500
729,163;28235,971;    1,433;   -0,136
729,734;28198,027;    2,160;   -0,227
730,305;28551,628;    0,615;    0,136
730,876;28938,230;    0,888;    2,955
731,447;28623,286;    0,797;    2,682
732,017;28655,796;   -0,840;    1,864
732,588;28180,943;   -0,021;    1,227
733,159;28377,636;    3,615;   -1,045
733,729;28209,328;    1,251;    0,409
734,300;27455,021;    0,160;    0,864
734,870;27894,622;   -1,385;    0,591
735,441;28473,315;    0,888;   -0,591
736,011;28148,280;    1,070;   -1,591
736,582;28148,609;    1,251;    0,045
737,152;27561,119;    0,979;   -2,045
737,722;28050,539;    1,070;   -0,682
738,293;27775,595;   -2,021;    1,318
738,863;27638,651;    1,797;    2,318
739,433;27474,162;    4,524;    0,318
740,003;28106,036;    1,524;   -0,682
740,573;27472,728;    2,252;   -1,591
741,143;27457,239;    3,615;    0,318
741,713;28263,477;    0,252;   -0,500
742,283;27922,351;    1,706;    1,591
742,853;27647,225;    0,524;    1,591
743,423;27178,463;    0,161;    0,045
743,993;27254,337;    1,070;    1,500
744,563;26581,575;    2,524;   -0,864
745,133;26563,722;   -0,112;   -0,864
745,702;27276,778;    2,797;    1,773
746,272;26409,289;    0,434;    0,591
746,842;26203,072;   -0,748;   -0,591
747,411;26607,310;   -0,839;   -0,318
747,981;26860,275;   -0,930;    0,500
748,551;26921,331;   -0,021;   -1,045
749,120;26747,206;   -0,112;   -0,227
749,690;27094,080;    2,161;    2,409
750,259;27430,954;    0,979;    2,955
750,828;27342,738;    4,070;   -1,955
751,398;27586,612;   -0,112;   -0,045
751,967;27058,304;    2,888;    0,409
752,536;27292,997;    1,161;   -0,227
753,105;27730,144;   -1,384;    0,227
753,675;27505,472;   -0,112;    1,773
754,244;27467,165;    0,888;    3,591
754,813;27537,312;    0,979;    1,227
755,382;27132,459;    0,798;    0,955
755,951;27614,788;   -0,112;    3,682
756,520;27169,662;    2,525;    1,864
757,089;27732,900;    1,888;    0,500
757,658;27896,956;    2,434;    1,227
758,227;27868,467;   -1,111;    0,318
758,795;28166,886;   -1,021;    1,136
759,364;28457,215;    0,525;   -0,591
759,933;27443,817;    1,343;   -0,045
760,501;26972,600;    0,252;   -1,318
761,070;27433,929;   -0,293;   -1,409
761,639;28117,439;    1,434;    1,318
762,207;27384,041;    0,889;   -0,955
762,776;27352,915;    2,889;    0,864
763,344;27308,153;    0,071;    0,591
763,913;26439,845;    1,616;    1,409
764,481;27199,447;    1,980;   -0,136
765,049;26981,685;    0,616;    1,409
765,618;26864,741;    1,434;    0,318
766,186;26948,524;    2,434;    0,136
766,754;27117,489;    1,798;    1,864
767,322;26052,636;    1,162;    0,409
767,890;26091,238;    0,525;   -1,773
768,459;26547,567;    2,616;   -0,318
769,027;26684,714;    2,525;    3,409
769,595;25710,224;    2,616;    2,591
770,163;26056,735;    3,344;    2,955
770,730;25818,973;    2,525;   -0,136
771,298;25642,211;    1,162;   -1,409
771,866;25755,539;    0,253;    4,955
772,434;26099,232;    1,162;   -1,864
773,002;26289,833;    2,616;    0,682
773,569;25914,253;    1,071;    1,682
774,137;25693,036;    0,889;   -0,045
774,705;26519,820;   -0,747;   -0,136
775,272;26026,149;    0,253;    0,682
775,840;25812,750;   -0,111;    2,682
776,407;25258,715;   -0,293;    1,955
776,975;24828,408;    1,162;    0,318
777,542;25906,737;    2,162;   -0,045
778,110;25764,702;    0,707;   -0,045
778,677;25365,303;    1,071;   -0,864
779,244;25116,450;   -1,020;    1,045
779,812;25279,234;    0,980;    0,864
780,379;25086,108;    2,435;    1,136
780,946;25381,255;    2,617;   -0,773
781,513;25628,493;   -0,565;    0,318
782,080;24948,549;    1,253;    2,864
782,647;25737,787;    1,708;    3,045
783,214;25338,115;   -0,201;    3,864
783,781;24959,444;    1,708;   -0,682
784,348;24897,046;    0,253;    1,500
784,915;25278,647;   -1,474;    0,318
785,482;25057,976;    2,708;    2,591
786,049;25522,487;    1,071;   -0,591
786,615;25624,361;    1,708;   -0,955
787,182;25404,144;   -3,201;   -0,682
787,749;25049,928;   -2,201;    1,409
788,315;24341,347;    0,253;   -0,409
788,882;24653,312;    0,981;   -1,227
789,448;25312,914;    1,435;   -0,955
790,015;25365,334;    1,799;    3,227
790,581;24947,663;    0,708;    0,227
791,148;24808,991;    1,344;    1,045
791,714;24979,775;   -1,019;    3,136
792,280;24689,649;    3,708;    1,591
792,847;24225,523;   -0,928;    2,500
793,413;24810,216;   -0,110;   -0,318
793,979;24364,635;    1,526;   -1,318
794,545;24429,146;    2,981;    2,682
795,111;23863,929;    2,435;    1,318
795,678;23959,804;    3,526;   -1,682
796,244;23611,223;    2,799;    0,136
796,810;24196,279;    0,799;    0,773
797,375;23930,426;   -0,292;   -2,136
797,941;23894,210;   -1,110;    0,591
798,507;24038,357;    0,254;   -0,955
799,073;23623,958;    2,708;    0,591
799,639;23724,287;    1,435;    3,136
800,205;23698,888;   -1,565;    2,682
800,770;23259,763;    1,345;    1,773
801,336;23281,455;    2,981;   -0,955
801,901;23014,875;    6,072;    3,136
802,467;23593,385;    0,526;    2,045
803,033;22875,623;   -0,019;    0,864
803,598;23117,043;    1,072;   -1,045
804,163;23130,463;    0,708;   -0,318
804,729;23104,792;   -0,110;    1,136
805,294;23473,939;    1,072;    2,227
805,859;23256,358;    0,890;   -0,409
806,425;22717,142;    3,890;    2,682
806,990;22381,289;    1,890;    4,318
807,555;22909,163;   -0,110;    2,591
808,120;22825,219;   -1,292;   -0,409
808,685;22873,184;    1,072;   -2,500
809,250;22361,331;    2,072;   -0,500
809,815;22712,751;   -0,201;    0,682
810,380;23221,352;    0,981;    1,591
810,945;23683,227;    2,890;    2,045
811,510;22896,646;   -0,200;    1,591
812,075;22603,339;    2,800;   -1,409
812,640;22606,486;    3,709;    1,409
813,204;22673,087;    2,163;   -0,227
813,769;23169,871;    0,254;   -0,045
814,334;22543,199;    0,527;    0,864
814,898;22592,346;    1,981;    0,591
815,463;22440,948;    0,981;   -0,773
816,027;22407,640;    1,345;   -2,318
816,592;22533,151;    2,163;   -2,045
817,156;22007,571;   -2,200;    1,136
817,721;21842,081;    0,982;    2,318
818,285;21822,319;    0,618;    1,500
818,849;22521,102;   -0,018;    1,682
819,414;22368,795;    0,073;    2,955
819,978;21901,578;   -0,291;    1,773
820,542;22543,362;    2,891;    0,500
821,106;22262,509;    2,800;    0,682
821,670;22364,746;    2,709;    2,591
822,234;22053,348;    1,073;    1,409
822,798;21414,131;   -0,836;    0,500
823,362;21423,551;    1,527;    4,227
823,926;20744,425;   -0,018;    1,136
824,490;20939,027;    3,527;   -0,682
825,054;21446,992;    2,527;   -1,136
825,618;21029,503;   -1,200;   -1,500
826,181;20982,468;    0,982;   -1,318
826,745;20835,615;   -0,745;   -1,045
827,309;21174,762;    2,255;    1,318
827,872;20584,818;    0,527;    0,955
828,436;21585,783;    1,982;   -0,773
828,999;21668,930;    2,436;    1,227
829,563;20515,804;   -0,654;    1,136
830,126;20329,315;   -0,018;   -0,591
830,690;20318,189;    0,709;    2,864
831,253;19811,700;   -0,473;    2,227
831,816;19947,756;   -0,018;    0,500
832,380;19862,539;    1,164;    0,864
832,943;20062,413;    3,073;   -0,500
833,506;19579,197;    0,255;   -1,227
834,069;20370,344;    2,164;   -0,955
834,632;20435,309;   -2,200;    1,318
835,195;20353,456;    1,346;    0,955
835,758;19535,966;    0,709;    1,955
836,321;19348,386;    1,073;   -1,045
836,884;19428,897;   -1,291;   -0,955
837,447;19484,680;    0,528;    1,773
838,010;19737,918;    1,800;    3,227
838,573;20061,519;    0,528;    0,773
839,135;20027,939;   -0,109;   -0,955
839,698;19451,177;    2,528;    0,409
840,261;18993,506;    0,255;   -0,227
840,823;18827,107;   -0,927;    0,864
841,386;19122,709;   -0,018;   -2,409
841,948;18983,492;    0,255;    1,773
842,511;18757,185;    0,255;    1,682
843,073;18876,604;    2,982;    0,227
843,636;18657,388;    0,619;   -0,227
844,198;18552,535;    1,255;    0,591
844,760;18720,863;    0,619;    1,955
845,322;18330,738;    0,164;    1,136
845,885;18782,612;   -0,290;    0,591
846,447;19242,214;    0,710;    0,227
847,009;18759,542;    3,983;   -0,682
847,571;19102,053;    1,346;   -2,045
848,133;19217,745;   -0,199;   -1,864
848,695;19064,983;    2,346;    1,409
849,257;18579,312;    1,346;   -1,682
849,819;18749,004;    2,983;   -0,409
850,381;18807,879;    1,801;   -0,864
850,942;19198,389;    1,892;   -0,591
851,504;19078,536;    0,983;    0,227
852,066;19108,411;    1,619;   -1,591
852,628;18665,467;    0,165;    1,955
853,189;18205,159;    0,256;    2,682
853,751;18337,942;   -0,654;    1,409
854,312;18135,817;    1,256;   -1,682
854,874;18652,327;   -0,108;   -0,773
855,435;19132,929;    0,528;   -1,682
855,997;19272,803;    3,983;   -0,136
856,558;18558,677;    0,801;    1,773
857,119;18694,552;   -0,744;    2,864
857,681;18359,244;   -0,108;    0,318
858,242;18376,846;    1,347;   -2,136
858,803;18843,993;    1,074;   -0,773
859,364;19436,049;    0,892;   -4,773
859,925;18783,014;   -0,290;   -0,955
860,486;18650,979;    0,529;   -0,955
861,047;18387,399;    0,165;   -1,227
861,608;18165,455;    0,165;   -0,773
862,169;18329,783;   -0,562;   -0,045
862,730;18115,567;   -0,290;    1,409
863,291;18329,532;    0,438;   -0,500
863,852;18661,224;   -0,926;    1,955
864,412;18148,917;   -1,835;   -0,864
864,973;16721,700;    1,892;    0,500
865,534;16573,756;    2,074;    0,227
866,094;18072,449;    2,620;    0,227
866,655;17739,596;    4,711;    3,318
867,215;18051,924;    0,074;    0,136
867,776;17894,435;   -1,199;   -0,136
868,336;17963,037;    1,529;    0,136
868,897;17439,547;    3,438;    1,682
869,457;17217,967;    3,256;    0,318
870,017;17441,750;    2,438;   -1,227
870,578;17947,534;    1,893;    0,773
871,138;17610,681;    2,620;   -0,955
871,698;17101,828;   -0,562;   -1,318
872,258;16966,611;    0,711;   -2,864
872,818;17372,212;    2,347;    0,045
873,378;17321,087;   -2,198;    1,045
873,938;16886,870;    4,984;    0,500
874,498;17188,744;    1,256;   -1,955
875,058;17103,528;    4,347;    1,773
875,618;16952,493;    1,438;   -2,682
876,177;16910,094;   -0,471;    0,136
876,737;16461,059;   -0,289;    1,955
877,297;16468,025;    2,711;    1,955
877,856;16475,263;    2,529;    0,318
878,416;16388,228;    2,438;   -0,136
878,976;16660,557;    3,438;    0,409
879,535;16839,885;    4,529;    3,136
880,095;16554,305;    1,347;    0,045
880,654;16664,725;    0,347;    1,318
881,213;16762,599;    2,347;    1,500
881,773;16419,746;    1,984;    2,682
882,332;16770,347;    6,075;    5,136
882,891;16625,222;    0,711;    2,136
883,451;17058,369;   -2,016;    1,682
884,010;16579,879;   -1,107;   -0,409
884,569;16619,572;   -2,289;   -0,045
885,128;16792,991;   -0,743;   -1,864
885,687;16820,320;   -0,743;    0,682
886,246;16526,467;    2,620;    2,136
886,805;16260,705;    1,620;    2,045
887,364;16614,852;    1,166;   -0,500
887,922;16949,181;   -0,016;    0,045
888,481;16421,510;    1,530;    0,591
889,040;16800,475;    3,711;    2,136
889,599;17457,440;    2,166;    1,409
890,157;17507,405;    2,166;    2,409
890,716;17204,189;    2,166;    0,227
891,274;16969,336;    0,075;   -1,136
891,833;17333,028;    1,166;    0,864
892,391;17243,720;    1,802;    0,500
892,950;17351,867;    0,166;   -0,773
893,508;17688,469;    0,984;   -0,409
894,067;17061,616;   -0,379;    0,136
894,625;16949,399;   -1,016;   -1,500
895,183;17166,092;   -0,198;   -0,682
895,741;17093,511;    2,257;   -1,773
896,299;16925,658;    1,621;   -2,409
896,858;17078,169;    1,530;   -1,591
897,416;17194,589;    0,166;   -1,318
897,974;16960,827;   -2,197;    0,318
898,532;17114,246;    6,530;    2,682
899,089;16987,393;    0,621;   -0,682
899,647;17071,449;    0,530;    1,318
900,205;16811,596;    0,257;    1,045
900,763;17007,652;    2,166;    0,227
901,321;16976,618;    3,530;   -1,409
901,878;16438,128;    3,257;   -0,773
902,436;16263,548;    0,257;    1,318
902,994;16678,968;    6,712;    3,682
903,551;16108,387;    1,439;    0,409
904,109;16514,807;    1,530;   -1,409
904,666;16103,318;    1,439;    1,045
905,224;15888,919;    3,894;   -0,409
905,781;15637,521;   -0,470;   -0,318
906,338;15739,304;    0,167;    1,045
906,895;15663,905;    1,894;    2,045
907,453;15583,416;    2,348;    1,136
908,010;15577,927;    3,348;    0,409
908,567;15212,256;   -0,561;    0,591
909,124;14745,766;    2,439;   -1,500
909,681;14822,459;   -1,288;    0,682
910,238;14962,242;   -0,106;   -1,318
910,795;15301,753;   -1,561;   -1,136
911,352;14966,207;   -0,379;   -2,682
911,909;14377,480;    2,803;   -0,864
912,466;14864,116;    1,985;    1,500
913,022;14382,571;   -0,924;    0,500
913,579;14734,934;   -0,470;    2,045
914,136;14411,662;   -2,561;    0,955
914,692;14799,116;    1,530;   -1,227
915,249;14362,753;    0,530;    0,409
915,806;14599,025;    1,803;    1,955
916,362;14339,753;    0,894;    1,864
916,918;13873,116;    2,439;    1,045
917,475;13889,389;    1,621;    0,955
918,031;13990,753;    0,076;   -0,045
918,587;13441,116;    0,621;   -0,318
919,144;13687,662;   -0,379;    0,227
919,700;13983,753;    0,167;    0,773
920,256;13554,025;    0,439;    0,045
920,812;13148,025;    1,439;   -1,045
921,368;13128,843;    1,348;   -1,045
921,924;12796,025;    0,439;   -0,136
922,480;12377,843;    0,076;    1,227
923,036;13002,298;   -0,652;    1,955
923,592;12959,207;    0,621;    0,318
924,148;12866,843;    1,894;   -0,955
924,704;12191,571;    0,258;   -0,409
925,259;12474,025;   -0,561;    0,591
925,815;12200,298;    3,803;    0,500
926,371;11773,207;    3,530;    1,409
926,926;11644,116;    1,621;    0,591
927,482;11231,934;    1,621;    0,773
928,037;11126,934;   -0,833;    2,045
928,593;11423,116;    0,258;    1,045
929,148;11244,753;    1,167;   -1,500
929,704;10791,389;    2,439;   -0,500
930,259;10974,480;    0,894;   -0,136
930,814;10057,753;    1,803;    1,955
931,369; 9710,662;    0,258;   -0,773
931,925; 9612,389;   -1,924;    0,136
932,480; 9506,753;    3,076;   -2,591
933,035; 9403,753;    3,985;   -0,318
933,590; 9162,934;   -1,742;   -1,773
934,145; 8833,025;   -1,288;   -0,318
934,700; 9209,662;    0,348;   -0,591
935,255; 8983,480;    4,803;    0,045
935,809; 8241,480;    6,258;    0,864
936,364; 7405,571;    2,167;   -0,136
936,919; 7381,025;    2,348;   -1,773
937,474; 7275,571;    1,348;    0,136
938,028; 7046,843;    3,076;    1,136
938,583; 6485,025;    6,348;    4,682
939,138; 6802,843;    0,167;    2,136
939,692; 6279,025;   -1,015;   -1,136
940,247; 5919,662;    1,167;   -1,045
940,801; 5499,389;    0,621;    0,227
941,355; 5401,843;    0,439;    2,591
941,910; 5093,207;    0,712;   -2,136
942,464; 5193,843;    2,712;   -0,318
943,018; 4966,662;    3,258;   -0,227
943,572; 4898,571;    2,803;   -0,682
944,126; 4294,753;   -0,924;   -0,409
944,681; 4196,025;    0,712;    0,227
945,235; 4196,207;    2,167;   -0,591
945,789; 4126,571;    1,258;   -1,864
946,342; 4222,843;   -0,561;   -0,591
946,896; 4035,298;    0,348;    0,955
947,450; 3803,480;   -0,561;   -0,227
948,004; 3968,116;    1,076;   -0,045
948,558; 4003,389;    1,258;   -0,864
949,111; 3914,025;   -1,197;   -0,318
949,665; 3947,298;   -0,106;   -0,682
950,219; 3807,389;    0,621;   -1,045
950,772; 3899,480;    0,258;    1,864
951,326; 3826,298;   -1,106;   -0,955
951,879; 3913,753;    1,076;   -2,318
952,433; 3929,389;    1,348;    2,227
952,986; 3773,753;    0,348;    0,682
953,539; 3709,207;    1,530;    0,591
954,093; 3650,480;    0,985;   -1,318
954,646; 3779,753;   -0,288;    1,318
955,199; 3594,934;    1,258;   -0,500
955,752; 3483,662;    1,985;    1,773
956,305; 3426,116;    0,894;    2,955
956,858; 3598,843;    0,621;   -0,318
957,411; 3793,025;    3,621;    2,136
957,964; 3603,934;    2,076;    2,136
958,517; 3609,662;    0,985;    3,136
959,070; 3423,571;   -1,197;    1,955
959,623; 3494,116;    1,076;    1,500
960,176; 3283,025;    0,712;    2,045
960,728; 3254,025;    1,712;    0,773
961,281; 3285,116;    2,258;    0,500
961,834; 3321,025;   -0,833;    0,864
962,386; 3273,298;    1,258;    1,045
962,939; 3191,571;    3,439;   -0,318
963,491; 3315,207;    2,621;    1,136
964,043; 3201,662;    0,076;    2,409
964,596; 3335,753;    1,712;    2,227
965,148; 3174,116;   -0,379;    1,773
965,700; 3106,207;   -0,015;   -0,227
966,253; 3266,934;   -0,833;    0,318
966,805; 3080,116;    1,894;    0,773
967,357; 3134,025;    0,439;   -1,500
967,909; 3089,389;    1,167;   -1,227
968,461; 3207,116;    0,894;    3,136
969,013; 3122,843;   -1,561;   -0,864
969,565; 3188,934;    1,803;   -1,136
970,117; 3263,753;    3,803;    1,045
970,669; 3093,025;    3,258;   -0,136
971,220; 2962,843;    2,167;   -1,500
971,772; 2894,843;    1,348;   -0,318
972,324; 2997,934;   -1,197;   -0,500
972,876; 2963,662;    0,167;   -0,045
973,427; 3076,480;   -1,197;   -1,045
973,979; 3050,753;    0,076;   -2,500
974,530; 3087,934;    0,803;    1,318
975,082; 3106,843;    2,167;    1,682
975,633; 2991,116;    2,894;    1,682
976,184; 3147,571;    2,076;    0,773
976,736; 2945,571;    0,348;    0,227
977,287; 2733,207;    0,258;   -0,500
977,838; 2918,389;   -0,924;   -0,318
978,389; 2969,389;    0,803;   -0,500
978,940; 2841,753;    1,258;   -0,409
979,491; 2869,298;    2,258;   -0,500
980,042; 2810,025;   -0,652;    3,045
980,593; 2896,571;    1,894;    0,227
981,144; 2944,207;    3,530;   -0,500
981,695; 2921,934;   -0,470;    1,500
982,246; 2862,480;   -1,833;    1,045
982,797; 3018,298;   -0,561;    0,682
983,347; 3148,934;    2,167;    0,591
983,898; 3283,662;    4,167;    0,409
984,449; 3105,298;    2,530;    0,773
984,999; 3025,662;    1,894;   -1,136
985,550; 2793,298;    3,167;   -0,318
986,100; 2847,571;    0,712;   -0,318
986,651; 2867,116;    0,258;    0,045
987,201; 2839,571;    0,894;   -0,591
987,751; 2928,571;   -0,288;    2,864
988,302; 2923,753;   -0,379;    1,500
988,852; 2941,298;    1,985;   -1,136
989,402; 2989,207;    0,985;    0,682
989,952; 2891,480;    1,621;    0,864
990,502; 2988,389;    1,076;    0,682
991,052; 2966,662;   -0,106;    0,045
991,602; 2827,753;    1,167;    1,318
992,152; 2807,480;    2,803;    0,682
992,702; 2792,389;    1,167;   -0,045
993,252; 2738,207;    0,076;   -0,500
993,802; 2817,843;    1,167;    1,318
994,352; 3067,389;   -0,742;    1,136
994,901; 3151,389;    1,076;    3,227
995,451; 3059,025;   -1,197;    0,318
996,000; 3139,571;    1,076;    0,318
996,550; 2846,753;    2,894;    0,227
997,100; 2862,389;   -0,561;   -0,045
997,649; 3144,843;   -0,197;    0,955
998,198; 2780,934;   -0,288;   -1,500
998,748; 2950,480;    0,348;   -2,318
999,297; 2888,662;    0,985;   -0,409
999,846; 2945,207;    1,894;   -0,773
1000,395; 3006,843;    1,530;    0,500
1000,945; 2939,116;    1,076;   -0,773
1001,494; 3016,116;    0,167;    0,682
1002,043; 3004,207;    0,712;    0,864
1002,592; 2851,662;    3,439;    1,955
1003,141; 2994,116;    2,439;   -0,682
1003,690; 2835,116;    1,258;    0,500
1004,238; 2904,389;   -0,106;   -0,045
1004,787; 2542,207;   -1,288;    1,227
1005,336; 2778,480;    1,621;    0,682
1005,885; 2930,207;   -0,197;   -2,773
1006,433; 3081,934;   -0,470;    0,955
1006,982; 3146,753;    2,167;    1,682
1007,531; 3062,843;    2,712;   -0,227
1008,079; 3001,389;    0,258;    0,500
1008,627; 3168,207;    1,621;    0,409
1009,176; 2873,298;    0,076;   -1,955
1009,724; 2938,934;   -2,742;    0,864
1010,273; 2977,389;    1,076;    0,500
1010,821; 3095,753;    1,076;    1,409
1011,369; 2840,207;    0,076;    1,318
1011,917; 2816,753;   -0,833;   -0,591
1012,465; 3113,662;    2,530;   -1,591
1013,013; 3214,753;    0,439;   -1,682
1013,561; 3084,934;   -1,288;   -0,773
1014,109; 3115,571;   -0,833;    1,682
1014,657; 2995,753;    1,348;    0,591
1015,205; 3124,207;    0,894;   -0,955
1015,753; 3167,298;    0,258;   -1,409
1016,301; 3200,025;    2,621;    3,045
1016,848; 3208,662;    2,167;    0,409
1017,396; 3224,207;    1,621;    0,045
1017,944; 3348,298;    2,621;    1,864
1018,491; 3098,753;   -0,197;    1,409
1019,039; 3274,389;   -0,652;    0,591
1019,586; 3183,389;    0,076;    1,682
1020,134; 3284,389;    0,712;    1,500
1020,681; 3280,025;    2,894;   -1,136
1021,228; 3313,389;   -0,561;   -2,227
1021,776; 3163,025;   -0,833;   -1,136
1022,323; 3373,025;    0,803;    0,773
1022,870; 3304,116;   -0,470;   -0,045
1023,417; 3205,753;    2,076;    1,864
1023,964; 3343,934;    0,621;    1,227
1024,511; 3191,662;   -0,652;    0,773
1025,058; 2976,389;    0,439;   -0,045
1025,605; 3045,843;   -1,742;    3,136
1026,152; 3233,298;   -0,106;   -0,591
1026,699; 2968,389;    0,167;    1,318
1027,245; 3143,571;    2,439;    0,318
1027,792; 3380,753;    0,712;    1,409
1028,339; 3243,934;    4,076;   -0,045
1028,885; 3087,025;    3,621;   -0,227
1029,432; 3025,753;   -0,106;    0,227
1029,978; 3076,662;    1,348;   -1,591
1030,525; 2970,116;    1,621;    0,409
1031,071; 3243,207;    0,348;    1,136
1031,618; 3334,389;    1,258;    1,682
1032,164; 3116,298;    2,076;    3,045
1032,710; 3150,934;    0,076;   -1,500
1033,256; 3101,843;    0,712;   -0,136
1033,803; 3062,025;   -0,288;    1,500
1034,349; 2819,753;    1,803;    0,136
1034,895; 2971,843;    2,621;   -0,318
1035,441; 2938,207;    0,439;    0,318
1035,987; 2949,389;   -2,288;   -0,682
1036,533; 2943,116;   -0,197;   -0,955
1037,078; 3147,934;    4,712;    1,682
1037,624; 2984,207;    2,439;   -0,955
1038,170; 3001,389;    1,712;   -0,318
1038,716; 2893,480;    2,167;   -0,409
1039,261; 2820,843;    2,167;   -0,773
1039,807; 2752,753;   -0,015;    3,409
1040,352; 2818,116;   -1,288;   -0,318
1040,898; 2866,571;    0,167;   -0,682
1041,443; 2768,662;    0,803;   -2,591
1041,989; 2804,480;    3,621;    1,591
1042,534; 2676,025;    0,985;    2,591
1043,079; 2800,662;    1,985;    0,955
1043,625; 2569,753;    0,258;    0,500
1044,170; 2623,843;    2,439;    1,045
1044,715; 2887,389;    0,167;    0,955
1045,260; 2698,207;   -0,833;   -0,955
1045,805; 2752,298;    0,258;   -0,591
1046,350; 2701,207;    0,530;   -0,409
1046,895; 2664,662;    0,803;    1,591
1047,440; 2612,298;    1,530;    0,409
1047,985; 2502,480;   -1,197;   -0,955
1048,530; 2411,116;    1,348;    1,227
1049,074; 2467,207;    2,803;    0,318
1049,619; 2447,298;   -0,924;    1,955
1050,164; 2256,298;    1,076;    0,227
1050,708; 2317,843;    2,621;    0,045
1051,253; 2684,753;    3,258;   -2,227
1051,797; 2397,934;   -0,197;   -1,318
1052,342; 2411,025;    1,348;    1,045
1052,886; 2394,389;    1,803;   -1,409
1053,430; 2274,207;    2,167;    0,136
1053,975; 2279,934;    0,894;   -0,318
1054,519; 2281,934;    1,803;    3,227
1055,063; 2283,116;    3,621;    1,318
1055,607; 2173,025;    1,348;    0,227
1056,151; 2212,480;    0,530;    1,682
1056,695; 2120,025;   -1,833;   -1,136
1057,239; 2185,753;   -1,197;   -0,682
1057,783; 2183,116;    2,258;   -1,500
1058,327; 2136,480;    3,076;    1,409
1058,871; 2350,025;    3,985;    1,318
1059,415; 2051,389;   -0,561;   -0,045
1059,958; 2317,207;    2,985;    2,591
1060,502; 2058,116;    1,348;   -0,773
1061,046; 1966,662;    1,712;   -0,955
1061,589; 1932,843;    2,803;   -1,136
1062,133; 1821,025;    0,985;    1,864
1062,676; 1760,662;    1,439;    0,864
1063,220; 1753,662;    0,985;    0,500
1063,763; 1783,934;    2,985;    1,136
1064,306; 1848,116;    0,985;    1,864
1064,849; 1738,298;    2,076;    0,591
1065,393; 1754,934;    2,894;   -1,500
1065,936; 1858,116;    2,530;   -0,409
1066,479; 1759,298;    2,621;    1,318
1067,022; 1787,207;    1,894;   -0,227
1067,565; 1680,116;   -1,197;   -1,318
1068,108; 1708,298;    1,258;   -0,591
1068,651; 1689,662;   -2,470;    1,409
1069,194; 1624,025;   -1,106;   -1,682
1069,736; 1604,389;    3,803;    0,955
1070,279; 1582,571;   -1,652;   -0,500
1070,822; 1636,662;    1,530;   -0,318
1071,364; 1697,389;    0,530;    1,318
1071,907; 1531,298;    0,348;    3,227
1072,450; 1447,662;    0,258;   -0,045
1072,992; 1441,662;   -0,561;    3,136
1073,535; 1572,571;    0,167;    2,136
1074,077; 1381,571;    2,985;    2,045
1074,619; 1349,116;    0,985;    0,591
1075,161; 1370,207;   -0,561;    1,500
1075,704; 1557,298;    0,258;    1,227
1076,246; 1365,662;    1,530;    0,682
1076,788; 1287,025;   -1,015;    1,773
1077,330; 1370,934;   -2,106;    2,136
1077,872; 1329,116;   -1,924;    0,955
1078,414; 1544,298;    3,712;    0,773
1078,956; 1272,934;    0,167;   -0,227
1079,498; 1524,389;    0,439;    0,318
1080,040; 1225,298;    0,985;   -1,318
1080,581; 1196,025;    0,621;   -0,318
1081,123; 1133,116;   -0,106;   -0,773
1081,665; 1177,389;    3,803;   -0,955
1082,206; 1455,116;    3,258;   -0,500
1082,748; 1319,843;    3,258;    2,045
1083,289; 1204,843;    0,167;    1,318
1083,831; 1113,207;    0,258;    0,227
1084,372; 1139,389;    0,894;    0,591
1084,913; 1137,116;    3,348;    0,864
1085,455; 1120,207;    1,530;   -2,045
1085,996; 1090,934;    0,530;    0,136
1086,537; 1115,571;    0,985;    0,864
1087,078; 1149,662;    0,439;   -2,136
1087,619; 1174,116;   -1,652;    0,227
1088,160; 1090,753;    1,439;    1,318
1088,701; 1086,389;   -0,742;    0,682
1089,242; 1023,753;   -0,561;   -2,227
1089,783; 1112,389;   -0,561;    1,409
1090,324; 1086,207;   -0,833;    0,682
1090,865;  965,116;   -1,924;   -0,409
1091,405;  958,207;   -0,561;    2,227
1091,946;  978,298;   -0,197;   -0,955
1092,487;  905,843;   -1,288;   -1,409
1093,027; 1057,480;    1,803;   -1,500
1093,568;  916,662;    2,258;    1,227
1094,108;  986,843;    0,621;    1,773
1094,649;  944,025;   -0,470;    0,136
1095,189;  882,753;    1,167;   -0,682
1095,729;  823,207;    0,712;    0,955
1096,269;  850,298;    1,258;   -0,955
1096,810; 1148,843;   -0,197;    0,500
1097,350;  968,389;   -0,561;   -0,773
1097,890;  881,207;    2,985;    1,227
1098,430; 1120,843;    4,985;    2,864
1098,970; 1012,753;    1,894;    1,682
1099,510;  879,298;   -0,833;   -2,318
1100,050;  804,389;    0,258;   -1,591
1100,589;  770,843;    0,076;   -0,318
1101,129;  879,207;    0,894;   -0,955
1101,669; 1021,116;    2,803;    2,136
1102,209;  854,389;    1,530;    2,227
1102,748;  812,843;    3,439;    0,955
1103,288;  804,843;    0,712;   -1,227
1103,827;  829,934;    3,530;   -2,227
1104,367;  721,843;    1,712;   -2,409
1104,906;  678,571;   -1,015;   -1,136
1105,445;  750,480;    0,985;   -1,136
1105,985;  692,662;   -0,652;    1,500
1106,524;  738,662;    1,530;   -0,682
1107,063;  707,389;    1,167;    1,409
1107,602;  689,389;    1,894;   -1,500
1108,141;  606,753;    1,621;    1,500
1108,680;  690,025;    3,985;   -0,591
1109,219;  646,298;    0,167;   -0,500
1109,758;  650,662;    4,167;    0,682
1110,297;  624,207;   -1,106;   -0,682
1110,836;  574,389;    1,439;    0,955
1111,375;  714,025;    0,348;    0,409
1111,913;  737,207;    0,985;    0,773
1112,452;  680,480;    0,894;    0,136
1112,991;  571,025;    1,076;    1,955
1113,529;  536,480;    0,167;   -0,045
1114,068;  597,662;    0,439;    2,955
1114,606;  502,025;   -0,561;   -0,955
1115,144;  646,389;    1,530;    1,045
1115,683;  587,753;    1,985;    0,318
1116,221;  635,389;    2,076;   -0,864
1116,759;  551,662;    1,621;   -0,864
1117,297;  730,934;    1,621;    1,864
1117,836;  553,207;    1,985;   -1,227
1118,374;  555,298;    0,258;   -0,682
1118,912;  508,753;    0,439;    2,682
1119,450;  494,298;    0,985;    0,864
1119,988;  543,571;    3,348;    2,136
1120,525;  982,934;    7,258;    3,318
1121,063;  683,753;    0,530;    1,864
1121,601;  496,116;    1,076;   -1,227
1122,139;  461,116;    1,076;   -2,045
1122,676;  645,207;   -1,652;    2,773
1123,214;  585,025;    0,712;    4,409
1123,751;  410,662;    0,621;    2,227
1124,289;  521,298;    0,894;   -0,409
1124,826;  404,207;   -0,379;    0,227
1125,364;  341,025;    0,712;   -0,955
1125,901;  511,571;    6,258;    1,227
1126,438;  599,025;    3,530;    0,955
1126,975;  355,207;    2,985;   -0,773
1127,513;  412,116;    2,621;    2,136
1128,050;  336,025;   -0,561;   -0,682
1128,587;  422,934;    1,348;   -0,227
1129,124;  466,389;   -0,015;    1,318
1129,661;  344,207;   -1,924;    0,227
1130,198;  499,298;    2,439;    0,773
1130,734;  448,571;   -0,379;    1,409
1131,271;  315,934;   -1,197;    0,864
1131,808;  476,571;    1,621;    3,045
1132,345;  354,662;    4,530;    0,318
1132,881;  241,116;   -0,561;   -1,864
1133,418;  355,571;    0,348;   -1,136
1133,954;  306,025;    0,712;   -2,682
1134,491;  370,843;    1,712;   -0,773
1135,027;  281,389;    2,167;    0,864
1135,564;  363,662;    1,439;    2,955
1136,100;  335,480;   -0,742;    2,136
1136,636;  238,662;   -1,015;   -1,045
1137,172;  324,662;    0,894;   -1,045
1137,708;  257,843;   -1,561;   -1,045
1138,245;  261,298;    0,803;   -1,227
1138,781;  222,934;    1,803;   -3,318
1139,317;  278,298;    1,894;   -1,409
1139,852;  270,480;    3,076;    0,136
1140,388;  373,207;    2,076;   -0,409
1140,924;  270,298;    1,076;   -2,227
1141,460;  213,025;   -0,288;    0,136
1141,996;  158,116;   -0,652;    2,682
1142,531;  189,389;    1,076;    3,318
1143,067;  391,025;    1,167;    1,045
1143,602;  446,843;    3,439;   -0,318
1144,138;  302,934;    0,803;    1,045
1144,673;  181,753;    1,621;    1,409
1145,209;  243,389;    2,894;   -0,318
1145,744;  165,662;    0,803;    0,864
1146,279;  282,389;    1,530;   -0,136
1146,815;  215,116;    1,530;   -2,682
1147,350;  249,843;   -0,924;    0,045
1147,885;  163,571;   -1,924;   -1,318
1148,420;  167,662;    2,439;    0,773
1148,955;  158,571;   -1,470;    1,864
1149,490;  181,025;   -1,106;   -1,591
1150,025;  154,934;   -1,106;   -1,773
1150,560;  261,025;   -0,288;   -0,955
1151,094;  231,207;    0,258;   -0,591
1151,629;  232,753;   -3,742;    0,864
1152,164;  165,843;   -1,288;    1,318
1152,698;  129,389;    1,258;   -0,136
1153,233;   91,480;   -1,379;   -0,682
1153,767;  129,025;   -0,288;   -2,318
1154,302;  177,662;   -0,379;    1,773
1154,836;  174,934;    0,803;   -2,136
1155,371;  220,480;    2,258;    3,682
1155,905;  182,025;    1,985;    1,682
1156,439;  161,298;    0,530;   -0,500
1156,973;  187,207;    0,439;    0,318
1157,507;  121,025;   -1,742;    0,682
1158,042;  148,480;   -0,652;    1,045
1158,576;  184,116;   -0,561;    1,773
1159,110;  176,571;    0,076;    2,409
1159,643;  154,389;   -2,470;   -0,045
1160,177;  105,934;   -2,015;    1,500

