
Integration time [ms]:   0,040
Averaging Nr. [scans]: 11
Smoothing Nr. [pixels]: 0
Data measured with spectrometer [name]: 7318044SP
Wave   ;Sample   ;Dark     ;Reference
[nm]   ;[counts] ;[counts] ;[counts] 

186,757;   34,231;   38,161;    1,318
187,357;   60,188;   26,706;    0,955
187,958;   42,535;   17,252;   -1,591
188,558;   77,183;   12,979;   -1,227
189,159;   48,579;   10,070;   -4,500
189,759;   25,395;    5,797;   -3,591
190,360;   26,279;    6,797;   -2,136
190,960;   51,591;    5,706;   -4,136
191,560;   59,045;    2,614;   -6,591
192,161;  278,553;    5,885;   -3,500
192,761;  144,693;    5,520;   -3,227
193,361;   93,935;    3,065;   -3,773
193,962;  147,275;    1,612;   -2,682
194,562;   76,444;   -0,114;   -3,955
195,162;  105,766;   -0,567;   -2,227
195,762;  256,727;    2,433;   -0,045
196,362;  207,564;    1,706;   -2,500
196,963;   86,047;    1,706;   -0,864
197,563;  150,071;    1,252;   -0,955
198,163;   99,447;   -0,111;   -0,682
198,763;  115,647;   -0,020;   -0,500
199,363;  222,833;    3,616;   -0,500
199,963;  183,431;    2,162;    0,409
200,563;  156,271;    6,344;   -1,409
201,163;  134,138;    5,435;   -0,227
201,763;  220,789;    1,435;    0,318
202,363;  157,394;    0,980;    1,500
202,963;  252,922;    1,526;    1,045
203,563;  362,813;    0,344;    0,500
204,162;  215,547;    1,889;   -1,864
204,762;  210,458;    2,071;    0,591
205,362;  181,612;    0,708;    1,955
205,962;  275,978;    3,435;    1,955
206,562;  265,098;    1,889;    2,318
207,161;  233,294;    1,708;    0,318
207,761;  384,939;    4,435;    2,409
208,361;  270,323;    1,889;    1,409
208,960;  369,522;    2,889;    1,500
209,560;  418,940;    0,435;    1,591
210,160;  403,054;    5,071;    1,864
210,759;  368,379;    0,708;    1,227
211,359;  378,533;   -0,474;    1,045
211,958;  629,354;    3,526;    2,045
212,558;  699,026;    0,799;    1,864
213,157;  532,934;   -0,929;    1,500
213,757;  954,679;    5,617;   -0,227
214,356;  667,131;    1,708;   -0,409
214,956;  984,628;    3,526;    0,409
215,555;  624,665;    0,617;    2,136
216,154;  571,415;   -0,292;   -0,591
216,754;  573,548;    1,253;    0,773
217,353;  686,059;   -0,383;   -1,045
217,952;  537,562;    2,072;    0,318
218,552;  774,632;    0,254;   -0,773
219,151;  668,039;   -1,110;    0,955
219,750;  669,048;    0,890;   -0,227
220,349;  770,412;   -2,292;    1,045
220,948;  861,481;    1,163;    1,136
221,548;  832,668;    0,617;    1,227
222,147;  934,433;   -1,292;   -0,409
222,746; 1222,726;    1,254;   -0,955
223,345; 1087,439;   -1,019;    0,500
223,944; 1096,998;    1,163;    0,773
224,543; 1240,818;    4,072;   -1,409
225,142; 1365,448;    1,345;    0,136
225,741; 1260,736;    1,163;    1,045
226,340; 1271,836;    1,254;   -0,955
226,939; 1713,566;    2,708;   -0,136
227,538; 1599,186;    1,163;   -0,773
228,137; 1774,620;    0,435;    0,864
228,735; 1866,823;    0,435;    1,227
229,334; 1640,684;   -0,474;   -0,227
229,933; 2020,052;    0,799;    0,591
230,532; 2125,850;   -1,201;   -0,409
231,131; 2180,588;    1,253;    0,318
231,729; 2279,521;    1,163;   -2,318
232,328; 2336,106;    0,435;   -1,500
232,927; 2410,146;    4,526;   -0,500
233,525; 2518,919;    0,981;    0,045
234,124; 2707,918;    1,890;   -1,591
234,723; 2715,386;    1,617;   -1,045
235,321; 2843,298;    1,163;    0,136
235,920; 3041,772;    2,526;   -1,227
236,518; 3303,230;    1,072;    0,318
237,117; 3418,987;    2,890;   -0,227
237,715; 3551,730;    1,163;   -0,500
238,314; 3598,605;    1,708;   -2,318
238,912; 3716,356;    0,526;   -1,409
239,510; 3744,622;    1,162;   -1,227
240,109; 3899,428;   -0,474;    3,773
240,707; 3928,936;   -0,474;    1,227
241,305; 4233,812;   -0,383;    0,136
241,904; 4442,539;   -0,292;   -2,045
242,502; 4412,385;    3,253;   -0,227
243,100; 4353,227;    3,344;   -0,955
243,698; 4577,334;    2,799;    1,682
244,297; 4745,935;   -0,656;    0,682
244,895; 4601,067;   -0,474;   -2,318
245,493; 4873,742;    2,981;   -0,591
246,091; 4897,348;    5,163;   -1,318
246,689; 4852,279;    2,163;    0,591
247,287; 5016,458;   -0,019;   -1,136
247,885; 5277,946;   -1,019;    1,227
248,483; 5384,274;   -0,201;   -0,500
249,081; 5470,885;    0,981;    1,591
249,679; 5618,266;   -1,019;    1,682
250,277; 5857,548;   -2,292;    0,864
250,875; 5825,751;    0,617;   -1,045
251,473; 5834,262;   -0,019;    0,500
252,071; 6020,911;   -0,383;    1,045
252,669; 6161,543;   -1,565;    0,318
253,267; 6394,917;    1,618;    0,773
253,864; 6306,458;    0,617;    0,682
254,462; 6249,827;    1,526;    1,591
255,060; 6205,114;    0,072;    1,318
255,658; 6500,271;   -3,292;   -0,136
256,255; 6859,116;   -0,201;   -2,045
256,853; 6719,036;    2,345;    1,409
257,451; 6721,693;    1,981;    1,864
258,048; 7004,253;    2,072;    1,864
258,646; 6747,575;    0,436;   -1,045
259,243; 6909,127;    2,981;    2,227
259,841; 6970,499;    1,799;    0,318
260,438; 6857,265;    0,254;    0,864
261,036; 7511,392;    0,617;    1,409
261,633; 7445,865;    1,526;    2,227
262,231; 7229,539;   -0,110;   -0,045
262,828; 7286,358;   -0,383;    1,136
263,425; 7320,114;   -1,928;   -0,591
264,023; 7567,932;    1,436;    0,045
264,620; 7145,254;    1,526;   -0,318
265,217; 7472,613;    2,890;    3,136
265,815; 7558,200;    2,527;    2,136
266,412; 7359,480;    0,072;    0,136
267,009; 7416,623;    0,526;    0,773
267,606; 7321,121;    0,345;   -0,955
268,203; 7277,513;   -0,383;   -0,591
268,801; 7535,951;   -0,474;    0,591
269,398; 7824,269;   -0,564;    2,500
269,995; 7795,358;    0,890;    1,591
270,592; 7570,616;    0,799;   -0,500
271,189; 7763,929;    1,981;    0,409
271,786; 7895,843;    2,072;    1,227
272,383; 7767,441;   -0,383;    0,227
272,980; 7938,922;    1,617;    0,318
273,577; 8391,324;    2,162;    1,227
274,174; 7946,717;    1,435;    2,591
274,771; 7921,089;    1,890;   -0,773
275,367; 8080,163;    3,253;    1,409
275,964; 8052,138;   -0,565;   -0,500
276,561; 8116,298;   -2,474;   -1,045
277,158; 8318,266;    1,799;   -1,773
277,755; 8447,249;   -0,110;    0,409
278,351; 7861,233;    0,436;   -1,500
278,948; 8150,792;   -0,201;    0,045
279,545; 8154,432;    0,527;    2,318
280,141; 8751,050;    1,254;   -2,045
280,738; 8593,676;    2,435;   -0,136
281,334; 8801,451;   -0,383;    0,591
281,931; 8236,368;    2,890;   -1,318
282,528; 8333,861;    4,072;   -0,500
283,124; 8975,282;    3,345;   -0,500
283,721; 8897,089;    0,709;    1,409
284,317; 8739,848;    0,163;    2,500
284,913; 9220,205;   -0,110;    0,591
285,510; 9402,751;    2,890;   -0,318
286,106; 9427,729;    2,345;   -0,955
286,703; 9019,287;    0,072;    1,955
287,299; 9199,408;    1,254;   -0,591
287,895; 9381,368;    0,890;   -1,045
288,491; 9953,178;    0,163;    2,136
289,088; 9703,602;    0,163;    2,409
289,684; 9757,452;    2,890;    1,500
290,280; 9738,023;    1,890;    0,682
290,876; 9813,161;    0,163;    5,500
291,472; 9734,834;    2,163;    2,227
292,068; 9805,232;    1,254;    0,227
292,665; 9572,499;   -0,564;    0,773
293,261; 9203,068;   -1,292;    2,136
293,857; 9578,701;    4,072;    2,136
294,453; 9517,255;   -0,928;    0,955
295,049; 9405,188;    0,253;    1,955
295,644; 9420,302;   -1,292;    0,136
296,240; 9331,910;    0,162;   -0,136
296,836; 9392,283;   -0,747;    0,318
297,432; 9629,686;    2,980;   -0,500
298,028; 9672,551;    0,435;    0,773
298,624; 9989,492;    0,889;    1,864
299,220;10230,386;    0,435;    0,591
299,815; 9946,816;    0,526;   -0,409
300,411; 9732,552;    0,435;    1,773
301,007; 9747,432;    1,889;    0,227
301,602; 9757,308;    2,071;   -2,318
302,198; 9899,098;    1,435;   -0,773
302,794;10248,517;    1,526;   -0,500
303,389;10336,818;    1,071;    1,045
303,985;10409,095;    1,253;    1,409
304,580;10401,266;    0,889;    1,591
305,176;10361,074;    0,344;    0,136
305,771;10299,817;   -0,929;   -1,227
306,367;10193,646;    3,071;    0,136
306,962;10474,490;    2,889;    1,500
307,558;10213,626;    2,435;    0,136
308,153;10128,780;   -0,383;   -1,136
308,748;10352,884;    0,162;    1,682
309,344;10363,033;    0,253;   -1,318
309,939;10458,700;    2,071;   -1,318
310,534;10730,639;   -2,020;   -1,682
311,130;10599,364;   -0,656;   -2,500
311,725;10349,286;    0,526;   -0,500
312,320;10687,698;    1,253;    0,045
312,915;10562,346;    2,890;   -1,045
313,510;10660,379;    0,526;   -0,500
314,105;11100,166;   -3,565;    1,409
314,700;10498,179;   -1,656;   -1,045
315,295;10174,175;   -0,020;    0,045
315,890; 9771,896;   -0,292;    0,864
316,485;10069,335;    0,253;   -0,318
317,080;10182,539;   -0,929;    1,591
317,675;10706,949;    3,071;   -0,682
318,270;10166,810;    6,889;    3,318
318,865;10134,286;    2,435;    3,045
319,460;10000,649;   -1,565;    0,591
320,055;10255,816;   -2,565;   -1,227
320,650; 9918,716;   -1,838;   -0,591
321,244; 9953,074;    0,889;   -1,409
321,839;10854,025;    0,980;   -0,227
322,434;10733,425;   -0,111;   -1,591
323,029;10395,183;   -0,474;    1,591
323,623;10248,066;    0,798;    0,773
324,218;10070,058;    2,707;    1,409
324,812; 9999,496;    0,889;    1,591
325,407; 9796,285;   -0,929;    2,045
326,002; 9745,129;    0,526;   -0,409
326,596;10033,242;   -0,656;    1,318
327,191;10233,416;   -0,383;   -1,045
327,785; 9845,060;   -0,747;   -0,227
328,379;10064,894;   -0,383;    0,136
328,974; 9864,190;    1,798;   -3,955
329,568;10104,226;    2,889;   -2,409
330,163; 9914,527;    2,435;    1,045
330,757;10312,430;    0,253;    1,591
331,351; 9626,958;   -0,292;    0,682
331,945; 9903,993;   -0,383;    1,409
332,540; 9555,482;    1,617;   -0,591
333,134; 9679,546;    3,344;    0,773
333,728; 9900,277;    2,799;    0,318
334,322;10195,414;    0,889;   -0,864
334,916; 9511,473;    0,344;    0,955
335,510; 9836,751;   -0,111;   -0,136
336,105;10071,052;   -0,929;    1,591
336,699; 9769,510;   -1,292;    0,591
337,293; 9698,037;    1,071;    0,318
337,887; 9852,812;    0,071;    1,955
338,481; 9920,618;    2,980;    0,591
339,074;10057,039;    2,071;    2,682
339,668; 9883,576;   -0,110;    1,227
340,262;10152,094;    7,708;    3,227
340,856; 9667,784;    1,708;   -0,682
341,450; 9084,026;    0,708;    1,864
342,044; 9886,492;    1,799;    0,136
342,637; 9679,883;    1,162;   -2,136
343,231; 9516,103;   -1,474;    0,682
343,825; 9449,258;   -0,747;   -0,591
344,419; 9428,684;   -0,474;    0,500
345,012; 9301,625;    2,889;    4,045
345,606; 9303,819;   -0,656;    1,591
346,199; 9124,662;   -0,111;   -0,227
346,793; 8713,926;    2,525;    2,045
347,386; 8919,767;    0,889;   -1,136
347,980; 8903,930;   -0,838;   -0,045
348,573; 8732,153;   -1,748;    0,409
349,167; 8451,509;    6,161;    4,773
349,760; 8773,399;    2,252;    2,682
350,354; 8754,232;    1,616;    1,136
350,947; 8515,631;    2,798;    1,682
351,540; 8208,878;    0,616;   -1,409
352,134; 8164,786;   -1,111;    1,136
352,727; 8251,580;   -0,657;    1,136
353,320; 8066,068;    2,343;    0,591
353,913; 7909,328;   -1,929;    1,864
354,507; 8086,223;    0,434;   -1,227
355,100; 8108,440;    0,071;    0,864
355,693; 7432,766;    4,798;    2,409
356,286; 7459,262;    0,980;    2,773
356,879; 7809,994;   -0,475;    1,227
357,472; 7424,681;    0,980;    1,500
358,065; 7623,540;    3,161;    2,500
358,658; 7567,560;    0,798;    2,318
359,251; 7253,336;    0,252;   -0,591
359,844; 6806,785;    0,343;   -1,136
360,437; 6954,738;    0,252;    0,045
361,030; 7234,313;    0,525;   -0,682
361,623; 6831,815;    0,434;    0,318
362,215; 6901,172;    0,979;    2,045
362,808; 6738,864;   -2,293;   -1,682
363,401; 6923,415;    0,798;    0,136
363,994; 6713,763;    3,252;   -1,500
364,586; 6645,216;    0,888;   -1,500
365,179; 6798,346;   -0,203;   -1,136
365,772; 6297,434;   -0,930;    2,045
366,364; 6586,522;    1,524;   -3,227
366,957; 6818,311;    1,342;   -0,045
367,549; 6811,769;   -0,203;   -0,864
368,142; 6476,296;    0,978;   -1,500
368,734; 6660,737;    2,523;   -2,136
369,327; 6635,229;    2,341;   -0,500
369,919; 6562,265;   -1,659;    0,409
370,512; 6376,028;   -1,023;   -0,500
371,104; 6173,364;    2,704;    1,591
371,696; 6318,902;    1,703;   -0,955
372,289; 6421,662;    0,157;    1,136
372,881; 6539,659;    1,156;    1,318
373,473; 6443,256;    4,064;    1,136
374,066; 6275,381;    1,336;    0,500
374,658; 6151,098;    0,879;    1,136
375,250; 6453,766;   -1,668;   -1,409
375,842; 6320,500;   -0,124;   -0,045
376,434; 6222,113;   -2,762;   -0,409
377,026; 6732,269;   -1,855;   -2,500
377,618; 6633,216;    0,779;   -0,682
378,210; 6465,551;    3,141;   -1,955
378,802; 6326,063;    3,412;   -0,591
379,394; 6333,394;    3,411;    0,682
379,986; 6851,893;    1,138;   -0,955
380,578; 6918,005;    1,410;    0,773
381,170; 6339,710;    0,320;    0,045
381,762; 6287,171;   -0,224;    1,409
382,354; 6448,151;   -0,223;   -1,318
382,945; 6553,182;    0,870;    0,318
383,537; 6686,403;    1,144;   -1,955
384,129; 6692,714;    0,963;   -1,136
384,721; 6833,034;    0,418;    0,955
385,312; 6778,053;   -1,399;   -0,955
385,904; 6874,299;   -0,945;    1,591
386,496; 6299,380;    0,691;    1,045
387,087; 6449,030;    0,418;    2,500
387,679; 6456,460;   -0,401;    0,045
388,270; 6580,672;   -2,401;    2,045
388,862; 6694,176;   -0,401;   -0,318
389,453; 6562,569;    1,054;    1,045
390,045; 6779,091;    3,236;   -2,682
390,636; 6760,455;    0,144;   -0,591
391,227; 6617,284;    2,054;   -0,045
391,819; 6683,289;    0,781;    0,773
392,410; 6767,123;    0,600;    0,045
393,001; 6704,649;    1,600;   -1,591
393,593; 6982,265;    0,600;   -0,045
394,184; 6816,697;    0,873;   -0,409
394,775; 6746,336;    1,146;    2,136
395,366; 6951,890;    1,782;    0,773
395,957; 6905,468;   -2,400;    0,136
396,548; 7174,646;    1,054;    2,682
397,139; 7462,036;    2,236;    0,591
397,730; 7221,091;    0,873;    0,955
398,321; 7291,676;    0,509;    0,955
398,912; 7269,257;   -0,764;    0,136
399,503; 7374,777;   -1,945;   -1,409
400,094; 6861,009;   -1,582;    1,682
400,685; 6705,965;    3,600;    0,045
401,276; 6767,497;   -0,400;   -0,955
401,867; 7073,006;   -1,127;    0,773
402,458; 7161,425;    1,509;   -2,318
403,048; 7133,222;    0,146;    0,591
403,639; 6777,239;    1,509;    0,864
404,230; 7027,839;    0,691;    0,318
404,821; 6966,232;   -0,127;    0,045
405,411; 7088,967;   -0,763;   -2,591
406,002; 6695,203;    3,237;   -1,136
406,592; 6577,130;    2,691;    0,045
407,183; 6858,003;    0,328;   -1,500
407,774; 6784,527;    1,419;   -0,136
408,364; 7097,693;    2,600;    0,409
408,954; 6711,347;   -0,036;    1,227
409,545; 6753,592;    1,873;    1,045
410,135; 6337,638;   -1,581;    0,500
410,726; 6491,061;    0,783;    0,318
411,316; 6839,524;    2,237;    0,773
411,906; 6502,902;    0,146;   -0,409
412,497; 6069,251;   -0,490;   -0,045
413,087; 6647,255;    0,783;   -0,227
413,677; 6985,448;   -2,490;    3,864
414,267; 6819,055;   -1,035;    1,409
414,857; 6831,655;    0,419;    4,227
415,448; 7102,991;   -0,763;    0,500
416,038; 6808,182;   -2,945;   -0,591
416,628; 6750,329;    0,965;    0,409
417,218; 6307,647;   -1,762;    3,318
417,808; 6515,521;    0,965;   -0,409
418,398; 6925,159;   -1,035;    2,682
418,988; 6946,121;   -2,217;    0,591
419,578; 7153,298;    3,601;    1,409
420,168; 7450,951;    0,692;   -0,955
420,757; 7067,469;    0,964;   -1,500
421,347; 6789,021;    1,601;   -0,227
421,937; 6930,017;    3,329;    1,409
422,527; 6891,833;    2,602;   -0,773
423,116; 6721,204;    2,692;   -0,045
423,706; 7044,997;    2,965;    0,318
424,296; 7009,585;    1,601;    0,682
424,885; 7393,494;    1,510;   -3,045
425,475; 7617,359;    1,147;   -2,864
426,065; 7559,788;   -1,489;   -0,318
426,654; 7212,152;    0,329;   -0,318
427,244; 7317,207;    1,147;    1,409
427,833; 6822,082;    1,056;   -0,500
428,423; 7232,997;    0,147;    1,136
429,012; 7903,882;    2,420;   -1,136
429,601; 7437,247;    2,057;    0,136
430,191; 7674,727;    2,511;    4,318
430,780; 7306,750;   -1,671;   -0,409
431,369; 7249,316;    1,329;   -0,045
431,959; 7827,507;    1,693;    0,500
432,548; 7606,285;   -1,398;   -0,045
433,137; 7738,396;    0,329;   -1,318
433,726; 8220,222;    0,148;    0,500
434,315; 7634,827;    0,148;    2,409
434,905; 7710,461;    0,693;    1,409
435,494; 7661,543;    3,148;    0,955
436,083; 8081,911;    1,420;   -0,955
436,672; 7925,931;    1,148;    0,500
437,261; 7559,535;    0,512;   -1,955
437,850; 7672,268;   -1,125;    0,682
438,439; 7623,282;    2,239;    1,955
439,027; 7486,659;    3,421;    1,773
439,616; 7799,806;    2,239;    1,227
440,205; 7679,274;    0,057;   -2,136
440,794; 7691,700;   -0,306;   -0,045
441,383; 7973,877;    1,603;   -0,591
441,971; 7812,598;   -0,306;    0,591
442,560; 7669,388;    0,603;   -1,773
443,149; 7451,282;    3,060;   -1,318
443,737; 7567,354;    0,968;   -2,318
444,326; 7813,506;    0,331;    0,318
444,915; 7851,453;   -1,851;    0,864
445,503; 8187,685;    0,058;   -0,318
446,092; 7558,607;    7,876;    2,136
446,680; 8053,382;    1,876;    0,318
447,269; 8200,260;   -1,487;   -0,318
447,857; 7983,929;    2,240;   -1,773
448,445; 8090,259;    2,149;    1,318
449,034; 8305,591;    0,876;   -1,136
449,622; 8399,297;    1,240;    3,500
450,210; 7710,117;    3,149;    2,227
450,799; 8237,879;    2,604;   -0,591
451,387; 8155,279;    1,786;   -0,591
451,975; 7850,329;   -1,305;    0,864
452,563; 7939,958;    0,422;    2,318
453,151; 7949,710;   -1,032;   -1,227
453,739; 7878,731;   -1,577;    0,136
454,328; 7737,709;    0,604;   -2,136
454,916; 7518,486;    1,150;   -0,136
455,504; 7673,280;    3,513;    1,227
456,092; 7837,669;    2,150;   -1,591
456,679; 7814,218;    0,604;    0,682
457,267; 7799,978;    3,604;    1,045
457,855; 7894,338;    3,241;    1,409
458,443; 7640,741;   -0,304;    1,682
459,031; 7809,330;    1,332;    2,409
459,619; 8218,036;   -3,577;    2,864
460,206; 8305,233;   -0,759;    2,045
460,794; 8343,506;   -0,668;   -0,227
461,382; 8573,351;    0,878;   -0,864
461,970; 8176,305;    0,605;    1,864
462,557; 8249,007;    0,878;   -0,682
463,145; 8402,670;   -0,304;   -1,682
463,732; 8501,359;    2,514;   -1,045
464,320; 8403,967;    1,514;   -3,045
464,907; 8120,588;    0,423;   -0,773
465,495; 8033,734;    2,696;   -1,227
466,082; 8172,781;    2,060;   -0,045
466,670; 8079,878;    2,605;    1,227
467,257; 8483,303;    0,060;    2,045
467,844; 8631,773;    1,514;    0,045
468,432; 8641,530;   -0,031;    3,500
469,019; 8200,098;    1,606;   -1,773
469,606; 8632,776;    0,969;    3,682
470,193; 8456,903;    2,151;    0,227
470,780; 8081,400;    0,333;    0,864
471,368; 8407,498;   -1,212;   -0,773
471,955; 8203,779;    1,060;   -0,682
472,542; 7902,163;   -0,303;   -1,136
473,129; 8076,175;   -0,485;    0,136
473,716; 7839,117;    0,060;    0,591
474,303; 8023,984;    1,333;   -0,864
474,890; 8276,107;    2,333;   -0,500
475,477; 8298,719;   -0,576;    0,409
476,064; 8190,653;    0,697;   -1,591
476,650; 8120,019;    2,152;    0,318
477,237; 7955,928;    1,879;    0,955
477,824; 8105,007;    3,879;    0,864
478,411; 8106,818;    0,606;   -0,318
478,997; 8293,515;    0,606;   -0,773
479,584; 8338,405;   -0,666;   -0,409
480,171; 8968,567;    1,243;   -0,773
480,757; 8651,475;   -0,848;    0,773
481,344; 8916,320;    0,334;    0,409
481,931; 8448,679;   -0,393;    1,045
482,517; 9316,850;    0,425;    0,318
483,104; 9753,472;    1,334;    2,864
483,690;10020,500;    0,243;    0,045
484,276;10292,696;    0,698;    0,227
484,863;10051,242;    2,152;    1,136
485,449;10594,043;    0,152;    0,318
486,035;10599,982;   -0,666;   -0,136
486,622;10987,516;   -2,393;    0,045
487,208;10950,379;    1,334;    1,500
487,794;10789,002;    0,971;    0,318
488,380;10867,560;    0,698;   -1,409
488,967;10905,647;   -1,120;   -0,409
489,553;10996,917;   -1,029;   -1,409
490,139;11204,033;    0,971;    0,773
490,725;10702,109;    0,789;   -0,227
491,311;10325,101;    1,516;    3,045
491,897; 9732,401;   -0,665;    1,500
492,483; 9597,347;    0,426;    1,227
493,069; 9459,112;    5,426;    0,864
493,655; 9423,098;    1,789;    0,682
494,241; 9341,089;    1,517;   -0,955
494,826; 9698,483;    0,335;   -1,045
495,412; 9161,143;    0,335;   -0,682
495,998; 9306,704;    0,971;   -0,318
496,584; 9397,910;    2,244;    1,045
497,169; 9382,655;    2,335;   -0,682
497,755; 9371,781;    1,244;    1,227
498,341; 9866,676;    2,153;    0,318
498,926; 9481,770;    2,881;    1,955
499,512; 9616,763;   -0,028;    2,955
500,097; 9690,117;   -0,574;   -0,318
500,683; 9654,915;   -0,028;    2,136
501,268; 9983,078;    1,881;   -0,955
501,854; 9738,529;   -0,119;    1,227
502,439; 9673,757;   -0,573;   -1,773
503,024; 9810,428;    1,608;    0,500
503,610; 9881,151;    1,335;   -0,682
504,195; 9903,760;    1,245;    1,955
504,780;10003,176;    2,335;    1,227
505,366; 9860,211;    4,063;    2,864
505,951; 9602,297;   -1,119;    1,045
506,536; 9643,356;    1,427;   -3,682
507,121; 9614,451;    1,699;   -0,318
507,706;10095,478;   -0,392;    1,045
508,291;10397,731;   -2,937;    1,136
508,876; 9910,685;   -0,482;    2,591
509,461; 9438,673;    1,427;   -0,773
510,046; 9812,235;   -0,391;    0,318
510,631;10019,139;   -0,119;   -0,773
511,216; 9708,275;   -0,664;   -0,500
511,801;10044,906;   -0,755;    2,591
512,386;10286,947;    0,972;    0,500
512,971;10227,993;    0,427;    0,955
513,555; 9806,825;    1,154;   -1,500
514,140;10546,428;    1,336;   -3,136
514,725;10500,912;    1,791;   -1,136
515,309;10624,493;    1,064;    0,318
515,894;10149,400;   -0,300;   -2,227
516,479;10567,734;    1,973;   -0,955
517,063;10392,560;    0,882;    1,227
517,648;10515,203;    0,155;   -1,136
518,232;10139,193;   -1,300;   -1,409
518,817;10469,491;    1,337;    1,682
519,401;10680,776;    0,700;    0,591
519,985;10197,491;    2,700;    1,136
520,570;10095,862;   -0,118;   -1,955
521,154;10378,452;    0,064;    0,591
521,738;10533,407;    1,064;    2,409
522,323;11051,033;   -0,390;    1,682
522,907;10783,992;    2,428;   -0,136
523,491;10537,566;    1,155;    0,955
524,075;10512,955;    0,428;    0,591
524,659;10586,700;    0,973;    0,591
525,243;10111,730;    0,883;    0,409
525,827;10336,910;    0,883;   -0,045
526,411;11070,609;    1,155;   -0,136
526,995;11263,739;    0,337;    1,409
527,579;10881,140;    1,974;   -1,045
528,163;11149,917;    0,428;   -1,500
528,747;11101,295;    1,065;   -0,773
529,331;11335,878;    0,883;   -1,409
529,915;11518,898;    2,338;    0,955
530,499;11439,147;    0,247;    1,227
531,082;11179,546;    1,065;    1,591
531,666;10652,210;    0,520;    0,773
532,250;11277,775;    0,428;    2,682
532,833;11583,292;    0,610;    2,773
533,417;11453,091;    1,247;    0,864
534,001;11387,714;    0,429;   -0,318
534,584;11995,567;    1,974;    0,500
535,168;11836,609;    3,247;    1,409
535,751;11891,758;    4,520;    0,045
536,334;11354,659;    4,520;   -0,409
536,918;11944,018;    1,974;    1,591
537,501;11998,723;    1,520;    1,318
538,085;11961,757;    1,702;    1,045
538,668;12072,691;    0,883;    2,409
539,251;12349,626;    3,156;    3,773
539,834;12399,529;    0,156;    0,773
540,418;12311,234;    3,247;    4,318
541,001;12407,561;    2,702;    1,773
541,584;12363,001;    1,429;    2,227
542,167;12102,537;    0,702;    2,955
542,750;12192,006;    0,793;   -0,773
543,333;11822,196;    1,429;    2,136
543,916;12539,774;   -0,298;    2,500
544,499;13066,722;    2,520;    0,227
545,082;13041,999;    0,248;    3,591
545,665;13164,555;   -0,207;    1,500
546,248;13408,287;    0,520;   -0,318
546,830;13116,642;   -1,752;    1,955
547,413;13522,588;    0,157;   -0,773
547,996;14001,745;    0,157;    0,500
548,579;13769,818;   -0,843;    0,955
549,161;13605,641;    0,884;    2,682
549,744;13340,350;    0,612;    0,409
550,326;13786,489;    0,885;   -1,136
550,909;13581,262;    2,339;    0,591
551,492;13918,252;    0,521;    0,227
552,074;13767,662;   -0,024;   -1,318
552,657;14258,708;    2,430;    0,045
553,239;14081,512;   -3,024;   -0,773
553,821;13968,843;   -1,570;    1,045
554,404;13489,888;   -0,024;    1,136
554,986;13857,726;    2,248;    1,045
555,568;14368,166;    0,430;   -0,955
556,151;13669,009;    4,067;   -0,227
556,733;13850,740;   -1,388;   -0,864
557,315;14249,974;    4,703;    0,500
557,897;14011,945;    0,521;   -0,500
558,479;14157,017;    1,703;    1,318
559,061;14280,566;    1,067;   -0,864
559,643;14576,929;   -0,297;    0,045
560,225;14853,715;   -0,388;    2,864
560,807;14873,838;    0,340;    0,318
561,389;14440,415;   -1,206;    2,318
561,971;15003,886;   -0,660;    2,136
562,553;14875,932;    0,613;    1,591
563,135;15017,473;    1,249;    1,136
563,717;14629,652;    3,158;    1,136
564,298;15187,101;    3,976;   -0,045
564,880;14947,716;    0,340;   -1,409
565,462;15081,171;    1,977;    1,318
566,043;16106,072;   -0,933;    2,318
566,625;15655,911;    4,067;    1,227
567,207;15446,713;    0,704;    1,682
567,788;16392,062;   -0,114;    1,500
568,370;17109,148;   -1,841;   -0,500
568,951;16878,346;   -0,569;    0,227
569,533;17647,126;    0,977;   -0,500
570,114;18042,178;   -0,296;    0,682
570,695;18446,537;   -0,478;   -1,318
571,277;18754,012;   -0,205;   -1,682
571,858;19360,973;    2,704;   -1,136
572,439;20128,042;    0,795;   -1,045
573,021;20230,220;    0,432;   -2,773
573,602;20623,676;    1,795;    0,318
574,183;21393,197;   -0,114;    2,227
574,764;21392,873;    2,068;    0,409
575,345;21807,823;    0,250;   -0,136
575,926;22316,169;    2,704;    0,136
576,507;22336,243;    2,704;   -0,227
577,088;23301,856;    1,704;    1,682
577,669;23257,341;    1,704;    1,955
578,250;23894,288;   -0,750;   -1,045
578,831;24356,093;   -0,841;   -2,227
579,412;24505,094;   -1,205;    0,955
579,993;25380,189;    1,432;    0,227
580,573;25682,100;   -0,023;   -0,955
581,154;24714,616;    1,613;   -0,591
581,735;25524,157;    0,341;    0,773
582,315;25009,430;    0,523;    2,136
582,896;25250,055;   -1,750;    1,227
583,477;24813,549;    0,614;    1,227
584,057;25019,257;    1,159;    0,955
584,638;25194,462;   -2,750;    2,318
585,218;25228,935;    2,886;    2,682
585,799;25371,854;    1,977;   -0,227
586,379;25401,765;    1,250;    1,591
586,959;24368,789;    2,613;    0,318
587,540;23806,359;    0,432;    2,227
588,120;23449,519;   -1,113;   -0,045
588,700;22594,028;    2,977;    2,136
589,281;22882,963;    1,250;   -0,955
589,861;22833,496;   -0,296;   -1,682
590,441;22648,012;   -1,477;   -2,682
591,021;21707,665;    1,432;   -2,591
591,601;22013,118;    0,431;    0,500
592,181;22069,680;   -1,296;   -0,773
592,761;21421,153;    2,250;    1,409
593,341;21395,241;    1,522;    0,045
593,921;21369,014;   -0,569;    1,591
594,501;21276,540;    1,250;    1,318
595,081;21069,171;    0,522;   -0,318
595,661;21425,097;    1,068;    0,955
596,240;21903,323;   -1,023;    0,136
596,820;21532,929;    2,613;    1,955
597,400;21582,548;    1,977;    0,773
597,980;21800,515;   -0,750;    1,045
598,559;21896,611;    0,341;   -0,227
599,139;21622,212;   -0,750;   -1,227
599,718;21529,757;    0,795;   -0,409
600,298;21768,089;   -2,387;    0,682
600,877;21995,906;    4,795;    1,409
601,457;22249,785;    0,340;    1,136
602,036;22146,412;    1,795;    2,045
602,616;22270,172;    2,250;    1,682
603,195;22569,351;    0,431;    3,500
603,774;22139,020;   -0,296;    2,045
604,354;22045,681;    2,522;   -0,500
604,933;21631,545;    0,250;    1,864
605,512;21778,777;    2,340;    0,591
606,091;21808,839;    1,886;    3,773
606,671;22576,558;    0,249;    0,773
607,250;21760,425;    1,431;    3,136
607,829;21885,638;    1,158;    3,227
608,408;21791,404;    4,613;    2,591
608,987;20945,876;    2,704;    3,409
609,566;21144,622;    0,341;   -2,500
610,145;21303,586;    2,885;    0,682
610,723;21741,616;    1,613;    6,864
611,302;21044,156;    1,067;    1,682
611,881;20524,715;    5,158;   11,227
612,460;21258,810;    0,795;    3,955
613,039;21697,346;    1,703;    2,045
613,617;20530,849;    0,886;    4,773
614,196;20690,924;    1,613;    1,227
614,775;21027,638;    1,249;    2,409
615,353;20957,756;   -1,660;    0,864
615,932;20738,305;    0,249;    2,409
616,510;21261,568;    0,158;    0,591
617,089;20854,764;    8,794;   17,591
617,667;20691,557;    4,885;    6,136
618,246;20562,924;   -1,115;    1,318
618,824;20698,271;    1,612;   -0,955
619,402;20261,068;    0,431;   -1,773
619,981;20650,888;    1,067;   -1,045
620,559;20565,691;    0,794;    1,682
621,137;20153,541;    3,067;    1,864
621,715;20133,571;    3,703;   -0,682
622,293;20090,084;    1,885;   -0,773
622,871;20553,793;    0,340;    0,500
623,450;20156,278;    0,430;   -0,864
624,028;20073,190;   -0,388;   -0,955
624,606;19754,536;    2,339;    1,682
625,183;20045,717;   -0,661;   -1,136
625,761;19720,374;    1,885;    1,136
626,339;20018,225;    2,339;    2,591
626,917;20382,181;    0,339;   -0,045
627,495;20395,141;    2,794;    1,318
628,073;19866,662;    5,248;    2,864
628,650;19610,042;    3,067;    2,136
629,228;20053,476;    1,248;    4,409
629,806;19461,363;   -0,024;    1,136
630,383;19740,971;    0,066;   -0,318
630,961;19592,296;   -2,206;   -0,955
631,539;19328,081;   -2,479;    0,227
632,116;18730,841;   12,703;   15,409
632,694;19225,202;    4,885;    6,500
633,271;19445,809;    1,975;    2,682
633,848;19470,969;    1,430;    2,045
634,426;19465,724;    1,521;    1,773
635,003;18670,460;   -0,207;   -0,409
635,580;18944,726;    1,884;    3,682
636,158;19508,476;    3,793;    1,227
636,735;19460,014;    3,339;   -0,500
637,312;19512,294;    0,521;   -0,682
637,889;19594,897;    2,248;   -0,682
638,466;19178,853;    0,066;   -0,409
639,043;19164,488;    1,702;   -1,136
639,620;19435,304;    0,611;   -0,955
640,197;19676,078;    1,612;    1,682
640,774;19883,252;    1,430;    1,136
641,351;20210,063;    0,612;    1,136
641,928;19702,783;    2,794;    1,409
642,505;19417,957;    0,794;   -0,500
643,082;19490,040;    1,885;    1,227
643,658;18637,215;    1,157;    1,500
644,235;19247,480;   -2,479;    2,500
644,812;19509,745;    1,794;    0,773
645,388;19269,556;    1,612;    1,409
645,965;19338,367;    1,521;    1,682
646,542;19437,723;    3,430;   -0,227
647,118;19440,170;    3,703;   -0,955
647,695;19678,254;    0,339;    1,136
648,271;19592,064;   -2,115;    0,500
648,848;19800,784;    0,248;    2,227
649,424;19672,686;    0,976;    1,318
650,000;19450,224;   -0,388;   -1,045
650,577;19308,853;    0,158;   -0,955
651,153;19668,209;   -1,115;    0,955
651,729;20527,929;    0,521;    0,864
652,305;20626,558;    1,339;    2,773
652,881;23986,278;   -1,297;    1,136
653,458;29392,906;    0,249;    0,227
654,034;32381,626;    0,703;    1,591
654,610;33492,982;    0,339;    0,773
655,186;34714,975;    1,612;    3,045
655,762;34390,422;   -1,842;    0,409
656,338;34467,596;    0,703;    0,136
656,913;35401,225;   -0,297;    0,409
657,489;34761,036;    0,249;   -0,318
658,065;34711,665;    0,794;   -1,591
658,641;35291,839;    2,158;   -0,864
659,217;34627,923;    2,067;    0,409
659,792;34141,824;   -1,751;   -0,409
660,368;34521,363;   -0,388;   -0,682
660,944;34439,355;    1,794;    1,227
661,519;30847,802;    0,522;    0,409
662,095;25994,249;   -0,206;    0,591
662,670;22175,787;   -0,206;   -0,136
663,246;21282,416;   -0,660;   -0,409
663,821;20682,409;    0,431;    1,682
664,396;20206,947;    0,613;    1,864
664,972;20449,576;   -0,660;   -0,500
665,547;20773,841;    3,794;    0,136
666,122;20784,288;    1,340;    0,318
666,698;20985,735;    2,431;    0,318
667,273;20375,273;    0,885;    0,136
667,848;21077,720;    0,340;    1,500
668,423;20879,622;    1,795;    2,318
668,998;21308,251;    0,976;   -0,682
669,573;21800,516;    2,067;   -1,500
670,148;21662,327;    1,885;   -0,682
670,723;21440,501;   -0,024;    0,318
671,298;21796,766;   -1,296;    1,045
671,873;21867,486;   -0,296;   -0,136
672,448;21829,933;    1,704;    0,136
673,023;22148,653;    0,249;   -0,227
673,597;22427,828;    2,704;    2,318
674,172;22251,456;    2,431;    0,318
674,747;21770,085;   -0,205;   -1,045
675,321;21528,987;   -0,933;    3,318
675,896;21172,161;    2,158;    1,045
676,471;22091,063;    2,522;    1,591
677,045;21868,328;   -0,296;    0,682
677,620;21887,048;    2,158;    1,136
678,194;22170,768;    0,249;    1,136
678,769;21819,397;    0,886;   -0,318
679,343;22040,571;   -0,023;    1,773
679,917;21885,382;    0,340;    1,955
680,492;21937,920;    0,249;    3,227
681,066;21987,822;    0,613;    0,409
681,640;22032,178;    1,795;   -0,318
682,214;22831,352;    2,340;    0,500
682,788;22367,890;    0,613;   -0,773
683,363;22233,337;    1,977;    1,682
683,937;21956,057;    0,886;   -0,318
684,511;22686,322;   -1,023;   -0,591
685,085;22423,951;   -1,478;    0,318
685,659;22160,944;    1,431;    0,864
686,232;22439,573;    1,159;   -0,318
686,806;22153,747;    2,159;    0,409
687,380;22752,831;   -1,932;    0,591
687,954;22939,550;    2,432;    1,136
688,528;22632,270;    2,613;    1,955
689,101;23334,808;    0,432;    1,045
689,675;22961,619;    0,886;   -0,136
690,249;22365,066;    3,432;    0,409
690,822;22678,150;    1,159;    0,318
691,396;22783,688;    2,068;    1,227
691,969;22294,953;    2,523;    0,136
692,543;22722,673;   -0,568;   -1,955
693,116;22384,574;   -0,659;   -1,409
693,690;22312,021;   -0,296;    0,500
694,263;22794,832;    2,341;    2,955
694,836;22779,370;    2,795;    3,591
695,410;21545,817;    1,159;    1,773
695,983;21976,992;    1,614;    0,591
696,556;21974,257;   -0,750;   -1,045
697,129;22290,249;   -1,114;    1,409
697,703;21958,424;    1,341;    1,955
698,276;21989,144;    1,705;   -0,773
698,849;21778,954;   -1,023;    1,409
699,422;22148,038;    1,250;    0,591
699,995;21888,212;   -0,659;    0,136
700,568;22290,296;   -0,204;    3,045
701,140;22337,652;   -1,841;    1,682
701,713;22130,554;    0,341;    2,409
702,286;21893,819;    0,796;    0,864
702,859;21757,993;    0,614;   -0,591
703,432;21071,713;   -0,841;    0,682
704,004;21454,887;    1,978;    0,318
704,577;21351,244;    1,068;    0,136
705,150;21881,145;    0,887;    2,500
705,722;21715,047;    1,523;   -3,227
706,295;21494,221;    1,432;   -0,591
706,867;21380,941;    0,250;    1,955
707,440;21579,570;   -0,113;   -0,409
708,012;21813,472;   -0,022;    0,591
708,584;21729,464;    2,705;    0,227
709,157;21938,457;    1,160;   -0,591
709,729;21678,995;    1,069;    2,045
710,301;22462,442;   -1,204;    0,045
710,874;22437,071;    0,341;   -0,227
711,446;21351,245;   -0,295;    0,864
712,018;21288,238;   -3,022;    0,500
712,590;21104,958;   -0,204;    1,682
713,162;21563,132;   -0,477;    1,318
713,734;21755,488;    1,796;   -2,045
714,306;21701,299;    0,342;   -0,409
714,878;20523,473;   -0,295;    0,864
715,450;21323,011;   -0,113;    0,864
716,022;21527,095;    2,433;    1,318
716,593;21663,451;    0,978;    0,591
717,165;21623,807;    1,796;   -1,227
717,737;21369,618;    0,796;    0,409
718,309;21054,974;    1,160;   -0,045
718,880;20990,694;   -1,295;   -1,409
719,452;21212,868;    0,887;   -1,591
720,024;20888,861;    1,705;   -0,591
720,595;21406,217;    2,978;    0,955
721,167;21016,846;    1,160;   -2,045
721,738;20568,929;    2,069;   -1,045
722,309;20554,013;    1,251;   -1,227
722,881;20318,914;    2,705;    0,773
723,452;20948,998;    1,251;    2,864
724,023;21077,627;    1,524;    2,682
724,595;20922,165;    2,342;    0,682
725,166;20646,794;    1,524;   -0,409
725,737;20291,150;    1,887;    0,227
726,308;20420,142;    0,797;    0,318
726,879;20765,226;    1,069;    1,227
727,450;20664,855;   -2,022;   -0,045
728,021;20627,029;    1,069;    0,682
728,592;20489,022;    1,160;    0,500
729,163;20782,378;    1,433;   -0,136
729,734;20705,280;    2,160;   -0,227
730,305;21029,636;    0,615;    0,136
730,876;21356,174;    0,888;    2,955
731,447;21099,803;    0,797;    2,682
732,017;21246,613;   -0,840;    1,864
732,588;20789,788;   -0,021;    1,227
733,159;20880,144;    3,615;   -1,045
733,729;20697,591;    1,251;    0,409
734,300;20109,220;    0,160;    0,864
734,870;20487,213;   -1,385;    0,591
735,441;20936,751;    0,888;   -0,591
736,011;20739,379;    1,070;   -1,591
736,582;20702,917;    1,251;    0,045
737,152;20197,274;    0,979;   -2,045
737,722;20640,357;    1,070;   -0,682
738,293;20374,531;   -2,021;    1,318
738,863;20278,251;    1,797;    2,318
739,433;20132,789;    4,524;    0,318
740,003;20722,236;    1,524;   -0,682
740,573;20172,593;    2,252;   -1,591
741,143;20165,221;    3,615;    0,318
741,713;20831,850;    0,252;   -0,500
742,283;20567,843;    1,706;    1,591
742,853;20408,290;    0,524;    1,591
743,423;19899,646;    0,161;    0,045
743,993;20016,184;    1,070;    1,500
744,563;19489,359;    2,524;   -0,864
745,133;19425,351;   -0,112;   -0,864
745,702;20014,071;    2,797;    1,773
746,272;19290,154;    0,434;    0,591
746,842;19100,329;   -0,748;   -0,591
747,411;19559,776;   -0,839;   -0,318
747,981;19693,223;   -0,930;    0,500
748,551;19731,579;   -0,021;   -1,045
749,120;19568,208;   -0,112;   -0,227
749,690;19912,019;    2,161;    2,409
750,259;20226,830;    0,979;    2,955
750,828;20128,004;    4,070;   -1,955
751,398;20365,360;   -0,112;   -0,045
751,967;19904,353;    2,888;    0,409
752,536;20130,436;    1,161;   -0,227
753,105;20528,247;   -1,384;    0,227
753,675;20269,239;   -0,112;    1,773
754,244;20188,777;    0,888;    3,591
754,813;20223,225;    0,979;    1,227
755,382;19874,763;    0,798;    0,955
755,951;20323,028;   -0,112;    3,682
756,520;20000,293;    2,525;    1,864
757,089;20419,195;    1,888;    0,500
757,658;20512,096;    2,434;    1,227
758,227;20598,634;   -1,111;    0,318
758,795;20867,900;   -1,021;    1,136
759,364;21056,801;    0,525;   -0,591
759,933;20115,339;    1,343;   -0,045
760,501;19707,241;    0,252;   -1,318
761,070;20105,234;   -0,293;   -1,409
761,639;20818,135;    1,434;    1,318
762,207;20184,128;    0,889;   -0,955
762,776;20104,484;    2,889;    0,864
763,344;20099,567;    0,071;    0,591
763,913;19255,378;    1,616;    1,409
764,481;19962,189;    1,980;   -0,136
765,049;19800,545;    0,616;    1,409
765,618;19741,356;    1,434;    0,318
766,186;19818,894;    2,434;    0,136
766,754;19945,159;    1,798;    1,864
767,322;19054,788;    1,162;    0,409
767,890;19058,962;    0,525;   -1,773
768,459;19479,228;    2,616;   -0,318
769,027;19571,402;    2,525;    3,409
769,595;18694,576;    2,616;    2,591
770,163;19085,842;    3,344;    2,955
770,730;18906,289;    2,525;   -0,136
771,298;18795,827;    1,162;   -1,409
771,866;18888,365;    0,253;    4,955
772,434;19105,903;    1,162;   -1,864
773,002;19303,441;    2,616;    0,682
773,569;19011,433;    1,071;    1,682
774,137;18814,790;    0,889;   -0,045
774,705;19593,691;   -0,747;   -0,136
775,272;19149,502;    0,253;    0,682
775,840;18929,585;   -0,111;    2,682
776,407;18490,396;   -0,293;    1,955
776,975;18124,298;    1,162;    0,318
777,542;19058,563;    2,162;   -0,045
778,110;18933,556;    0,707;   -0,045
778,677;18623,821;    1,071;   -0,864
779,244;18387,723;   -1,020;    1,045
779,812;18464,897;    0,980;    0,864
780,379;18369,526;    2,435;    1,136
780,946;18605,246;    2,617;   -0,773
781,513;18875,238;   -0,565;    0,318
782,080;18281,867;    1,253;    2,864
782,647;18955,132;    1,708;    3,045
783,214;18609,670;   -0,201;    3,864
783,781;18226,208;    1,708;   -0,682
784,348;18115,383;    0,253;    1,500
784,915;18544,648;   -1,474;    0,318
785,482;18356,550;    2,708;    2,591
786,049;18757,997;    1,071;   -0,591
786,615;18854,808;    1,708;   -0,955
787,182;18617,164;   -3,201;   -0,682
787,749;18374,520;   -2,201;    1,409
788,315;17762,422;    0,253;   -0,409
788,882;18035,141;    0,981;   -1,227
789,448;18643,770;    1,435;   -0,955
790,015;18694,672;    1,799;    3,227
790,581;18273,937;    0,708;    0,227
791,148;18173,657;    1,344;    1,045
791,714;18385,013;   -1,019;    3,136
792,280;18103,824;    3,708;    1,591
792,847;17758,271;   -0,928;    2,500
793,413;18181,809;   -0,110;   -0,318
793,979;17845,711;    1,526;   -1,318
794,545;17940,249;    2,981;    2,682
795,111;17428,241;    2,435;    1,318
795,678;17555,870;    3,526;   -1,682
796,244;17231,863;    2,799;    0,136
796,810;17694,310;    0,799;    0,773
797,375;17478,757;   -0,292;   -2,136
797,941;17502,749;   -1,110;    0,591
798,507;17603,651;    0,254;   -0,955
799,073;17189,644;    2,708;    0,591
799,639;17284,909;    1,435;    3,136
800,205;17332,265;   -1,565;    2,682
800,770;16940,894;    1,345;    1,773
801,336;16963,432;    2,981;   -0,955
801,901;16762,970;    6,072;    3,136
802,467;17259,508;    0,526;    2,045
803,033;16655,046;   -0,019;    0,864
803,598;16837,039;    1,072;   -1,045
804,163;16890,940;    0,708;   -0,318
804,729;16864,387;   -0,110;    1,136
805,294;17166,289;    1,072;    2,227
805,859;16977,100;    0,890;   -0,409
806,425;16581,001;    3,890;    2,682
806,990;16241,448;    1,890;    4,318
807,555;16640,077;   -0,110;    2,591
808,120;16608,979;   -1,292;   -0,409
808,685;16635,426;    1,072;   -2,500
809,250;16236,055;    2,072;   -0,500
809,815;16502,139;   -0,201;    0,682
810,380;16988,586;    0,981;    1,591
810,945;17390,305;    2,890;    2,045
811,510;16685,025;   -0,200;    1,591
812,075;16448,836;    2,800;   -1,409
812,640;16443,192;    3,709;    1,409
813,204;16550,276;    2,163;   -0,227
813,769;16987,177;    0,254;   -0,045
814,334;16496,079;    0,527;    0,864
814,898;16572,162;    1,981;    0,591
815,463;16362,519;    0,981;   -0,773
816,027;16340,057;    1,345;   -2,318
816,592;16481,413;    2,163;   -2,045
817,156;16025,224;   -2,200;    1,136
817,721;15910,307;    0,982;    2,318
818,285;15910,754;    0,618;    1,500
818,849;16496,656;   -0,018;    1,682
819,414;16386,194;    0,073;    2,955
819,978;16001,550;   -0,291;    1,773
820,542;16571,815;    2,891;    0,500
821,106;16342,535;    2,800;    0,682
821,670;16423,709;    2,709;    2,591
822,234;16156,975;    1,073;    1,409
822,798;15651,785;   -0,836;    0,500
823,362;15650,778;    1,527;    4,227
823,926;15091,316;   -0,018;    1,136
824,490;15260,945;    3,527;   -0,682
825,054;15669,574;    2,527;   -1,136
825,618;15376,839;   -1,200;   -1,500
826,181;15283,013;    0,982;   -1,318
826,745;15216,006;   -0,745;   -1,045
827,309;15520,817;    2,255;    1,318
827,872;15024,264;    0,527;    0,955
828,436;15883,984;    1,982;   -0,773
828,999;16012,067;    2,436;    1,227
829,563;14987,605;   -0,654;    1,136
830,126;14796,325;   -0,018;   -0,591
830,690;14811,227;    0,709;    2,864
831,253;14395,037;   -0,473;    2,227
831,816;14522,030;   -0,018;    0,500
832,380;14451,477;    1,164;    0,864
832,943;14677,651;    3,073;   -0,500
833,506;14222,917;    0,255;   -1,227
834,069;14913,182;    2,164;   -0,955
834,632;15016,447;   -2,200;    1,318
835,195;14919,622;    1,346;    0,955
835,758;14201,978;    0,709;    1,955
836,321;14027,243;    1,073;   -1,045
836,884;14152,781;   -1,291;   -0,955
837,447;14198,410;    0,528;    1,773
838,010;14444,948;    1,800;    3,227
838,573;14701,304;    0,528;    0,773
839,135;14690,842;   -0,109;   -0,955
839,698;14208,471;    2,528;    0,409
840,261;13763,100;    0,255;   -0,227
840,823;13683,911;   -0,927;    0,864
841,386;13986,267;   -0,018;   -2,409
841,948;13878,896;    0,255;    1,773
842,511;13614,616;    0,255;    1,682
843,073;13679,699;    2,982;    0,227
843,636;13544,964;    0,619;   -0,227
844,198;13519,775;    1,255;    0,591
844,760;13638,859;    0,619;    1,955
845,322;13312,306;    0,164;    1,136
845,885;13697,026;   -0,290;    0,591
846,447;14109,836;    0,710;    0,227
847,009;13698,011;    3,983;   -0,682
847,571;13932,458;    1,346;   -2,045
848,133;14032,723;   -0,199;   -1,864
848,695;13891,716;    2,346;    1,409
849,257;13510,344;    1,346;   -1,682
849,819;13652,428;    2,983;   -0,409
850,381;13674,875;    1,801;   -0,864
850,942;14000,049;    1,892;   -0,591
851,504;13904,860;    0,983;    0,227
852,066;13950,671;    1,619;   -1,591
852,628;13597,027;    0,165;    1,955
853,189;13135,838;    0,256;    2,682
853,751;13294,739;   -0,654;    1,409
854,312;13141,823;    1,256;   -1,682
854,874;13566,815;   -0,108;   -0,773
855,435;13974,535;    0,528;   -1,682
855,997;14117,346;    3,983;   -0,136
856,558;13475,066;    0,801;    1,773
857,119;13618,422;   -0,744;    2,864
857,681;13339,869;   -0,108;    0,318
858,242;13371,498;    1,347;   -2,136
858,803;13767,036;    1,074;   -0,773
859,364;14281,483;    0,892;   -4,773
859,925;13734,567;   -0,290;   -0,955
860,486;13629,377;    0,529;   -0,955
861,047;13372,461;    0,165;   -1,227
861,608;13237,817;    0,165;   -0,773
862,169;13387,900;   -0,562;   -0,045
862,730;13122,257;   -0,290;    1,409
863,291;13345,431;    0,438;   -0,500
863,852;13676,151;   -0,926;    1,955
864,412;13239,689;   -1,835;   -0,864
864,973;12013,136;    1,892;    0,500
865,534;11896,674;    2,074;    0,227
866,094;13174,757;    2,620;    0,227
866,655;12867,295;    4,711;    3,318
867,215;13142,106;    0,074;    0,136
867,776;13045,553;   -1,199;   -0,136
868,336;13096,000;    1,529;    0,136
868,897;12697,629;    3,438;    1,682
869,457;12496,804;    3,256;    0,318
870,017;12713,705;    2,438;   -1,227
870,578;13155,516;    1,893;    0,773
871,138;12813,781;    2,620;   -0,955
871,698;12401,047;   -0,562;   -1,318
872,258;12281,585;    0,711;   -2,864
872,818;12665,850;    2,347;    0,045
873,378;12645,024;   -2,198;    1,045
873,938;12235,380;    4,984;    0,500
874,498;12510,646;    1,256;   -1,955
875,058;12411,911;    4,347;    1,773
875,618;12297,176;    1,438;   -2,682
876,177;12238,987;   -0,471;    0,136
876,737;11890,161;   -0,289;    1,955
877,297;11929,790;    2,711;    1,955
877,856;11950,237;    2,529;    0,318
878,416;11900,866;    2,438;   -0,136
878,976;12088,041;    3,438;    0,409
879,535;12252,488;    4,529;    3,136
880,095;12055,208;    1,347;    0,045
880,654;12150,018;    0,347;    1,318
881,213;12242,284;    2,347;    1,500
881,773;11909,276;    1,984;    2,682
882,332;12243,905;    6,075;    5,136
882,891;12136,989;    0,711;    2,136
883,451;12463,799;   -2,016;    1,682
884,010;11976,155;   -1,107;   -0,409
884,569;12090,693;   -2,289;   -0,045
885,128;12218,231;   -0,743;   -1,864
885,687;12257,406;   -0,743;    0,682
886,246;12006,398;    2,620;    2,136
886,805;11769,027;    1,620;    2,045
887,364;12020,747;    1,166;   -0,500
887,922;12340,831;   -0,016;    0,045
888,481;11847,914;    1,530;    0,591
889,040;12144,816;    3,711;    2,136
889,599;12695,081;    2,166;    1,409
890,157;12753,437;    2,166;    2,409
890,716;12357,793;    2,166;    0,227
891,274;12228,695;    0,075;   -1,136
891,833;12633,778;    1,166;    0,864
892,391;12500,953;    1,802;    0,500
892,950;12548,673;    0,166;   -0,773
893,508;12888,211;    0,984;   -0,409
894,067;12296,112;   -0,379;    0,136
894,625;12220,378;   -1,016;   -1,500
895,183;12381,643;   -0,198;   -0,682
895,741;12349,635;    2,257;   -1,773
896,299;12232,628;    1,621;   -2,409
896,858;12371,075;    1,530;   -1,591
897,416;12467,613;    0,166;   -1,318
897,974;12257,697;   -2,197;    0,318
898,532;12452,507;    6,530;    2,682
899,089;12356,045;    0,621;   -0,682
899,647;12384,311;    0,530;    1,318
900,205;12203,576;    0,257;    1,045
900,763;12340,477;    2,166;    0,227
901,321;12386,106;    3,530;   -1,409
901,878;11918,463;    3,257;   -0,773
902,436;11788,455;    0,257;    1,318
902,994;12164,720;    6,712;    3,682
903,551;11694,622;    1,439;    0,409
904,109;12048,978;    1,530;   -1,409
904,666;11685,698;    1,439;    1,045
905,224;11553,509;    3,894;   -0,409
905,781;11339,592;   -0,470;   -0,318
906,338;11403,403;    0,167;    1,045
906,895;11385,486;    1,894;    2,045
907,453;11323,115;    2,348;    1,136
908,010;11309,472;    3,348;    0,409
908,567;11043,373;   -0,561;    0,591
909,124;10611,457;    2,439;   -1,500
909,681;10656,995;   -1,288;    0,682
910,238;10855,260;   -0,106;   -1,318
910,795;11153,343;   -1,561;   -1,136
911,352;10827,798;   -0,379;   -2,682
911,909;10364,616;    2,803;   -0,864
912,466;10793,434;    1,985;    1,500
913,022;10368,616;   -0,924;    0,500
913,579;10724,980;   -0,470;    2,045
914,136;10492,707;   -2,561;    0,955
914,692;10789,980;    1,530;   -1,227
915,249;10418,162;    0,530;    0,409
915,806;10624,343;    1,803;    1,955
916,362;10472,253;    0,894;    1,864
916,918;10046,616;    2,439;    1,045
917,475;10061,616;    1,621;    0,955
918,031;10155,162;    0,076;   -0,045
918,587; 9709,707;    0,621;   -0,318
919,144; 9911,707;   -0,379;    0,227
919,700;10128,980;    0,167;    0,773
920,256; 9760,889;    0,439;    0,045
920,812; 9497,616;    1,439;   -1,045
921,368; 9552,616;    1,348;   -1,045
921,924; 9226,616;    0,439;   -0,136
922,480; 8874,071;    0,076;    1,227
923,036; 9415,253;   -0,652;    1,955
923,592; 9404,525;    0,621;    0,318
924,148; 9336,434;    1,894;   -0,955
924,704; 8787,889;    0,258;   -0,409
925,259; 9067,253;   -0,561;    0,591
925,815; 8841,980;    3,803;    0,500
926,371; 8434,434;    3,530;    1,409
926,926; 8379,525;    1,621;    0,591
927,482; 8100,980;    1,621;    0,773
928,037; 8030,889;   -0,833;    2,045
928,593; 8323,525;    0,258;    1,045
929,148; 8157,798;    1,167;   -1,500
929,704; 7732,889;    2,439;   -0,500
930,259; 7916,889;    0,894;   -0,136
930,814; 7193,162;    1,803;    1,955
931,369; 6947,980;    0,258;   -0,773
931,925; 6864,798;   -1,924;    0,136
932,480; 6827,616;    3,076;   -2,591
933,035; 6796,707;    3,985;   -0,318
933,590; 6613,980;   -1,742;   -1,773
934,145; 6345,434;   -1,288;   -0,318
934,700; 6647,525;    0,348;   -0,591
935,255; 6485,434;    4,803;    0,045
935,809; 5978,343;    6,258;    0,864
936,364; 5272,253;    2,167;   -0,136
936,919; 5302,434;    2,348;   -1,773
937,474; 5238,253;    1,348;    0,136
938,028; 5047,798;    3,076;    1,136
938,583; 4714,616;    6,348;    4,682
939,138; 4924,253;    0,167;    2,136
939,692; 4476,071;   -1,015;   -1,136
940,247; 4254,889;    1,167;   -1,045
940,801; 3966,798;    0,621;    0,227
941,355; 3911,434;    0,439;    2,591
941,910; 3614,525;    0,712;   -2,136
942,464; 3702,162;    2,712;   -0,318
943,018; 3623,162;    3,258;   -0,227
943,572; 3559,525;    2,803;   -0,682
944,126; 3139,798;   -0,924;   -0,409
944,681; 3036,253;    0,712;    0,227
945,235; 2996,434;    2,167;   -0,591
945,789; 2967,071;    1,258;   -1,864
946,342; 3148,980;   -0,561;   -0,591
946,896; 2907,434;    0,348;    0,955
947,450; 2695,434;   -0,561;   -0,227
948,004; 2941,162;    1,076;   -0,045
948,558; 2890,616;    1,258;   -0,864
949,111; 2815,707;   -1,197;   -0,318
949,665; 2948,434;   -0,106;   -0,682
950,219; 2847,253;    0,621;   -1,045
950,772; 2853,707;    0,258;    1,864
951,326; 2778,798;   -1,106;   -0,955
951,879; 2819,707;    1,076;   -2,318
952,433; 2877,434;    1,348;    2,227
952,986; 2720,980;    0,348;    0,682
953,539; 2663,343;    1,530;    0,591
954,093; 2620,889;    0,985;   -1,318
954,646; 2760,343;   -0,288;    1,318
955,199; 2582,525;    1,258;   -0,500
955,752; 2576,616;    1,985;    1,773
956,305; 2520,162;    0,894;    2,955
956,858; 2640,616;    0,621;   -0,318
957,411; 2798,525;    3,621;    2,136
957,964; 2623,162;    2,076;    2,136
958,517; 2597,889;    0,985;    3,136
959,070; 2483,343;   -1,197;    1,955
959,623; 2638,707;    1,076;    1,500
960,176; 2430,707;    0,712;    2,045
960,728; 2405,162;    1,712;    0,773
961,281; 2457,253;    2,258;    0,500
961,834; 2448,434;   -0,833;    0,864
962,386; 2393,343;    1,258;    1,045
962,939; 2317,343;    3,439;   -0,318
963,491; 2444,889;    2,621;    1,136
964,043; 2325,162;    0,076;    2,409
964,596; 2463,616;    1,712;    2,227
965,148; 2317,525;   -0,379;    1,773
965,700; 2248,343;   -0,015;   -0,227
966,253; 2389,071;   -0,833;    0,318
966,805; 2283,980;    1,894;    0,773
967,357; 2280,343;    0,439;   -1,500
967,909; 2289,434;    1,167;   -1,227
968,461; 2324,798;    0,894;    3,136
969,013; 2262,525;   -1,561;   -0,864
969,565; 2352,162;    1,803;   -1,136
970,117; 2550,071;    3,803;    1,045
970,669; 2291,253;    3,258;   -0,136
971,220; 2125,980;    2,167;   -1,500
971,772; 2094,616;    1,348;   -0,318
972,324; 2227,889;   -1,197;   -0,500
972,876; 2145,525;    0,167;   -0,045
973,427; 2309,889;   -1,197;   -1,045
973,979; 2302,434;    0,076;   -2,500
974,530; 2249,162;    0,803;    1,318
975,082; 2258,434;    2,167;    1,682
975,633; 2194,707;    2,894;    1,682
976,184; 2319,707;    2,076;    0,773
976,736; 2172,434;    0,348;    0,227
977,287; 2039,980;    0,258;   -0,500
977,838; 2166,162;   -0,924;   -0,318
978,389; 2204,980;    0,803;   -0,500
978,940; 2064,343;    1,258;   -0,409
979,491; 2075,889;    2,258;   -0,500
980,042; 2082,707;   -0,652;    3,045
980,593; 2108,980;    1,894;    0,227
981,144; 2207,343;    3,530;   -0,500
981,695; 2218,525;   -0,470;    1,500
982,246; 2164,889;   -1,833;    1,045
982,797; 2210,434;   -0,561;    0,682
983,347; 2339,071;    2,167;    0,591
983,898; 2519,434;    4,167;    0,409
984,449; 2382,616;    2,530;    0,773
984,999; 2227,889;    1,894;   -1,136
985,550; 2083,980;    3,167;   -0,318
986,100; 2062,071;    0,712;   -0,318
986,651; 2071,162;    0,258;    0,045
987,201; 2074,980;    0,894;   -0,591
987,751; 2138,525;   -0,288;    2,864
988,302; 2153,707;   -0,379;    1,500
988,852; 2152,343;    1,985;   -1,136
989,402; 2239,889;    0,985;    0,682
989,952; 2187,616;    1,621;    0,864
990,502; 2218,980;    1,076;    0,682
991,052; 2123,889;   -0,106;    0,045
991,602; 2039,434;    1,167;    1,318
992,152; 2074,253;    2,803;    0,682
992,702; 2076,162;    1,167;   -0,045
993,252; 2004,253;    0,076;   -0,500
993,802; 2096,980;    1,167;    1,318
994,352; 2251,525;   -0,742;    1,136
994,901; 2287,798;    1,076;    3,227
995,451; 2232,071;   -1,197;    0,318
996,000; 2317,434;    1,076;    0,318
996,550; 2086,980;    2,894;    0,227
997,100; 2097,434;   -0,561;   -0,045
997,649; 2351,616;   -0,197;    0,955
998,198; 2048,798;   -0,288;   -1,500
998,748; 2230,980;    0,348;   -2,318
999,297; 2125,434;    0,985;   -0,409
999,846; 2227,343;    1,894;   -0,773
1000,395; 2197,434;    1,530;    0,500
1000,945; 2234,071;    1,076;   -0,773
1001,494; 2291,162;    0,167;    0,682
1002,043; 2254,434;    0,712;    0,864
1002,592; 2082,162;    3,439;    1,955
1003,141; 2210,071;    2,439;   -0,682
1003,690; 2144,707;    1,258;    0,500
1004,238; 2145,889;   -0,106;   -0,045
1004,787; 1854,707;   -1,288;    1,227
1005,336; 2137,980;    1,621;    0,682
1005,885; 2203,798;   -0,197;   -2,773
1006,433; 2262,343;   -0,470;    0,955
1006,982; 2415,162;    2,167;    1,682
1007,531; 2278,707;    2,712;   -0,227
1008,079; 2201,253;    0,258;    0,500
1008,627; 2296,525;    1,621;    0,409
1009,176; 2119,253;    0,076;   -1,955
1009,724; 2136,071;   -2,742;    0,864
1010,273; 2231,162;    1,076;    0,500
1010,821; 2271,525;    1,076;    1,409
1011,369; 2064,434;    0,076;    1,318
1011,917; 2049,616;   -0,833;   -0,591
1012,465; 2291,071;    2,530;   -1,591
1013,013; 2361,707;    0,439;   -1,682
1013,561; 2311,525;   -1,288;   -0,773
1014,109; 2391,798;   -0,833;    1,682
1014,657; 2256,162;    1,348;    0,591
1015,205; 2312,434;    0,894;   -0,955
1015,753; 2295,616;    0,258;   -1,409
1016,301; 2351,980;    2,621;    3,045
1016,848; 2382,071;    2,167;    0,409
1017,396; 2425,616;    1,621;    0,045
1017,944; 2494,707;    2,621;    1,864
1018,491; 2272,162;   -0,197;    1,409
1019,039; 2545,525;   -0,652;    0,591
1019,586; 2367,889;    0,076;    1,682
1020,134; 2431,343;    0,712;    1,500
1020,681; 2462,798;    2,894;   -1,136
1021,228; 2433,162;   -0,561;   -2,227
1021,776; 2308,798;   -0,833;   -1,136
1022,323; 2539,343;    0,803;    0,773
1022,870; 2458,434;   -0,470;   -0,045
1023,417; 2415,707;    2,076;    1,864
1023,964; 2457,162;    0,621;    1,227
1024,511; 2363,162;   -0,652;    0,773
1025,058; 2190,980;    0,439;   -0,045
1025,605; 2232,889;   -1,742;    3,136
1026,152; 2483,434;   -0,106;   -0,591
1026,699; 2208,071;    0,167;    1,318
1027,245; 2328,343;    2,439;    0,318
1027,792; 2461,343;    0,712;    1,409
1028,339; 2463,162;    4,076;   -0,045
1028,885; 2303,525;    3,621;   -0,227
1029,432; 2241,434;   -0,106;    0,227
1029,978; 2334,434;    1,348;   -1,591
1030,525; 2242,980;    1,621;    0,409
1031,071; 2392,525;    0,348;    1,136
1031,618; 2575,253;    1,258;    1,682
1032,164; 2353,434;    2,076;    3,045
1032,710; 2401,889;    0,076;   -1,500
1033,256; 2300,434;    0,712;   -0,136
1033,803; 2252,707;   -0,288;    1,500
1034,349; 2037,707;    1,803;    0,136
1034,895; 2166,343;    2,621;   -0,318
1035,441; 2155,162;    0,439;    0,318
1035,987; 2186,525;   -2,288;   -0,682
1036,533; 2215,980;   -0,197;   -0,955
1037,078; 2427,071;    4,712;    1,682
1037,624; 2235,162;    2,439;   -0,955
1038,170; 2216,343;    1,712;   -0,318
1038,716; 2185,980;    2,167;   -0,409
1039,261; 2068,707;    2,167;   -0,773
1039,807; 2036,980;   -0,015;    3,409
1040,352; 2122,343;   -1,288;   -0,318
1040,898; 2137,798;    0,167;   -0,682
1041,443; 2031,616;    0,803;   -2,591
1041,989; 2178,525;    3,621;    1,591
1042,534; 2015,162;    0,985;    2,591
1043,079; 2053,616;    1,985;    0,955
1043,625; 1935,889;    0,258;    0,500
1044,170; 1994,980;    2,439;    1,045
1044,715; 2256,525;    0,167;    0,955
1045,260; 2084,253;   -0,833;   -0,955
1045,805; 2071,434;    0,258;   -0,591
1046,350; 1995,707;    0,530;   -0,409
1046,895; 2052,162;    0,803;    1,591
1047,440; 2018,525;    1,530;    0,409
1047,985; 1888,253;   -1,197;   -0,955
1048,530; 1810,616;    1,348;    1,227
1049,074; 1885,980;    2,803;    0,318
1049,619; 1844,616;   -0,924;    1,955
1050,164; 1689,525;    1,076;    0,227
1050,708; 1750,343;    2,621;    0,045
1051,253; 2140,980;    3,258;   -2,227
1051,797; 1854,253;   -0,197;   -1,318
1052,342; 1796,707;    1,348;    1,045
1052,886; 1826,707;    1,803;   -1,409
1053,430; 1682,798;    2,167;    0,136
1053,975; 1725,343;    0,894;   -0,318
1054,519; 1717,980;    1,803;    3,227
1055,063; 1783,343;    3,621;    1,318
1055,607; 1687,343;    1,348;    0,227
1056,151; 1697,616;    0,530;    1,682
1056,695; 1585,162;   -1,833;   -1,136
1057,239; 1649,889;   -1,197;   -0,682
1057,783; 1683,162;    2,258;   -1,500
1058,327; 1682,162;    3,076;    1,409
1058,871; 1909,525;    3,985;    1,318
1059,415; 1637,616;   -0,561;   -0,045
1059,958; 1906,616;    2,985;    2,591
1060,502; 1611,525;    1,348;   -0,773
1061,046; 1499,798;    1,712;   -0,955
1061,589; 1469,707;    2,803;   -1,136
1062,133; 1382,616;    0,985;    1,864
1062,676; 1354,525;    1,439;    0,864
1063,220; 1387,525;    0,985;    0,500
1063,763; 1416,253;    2,985;    1,136
1064,306; 1480,343;    0,985;    1,864
1064,849; 1390,525;    2,076;    0,591
1065,393; 1407,980;    2,894;   -1,500
1065,936; 1475,980;    2,530;   -0,409
1066,479; 1341,980;    2,621;    1,318
1067,022; 1375,980;    1,894;   -0,227
1067,565; 1302,980;   -1,197;   -1,318
1068,108; 1308,525;    1,258;   -0,591
1068,651; 1267,434;   -2,470;    1,409
1069,194; 1209,162;   -1,106;   -1,682
1069,736; 1237,343;    3,803;    0,955
1070,279; 1207,162;   -1,652;   -0,500
1070,822; 1297,162;    1,530;   -0,318
1071,364; 1420,071;    0,530;    1,318
1071,907; 1213,525;    0,348;    3,227
1072,450; 1071,071;    0,258;   -0,045
1072,992; 1125,071;   -0,561;    3,136
1073,535; 1270,525;    0,167;    2,136
1074,077; 1076,343;    2,985;    2,045
1074,619; 1048,525;    0,985;    0,591
1075,161; 1099,162;   -0,561;    1,500
1075,704; 1274,162;    0,258;    1,227
1076,246; 1059,162;    1,530;    0,682
1076,788;  962,162;   -1,015;    1,773
1077,330; 1033,434;   -2,106;    2,136
1077,872; 1034,162;   -1,924;    0,955
1078,414; 1271,162;    3,712;    0,773
1078,956; 1023,980;    0,167;   -0,227
1079,498; 1275,707;    0,439;    0,318
1080,040;  995,707;    0,985;   -1,318
1080,581;  928,071;    0,621;   -0,318
1081,123;  846,798;   -0,106;   -0,773
1081,665;  900,434;    3,803;   -0,955
1082,206; 1203,980;    3,258;   -0,500
1082,748; 1067,525;    3,258;    2,045
1083,289;  928,253;    0,167;    1,318
1083,831;  863,798;    0,258;    0,227
1084,372;  913,071;    0,894;    0,591
1084,913;  915,798;    3,348;    0,864
1085,455;  873,162;    1,530;   -2,045
1085,996;  859,889;    0,530;    0,136
1086,537;  898,616;    0,985;    0,864
1087,078;  912,980;    0,439;   -2,136
1087,619;  966,616;   -1,652;    0,227
1088,160;  876,525;    1,439;    1,318
1088,701;  857,889;   -0,742;    0,682
1089,242;  809,071;   -0,561;   -2,227
1089,783;  913,980;   -0,561;    1,409
1090,324;  885,798;   -0,833;    0,682
1090,865;  768,525;   -1,924;   -0,409
1091,405;  707,889;   -0,561;    2,227
1091,946;  759,162;   -0,197;   -0,955
1092,487;  686,616;   -1,288;   -1,409
1093,027;  862,253;    1,803;   -1,500
1093,568;  730,434;    2,258;    1,227
1094,108;  820,071;    0,621;    1,773
1094,649;  751,980;   -0,470;    0,136
1095,189;  682,889;    1,167;   -0,682
1095,729;  660,889;    0,712;    0,955
1096,269;  653,980;    1,258;   -0,955
1096,810;  961,707;   -0,197;    0,500
1097,350;  801,707;   -0,561;   -0,773
1097,890;  715,162;    2,985;    1,227
1098,430;  962,162;    4,985;    2,864
1098,970;  839,707;    1,894;    1,682
1099,510;  685,434;   -0,833;   -2,318
1100,050;  634,616;    0,258;   -1,591
1100,589;  616,071;    0,076;   -0,318
1101,129;  722,525;    0,894;   -0,955
1101,669;  874,071;    2,803;    2,136
1102,209;  709,162;    1,530;    2,227
1102,748;  661,434;    3,439;    0,955
1103,288;  661,707;    0,712;   -1,227
1103,827;  682,525;    3,530;   -2,227
1104,367;  575,253;    1,712;   -2,409
1104,906;  537,707;   -1,015;   -1,136
1105,445;  608,980;    0,985;   -1,136
1105,985;  566,162;   -0,652;    1,500
1106,524;  615,707;    1,530;   -0,682
1107,063;  586,071;    1,167;    1,409
1107,602;  549,071;    1,894;   -1,500
1108,141;  494,162;    1,621;    1,500
1108,680;  601,616;    3,985;   -0,591
1109,219;  532,162;    0,167;   -0,500
1109,758;  520,889;    4,167;    0,682
1110,297;  499,162;   -1,106;   -0,682
1110,836;  459,071;    1,439;    0,955
1111,375;  601,707;    0,348;    0,409
1111,913;  625,798;    0,985;    0,773
1112,452;  569,616;    0,894;    0,136
1112,991;  453,162;    1,076;    1,955
1113,529;  431,253;    0,167;   -0,045
1114,068;  492,889;    0,439;    2,955
1114,606;  401,798;   -0,561;   -0,955
1115,144;  555,525;    1,530;    1,045
1115,683;  498,980;    1,985;    0,318
1116,221;  536,798;    2,076;   -0,864
1116,759;  452,707;    1,621;   -0,864
1117,297;  639,616;    1,621;    1,864
1117,836;  454,798;    1,985;   -1,227
1118,374;  466,434;    0,258;   -0,682
1118,912;  426,707;    0,439;    2,682
1119,450;  421,980;    0,985;    0,864
1119,988;  461,980;    3,348;    2,136
1120,525;  885,253;    7,258;    3,318
1121,063;  597,707;    0,530;    1,864
1121,601;  425,434;    1,076;   -1,227
1122,139;  385,253;    1,076;   -2,045
1122,676;  584,343;   -1,652;    2,773
1123,214;  517,162;    0,712;    4,409
1123,751;  342,071;    0,621;    2,227
1124,289;  455,162;    0,894;   -0,409
1124,826;  341,162;   -0,379;    0,227
1125,364;  272,616;    0,712;   -0,955
1125,901;  446,707;    6,258;    1,227
1126,438;  534,980;    3,530;    0,955
1126,975;  295,162;    2,985;   -0,773
1127,513;  352,071;    2,621;    2,136
1128,050;  273,980;   -0,561;   -0,682
1128,587;  362,707;    1,348;   -0,227
1129,124;  403,071;   -0,015;    1,318
1129,661;  290,980;   -1,924;    0,227
1130,198;  443,889;    2,439;    0,773
1130,734;  385,798;   -0,379;    1,409
1131,271;  262,980;   -1,197;    0,864
1131,808;  424,162;    1,621;    3,045
1132,345;  304,798;    4,530;    0,318
1132,881;  192,162;   -0,561;   -1,864
1133,418;  318,616;    0,348;   -1,136
1133,954;  261,980;    0,712;   -2,682
1134,491;  319,162;    1,712;   -0,773
1135,027;  232,343;    2,167;    0,864
1135,564;  315,980;    1,439;    2,955
1136,100;  304,162;   -0,742;    2,136
1136,636;  211,343;   -1,015;   -1,045
1137,172;  286,343;    0,894;   -1,045
1137,708;  220,980;   -1,561;   -1,045
1138,245;  218,798;    0,803;   -1,227
1138,781;  179,162;    1,803;   -3,318
1139,317;  240,343;    1,894;   -1,409
1139,852;  232,253;    3,076;    0,136
1140,388;  331,434;    2,076;   -0,409
1140,924;  229,525;    1,076;   -2,227
1141,460;  177,889;   -0,288;    0,136
1141,996;  128,071;   -0,652;    2,682
1142,531;  173,980;    1,076;    3,318
1143,067;  363,253;    1,167;    1,045
1143,602;  411,707;    3,439;   -0,318
1144,138;  274,343;    0,803;    1,045
1144,673;  154,707;    1,621;    1,409
1145,209;  204,707;    2,894;   -0,318
1145,744;  131,162;    0,803;    0,864
1146,279;  260,616;    1,530;   -0,136
1146,815;  187,525;    1,530;   -2,682
1147,350;  216,253;   -0,924;    0,045
1147,885;  142,434;   -1,924;   -1,318
1148,420;  136,525;    2,439;    0,773
1148,955;  130,071;   -1,470;    1,864
1149,490;  153,889;   -1,106;   -1,591
1150,025;  142,889;   -1,106;   -1,773
1150,560;  240,343;   -0,288;   -0,955
1151,094;  207,616;    0,258;   -0,591
1151,629;  210,162;   -3,742;    0,864
1152,164;  145,343;   -1,288;    1,318
1152,698;  114,525;    1,258;   -0,136
1153,233;   77,798;   -1,379;   -0,682
1153,767;  115,798;   -0,288;   -2,318
1154,302;  162,889;   -0,379;    1,773
1154,836;  159,889;    0,803;   -2,136
1155,371;  208,525;    2,258;    3,682
1155,905;  156,980;    1,985;    1,682
1156,439;  139,707;    0,530;   -0,500
1156,973;  174,253;    0,439;    0,318
1157,507;  113,071;   -1,742;    0,682
1158,042;  137,616;   -0,652;    1,045
1158,576;  175,707;   -0,561;    1,773
1159,110;  166,071;    0,076;    2,409
1159,643;  136,434;   -2,470;   -0,045
1160,177;   86,253;   -2,015;    1,500

