
Integration time [ms]:   0,050
Averaging Nr. [scans]: 11
Smoothing Nr. [pixels]: 0
Data measured with spectrometer [name]: 7318044SP
Wave   ;Sample   ;Dark     ;Reference
[nm]   ;[counts] ;[counts] ;[counts] 

186,757;  -15,287;   38,161;    1,318
187,357;   12,736;   26,706;    0,955
187,958;   -3,735;   17,252;   -1,591
188,558;   31,978;   12,979;   -1,227
189,159;    8,929;   10,070;   -4,500
189,759;  -19,652;    5,797;   -3,591
190,360;  -19,387;    6,797;   -2,136
190,960;    9,538;    5,706;   -4,136
191,560;   18,209;    2,614;   -6,591
192,161;  215,763;    5,885;   -3,500
192,761;   84,783;    5,520;   -3,227
193,361;   33,018;    3,065;   -3,773
193,962;   82,000;    1,612;   -2,682
194,562;   14,973;   -0,114;   -3,955
195,162;   34,350;   -0,567;   -2,227
195,762;  157,416;    2,433;   -0,045
196,362;  107,188;    1,706;   -2,500
196,963;   13,646;    1,706;   -0,864
197,563;   64,618;    1,252;   -0,955
198,163;   21,688;   -0,111;   -0,682
198,763;   28,111;   -0,020;   -0,500
199,363;   87,636;    3,616;   -0,500
199,963;   61,390;    2,162;    0,409
200,563;   46,015;    6,344;   -1,409
201,163;   37,742;    5,435;   -0,227
201,763;   79,451;    1,435;    0,318
202,363;   45,089;    0,980;    1,500
202,963;   94,847;    1,526;    1,045
203,563;  169,565;    0,344;    0,500
204,162;   77,853;    1,889;   -1,864
204,762;   67,829;    2,071;    0,591
205,362;   43,462;    0,708;    1,955
205,962;   94,011;    3,435;    1,955
206,562;   95,006;    1,889;    2,318
207,161;   66,838;    1,708;    0,318
207,761;  189,220;    4,435;    2,409
208,361;   90,406;    1,889;    1,409
208,960;  144,324;    2,889;    1,500
209,560;  167,568;    0,435;    1,591
210,160;  171,516;    5,071;    1,864
210,759;  148,056;    0,708;    1,227
211,359;  139,532;   -0,474;    1,045
211,958;  332,073;    3,526;    2,045
212,558;  369,141;    0,799;    1,864
213,157;  255,826;   -0,929;    1,500
213,757;  563,645;    5,617;   -0,227
214,356;  343,617;    1,708;   -0,409
214,956;  568,207;    3,526;    0,409
215,555;  304,300;    0,617;    2,136
216,154;  242,967;   -0,292;   -0,591
216,754;  248,415;    1,253;    0,773
217,353;  326,397;   -0,383;   -1,045
217,952;  206,164;    2,072;    0,318
218,552;  390,531;    0,254;   -0,773
219,151;  295,425;   -1,110;    0,955
219,750;  289,376;    0,890;   -0,227
220,349;  297,881;   -2,292;    1,045
220,948;  423,297;    1,163;    1,136
221,548;  343,509;    0,617;    1,227
222,147;  427,704;   -1,292;   -0,409
222,746;  639,740;    1,254;   -0,955
223,345;  495,122;   -1,019;    0,500
223,944;  493,021;    1,163;    0,773
224,543;  556,791;    4,072;   -1,409
225,142;  619,891;    1,345;    0,136
225,741;  549,833;    1,163;    1,045
226,340;  534,519;    1,254;   -0,955
226,939;  776,878;    2,708;   -0,136
227,538;  591,035;    1,163;   -0,773
228,137;  778,544;    0,435;    0,864
228,735;  714,450;    0,435;    1,227
229,334;  536,443;   -0,474;   -0,227
229,933;  846,967;    0,799;    0,591
230,532;  889,651;   -1,201;   -0,409
231,131;  962,107;    1,253;    0,318
231,729;  824,585;    1,163;   -2,318
232,328;  738,634;    0,435;   -1,500
232,927;  749,054;    4,526;   -0,500
233,525;  730,603;    0,981;    0,045
234,124;  845,892;    1,890;   -1,591
234,723;  759,649;    1,617;   -1,045
235,321;  785,312;    1,163;    0,136
235,920;  867,225;    2,526;   -1,227
236,518; 1123,798;    1,072;    0,318
237,117;  973,935;    2,890;   -0,227
237,715; 1014,324;    1,163;   -0,500
238,314; 1102,025;    1,708;   -2,318
238,912; 1317,420;    0,526;   -1,409
239,510; 1180,497;    1,162;   -1,227
240,109; 1389,965;   -0,474;    3,773
240,707; 1369,497;   -0,474;    1,227
241,305; 1348,464;   -0,383;    0,136
241,904; 1550,554;   -0,292;   -2,045
242,502; 1673,293;    3,253;   -0,227
243,100; 1606,498;    3,344;   -0,955
243,698; 1718,796;    2,799;    1,682
244,297; 1832,901;   -0,656;    0,682
244,895; 1868,123;   -0,474;   -2,318
245,493; 2184,128;    2,981;   -0,591
246,091; 2196,900;    5,163;   -1,318
246,689; 2167,624;    2,163;    0,591
247,287; 2274,861;   -0,019;   -1,136
247,885; 2495,390;   -1,019;    1,227
248,483; 2551,008;   -0,201;   -0,500
249,081; 2703,792;    0,981;    1,591
249,679; 2886,717;   -1,019;    1,682
250,277; 3055,818;   -2,292;    0,864
250,875; 3049,411;    0,617;   -1,045
251,473; 3121,607;   -0,019;    0,500
252,071; 3298,553;   -0,383;    1,045
252,669; 3415,930;   -1,565;    0,318
253,267; 3598,691;    1,618;    0,773
253,864; 3552,134;    0,617;    0,682
254,462; 3645,015;    1,526;    1,591
255,060; 3595,087;    0,072;    1,318
255,658; 3778,293;   -3,292;   -0,136
256,255; 4153,949;   -0,201;   -2,045
256,853; 4136,208;    2,345;    1,409
257,451; 4155,030;    1,981;    1,864
258,048; 4547,466;    2,072;    1,864
258,646; 4221,193;    0,436;   -1,045
259,243; 4416,299;    2,981;    2,227
259,841; 4454,902;    1,799;    0,318
260,438; 4381,453;    0,254;    0,864
261,036; 4929,936;    0,617;    1,409
261,633; 4942,846;    1,526;    2,227
262,231; 4777,859;   -0,110;   -0,045
262,828; 4889,092;   -0,383;    1,136
263,425; 4943,732;   -1,928;   -0,591
264,023; 5145,178;    1,436;    0,045
264,620; 4838,731;    1,526;   -0,318
265,217; 5126,570;    2,890;    3,136
265,815; 5213,421;    2,527;    2,136
266,412; 5127,486;    0,072;    0,136
267,009; 5154,117;    0,526;    0,773
267,606; 5181,375;    0,345;   -0,955
268,203; 5110,346;   -0,383;   -0,591
268,801; 5341,230;   -0,474;    0,591
269,398; 5546,887;   -0,564;    2,500
269,995; 5553,728;    0,890;    1,591
270,592; 5400,838;    0,799;   -0,500
271,189; 5572,373;    1,981;    0,409
271,786; 5680,221;    2,072;    1,227
272,383; 5637,125;   -0,383;    0,227
272,980; 5693,548;    1,617;    0,318
273,577; 6040,066;    2,162;    1,227
274,174; 5662,203;    1,435;    2,591
274,771; 5653,021;    1,890;   -0,773
275,367; 5866,517;    3,253;    1,409
275,964; 5826,624;   -0,565;   -0,500
276,561; 5925,941;   -2,474;   -1,045
277,158; 6093,899;    1,799;   -1,773
277,755; 6272,882;   -0,110;    0,409
278,351; 5707,553;    0,436;   -1,500
278,948; 6043,756;   -0,201;    0,045
279,545; 6095,926;    0,527;    2,318
280,141; 6704,652;    1,254;   -2,045
280,738; 6550,831;    2,435;   -0,136
281,334; 6724,159;   -0,383;    0,591
281,931; 6300,795;    2,890;   -1,318
282,528; 6517,353;    4,072;   -0,500
283,124; 7191,288;    3,345;   -0,500
283,721; 7129,780;    0,709;    1,409
284,317; 7037,771;    0,163;    2,500
284,913; 7591,938;   -0,110;    0,591
285,510; 7864,847;    2,890;   -0,318
286,106; 7956,767;    2,345;   -0,955
286,703; 7558,168;    0,072;    1,955
287,299; 7825,447;    1,254;   -0,591
287,895; 8095,308;    0,890;   -1,045
288,491; 8706,250;    0,163;    2,136
289,088; 8536,615;    0,163;    2,409
289,684; 8639,202;    2,890;    1,500
290,280; 8738,641;    1,890;    0,682
290,876; 8853,332;    0,163;    5,500
291,472; 8869,840;    2,163;    2,227
292,068; 9028,320;    1,254;    0,227
292,665; 8821,993;   -0,564;    0,773
293,261; 8594,471;   -1,292;    2,136
293,857; 9024,724;    4,072;    2,136
294,453; 9020,237;   -0,928;    0,955
295,049; 8951,188;    0,253;    1,955
295,644; 9068,351;   -1,292;    0,136
296,240; 9060,438;    0,162;   -0,136
296,836; 9198,266;   -0,747;    0,318
297,432; 9501,686;    2,980;   -0,500
298,028; 9640,931;    0,435;    0,773
298,624;10050,732;    0,889;    1,864
299,220;10303,213;    0,435;    0,591
299,815;10017,229;    0,526;   -0,409
300,411; 9867,370;    0,435;    1,773
301,007; 9941,466;    1,889;    0,227
301,602;10012,424;    2,071;   -2,318
302,198;10183,065;    1,435;   -0,773
302,794;10528,352;    1,526;   -0,500
303,389;10686,636;    1,071;    1,045
303,985;10721,797;    1,253;    1,409
304,580;10734,530;    0,889;    1,591
305,176;10726,702;    0,344;    0,136
305,771;10674,676;   -0,929;   -1,227
306,367;10529,397;    3,071;    0,136
306,962;10886,788;    2,889;    1,500
307,558;10594,179;    2,435;    0,136
308,153;10529,615;   -0,383;   -1,136
308,748;10702,107;    0,162;    1,682
309,344;10689,611;    0,253;   -1,318
309,939;10798,245;    2,071;   -1,318
310,534;11067,292;   -2,020;   -1,682
311,130;10954,082;   -0,656;   -2,500
311,725;10680,476;    0,526;   -0,500
312,320;10964,400;    1,253;    0,045
312,915;10838,477;    2,890;   -1,045
313,510;10865,693;    0,526;   -0,500
314,105;11319,571;   -3,565;    1,409
314,700;10723,510;   -1,656;   -1,045
315,295;10364,712;   -0,020;    0,045
315,890; 9955,962;   -0,292;    0,864
316,485;10236,210;    0,253;   -0,318
317,080;10300,159;   -0,929;    1,591
317,675;10790,494;    3,071;   -0,682
318,270;10213,993;    6,889;    3,318
318,865;10273,080;    2,435;    3,045
319,460;10088,574;   -1,565;    0,591
320,055;10321,561;   -2,565;   -1,227
320,650; 9959,874;   -1,838;   -0,591
321,244; 9998,943;    0,889;   -1,409
321,839;10915,521;    0,980;   -0,227
322,434;10793,036;   -0,111;   -1,591
323,029;10490,133;   -0,474;    1,591
323,623;10340,925;    0,798;    0,773
324,218;10139,744;    2,707;    1,409
324,812;10040,447;    0,889;    1,591
325,407; 9897,302;   -0,929;    2,045
326,002; 9882,459;    0,526;   -0,409
326,596;10220,771;   -0,656;    1,318
327,191;10449,350;   -0,383;   -1,045
327,785;10071,044;   -0,747;   -0,227
328,379;10380,200;   -0,383;    0,136
328,974;10162,504;    1,798;   -3,955
329,568;10460,118;    2,889;   -2,409
330,163;10321,081;    2,435;    1,045
330,757;10723,281;    0,253;    1,591
331,351;10147,817;   -0,292;    0,682
331,945;10464,257;   -0,383;    1,409
332,540;10139,366;    1,617;   -0,591
333,134;10298,166;    3,344;    0,773
333,728;10543,789;    2,799;    0,318
334,322;10935,133;    0,889;   -0,864
334,916;10313,629;    0,344;    0,955
335,510;10704,023;   -0,111;   -0,136
336,105;10961,895;   -0,929;    1,591
336,699;10692,468;   -1,292;    0,591
337,293;10700,226;    1,071;    0,318
337,887;10834,886;    0,071;    1,955
338,481;10990,121;    2,980;    0,591
339,074;11203,898;    2,071;    2,682
339,668;11080,394;   -0,110;    1,227
340,262;11373,110;    7,708;    3,227
340,856;10900,180;    1,708;   -0,682
341,450;10305,545;    0,708;    1,864
342,044;11237,863;    1,799;    0,136
342,637;11040,419;    1,162;   -2,136
343,231;10875,911;   -1,474;    0,682
343,825;10870,374;   -0,747;   -0,591
344,419;10857,007;   -0,474;    0,500
345,012;10704,460;    2,889;    4,045
345,606;10738,770;   -0,656;    1,591
346,199;10582,753;   -0,111;   -0,227
346,793;10145,885;    2,525;    2,045
347,386;10371,775;    0,889;   -1,136
347,980;10360,145;   -0,838;   -0,045
348,573;10195,510;   -1,748;    0,409
349,167; 9880,321;    6,161;    4,773
349,760;10244,360;    2,252;    2,682
350,354;10223,309;    1,616;    1,136
350,947; 9936,145;    2,798;    1,682
351,540; 9637,170;    0,616;   -1,409
352,134; 9567,755;   -1,111;    1,136
352,727; 9668,127;   -0,657;    1,136
353,320; 9468,896;    2,343;    0,591
353,913; 9277,404;   -1,929;    1,864
354,507; 9466,422;    0,434;   -1,227
355,100; 9497,582;    0,071;    0,864
355,693; 8680,537;    4,798;    2,409
356,286; 8743,660;    0,980;    2,773
356,879; 9083,004;   -0,475;    1,227
357,472; 8636,046;    0,980;    1,500
358,065; 8843,956;    3,161;    2,500
358,658; 8783,909;    0,798;    2,318
359,251; 8401,189;    0,252;   -0,591
359,844; 7864,308;    0,343;   -1,136
360,437; 8025,467;    0,252;    0,045
361,030; 8292,794;    0,525;   -0,682
361,623; 7855,181;    0,434;    0,318
362,215; 7852,249;    0,979;    2,045
362,808; 7732,453;   -2,293;   -1,682
363,401; 7914,938;    0,798;    0,136
363,994; 7651,600;    3,252;   -1,500
364,586; 7579,434;    0,888;   -1,500
365,179; 7740,854;   -0,203;   -1,136
365,772; 7218,618;   -0,930;    2,045
366,364; 7479,832;    1,524;   -3,227
366,957; 7707,390;    1,342;   -0,045
367,549; 7677,377;   -0,203;   -0,864
368,142; 7336,921;    0,978;   -1,500
368,734; 7516,587;    2,523;   -2,136
369,327; 7459,426;    2,341;   -0,500
369,919; 7369,455;   -1,659;    0,409
370,512; 7151,128;   -1,023;   -0,500
371,104; 6870,871;    2,704;    1,591
371,696; 7020,254;    1,703;   -0,955
372,289; 7104,264;    0,157;    1,136
372,881; 7250,998;    1,156;    1,318
373,473; 7144,292;    4,064;    1,136
374,066; 6959,743;    1,336;    0,500
374,658; 6826,449;    0,879;    1,136
375,250; 7162,833;   -1,668;   -1,409
375,842; 7002,200;   -0,124;   -0,045
376,434; 6829,182;   -2,762;   -0,409
377,026; 7422,658;   -1,855;   -2,500
377,618; 7278,296;    0,779;   -0,682
378,210; 7124,041;    3,141;   -1,955
378,802; 6953,970;    3,412;   -0,591
379,394; 6922,520;    3,411;    0,682
379,986; 7488,218;    1,138;   -0,955
380,578; 7561,175;    1,410;    0,773
381,170; 6898,472;    0,320;    0,045
381,762; 6859,220;   -0,224;    1,409
382,354; 7078,344;   -0,223;   -1,318
382,945; 7144,420;    0,870;    0,318
383,537; 7315,084;    1,144;   -1,955
384,129; 7345,771;    0,963;   -1,136
384,721; 7466,585;    0,418;    0,955
385,312; 7373,851;   -1,399;   -0,955
385,904; 7449,527;   -0,945;    1,591
386,496; 6850,039;    0,691;    1,045
387,087; 7002,996;    0,418;    2,500
387,679; 6997,162;   -0,401;    0,045
388,270; 7163,623;   -2,401;    2,045
388,862; 7250,986;   -0,401;   -0,318
389,453; 7101,767;    1,054;    1,045
390,045; 7386,009;    3,236;   -2,682
390,636; 7322,514;    0,144;   -0,591
391,227; 7184,276;    2,054;   -0,045
391,819; 7267,793;    0,781;    0,773
392,410; 7337,577;    0,600;    0,045
393,001; 7278,688;    1,600;   -1,591
393,593; 7522,593;    0,600;   -0,045
394,184; 7382,513;    0,873;   -0,409
394,775; 7253,367;    1,146;    2,136
395,366; 7488,021;    1,782;    0,773
395,957; 7462,797;   -2,400;    0,136
396,548; 7800,075;    1,054;    2,682
397,139; 8079,291;    2,236;    0,591
397,730; 7811,436;    0,873;    0,955
398,321; 7829,434;    0,509;    0,955
398,912; 7799,495;   -0,764;    0,136
399,503; 7944,701;   -1,945;   -1,409
400,094; 7415,791;   -1,582;    1,682
400,685; 7287,087;    3,600;    0,045
401,276; 7338,967;   -0,400;   -0,955
401,867; 7642,946;   -1,127;    0,773
402,458; 7708,110;    1,509;   -2,318
403,048; 7688,426;    0,146;    0,591
403,639; 7313,676;    1,509;    0,864
404,230; 7579,738;    0,691;    0,318
404,821; 7484,428;   -0,127;    0,045
405,411; 7577,344;   -0,763;   -2,591
406,002; 7125,101;    3,237;   -1,136
406,592; 6975,284;    2,691;    0,045
407,183; 7256,801;    0,328;   -1,500
407,774; 7105,631;    1,419;   -0,136
408,364; 7412,748;    2,600;    0,409
408,954; 7032,484;   -0,036;    1,227
409,545; 7065,018;    1,873;    1,045
410,135; 6548,121;   -1,581;    0,500
410,726; 6673,519;    0,783;    0,318
411,316; 7024,809;    2,237;    0,773
411,906; 6629,194;    0,146;   -0,409
412,497; 6156,908;   -0,490;   -0,045
413,087; 6682,524;    0,783;   -0,227
413,677; 6983,732;   -2,490;    3,864
414,267; 6769,322;   -1,035;    1,409
414,857; 6719,526;    0,419;    4,227
415,448; 6921,210;   -0,763;    0,500
416,038; 6596,260;   -2,945;   -0,591
416,628; 6488,994;    0,965;    0,409
417,218; 6030,832;   -1,762;    3,318
417,808; 6214,581;    0,965;   -0,409
418,398; 6549,162;   -1,035;    2,682
418,988; 6457,512;   -2,217;    0,591
419,578; 6580,268;    3,601;    1,409
420,168; 6843,475;    0,692;   -0,955
420,757; 6416,514;    0,964;   -1,500
421,347; 6047,866;    1,601;   -0,227
421,937; 6104,432;    3,329;    1,409
422,527; 6045,116;    2,602;   -0,773
423,116; 5822,917;    2,692;   -0,045
423,706; 6083,570;    2,965;    0,318
424,296; 5973,653;    1,601;    0,682
424,885; 6316,471;    1,510;   -3,045
425,475; 6460,072;    1,147;   -2,864
426,065; 6324,733;   -1,489;   -0,318
426,654; 5968,401;    0,329;   -0,318
427,244; 6026,118;    1,147;    1,409
427,833; 5503,184;    1,056;   -0,500
428,423; 5781,329;    0,147;    1,136
429,012; 6335,338;    2,420;   -1,136
429,601; 5879,330;    2,057;    0,136
430,191; 5974,629;    2,511;    4,318
430,780; 5564,578;   -1,671;   -0,409
431,369; 5543,424;    1,329;   -0,045
431,959; 5953,292;    1,693;    0,500
432,548; 5692,880;   -1,398;   -0,045
433,137; 5710,106;    0,329;   -1,318
433,726; 6063,164;    0,148;    0,500
434,315; 5529,984;    0,148;    2,409
434,905; 5561,799;    0,693;    1,409
435,494; 5498,121;    3,148;    0,955
436,083; 5706,787;    1,420;   -0,955
436,672; 5473,832;    1,148;    0,500
437,261; 5195,426;    0,512;   -1,955
437,850; 5227,813;   -1,125;    0,682
438,439; 5126,099;    2,239;    1,955
439,027; 4970,765;    3,421;    1,773
439,616; 5143,506;    2,239;    1,227
440,205; 4890,860;    0,057;   -2,136
440,794; 4730,434;   -0,306;   -0,045
441,383; 4787,222;    1,603;   -0,591
441,971; 4594,661;   -0,306;    0,591
442,560; 4379,872;    0,603;   -1,773
443,149; 4137,305;    3,060;   -1,318
443,737; 4200,365;    0,968;   -2,318
444,326; 4264,974;    0,331;    0,318
444,915; 4188,260;   -1,851;    0,864
445,503; 4307,129;    0,058;   -0,318
446,092; 3996,613;    7,876;    2,136
446,680; 4229,395;    1,876;    0,318
447,269; 4204,124;   -1,487;   -0,318
447,857; 3938,016;    2,240;   -1,773
448,445; 3938,709;    2,149;    1,318
449,034; 3996,355;    0,876;   -1,136
449,622; 3965,450;    1,240;    3,500
450,210; 3778,881;    3,149;    2,227
450,799; 3922,361;    2,604;   -0,591
451,387; 3680,968;    1,786;   -0,591
451,975; 3497,745;   -1,305;    0,864
452,563; 3605,102;    0,422;    2,318
453,151; 3440,027;   -1,032;   -1,227
453,739; 3324,874;   -1,577;    0,136
454,328; 3360,158;    0,604;   -2,136
454,916; 3117,703;    1,150;   -0,136
455,504; 3134,952;    3,513;    1,227
456,092; 3170,572;    2,150;   -1,591
456,679; 3037,097;    0,604;    0,682
457,267; 3437,716;    3,604;    1,045
457,855; 3128,547;    3,241;    1,409
458,443; 2814,544;   -0,304;    1,682
459,031; 3068,489;    1,332;    2,409
459,619; 3153,410;   -3,577;    2,864
460,206; 3017,292;   -0,759;    2,045
460,794; 3077,830;   -0,668;   -0,227
461,382; 3165,426;    0,878;   -0,864
461,970; 2898,636;    0,605;    1,864
462,557; 2893,115;    0,878;   -0,682
463,145; 3066,497;   -0,304;   -1,682
463,732; 3224,433;    2,514;   -1,045
464,320; 2967,644;    1,514;   -3,045
464,907; 2964,670;    0,423;   -0,773
465,495; 2789,361;    2,696;   -1,227
466,082; 2722,483;    2,060;   -0,045
466,670; 2561,225;    2,605;    1,227
467,257; 2727,716;    0,060;    2,045
467,844; 2872,781;    1,514;    0,045
468,432; 2831,009;   -0,031;    3,500
469,019; 2597,444;    1,606;   -1,773
469,606; 2733,172;    0,969;    3,682
470,193; 2688,454;    2,151;    0,227
470,780; 2548,043;    0,333;    0,864
471,368; 2522,323;   -1,212;   -0,773
471,955; 2476,108;    1,060;   -0,682
472,542; 2273,054;   -0,303;   -1,136
473,129; 2200,371;   -0,485;    0,136
473,716; 2072,223;    0,060;    0,591
474,303; 2083,958;    1,333;   -0,864
474,890; 2132,708;    2,333;   -0,500
475,477; 2224,542;   -0,576;    0,409
476,064; 2048,558;    0,697;   -1,591
476,650; 2048,281;    2,152;    0,318
477,237; 1923,371;    1,879;    0,955
477,824; 1867,698;    3,879;    0,864
478,411; 1729,138;    0,606;   -0,318
478,997; 1731,131;    0,606;   -0,773
479,584; 1630,756;   -0,666;   -0,409
480,171; 2000,530;    1,243;   -0,773
480,757; 1999,479;   -0,848;    0,773
481,344; 1831,415;    0,334;    0,409
481,931; 1522,681;   -0,393;    1,045
482,517; 1867,920;    0,425;    0,318
483,104; 1992,270;    1,334;    2,864
483,690; 1868,372;    0,243;    0,045
484,276; 1830,484;    0,698;    0,227
484,863; 2080,891;    2,152;    1,136
485,449; 1907,550;    0,152;    0,318
486,035; 1768,960;   -0,666;   -0,136
486,622; 1974,792;   -2,393;    0,045
487,208; 1835,994;    1,334;    1,500
487,794; 1751,550;    0,971;    0,318
488,380; 1767,579;    0,698;   -1,409
488,967; 1739,814;   -1,120;   -0,409
489,553; 1784,332;   -1,029;   -1,409
490,139; 1913,126;    0,971;    0,773
490,725; 1756,871;    0,789;   -0,227
491,311; 1732,003;    1,516;    3,045
491,897; 1531,923;   -0,665;    1,500
492,483; 1619,257;    0,426;    1,227
493,069; 2406,907;    5,426;    0,864
493,655; 1930,372;    1,789;    0,682
494,241; 1811,231;    1,517;   -0,955
494,826; 1992,055;    0,335;   -1,045
495,412; 1984,360;    0,335;   -0,682
495,998; 2050,820;    0,971;   -0,318
496,584; 2151,804;    2,244;    1,045
497,169; 2162,995;    2,335;   -0,682
497,755; 2192,732;    1,244;    1,227
498,341; 2741,173;    2,153;    0,318
498,926; 2832,927;    2,881;    1,955
499,512; 2840,795;   -0,028;    2,955
500,097; 2908,852;   -0,574;   -0,318
500,683; 3105,080;   -0,028;    2,136
501,268; 3504,755;    1,881;   -0,955
501,854; 3653,677;   -0,119;    1,227
502,439; 3799,780;   -0,573;   -1,773
503,024; 4106,130;    1,608;    0,500
503,610; 4418,423;    1,335;   -0,682
504,195; 4651,677;    1,245;    1,955
504,780; 5057,497;    2,335;    1,227
505,366; 5325,475;    4,063;    2,864
505,951; 5428,568;   -1,119;    1,045
506,536; 5804,487;    1,427;   -3,682
507,121; 6090,383;    1,699;   -0,318
507,706; 6778,485;   -0,392;    1,045
508,291; 7330,481;   -2,937;    1,136
508,876; 7290,442;   -0,482;    2,591
509,461; 7207,728;    1,427;   -0,773
510,046; 7896,927;   -0,391;    0,318
510,631; 8429,410;   -0,119;   -0,773
511,216; 8471,884;   -0,664;   -0,500
511,801; 9177,648;   -0,755;    2,591
512,386; 9683,135;    0,972;    0,500
512,971; 9916,965;    0,427;    0,955
513,555; 9809,409;    1,154;   -1,500
514,140;10798,739;    1,336;   -3,136
514,725;11064,007;    1,791;   -1,136
515,309;11427,531;    1,064;    0,318
515,894;11198,041;   -0,300;   -2,227
516,479;11849,805;    1,973;   -0,955
517,063;11831,863;    0,882;    1,227
517,648;12187,969;    0,155;   -1,136
518,232;12004,635;   -1,300;   -1,409
518,817;12534,429;    1,337;    1,682
519,401;12891,739;    0,700;    0,591
519,985;12549,891;    2,700;    1,136
520,570;12578,716;   -0,118;   -1,955
521,154;13031,918;    0,064;    0,591
521,738;13319,476;    1,064;    2,409
522,323;13979,351;   -0,390;    1,682
522,907;13827,615;    2,428;   -0,136
523,491;13628,535;    1,155;    0,955
524,075;13665,420;    0,428;    0,591
524,659;13834,571;    0,973;    0,591
525,243;13308,344;    0,883;    0,409
525,827;13648,847;    0,883;   -0,045
526,411;14551,934;    1,155;   -0,136
526,995;14839,849;    0,337;    1,409
527,579;14478,440;    1,974;   -1,045
528,163;14812,803;    0,428;   -1,500
528,747;14800,057;    1,065;   -0,773
529,331;15114,707;    0,883;   -1,409
529,915;15347,205;    2,338;    0,955
530,499;15363,446;    0,247;    1,227
531,082;15059,978;    1,065;    1,591
531,666;14475,748;    0,520;    0,773
532,250;15247,487;    0,428;    2,682
532,833;15599,880;    0,610;    2,773
533,417;15513,828;    1,247;    0,864
534,001;15489,384;    0,429;   -0,318
534,584;16187,765;    1,974;    0,500
535,168;16029,304;    3,247;    1,409
535,751;16101,965;    4,520;    0,045
536,334;15550,089;    4,520;   -0,409
536,918;16241,746;    1,974;    1,591
537,501;16319,252;    1,520;    1,318
538,085;16294,460;    1,702;    1,045
538,668;16450,799;    0,883;    2,409
539,251;16800,684;    3,156;    3,773
539,834;16835,306;    0,156;    0,773
540,418;16742,622;    3,247;    4,318
541,001;16912,834;    2,702;    1,773
541,584;16935,703;    1,429;    2,227
542,167;16588,850;    0,702;    2,955
542,750;16758,006;    0,793;   -0,773
543,333;16356,732;    1,429;    2,136
543,916;17160,501;   -0,298;    2,500
544,499;17749,324;    2,520;    0,227
545,082;17747,122;    0,248;    3,591
545,665;17951,215;   -0,207;    1,500
546,248;18281,277;    0,520;   -0,318
546,830;17971,046;   -1,752;    1,955
547,413;18388,826;    0,157;   -0,773
547,996;18936,297;    0,157;    0,500
548,579;18731,964;   -0,843;    0,955
549,161;18524,671;    0,884;    2,682
549,744;18308,157;    0,612;    0,409
550,326;18818,073;    0,885;   -1,136
550,909;18587,366;    2,339;    0,591
551,492;18998,778;    0,521;    0,227
552,074;18789,336;   -0,024;   -1,318
552,657;19361,490;    2,430;    0,045
553,239;19113,508;   -3,024;   -0,773
553,821;19043,071;   -1,570;    1,045
554,404;18542,636;   -0,024;    1,136
554,986;18956,044;    2,248;    1,045
555,568;19521,335;    0,430;   -0,955
556,151;18683,948;    4,067;   -0,227
556,733;18929,662;   -1,388;   -0,864
557,315;19411,780;    4,703;    0,500
557,897;19207,734;    0,521;   -0,500
558,479;19351,045;    1,703;    1,318
559,061;19484,156;    1,067;   -0,864
559,643;19805,073;   -0,297;    0,045
560,225;20201,042;   -0,388;    2,864
560,807;20216,891;    0,340;    0,318
561,389;19727,245;   -1,206;    2,318
561,971;20431,476;   -0,660;    2,136
562,553;20257,646;    0,613;    1,591
563,135;20390,030;    1,249;    1,136
563,717;19992,540;    3,158;    1,136
564,298;20723,245;    3,976;   -0,045
564,880;20484,099;    0,340;   -1,409
565,462;20611,008;    1,977;    1,318
566,043;21819,281;   -0,933;    2,318
566,625;21349,369;    4,067;    1,227
567,207;21203,162;    0,704;    1,682
567,788;22330,453;   -0,114;    1,500
568,370;23246,241;   -1,841;   -0,500
568,951;23015,629;   -0,569;    0,227
569,533;23931,565;    0,977;   -0,500
570,114;24443,710;   -0,296;    0,682
570,695;24913,035;   -0,478;   -1,318
571,277;25410,534;   -0,205;   -1,682
571,858;26231,256;    2,704;   -1,136
572,439;27145,176;    0,795;   -1,045
573,021;27346,585;    0,432;   -2,773
573,602;27865,264;    1,795;    0,318
574,183;28791,371;   -0,114;    2,227
574,764;29005,783;    2,068;    0,409
575,345;29546,460;    0,250;   -0,136
575,926;30198,823;    2,704;    0,136
576,507;30215,170;    2,704;   -0,227
577,088;31282,683;    1,704;    1,682
577,669;31326,722;    1,704;    1,955
578,250;32094,371;   -0,750;   -1,045
578,831;32754,647;   -0,841;   -2,227
579,412;32987,061;   -1,205;    0,955
579,993;33974,859;    1,432;    0,227
580,573;34308,712;   -0,023;   -0,955
581,154;33278,212;    1,613;   -0,591
581,735;34152,687;    0,341;    0,773
582,315;33610,687;    0,523;    2,136
582,896;33927,420;   -1,750;    1,227
583,477;33391,781;    0,614;    1,227
584,057;33619,646;    1,159;    0,955
584,638;33897,950;   -2,750;    2,318
585,218;33914,366;    2,886;    2,682
585,799;34049,550;    1,977;   -0,227
586,379;34003,774;    1,250;    1,591
586,959;32742,162;    2,613;    0,318
587,540;32071,996;    0,432;    2,227
588,120;31553,403;   -1,113;   -0,045
588,700;30496,895;    2,977;    2,136
589,281;30815,831;    1,250;   -0,955
589,861;30697,794;   -0,296;   -1,682
590,441;30550,839;   -1,477;   -2,682
591,021;29457,219;    1,432;   -2,591
591,601;29723,144;    0,431;    0,500
592,181;29727,433;   -1,296;   -0,773
592,761;28978,648;    2,250;    1,409
593,341;28905,036;    1,522;    0,045
593,921;28864,197;   -0,569;    1,591
594,501;28746,193;    1,250;    1,318
595,081;28572,494;    0,522;   -0,318
595,661;28945,503;    1,068;    0,955
596,240;29508,721;   -1,023;    0,136
596,820;29055,410;    2,613;    1,955
597,400;29294,887;    1,977;    0,773
597,980;29526,905;   -0,750;    1,045
598,559;29561,513;    0,341;   -0,227
599,139;29234,898;   -0,750;   -1,227
599,718;29105,717;    0,795;   -0,409
600,298;29377,726;   -2,387;    0,682
600,877;29600,007;    4,795;    1,409
601,457;29898,241;    0,340;    1,136
602,036;29777,958;    1,795;    2,045
602,616;30051,719;    2,250;    1,682
603,195;30369,692;    0,431;    3,500
603,774;29823,955;   -0,296;    2,045
604,354;29724,385;    2,522;   -0,500
604,933;29161,405;    0,250;    1,864
605,512;29320,638;    2,340;    0,591
606,091;29367,453;    1,886;    3,773
606,671;30178,304;    0,249;    0,773
607,250;29234,857;    1,431;    3,136
607,829;29517,681;    1,158;    3,227
608,408;29344,141;    4,613;    2,591
608,987;28356,572;    2,704;    3,409
609,566;28740,780;    0,341;   -2,500
610,145;28796,465;    2,885;    0,682
610,723;29219,056;    1,613;    6,864
611,302;28407,630;    1,067;    1,682
611,881;27894,296;    5,158;   11,227
612,460;28739,185;    0,795;    3,955
613,039;29165,961;    1,703;    2,045
613,617;27839,546;    0,886;    4,773
614,196;28030,398;    1,613;    1,227
614,775;28369,104;    1,249;    2,409
615,353;28331,395;   -1,660;    0,864
615,932;28007,739;    0,249;    2,409
616,510;28623,918;    0,158;    0,591
617,089;28130,900;    8,794;   17,591
617,667;27891,833;    4,885;    6,136
618,246;27674,275;   -1,115;    1,318
618,824;27892,167;    1,612;   -0,955
619,402;27452,807;    0,431;   -1,773
619,981;27961,032;    1,067;   -1,045
620,559;27837,877;    0,794;    1,682
621,137;27357,049;    3,067;    1,864
621,715;27270,641;    3,703;   -0,682
622,293;27207,559;    1,885;   -0,773
622,871;27694,144;    0,340;    0,500
623,450;27294,786;    0,430;   -0,864
624,028;27182,177;   -0,388;   -0,955
624,606;26732,805;    2,339;    1,682
625,183;27129,903;   -0,661;   -1,136
625,761;26776,718;    1,885;    1,136
626,339;27106,610;    2,339;    2,591
626,917;27485,368;    0,339;   -0,045
627,495;27552,592;    2,794;    1,318
628,073;26974,841;    5,248;    2,864
628,650;26617,262;    3,067;    2,136
629,228;27001,621;    1,248;    4,409
629,806;26364,996;   -0,024;    1,136
630,383;26635,448;    0,066;   -0,318
630,961;26426,210;   -2,206;   -0,955
631,539;26200,591;   -2,479;    0,227
632,116;25417,301;   12,703;   15,409
632,694;26090,819;    4,885;    6,500
633,271;26384,187;    1,975;    2,682
633,848;26310,875;    1,430;    2,045
634,426;26382,210;    1,521;    1,773
635,003;25485,682;   -0,207;   -0,409
635,580;25801,122;    1,884;    3,682
636,158;26294,466;    3,793;    1,227
636,735;26280,582;    3,339;   -0,500
637,312;26434,135;    0,521;   -0,682
637,889;26559,342;    2,248;   -0,682
638,466;26055,373;    0,066;   -0,409
639,043;26028,206;    1,702;   -1,136
639,620;26382,353;    0,611;   -0,955
640,197;26670,589;    1,612;    1,682
640,774;26783,734;    1,430;    1,136
641,351;27191,061;    0,612;    1,136
641,928;26583,843;    2,794;    1,409
642,505;26249,897;    0,794;   -0,500
643,082;26334,861;    1,885;    1,227
643,658;25362,279;    1,157;    1,500
644,235;26128,515;   -2,479;    2,500
644,812;26398,661;    1,794;    0,773
645,388;26127,079;    1,612;    1,409
645,965;26227,315;    1,521;    1,682
646,542;26294,278;    3,430;   -0,227
647,118;26292,696;    3,703;   -0,955
647,695;26601,114;    0,339;    1,136
648,271;26478,351;   -2,115;    0,500
648,848;26778,951;    0,248;    2,227
649,424;26616,005;    0,976;    1,318
650,000;26382,150;   -0,388;   -1,045
650,577;26262,387;    0,158;   -0,955
651,153;26664,350;   -1,115;    0,955
651,729;27646,586;    0,521;    0,864
652,305;27810,368;    1,339;    2,773
652,881;32318,695;   -1,297;    1,136
653,458;39316,022;    0,249;    0,227
654,034;43247,349;    0,703;    1,591
654,610;44845,131;    0,339;    0,773
655,186;46201,095;    1,612;    3,045
655,762;45881,785;   -1,842;    0,409
656,338;45986,658;    0,703;    0,136
656,913;47049,712;   -0,297;    0,409
657,489;46315,858;    0,249;   -0,318
658,065;46267,003;    0,794;   -1,591
658,641;46873,876;    2,158;   -0,864
659,217;46160,930;    2,067;    0,409
659,792;45632,621;   -1,751;   -0,409
660,368;45975,766;   -0,388;   -0,682
660,944;45639,093;    1,794;    1,227
661,519;41042,693;    0,522;    0,409
662,095;34725,475;   -0,206;    0,591
662,670;29862,166;   -0,206;   -0,136
663,246;28641,493;   -0,660;   -0,409
663,821;27880,002;    0,431;    1,682
664,396;27390,329;    0,613;    1,864
664,972;27651,656;   -0,660;   -0,500
665,547;28000,529;    3,794;    0,136
666,122;28023,765;    1,340;    0,318
666,698;28300,274;    2,431;    0,318
667,273;27588,783;    0,885;    0,136
667,848;28404,655;    0,340;    1,500
668,423;28165,437;    1,795;    2,318
668,998;28734,855;    0,976;   -0,682
669,573;29297,728;    2,067;   -1,500
670,148;29134,328;    1,885;   -0,682
670,723;28890,291;   -0,024;    0,318
671,298;29376,800;   -1,296;    1,045
671,873;29508,854;   -0,296;   -0,136
672,448;29414,454;    1,704;    0,136
673,023;29771,963;    0,249;   -0,227
673,597;30133,290;    2,704;    2,318
674,172;29887,163;    2,431;    0,318
674,747;29394,217;   -0,205;   -1,045
675,321;29246,454;   -0,933;    3,318
675,896;28781,235;    2,158;    1,045
676,471;29807,744;    2,522;    1,591
677,045;29545,072;   -0,296;    0,682
677,620;29563,671;    2,158;    1,136
678,194;29892,180;    0,249;    1,136
678,769;29470,689;    0,886;   -0,318
679,343;29629,380;   -0,023;    1,773
679,917;29494,253;    0,340;    1,955
680,492;29581,034;    0,249;    3,227
681,066;29767,452;    0,613;    0,409
681,640;29793,961;    1,795;   -0,318
682,214;30617,834;    2,340;    0,500
682,788;30052,070;    0,613;   -0,773
683,363;29985,397;    1,977;    1,682
683,937;29726,088;    0,886;   -0,318
684,511;30521,961;   -1,023;   -0,591
685,085;30233,924;   -1,478;    0,318
685,659;30001,706;    1,431;    0,864
686,232;30216,669;    1,159;   -0,318
686,806;29961,178;    2,159;    0,409
687,380;30619,324;   -1,932;    0,591
687,954;30837,833;    2,432;    1,136
688,528;30502,433;    2,613;    1,955
689,101;31255,760;    0,432;    1,045
689,675;30865,632;    0,886;   -0,136
690,249;30253,778;    3,432;    0,409
690,822;30523,196;    1,159;    0,318
691,396;30559,886;    2,068;    1,227
691,969;30086,486;    2,523;    0,136
692,543;30598,359;   -0,568;   -1,955
693,116;30236,959;   -0,659;   -1,409
693,690;30080,286;   -0,296;    0,500
694,263;30629,613;    2,341;    2,955
694,836;30599,758;    2,795;    3,591
695,410;29211,540;    1,159;    1,773
695,983;29658,231;    1,614;    0,591
696,556;29651,649;   -0,750;   -1,045
697,129;30067,703;   -1,114;    1,409
697,703;29688,849;    1,341;    1,955
698,276;29712,812;    1,705;   -0,773
698,849;29460,139;   -1,023;    1,409
699,422;29858,648;    1,250;    0,591
699,995;29526,885;   -0,659;    0,136
700,568;30038,575;   -0,204;    3,045
701,140;30092,721;   -1,841;    1,682
701,713;29800,230;    0,341;    2,409
702,286;29555,284;    0,796;    0,864
702,859;29444,793;    0,614;   -0,591
703,432;28620,756;   -0,841;    0,682
704,004;29111,356;    1,978;    0,318
704,577;28933,229;    1,068;    0,136
705,150;29463,829;    0,887;    2,500
705,722;29339,338;    1,523;   -3,227
706,295;29109,574;    1,432;   -0,591
706,867;28947,083;    0,250;    1,955
707,440;29204,228;   -0,113;   -0,409
708,012;29384,919;   -0,022;    0,591
708,584;29285,610;    2,705;    0,227
709,157;29602,482;    1,160;   -0,591
709,729;29299,810;    1,069;    2,045
710,301;30150,955;   -1,204;    0,045
710,874;30106,646;    0,341;   -0,227
711,446;28988,700;   -0,295;    0,864
712,018;28906,391;   -3,022;    0,500
712,590;28607,173;   -0,204;    1,682
713,162;29164,772;   -0,477;    1,318
713,734;29412,918;    1,796;   -2,045
714,306;29256,699;    0,342;   -0,409
714,878;27920,663;   -0,295;    0,864
715,450;28741,626;   -0,113;    0,864
716,022;29048,135;    2,433;    1,318
716,593;29204,372;    0,978;    0,591
717,165;29124,517;    1,796;   -1,227
717,737;28839,844;    0,796;    0,409
718,309;28490,080;    1,160;   -0,045
718,880;28470,317;   -1,295;   -1,409
719,452;28718,917;    0,887;   -1,591
720,024;28193,789;    1,705;   -0,591
720,595;28787,025;    2,978;    0,955
721,167;28341,352;    1,160;   -2,045
721,738;27819,498;    2,069;   -1,045
722,309;27716,461;    1,251;   -1,227
722,881;27506,152;    2,705;    0,773
723,452;28238,388;    1,251;    2,864
724,023;28404,715;    1,524;    2,682
724,595;28182,952;    2,342;    0,682
725,166;27895,006;    1,524;   -0,409
725,737;27492,151;    1,887;    0,227
726,308;27553,751;    0,797;    0,318
726,879;28018,169;    1,069;    1,227
727,450;27925,951;   -2,022;   -0,045
728,021;27874,733;    1,069;    0,682
728,592;27702,514;    1,160;    0,500
729,163;28035,205;    1,433;   -0,136
729,734;27983,441;    2,160;   -0,227
730,305;28334,496;    0,615;    0,136
730,876;28662,278;    0,888;    2,955
731,447;28323,877;    0,797;    2,682
732,017;28463,841;   -0,840;    1,864
732,588;28030,895;   -0,021;    1,227
733,159;28174,495;    3,615;   -1,045
733,729;28015,186;    1,251;    0,409
734,300;27252,695;    0,160;    0,864
734,870;27729,568;   -1,385;    0,591
735,441;28308,622;    0,888;   -0,591
736,011;28032,040;    1,070;   -1,591
736,582;27985,549;    1,251;    0,045
737,152;27401,422;    0,979;   -2,045
737,722;27856,931;    1,070;   -0,682
738,293;27600,530;   -2,021;    1,318
738,863;27430,858;    1,797;    2,318
739,433;27261,094;    4,524;    0,318
740,003;27875,239;    1,524;   -0,682
740,573;27291,657;    2,252;   -1,591
741,143;27280,257;    3,615;    0,318
741,713;28020,857;    0,252;   -0,500
742,283;27741,911;    1,706;    1,591
742,853;27541,693;    0,524;    1,591
743,423;26932,747;    0,161;    0,045
743,993;27048,711;    1,070;    1,500
744,563;26380,493;    2,524;   -0,864
745,133;26331,365;   -0,112;   -0,864
745,702;27076,965;    2,797;    1,773
746,272;26305,747;    0,434;    0,591
746,842;26030,438;   -0,748;   -0,591
747,411;26445,492;   -0,839;   -0,318
747,981;26607,637;   -0,930;    0,500
748,551;26696,783;   -0,021;   -1,045
749,120;26579,746;   -0,112;   -0,227
749,690;26958,982;    2,161;    2,409
750,259;27265,310;    0,979;    2,955
750,828;27143,818;    4,070;   -1,955
751,398;27406,418;   -0,112;   -0,045
751,967;26853,109;    2,888;    0,409
752,536;27085,073;    1,161;   -0,227
753,105;27487,945;   -1,384;    0,227
753,675;27276,272;   -0,112;    1,773
754,244;27248,327;    0,888;    3,591
754,813;27240,472;    0,979;    1,227
755,382;26856,072;    0,798;    0,955
755,951;27439,763;   -0,112;    3,682
756,520;26953,908;    2,525;    1,864
757,089;27487,963;    1,888;    0,500
757,658;27602,199;    2,434;    1,227
758,227;27684,162;   -1,111;    0,318
758,795;27945,671;   -1,021;    1,136
759,364;28217,362;    0,525;   -0,591
759,933;27231,598;    1,343;   -0,045
760,501;26786,289;    0,252;   -1,318
761,070;27221,889;   -0,293;   -1,409
761,639;27969,671;    1,434;    1,318
762,207;27184,907;    0,889;   -0,955
762,776;27176,870;    2,889;    0,864
763,344;27147,561;    0,071;    0,591
763,913;26257,434;    1,616;    1,409
764,481;27033,488;    1,980;   -0,136
765,049;26765,270;    0,616;    1,409
765,618;26650,142;    1,434;    0,318
766,186;26768,015;    2,434;    0,136
766,754;26942,797;    1,798;    1,864
767,322;25892,033;    1,162;    0,409
767,890;25918,087;    0,525;   -1,773
768,459;26291,596;    2,616;   -0,318
769,027;26489,105;    2,525;    3,409
769,595;25507,160;    2,616;    2,591
770,163;25911,669;    3,344;    2,955
770,730;25653,450;    2,525;   -0,136
771,298;25506,141;    1,162;   -1,409
771,866;25592,196;    0,253;    4,955
772,434;25940,250;    1,162;   -1,864
773,002;26100,213;    2,616;    0,682
773,569;25673,813;    1,071;    1,682
774,137;25467,050;    0,889;   -0,045
774,705;26296,831;   -0,747;   -0,136
775,272;25791,158;    0,253;    0,682
775,840;25629,304;   -0,111;    2,682
776,407;25110,540;   -0,293;    1,955
776,975;24659,594;    1,162;    0,318
777,542;25705,194;    2,162;   -0,045
778,110;25574,885;    0,707;   -0,045
778,677;25210,121;    1,071;   -0,864
779,244;24962,176;   -1,020;    1,045
779,812;25129,594;    0,980;    0,864
780,379;24950,739;    2,435;    1,136
780,946;25159,339;    2,617;   -0,773
781,513;25449,666;   -0,565;    0,318
782,080;24801,175;    1,253;    2,864
782,647;25535,229;    1,708;    3,045
783,214;25143,284;   -0,201;    3,864
783,781;24782,429;    1,708;   -0,682
784,348;24676,302;    0,253;    1,500
784,915;25069,811;   -1,474;    0,318
785,482;24829,592;    2,708;    2,591
786,049;25316,829;    1,071;   -0,591
786,615;25413,156;    1,708;   -0,955
787,182;25206,392;   -3,201;   -0,682
787,749;24857,992;   -2,201;    1,409
788,315;24173,683;    0,253;   -0,409
788,882;24449,919;    0,981;   -1,227
789,448;25143,428;    1,435;   -0,955
790,015;25160,573;    1,799;    3,227
790,581;24730,991;    0,708;    0,227
791,148;24609,046;    1,344;    1,045
791,714;24841,464;   -1,019;    3,136
792,280;24506,518;    3,708;    1,591
792,847;24079,027;   -0,928;    2,500
793,413;24632,718;   -0,110;   -0,318
793,979;24135,590;    1,526;   -1,318
794,545;24211,645;    2,981;    2,682
795,111;23624,518;    2,435;    1,318
795,678;23791,299;    3,526;   -1,682
796,244;23487,535;    2,799;    0,136
796,810;24010,135;    0,799;    0,773
797,375;23702,553;   -0,292;   -2,136
797,941;23724,517;   -1,110;    0,591
798,507;23851,753;    0,254;   -0,955
799,073;23482,080;    2,708;    0,591
799,639;23543,680;    1,435;    3,136
800,205;23569,098;   -1,565;    2,682
800,770;23064,880;    1,345;    1,773
801,336;23095,025;    2,981;   -0,955
801,901;22805,807;    6,072;    3,136
802,467;23401,225;    0,526;    2,045
803,033;22704,825;   -0,019;    0,864
803,598;22900,516;    1,072;   -1,045
804,163;22989,388;    0,708;   -0,318
804,729;22907,352;   -0,110;    1,136
805,294;23330,679;    1,072;    2,227
805,859;23109,551;    0,890;   -0,409
806,425;22568,515;    3,890;    2,682
806,990;22202,660;    1,890;    4,318
807,555;22720,806;   -0,110;    2,591
808,120;22650,769;   -1,292;   -0,409
808,685;22700,642;    1,072;   -2,500
809,250;22183,878;    2,072;   -0,500
809,815;22484,023;   -0,201;    0,682
810,380;23052,259;    0,981;    1,591
810,945;23544,859;    2,890;    2,045
811,510;22763,368;   -0,200;    1,591
812,075;22421,150;    2,800;   -1,409
812,640;22502,659;    3,709;    1,409
813,204;22554,895;    2,163;   -0,227
813,769;23007,677;    0,254;   -0,045
814,334;22418,186;    0,527;    0,864
814,898;22472,604;    1,981;    0,591
815,463;22293,567;    0,981;   -0,773
816,027;22286,167;    1,345;   -2,318
816,592;22406,222;    2,163;   -2,045
817,156;21859,640;   -2,200;    1,136
817,721;21655,694;    0,982;    2,318
818,285;21667,203;    0,618;    1,500
818,849;22309,712;   -0,018;    1,682
819,414;22223,130;    0,073;    2,955
819,978;21797,275;   -0,291;    1,773
820,542;22409,603;    2,891;    0,500
821,106;22128,566;    2,800;    0,682
821,670;22179,257;    2,709;    2,591
822,234;21868,039;    1,073;    1,409
822,798;21272,820;   -0,836;    0,500
823,362;21251,420;    1,527;    4,227
823,926;20580,111;   -0,018;    1,136
824,490;20799,802;    3,527;   -0,682
825,054;21234,220;    2,527;   -1,136
825,618;20860,001;   -1,200;   -1,500
826,181;20757,056;    0,982;   -1,318
826,745;20644,747;   -0,745;   -1,045
827,309;21030,347;    2,255;    1,318
827,872;20446,219;    0,527;    0,955
828,436;21447,455;    1,982;   -0,773
828,999;21538,692;    2,436;    1,227
829,563;20354,928;   -0,654;    1,136
830,126;20158,800;   -0,018;   -0,591
830,690;20172,128;    0,709;    2,864
831,253;19633,909;   -0,473;    2,227
831,816;19767,782;   -0,018;    0,500
832,380;19730,109;    1,164;    0,864
832,943;19931,709;    3,073;   -0,500
833,506;19431,400;    0,255;   -1,227
834,069;20239,272;    2,164;   -0,955
834,632;20313,145;   -2,200;    1,318
835,195;20217,017;    1,346;    0,955
835,758;19432,890;    0,709;    1,955
836,321;19203,854;    1,073;   -1,045
836,884;19308,999;   -1,291;   -0,955
837,447;19349,144;    0,528;    1,773
838,010;19573,744;    1,800;    3,227
838,573;19938,798;    0,528;    0,773
839,135;19915,580;   -0,109;   -0,955
839,698;19319,725;    2,528;    0,409
840,261;18859,325;    0,255;   -0,227
840,823;18727,834;   -0,927;    0,864
841,386;18994,071;   -0,018;   -2,409
841,948;18858,489;    0,255;    1,773
842,511;18568,270;    0,255;    1,682
843,073;18727,325;    2,982;    0,227
843,636;18571,470;    0,619;   -0,227
844,198;18513,797;    1,255;    0,591
844,760;18574,579;    0,619;    1,955
845,322;18236,542;    0,164;    1,136
845,885;18634,142;   -0,290;    0,591
846,447;19095,015;    0,710;    0,227
847,009;18659,978;    3,983;   -0,682
847,571;18977,851;    1,346;   -2,045
848,133;19089,269;   -0,199;   -1,864
848,695;18938,596;    2,346;    1,409
849,257;18427,469;    1,346;   -1,682
849,819;18574,432;    2,983;   -0,409
850,381;18664,396;    1,801;   -0,864
850,942;19033,814;    1,892;   -0,591
851,504;18971,596;    0,983;    0,227
852,066;18998,377;    1,619;   -1,591
852,628;18528,795;    0,165;    1,955
853,189;18071,850;    0,256;    2,682
853,751;18213,631;   -0,654;    1,409
854,312;18030,868;    1,256;   -1,682
854,874;18559,467;   -0,108;   -0,773
855,435;18996,340;    0,528;   -1,682
855,997;19166,485;    3,983;   -0,136
856,558;18461,813;    0,801;    1,773
857,119;18556,503;   -0,744;    2,864
857,681;18220,830;   -0,108;    0,318
858,242;18259,249;    1,347;   -2,136
858,803;18714,667;    1,074;   -0,773
859,364;19246,812;    0,892;   -4,773
859,925;18629,503;   -0,290;   -0,955
860,486;18560,375;    0,529;   -0,955
861,047;18285,066;    0,165;   -1,227
861,608;18040,302;    0,165;   -0,773
862,169;18193,902;   -0,562;   -0,045
862,730;17961,320;   -0,290;    1,409
863,291;18188,738;    0,438;   -0,500
863,852;18532,338;   -0,926;    1,955
864,412;18050,120;   -1,835;   -0,864
864,973;16586,538;    1,892;    0,500
865,534;16446,047;    2,074;    0,227
866,094;17892,010;    2,620;    0,227
866,655;17569,156;    4,711;    3,318
867,215;17864,846;    0,074;    0,136
867,776;17748,628;   -1,199;   -0,136
868,336;17860,501;    1,529;    0,136
868,897;17309,101;    3,438;    1,682
869,457;17072,882;    3,256;    0,318
870,017;17319,119;    2,438;   -1,227
870,578;17870,446;    1,893;    0,773
871,138;17465,409;    2,620;   -0,955
871,698;16974,645;   -0,562;   -1,318
872,258;16833,427;    0,711;   -2,864
872,818;17232,300;    2,347;    0,045
873,378;17217,081;   -2,198;    1,045
873,938;16792,772;    4,984;    0,500
874,498;17100,099;    1,256;   -1,955
875,058;16963,154;    4,347;    1,773
875,618;16830,754;    1,438;   -2,682
876,177;16809,990;   -0,471;    0,136
876,737;16356,044;   -0,289;    1,955
877,297;16380,826;    2,711;    1,955
877,856;16363,517;    2,529;    0,318
878,416;16283,207;    2,438;   -0,136
878,976;16512,353;    3,438;    0,409
879,535;16725,589;    4,529;    3,136
880,095;16439,280;    1,347;    0,045
880,654;16546,789;    0,347;    1,318
881,213;16625,661;    2,347;    1,500
881,773;16298,625;    1,984;    2,682
882,332;16652,134;    6,075;    5,136
882,891;16507,279;    0,711;    2,136
883,451;16933,697;   -2,016;    1,682
884,010;16406,206;   -1,107;   -0,409
884,569;16494,533;   -2,289;   -0,045
885,128;16630,497;   -0,743;   -1,864
885,687;16680,097;   -0,743;    0,682
886,246;16361,788;    2,620;    2,136
886,805;16135,296;    1,620;    2,045
887,364;16476,442;    1,166;   -0,500
887,922;16829,951;   -0,016;    0,045
888,481;16322,642;    1,530;    0,591
889,040;16639,878;    3,711;    2,136
889,599;17290,841;    2,166;    1,409
890,157;17377,168;    2,166;    2,409
890,716;17044,586;    2,166;    0,227
891,274;16846,459;    0,075;   -1,136
891,833;17242,513;    1,166;    0,864
892,391;17161,841;    1,802;    0,500
892,950;17246,350;    0,166;   -0,773
893,508;17550,495;    0,984;   -0,409
894,067;16933,004;   -0,379;    0,136
894,625;16851,513;   -1,016;   -1,500
895,183;17038,385;   -0,198;   -0,682
895,741;16961,985;    2,257;   -1,773
896,299;16778,312;    1,621;   -2,409
896,858;16950,912;    1,530;   -1,591
897,416;17032,785;    0,166;   -1,318
897,974;16847,112;   -2,197;    0,318
898,532;17008,621;    6,530;    2,682
899,089;16867,221;    0,621;   -0,682
899,647;16912,912;    0,530;    1,318
900,205;16672,239;    0,257;    1,045
900,763;16869,021;    2,166;    0,227
901,321;16886,166;    3,530;   -1,409
901,878;16319,766;    3,257;   -0,773
902,436;16201,729;    0,257;    1,318
902,994;16591,056;    6,712;    3,682
903,551;16022,747;    1,439;    0,409
904,109;16377,620;    1,530;   -1,409
904,666;16043,674;    1,439;    1,045
905,224;15818,183;    3,894;   -0,409
905,781;15535,783;   -0,470;   -0,318
906,338;15600,292;    0,167;    1,045
906,895;15577,983;    1,894;    2,045
907,453;15466,219;    2,348;    1,136
908,010;15457,092;    3,348;    0,409
908,567;15112,510;   -0,561;    0,591
909,124;14634,655;    2,439;   -1,500
909,681;14705,437;   -1,288;    0,682
910,238;14874,400;   -0,106;   -1,318
910,795;15196,091;   -1,561;   -1,136
911,352;14843,545;   -0,379;   -2,682
911,909;14254,909;    2,803;   -0,864
912,466;14755,455;    1,985;    1,500
913,022;14279,000;   -0,924;    0,500
913,579;14651,636;   -0,470;    2,045
914,136;14368,182;   -2,561;    0,955
914,692;14682,545;    1,530;   -1,227
915,249;14272,636;    0,530;    0,409
915,806;14479,818;    1,803;    1,955
916,362;14211,091;    0,894;    1,864
916,918;13748,000;    2,439;    1,045
917,475;13761,909;    1,621;    0,955
918,031;13858,273;    0,076;   -0,045
918,587;13332,091;    0,621;   -0,318
919,144;13589,636;   -0,379;    0,227
919,700;13889,364;    0,167;    0,773
920,256;13464,091;    0,439;    0,045
920,812;13071,636;    1,439;   -1,045
921,368;13035,727;    1,348;   -1,045
921,924;12711,364;    0,439;   -0,136
922,480;12294,545;    0,076;    1,227
923,036;12910,000;   -0,652;    1,955
923,592;12850,091;    0,621;    0,318
924,148;12795,545;    1,894;   -0,955
924,704;12084,818;    0,258;   -0,409
925,259;12381,909;   -0,561;    0,591
925,815;12106,909;    3,803;    0,500
926,371;11661,636;    3,530;    1,409
926,926;11573,273;    1,621;    0,591
927,482;11140,455;    1,621;    0,773
928,037;11058,182;   -0,833;    2,045
928,593;11359,727;    0,258;    1,045
929,148;11181,182;    1,167;   -1,500
929,704;10688,273;    2,439;   -0,500
930,259;10884,455;    0,894;   -0,136
930,814; 9953,364;    1,803;    1,955
931,369; 9663,818;    0,258;   -0,773
931,925; 9587,636;   -1,924;    0,136
932,480; 9452,182;    3,076;   -2,591
933,035; 9363,909;    3,985;   -0,318
933,590; 9104,727;   -1,742;   -1,773
934,145; 8780,182;   -1,288;   -0,318
934,700; 9113,545;    0,348;   -0,591
935,255; 8913,818;    4,803;    0,045
935,809; 8194,000;    6,258;    0,864
936,364; 7337,273;    2,167;   -0,136
936,919; 7339,455;    2,348;   -1,773
937,474; 7225,636;    1,348;    0,136
938,028; 6984,818;    3,076;    1,136
938,583; 6454,182;    6,348;    4,682
939,138; 6758,636;    0,167;    2,136
939,692; 6208,182;   -1,015;   -1,136
940,247; 5870,727;    1,167;   -1,045
940,801; 5453,545;    0,621;    0,227
941,355; 5366,909;    0,439;    2,591
941,910; 5039,455;    0,712;   -2,136
942,464; 5139,091;    2,712;   -0,318
943,018; 4907,000;    3,258;   -0,227
943,572; 4866,364;    2,803;   -0,682
944,126; 4274,000;   -0,924;   -0,409
944,681; 4169,818;    0,712;    0,227
945,235; 4170,727;    2,167;   -0,591
945,789; 4107,000;    1,258;   -1,864
946,342; 4191,818;   -0,561;   -0,591
946,896; 4012,455;    0,348;    0,955
947,450; 3759,455;   -0,561;   -0,227
948,004; 3946,818;    1,076;   -0,045
948,558; 3969,364;    1,258;   -0,864
949,111; 3898,727;   -1,197;   -0,318
949,665; 3932,091;   -0,106;   -0,682
950,219; 3786,273;    0,621;   -1,045
950,772; 3884,455;    0,258;    1,864
951,326; 3809,545;   -1,106;   -0,955
951,879; 3892,000;    1,076;   -2,318
952,433; 3911,455;    1,348;    2,227
952,986; 3753,182;    0,348;    0,682
953,539; 3677,455;    1,530;    0,591
954,093; 3617,091;    0,985;   -1,318
954,646; 3751,273;   -0,288;    1,318
955,199; 3573,727;    1,258;   -0,500
955,752; 3471,636;    1,985;    1,773
956,305; 3428,545;    0,894;    2,955
956,858; 3585,909;    0,621;   -0,318
957,411; 3769,818;    3,621;    2,136
957,964; 3587,273;    2,076;    2,136
958,517; 3566,545;    0,985;    3,136
959,070; 3391,000;   -1,197;    1,955
959,623; 3477,364;    1,076;    1,500
960,176; 3258,636;    0,712;    2,045
960,728; 3246,273;    1,712;    0,773
961,281; 3309,455;    2,258;    0,500
961,834; 3334,364;   -0,833;    0,864
962,386; 3250,364;    1,258;    1,045
962,939; 3163,455;    3,439;   -0,318
963,491; 3332,636;    2,621;    1,136
964,043; 3197,000;    0,076;    2,409
964,596; 3325,455;    1,712;    2,227
965,148; 3150,182;   -0,379;    1,773
965,700; 3081,727;   -0,015;   -0,227
966,253; 3244,182;   -0,833;    0,318
966,805; 3064,818;    1,894;    0,773
967,357; 3114,818;    0,439;   -1,500
967,909; 3048,273;    1,167;   -1,227
968,461; 3179,364;    0,894;    3,136
969,013; 3099,091;   -1,561;   -0,864
969,565; 3191,273;    1,803;   -1,136
970,117; 3265,273;    3,803;    1,045
970,669; 3094,818;    3,258;   -0,136
971,220; 2952,727;    2,167;   -1,500
971,772; 2862,909;    1,348;   -0,318
972,324; 2974,636;   -1,197;   -0,500
972,876; 2951,273;    0,167;   -0,045
973,427; 3068,364;   -1,197;   -1,045
973,979; 3048,000;    0,076;   -2,500
974,530; 3058,364;    0,803;    1,318
975,082; 3072,909;    2,167;    1,682
975,633; 2964,727;    2,894;    1,682
976,184; 3118,636;    2,076;    0,773
976,736; 2908,091;    0,348;    0,227
977,287; 2705,364;    0,258;   -0,500
977,838; 2883,273;   -0,924;   -0,318
978,389; 2942,364;    0,803;   -0,500
978,940; 2819,545;    1,258;   -0,409
979,491; 2851,636;    2,258;   -0,500
980,042; 2810,364;   -0,652;    3,045
980,593; 2869,727;    1,894;    0,227
981,144; 2916,273;    3,530;   -0,500
981,695; 2884,818;   -0,470;    1,500
982,246; 2863,727;   -1,833;    1,045
982,797; 3012,364;   -0,561;    0,682
983,347; 3132,636;    2,167;    0,591
983,898; 3268,909;    4,167;    0,409
984,449; 3100,000;    2,530;    0,773
984,999; 3019,273;    1,894;   -1,136
985,550; 2769,455;    3,167;   -0,318
986,100; 2807,455;    0,712;   -0,318
986,651; 2847,000;    0,258;    0,045
987,201; 2829,545;    0,894;   -0,591
987,751; 2924,273;   -0,288;    2,864
988,302; 2895,545;   -0,379;    1,500
988,852; 2909,727;    1,985;   -1,136
989,402; 2945,909;    0,985;    0,682
989,952; 2888,727;    1,621;    0,864
990,502; 2984,818;    1,076;    0,682
991,052; 2949,364;   -0,106;    0,045
991,602; 2801,818;    1,167;    1,318
992,152; 2798,545;    2,803;    0,682
992,702; 2779,818;    1,167;   -0,045
993,252; 2702,273;    0,076;   -0,500
993,802; 2797,273;    1,167;    1,318
994,352; 3039,455;   -0,742;    1,136
994,901; 3131,273;    1,076;    3,227
995,451; 3049,091;   -1,197;    0,318
996,000; 3132,091;    1,076;    0,318
996,550; 2841,091;    2,894;    0,227
997,100; 2858,364;   -0,561;   -0,045
997,649; 3130,818;   -0,197;    0,955
998,198; 2769,545;   -0,288;   -1,500
998,748; 2948,818;    0,348;   -2,318
999,297; 2866,455;    0,985;   -0,409
999,846; 2922,273;    1,894;   -0,773
1000,395; 2967,636;    1,530;    0,500
1000,945; 2943,545;    1,076;   -0,773
1001,494; 3018,909;    0,167;    0,682
1002,043; 2990,455;    0,712;    0,864
1002,592; 2836,182;    3,439;    1,955
1003,141; 2993,818;    2,439;   -0,682
1003,690; 2821,727;    1,258;    0,500
1004,238; 2890,545;   -0,106;   -0,045
1004,787; 2511,545;   -1,288;    1,227
1005,336; 2747,636;    1,621;    0,682
1005,885; 2911,455;   -0,197;   -2,773
1006,433; 3046,000;   -0,470;    0,955
1006,982; 3124,000;    2,167;    1,682
1007,531; 3047,545;    2,712;   -0,227
1008,079; 2994,364;    0,258;    0,500
1008,627; 3129,545;    1,621;    0,409
1009,176; 2864,000;    0,076;   -1,955
1009,724; 2896,636;   -2,742;    0,864
1010,273; 2967,182;    1,076;    0,500
1010,821; 3066,727;    1,076;    1,409
1011,369; 2808,909;    0,076;    1,318
1011,917; 2791,182;   -0,833;   -0,591
1012,465; 3079,091;    2,530;   -1,591
1013,013; 3195,091;    0,439;   -1,682
1013,561; 3062,545;   -1,288;   -0,773
1014,109; 3114,909;   -0,833;    1,682
1014,657; 2984,091;    1,348;    0,591
1015,205; 3099,455;    0,894;   -0,955
1015,753; 3129,818;    0,258;   -1,409
1016,301; 3176,636;    2,621;    3,045
1016,848; 3178,364;    2,167;    0,409
1017,396; 3209,182;    1,621;    0,045
1017,944; 3333,091;    2,621;    1,864
1018,491; 3097,273;   -0,197;    1,409
1019,039; 3267,091;   -0,652;    0,591
1019,586; 3154,636;    0,076;    1,682
1020,134; 3241,818;    0,712;    1,500
1020,681; 3279,909;    2,894;   -1,136
1021,228; 3288,545;   -0,561;   -2,227
1021,776; 3129,545;   -0,833;   -1,136
1022,323; 3334,636;    0,803;    0,773
1022,870; 3292,091;   -0,470;   -0,045
1023,417; 3177,909;    2,076;    1,864
1023,964; 3320,364;    0,621;    1,227
1024,511; 3153,091;   -0,652;    0,773
1025,058; 2948,545;    0,439;   -0,045
1025,605; 3004,455;   -1,742;    3,136
1026,152; 3209,727;   -0,106;   -0,591
1026,699; 2952,909;    0,167;    1,318
1027,245; 3115,000;    2,439;    0,318
1027,792; 3356,909;    0,712;    1,409
1028,339; 3226,273;    4,076;   -0,045
1028,885; 3082,000;    3,621;   -0,227
1029,432; 3011,455;   -0,106;    0,227
1029,978; 3086,727;    1,348;   -1,591
1030,525; 2972,182;    1,621;    0,409
1031,071; 3217,636;    0,348;    1,136
1031,618; 3325,364;    1,258;    1,682
1032,164; 3111,364;    2,076;    3,045
1032,710; 3157,909;    0,076;   -1,500
1033,256; 3063,636;    0,712;   -0,136
1033,803; 3040,909;   -0,288;    1,500
1034,349; 2803,545;    1,803;    0,136
1034,895; 2946,818;    2,621;   -0,318
1035,441; 2934,909;    0,439;    0,318
1035,987; 2949,545;   -2,288;   -0,682
1036,533; 2938,636;   -0,197;   -0,955
1037,078; 3137,636;    4,712;    1,682
1037,624; 2944,636;    2,439;   -0,955
1038,170; 2975,182;    1,712;   -0,318
1038,716; 2871,455;    2,167;   -0,409
1039,261; 2797,273;    2,167;   -0,773
1039,807; 2728,273;   -0,015;    3,409
1040,352; 2798,545;   -1,288;   -0,318
1040,898; 2844,545;    0,167;   -0,682
1041,443; 2743,727;    0,803;   -2,591
1041,989; 2785,636;    3,621;    1,591
1042,534; 2676,909;    0,985;    2,591
1043,079; 2777,545;    1,985;    0,955
1043,625; 2555,818;    0,258;    0,500
1044,170; 2613,273;    2,439;    1,045
1044,715; 2880,364;    0,167;    0,955
1045,260; 2683,273;   -0,833;   -0,955
1045,805; 2735,545;    0,258;   -0,591
1046,350; 2673,273;    0,530;   -0,409
1046,895; 2637,364;    0,803;    1,591
1047,440; 2579,273;    1,530;    0,409
1047,985; 2493,545;   -1,197;   -0,955
1048,530; 2410,000;    1,348;    1,227
1049,074; 2482,636;    2,803;    0,318
1049,619; 2445,000;   -0,924;    1,955
1050,164; 2227,545;    1,076;    0,227
1050,708; 2287,545;    2,621;    0,045
1051,253; 2659,636;    3,258;   -2,227
1051,797; 2389,364;   -0,197;   -1,318
1052,342; 2408,273;    1,348;    1,045
1052,886; 2374,455;    1,803;   -1,409
1053,430; 2260,636;    2,167;    0,136
1053,975; 2290,091;    0,894;   -0,318
1054,519; 2257,364;    1,803;    3,227
1055,063; 2273,273;    3,621;    1,318
1055,607; 2153,091;    1,348;    0,227
1056,151; 2186,000;    0,530;    1,682
1056,695; 2109,455;   -1,833;   -1,136
1057,239; 2169,909;   -1,197;   -0,682
1057,783; 2166,727;    2,258;   -1,500
1058,327; 2140,091;    3,076;    1,409
1058,871; 2341,636;    3,985;    1,318
1059,415; 2057,636;   -0,561;   -0,045
1059,958; 2318,636;    2,985;    2,591
1060,502; 2049,818;    1,348;   -0,773
1061,046; 1946,545;    1,712;   -0,955
1061,589; 1918,727;    2,803;   -1,136
1062,133; 1820,636;    0,985;    1,864
1062,676; 1759,818;    1,439;    0,864
1063,220; 1753,636;    0,985;    0,500
1063,763; 1768,636;    2,985;    1,136
1064,306; 1857,273;    0,985;    1,864
1064,849; 1746,455;    2,076;    0,591
1065,393; 1739,909;    2,894;   -1,500
1065,936; 1870,545;    2,530;   -0,409
1066,479; 1768,364;    2,621;    1,318
1067,022; 1764,273;    1,894;   -0,227
1067,565; 1663,000;   -1,197;   -1,318
1068,108; 1693,364;    1,258;   -0,591
1068,651; 1679,636;   -2,470;    1,409
1069,194; 1608,182;   -1,106;   -1,682
1069,736; 1597,818;    3,803;    0,955
1070,279; 1572,091;   -1,652;   -0,500
1070,822; 1633,818;    1,530;   -0,318
1071,364; 1708,364;    0,530;    1,318
1071,907; 1539,818;    0,348;    3,227
1072,450; 1451,545;    0,258;   -0,045
1072,992; 1434,636;   -0,561;    3,136
1073,535; 1566,727;    0,167;    2,136
1074,077; 1378,000;    2,985;    2,045
1074,619; 1352,545;    0,985;    0,591
1075,161; 1373,909;   -0,561;    1,500
1075,704; 1545,727;    0,258;    1,227
1076,246; 1353,545;    1,530;    0,682
1076,788; 1274,364;   -1,015;    1,773
1077,330; 1370,273;   -2,106;    2,136
1077,872; 1321,455;   -1,924;    0,955
1078,414; 1532,091;    3,712;    0,773
1078,956; 1278,818;    0,167;   -0,227
1079,498; 1541,727;    0,439;    0,318
1080,040; 1229,273;    0,985;   -1,318
1080,581; 1182,273;    0,621;   -0,318
1081,123; 1110,636;   -0,106;   -0,773
1081,665; 1166,818;    3,803;   -0,955
1082,206; 1440,818;    3,258;   -0,500
1082,748; 1320,909;    3,258;    2,045
1083,289; 1211,091;    0,167;    1,318
1083,831; 1108,455;    0,258;    0,227
1084,372; 1143,182;    0,894;    0,591
1084,913; 1135,364;    3,348;    0,864
1085,455; 1099,545;    1,530;   -2,045
1085,996; 1075,455;    0,530;    0,136
1086,537; 1106,455;    0,985;    0,864
1087,078; 1125,545;    0,439;   -2,136
1087,619; 1166,545;   -1,652;    0,227
1088,160; 1088,636;    1,439;    1,318
1088,701; 1084,727;   -0,742;    0,682
1089,242; 1018,818;   -0,561;   -2,227
1089,783; 1106,455;   -0,561;    1,409
1090,324; 1082,818;   -0,833;    0,682
1090,865;  963,545;   -1,924;   -0,409
1091,405;  945,000;   -0,561;    2,227
1091,946;  983,000;   -0,197;   -0,955
1092,487;  908,364;   -1,288;   -1,409
1093,027; 1059,091;    1,803;   -1,500
1093,568;  909,636;    2,258;    1,227
1094,108;  985,182;    0,621;    1,773
1094,649;  934,091;   -0,470;    0,136
1095,189;  879,727;    1,167;   -0,682
1095,729;  835,727;    0,712;    0,955
1096,269;  841,455;    1,258;   -0,955
1096,810; 1149,909;   -0,197;    0,500
1097,350;  974,636;   -0,561;   -0,773
1097,890;  878,636;    2,985;    1,227
1098,430; 1112,727;    4,985;    2,864
1098,970;  994,455;    1,894;    1,682
1099,510;  866,273;   -0,833;   -2,318
1100,050;  796,727;    0,258;   -1,591
1100,589;  763,545;    0,076;   -0,318
1101,129;  888,273;    0,894;   -0,955
1101,669; 1026,000;    2,803;    2,136
1102,209;  856,000;    1,530;    2,227
1102,748;  810,091;    3,439;    0,955
1103,288;  798,727;    0,712;   -1,227
1103,827;  817,000;    3,530;   -2,227
1104,367;  703,273;    1,712;   -2,409
1104,906;  684,000;   -1,015;   -1,136
1105,445;  751,000;    0,985;   -1,136
1105,985;  681,636;   -0,652;    1,500
1106,524;  727,727;    1,530;   -0,682
1107,063;  705,455;    1,167;    1,409
1107,602;  682,455;    1,894;   -1,500
1108,141;  615,455;    1,621;    1,500
1108,680;  704,545;    3,985;   -0,591
1109,219;  645,727;    0,167;   -0,500
1109,758;  649,364;    4,167;    0,682
1110,297;  623,636;   -1,106;   -0,682
1110,836;  585,909;    1,439;    0,955
1111,375;  721,455;    0,348;    0,409
1111,913;  729,727;    0,985;    0,773
1112,452;  678,364;    0,894;    0,136
1112,991;  578,364;    1,076;    1,955
1113,529;  533,909;    0,167;   -0,045
1114,068;  588,000;    0,439;    2,955
1114,606;  503,364;   -0,561;   -0,955
1115,144;  652,091;    1,530;    1,045
1115,683;  598,273;    1,985;    0,318
1116,221;  641,727;    2,076;   -0,864
1116,759;  554,545;    1,621;   -0,864
1117,297;  733,909;    1,621;    1,864
1117,836;  549,000;    1,985;   -1,227
1118,374;  547,636;    0,258;   -0,682
1118,912;  510,091;    0,439;    2,682
1119,450;  487,909;    0,985;    0,864
1119,988;  523,727;    3,348;    2,136
1120,525;  980,455;    7,258;    3,318
1121,063;  679,636;    0,530;    1,864
1121,601;  494,909;    1,076;   -1,227
1122,139;  461,091;    1,076;   -2,045
1122,676;  640,091;   -1,652;    2,773
1123,214;  577,273;    0,712;    4,409
1123,751;  401,727;    0,621;    2,227
1124,289;  521,909;    0,894;   -0,409
1124,826;  409,545;   -0,379;    0,227
1125,364;  335,909;    0,712;   -0,955
1125,901;  513,909;    6,258;    1,227
1126,438;  606,000;    3,530;    0,955
1126,975;  352,000;    2,985;   -0,773
1127,513;  410,364;    2,621;    2,136
1128,050;  336,000;   -0,561;   -0,682
1128,587;  434,909;    1,348;   -0,227
1129,124;  458,636;   -0,015;    1,318
1129,661;  342,545;   -1,924;    0,227
1130,198;  498,727;    2,439;    0,773
1130,734;  432,909;   -0,379;    1,409
1131,271;  312,545;   -1,197;    0,864
1131,808;  466,091;    1,621;    3,045
1132,345;  344,273;    4,530;    0,318
1132,881;  245,091;   -0,561;   -1,864
1133,418;  365,273;    0,348;   -1,136
1133,954;  301,182;    0,712;   -2,682
1134,491;  382,091;    1,712;   -0,773
1135,027;  288,727;    2,167;    0,864
1135,564;  362,818;    1,439;    2,955
1136,100;  338,000;   -0,742;    2,136
1136,636;  244,636;   -1,015;   -1,045
1137,172;  334,727;    0,894;   -1,045
1137,708;  264,091;   -1,561;   -1,045
1138,245;  268,727;    0,803;   -1,227
1138,781;  230,273;    1,803;   -3,318
1139,317;  285,273;    1,894;   -1,409
1139,852;  269,273;    3,076;    0,136
1140,388;  376,636;    2,076;   -0,409
1140,924;  264,727;    1,076;   -2,227
1141,460;  216,636;   -0,288;    0,136
1141,996;  145,636;   -0,652;    2,682
1142,531;  192,364;    1,076;    3,318
1143,067;  391,909;    1,167;    1,045
1143,602;  445,182;    3,439;   -0,318
1144,138;  302,000;    0,803;    1,045
1144,673;  180,182;    1,621;    1,409
1145,209;  241,909;    2,894;   -0,318
1145,744;  167,455;    0,803;    0,864
1146,279;  289,364;    1,530;   -0,136
1146,815;  217,909;    1,530;   -2,682
1147,350;  252,455;   -0,924;    0,045
1147,885;  169,364;   -1,924;   -1,318
1148,420;  169,455;    2,439;    0,773
1148,955;  158,000;   -1,470;    1,864
1149,490;  187,182;   -1,106;   -1,591
1150,025;  155,455;   -1,106;   -1,773
1150,560;  256,545;   -0,288;   -0,955
1151,094;  235,818;    0,258;   -0,591
1151,629;  230,545;   -3,742;    0,864
1152,164;  163,636;   -1,288;    1,318
1152,698;  130,455;    1,258;   -0,136
1153,233;   95,727;   -1,379;   -0,682
1153,767;  139,545;   -0,288;   -2,318
1154,302;  183,364;   -0,379;    1,773
1154,836;  182,636;    0,803;   -2,136
1155,371;  226,091;    2,258;    3,682
1155,905;  188,909;    1,985;    1,682
1156,439;  153,364;    0,530;   -0,500
1156,973;  179,364;    0,439;    0,318
1157,507;  128,364;   -1,742;    0,682
1158,042;  157,727;   -0,652;    1,045
1158,576;  190,818;   -0,561;    1,773
1159,110;  190,273;    0,076;    2,409
1159,643;  159,000;   -2,470;   -0,045
1160,177;  104,636;   -2,015;    1,500

