
Integration time [ms]:   0,040
Averaging Nr. [scans]: 11
Smoothing Nr. [pixels]: 0
Data measured with spectrometer [name]: 7318044SP
Wave   ;Sample   ;Dark     ;Reference
[nm]   ;[counts] ;[counts] ;[counts] 

186,757;   32,872;   38,161;    1,318
187,357;   57,558;   26,706;    0,955
187,958;   43,632;   17,252;   -1,591
188,558;   75,187;   12,979;   -1,227
189,159;   41,858;   10,070;   -4,500
189,759;   13,947;    5,797;   -3,591
190,360;    8,743;    6,797;   -2,136
190,960;   45,060;    5,706;   -4,136
191,560;   67,249;    2,614;   -6,591
192,161;  279,502;    5,885;   -3,500
192,761;  138,205;    5,520;   -3,227
193,361;   89,539;    3,065;   -3,773
193,962;  145,960;    1,612;   -2,682
194,562;   72,107;   -0,114;   -3,955
195,162;  102,054;   -0,567;   -2,227
195,762;  248,010;    2,433;   -0,045
196,362;  210,937;    1,706;   -2,500
196,963;   88,510;    1,706;   -0,864
197,563;  150,438;    1,252;   -0,955
198,163;   94,084;   -0,111;   -0,682
198,763;  119,831;   -0,020;   -0,500
199,363;  214,108;    3,616;   -0,500
199,963;  169,975;    2,162;    0,409
200,563;  155,360;    6,344;   -1,409
201,163;  138,135;    5,435;   -0,227
201,763;  217,877;    1,435;    0,318
202,363;  155,391;    0,980;    1,500
202,963;  255,735;    1,526;    1,045
203,563;  368,627;    0,344;    0,500
204,162;  222,997;    1,889;   -1,864
204,762;  211,814;    2,071;    0,591
205,362;  179,514;    0,708;    1,955
205,962;  268,793;    3,435;    1,955
206,562;  259,183;    1,889;    2,318
207,161;  232,467;    1,708;    0,318
207,761;  379,660;    4,435;    2,409
208,361;  266,773;    1,889;    1,409
208,960;  355,880;    2,889;    1,500
209,560;  420,932;    0,435;    1,591
210,160;  401,047;    5,071;    1,864
210,759;  365,554;    0,708;    1,227
211,359;  364,342;   -0,474;    1,045
211,958;  620,620;    3,526;    2,045
212,558;  689,656;    0,799;    1,864
213,157;  534,199;   -0,929;    1,500
213,757;  958,942;    5,617;   -0,227
214,356;  657,668;    1,708;   -0,409
214,956;  980,531;    3,526;    0,409
215,555;  621,018;    0,617;    2,136
216,154;  559,132;   -0,292;   -0,591
216,754;  564,447;    1,253;    0,773
217,353;  685,596;   -0,383;   -1,045
217,952;  534,004;    2,072;    0,318
218,552;  781,620;    0,254;   -0,773
219,151;  675,934;   -1,110;    0,955
219,750;  666,578;    0,890;   -0,227
220,349;  754,399;   -2,292;    1,045
220,948;  840,921;    1,163;    1,136
221,548;  832,928;    0,617;    1,227
222,147;  945,785;   -1,292;   -0,409
222,746; 1209,712;    1,254;   -0,955
223,345; 1072,788;   -1,019;    0,500
223,944; 1084,258;    1,163;    0,773
224,543; 1237,897;    4,072;   -1,409
225,142; 1360,614;    1,345;    0,136
225,741; 1265,268;    1,163;    1,045
226,340; 1270,186;    1,254;   -0,955
226,939; 1680,736;    2,708;   -0,136
227,538; 1596,628;    1,163;   -0,773
228,137; 1778,973;    0,435;    0,864
228,735; 1863,540;    0,435;    1,227
229,334; 1634,310;   -0,474;   -0,227
229,933; 2007,496;    0,799;    0,591
230,532; 2111,841;   -1,201;   -0,409
231,131; 2176,670;    1,253;    0,318
231,729; 2272,147;    1,163;   -2,318
232,328; 2341,096;    0,435;   -1,500
232,927; 2402,683;    4,526;   -0,500
233,525; 2501,453;    0,981;    0,045
234,124; 2696,181;    1,890;   -1,591
234,723; 2707,466;    1,617;   -1,045
235,321; 2845,649;    1,163;    0,136
235,920; 3034,853;    2,526;   -1,227
236,518; 3290,036;    1,072;    0,318
237,117; 3436,429;    2,890;   -0,227
237,715; 3589,083;    1,163;   -0,500
238,314; 3613,868;    1,708;   -2,318
238,912; 3709,255;    0,526;   -1,409
239,510; 3752,249;    1,162;   -1,227
240,109; 3907,057;   -0,474;    3,773
240,707; 3912,382;   -0,474;    1,227
241,305; 4253,530;   -0,383;    0,136
241,904; 4437,712;   -0,292;   -2,045
242,502; 4425,467;    3,253;   -0,227
243,100; 4361,580;    3,344;   -0,955
243,698; 4571,052;    2,799;    1,682
244,297; 4711,834;   -0,656;    0,682
244,895; 4582,328;   -0,474;   -2,318
245,493; 4887,820;    2,981;   -0,591
246,091; 4919,973;    5,163;   -1,318
246,689; 4867,994;    2,163;    0,591
247,287; 5005,901;   -0,019;   -1,136
247,885; 5267,659;   -1,019;    1,227
248,483; 5368,354;   -0,201;   -0,500
249,081; 5468,506;    0,981;    1,591
249,679; 5615,342;   -1,019;    1,682
250,277; 5858,353;   -2,292;    0,864
250,875; 5820,286;    0,617;   -1,045
251,473; 5835,613;   -0,019;    0,500
252,071; 6027,172;   -0,383;    1,045
252,669; 6182,712;   -1,565;    0,318
253,267; 6411,265;    1,618;    0,773
253,864; 6334,356;    0,617;    0,682
254,462; 6253,086;    1,526;    1,591
255,060; 6197,374;    0,072;    1,318
255,658; 6482,531;   -3,292;   -0,136
256,255; 6855,559;   -0,201;   -2,045
256,853; 6743,387;    2,345;    1,409
257,451; 6737,317;    1,981;    1,864
258,048; 7001,969;    2,072;    1,864
258,646; 6761,380;    0,436;   -1,045
259,243; 6916,932;    2,981;    2,227
259,841; 6977,123;    1,799;    0,318
260,438; 6871,251;    0,254;    0,864
261,036; 7513,291;    0,617;    1,409
261,633; 7409,034;    1,526;    2,227
262,231; 7209,163;   -0,110;   -0,045
262,828; 7294,439;   -0,383;    1,136
263,425; 7315,375;   -1,928;   -0,591
264,023; 7555,829;    1,436;    0,045
264,620; 7128,695;    1,526;   -0,318
265,217; 7422,055;    2,890;    3,136
265,815; 7555,276;    2,527;    2,136
266,412; 7363,013;    0,072;    0,136
267,009; 7398,702;    0,526;    0,773
267,606; 7318,471;    0,345;   -0,955
268,203; 7305,138;   -0,383;   -0,591
268,801; 7547,030;   -0,474;    0,591
269,398; 7836,710;   -0,564;    2,500
269,995; 7818,621;    0,890;    1,591
270,592; 7609,606;    0,799;   -0,500
271,189; 7774,279;    1,981;    0,409
271,786; 7910,559;    2,072;    1,227
272,383; 7769,794;   -0,383;    0,227
272,980; 7916,273;    1,617;    0,318
273,577; 8347,496;    2,162;    1,227
274,174; 7945,980;    1,435;    2,591
274,771; 7919,894;    1,890;   -0,773
275,367; 8099,154;    3,253;    1,409
275,964; 8061,128;   -0,565;   -0,500
276,561; 8135,740;   -2,474;   -1,045
277,158; 8301,523;    1,799;   -1,773
277,755; 8456,597;   -0,110;    0,409
278,351; 7886,402;    0,436;   -1,500
278,948; 8182,141;   -0,201;    0,045
279,545; 8168,782;    0,527;    2,318
280,141; 8755,948;    1,254;   -2,045
280,738; 8607,300;    2,435;   -0,136
281,334; 8795,437;   -0,383;    0,591
281,931; 8181,624;    2,890;   -1,318
282,528; 8319,208;    4,072;   -0,500
283,124; 8976,086;    3,345;   -0,500
283,721; 8858,345;    0,709;    1,409
284,317; 8668,286;    0,163;    2,500
284,913; 9208,734;   -0,110;    0,591
285,510; 9400,007;    2,890;   -0,318
286,106; 9431,986;    2,345;   -0,955
286,703; 9022,454;    0,072;    1,955
287,299; 9215,577;    1,254;   -0,591
287,895; 9399,355;    0,890;   -1,045
288,491; 9938,619;    0,163;    2,136
289,088; 9686,951;    0,163;    2,409
289,684; 9747,440;    2,890;    1,500
290,280; 9743,375;    1,890;    0,682
290,876; 9809,330;    0,163;    5,500
291,472; 9718,001;    2,163;    2,227
292,068; 9822,217;    1,254;    0,227
292,665; 9519,668;   -0,564;    0,773
293,261; 9230,782;   -1,292;    2,136
293,857; 9579,690;    4,072;    2,136
294,453; 9515,608;   -0,928;    0,955
295,049; 9404,273;    0,253;    1,955
295,644; 9434,930;   -1,292;    0,136
296,240; 9366,630;    0,162;   -0,136
296,836; 9388,005;   -0,747;    0,318
297,432; 9613,319;    2,980;   -0,500
298,028; 9667,547;    0,435;    0,773
298,624;10029,669;    0,889;    1,864
299,220;10264,109;    0,435;    0,591
299,815; 9915,356;    0,526;   -0,409
300,411; 9733,273;    0,435;    1,773
301,007; 9721,338;    1,889;    0,227
301,602; 9778,213;    2,071;   -2,318
302,198; 9917,368;    1,435;   -0,773
302,794;10259,240;    1,526;   -0,500
303,389;10351,086;    1,071;    1,045
303,985;10372,181;    1,253;    1,409
304,580;10351,171;    0,889;    1,591
305,176;10324,523;    0,344;    0,136
305,771;10282,083;   -0,929;   -1,227
306,367;10168,366;    3,071;    0,136
306,962;10467,031;    2,889;    1,500
307,558;10183,893;    2,435;    0,136
308,153;10142,047;   -0,383;   -1,136
308,748;10370,333;    0,162;    1,682
309,344;10324,935;    0,253;   -1,318
309,939;10428,785;    2,071;   -1,318
310,534;10686,723;   -2,020;   -1,682
311,130;10629,904;   -0,656;   -2,500
311,725;10373,189;    0,526;   -0,500
312,320;10674,056;    1,253;    0,045
312,915;10564,702;    2,890;   -1,045
313,510;10619,009;    0,526;   -0,500
314,105;11118,162;   -3,565;    1,409
314,700;10515,448;   -1,656;   -1,045
315,295;10160,080;   -0,020;    0,045
315,890; 9766,800;   -0,292;    0,864
316,485;10114,692;    0,253;   -0,318
317,080;10199,625;   -0,929;    1,591
317,675;10673,762;    3,071;   -0,682
318,270;10140,353;    6,889;    3,318
318,865;10145,374;    2,435;    3,045
319,460; 9993,826;   -1,565;    0,591
320,055;10245,087;   -2,565;   -1,227
320,650; 9930,079;   -1,838;   -0,591
321,244; 9952,072;    0,889;   -1,409
321,839;10816,020;    0,980;   -0,227
322,434;10720,511;   -0,111;   -1,591
323,029;10390,543;   -0,474;    1,591
323,623;10228,606;    0,798;    0,773
324,218;10038,782;    2,707;    1,409
324,812; 9956,310;    0,889;    1,591
325,407; 9790,462;   -0,929;    2,045
326,002; 9728,396;    0,526;   -0,409
326,596;10075,875;   -0,656;    1,318
327,191;10220,230;   -0,383;   -1,045
327,785; 9857,875;   -0,747;   -0,227
328,379;10092,980;   -0,383;    0,136
328,974; 9857,367;    1,798;   -3,955
329,568;10089,676;    2,889;   -2,409
330,163; 9909,069;    2,435;    1,045
330,757;10269,514;    0,253;    1,591
331,351; 9608,498;   -0,292;    0,682
331,945; 9922,898;   -0,383;    1,409
332,540; 9552,113;    1,617;   -0,591
333,134; 9679,267;    3,344;    0,773
333,728; 9874,271;    2,799;    0,318
334,322;10185,228;    0,889;   -0,864
334,916; 9511,465;    0,344;    0,955
335,510; 9830,927;   -0,111;   -0,136
336,105;10048,048;   -0,929;    1,591
336,699; 9767,231;   -1,292;    0,591
337,293; 9679,121;    1,071;    0,318
337,887; 9823,625;    0,071;    1,955
338,481; 9903,885;    2,980;    0,591
339,074;10049,759;    2,071;    2,682
339,668; 9878,569;   -0,110;    1,227
340,262;10114,814;    7,708;    3,227
340,856; 9655,957;    1,708;   -0,682
341,450; 9059,653;    0,708;    1,864
342,044; 9857,211;    1,799;    0,136
342,637; 9641,784;    1,162;   -2,136
343,231; 9491,455;   -1,474;    0,682
343,825; 9439,343;   -0,747;   -0,591
344,419; 9449,316;   -0,474;    0,500
345,012; 9258,985;    2,889;    4,045
345,606; 9278,816;   -0,656;    1,591
346,199; 9145,933;   -0,111;   -0,227
346,793; 8718,833;    2,525;    2,045
347,386; 8930,490;    0,889;   -1,136
347,980; 8899,656;   -0,838;   -0,045
348,573; 8722,063;   -1,748;    0,409
349,167; 8455,057;    6,161;    4,773
349,760; 8761,856;    2,252;    2,682
350,354; 8735,238;    1,616;    1,136
350,947; 8495,999;    2,798;    1,682
351,540; 8230,610;    0,616;   -1,409
352,134; 8174,334;   -1,111;    1,136
352,727; 8263,671;   -0,657;    1,136
353,320; 8077,888;    2,343;    0,591
353,913; 7898,511;   -1,929;    1,864
354,507; 8098,587;    0,434;   -1,227
355,100; 8118,441;    0,071;    0,864
355,693; 7439,225;    4,798;    2,409
356,286; 7462,082;    0,980;    2,773
356,879; 7791,177;   -0,475;    1,227
357,472; 7417,228;    0,980;    1,500
358,065; 7633,271;    3,161;    2,500
358,658; 7590,199;    0,798;    2,318
359,251; 7272,247;    0,252;   -0,591
359,844; 6783,698;    0,343;   -1,136
360,437; 6964,830;    0,252;    0,045
361,030; 7226,315;    0,525;   -0,682
361,623; 6831,546;    0,434;    0,318
362,215; 6881,358;    0,979;    2,045
362,808; 6722,412;   -2,293;   -1,682
363,401; 6909,511;    0,798;    0,136
363,994; 6718,496;    3,252;   -1,500
364,586; 6625,225;    0,888;   -1,500
365,179; 6818,265;   -0,203;   -1,136
365,772; 6356,529;   -0,930;    2,045
366,364; 6610,531;    1,524;   -3,227
366,957; 6795,324;    1,342;   -0,045
367,549; 6801,874;   -0,203;   -0,864
368,142; 6499,494;    0,978;   -1,500
368,734; 6687,395;    2,523;   -2,136
369,327; 6656,706;    2,341;   -0,500
369,919; 6554,836;   -1,659;    0,409
370,512; 6374,149;   -1,023;   -0,500
371,104; 6178,947;    2,704;    1,591
371,696; 6311,221;    1,703;   -0,955
372,289; 6382,350;    0,157;    1,136
372,881; 6504,629;    1,156;    1,318
373,473; 6432,963;    4,064;    1,136
374,066; 6266,375;    1,336;    0,500
374,658; 6150,203;    0,879;    1,136
375,250; 6443,163;   -1,668;   -1,409
375,842; 6308,191;   -0,124;   -0,045
376,434; 6199,731;   -2,762;   -0,409
377,026; 6709,546;   -1,855;   -2,500
377,618; 6604,697;    0,779;   -0,682
378,210; 6448,416;    3,141;   -1,955
378,802; 6315,123;    3,412;   -0,591
379,394; 6304,557;    3,411;    0,682
379,986; 6833,246;    1,138;   -0,955
380,578; 6913,997;    1,410;    0,773
381,170; 6303,966;    0,320;    0,045
381,762; 6270,416;   -0,224;    1,409
382,354; 6435,744;   -0,223;   -1,318
382,945; 6537,940;    0,870;    0,318
383,537; 6671,416;    1,144;   -1,955
384,129; 6688,804;    0,963;   -1,136
384,721; 6845,573;    0,418;    0,955
385,312; 6768,498;   -1,399;   -0,955
385,904; 6864,292;   -0,945;    1,591
386,496; 6307,103;    0,691;    1,045
387,087; 6405,667;    0,418;    2,500
387,679; 6424,736;   -0,401;    0,045
388,270; 6574,132;   -2,401;    2,045
388,862; 6682,908;   -0,401;   -0,318
389,453; 6553,301;    1,054;    1,045
390,045; 6785,460;    3,236;   -2,682
390,636; 6715,463;    0,144;   -0,591
391,227; 6597,470;    2,054;   -0,045
391,819; 6695,019;    0,781;    0,773
392,410; 6743,942;    0,600;    0,045
393,001; 6684,462;    1,600;   -1,591
393,593; 6959,622;    0,600;   -0,045
394,184; 6825,419;    0,873;   -0,409
394,775; 6732,421;    1,146;    2,136
395,366; 6935,251;    1,782;    0,773
395,957; 6899,468;   -2,400;    0,136
396,548; 7173,009;    1,054;    2,682
397,139; 7451,674;    2,236;    0,591
397,730; 7188,362;    0,873;    0,955
398,321; 7249,581;    0,509;    0,955
398,912; 7275,889;   -0,764;    0,136
399,503; 7369,045;   -1,945;   -1,409
400,094; 6880,002;   -1,582;    1,682
400,685; 6752,143;    3,600;    0,045
401,276; 6777,949;   -0,400;   -0,955
401,867; 7064,365;   -1,127;    0,773
402,458; 7146,786;    1,509;   -2,318
403,048; 7144,035;    0,146;    0,591
403,639; 6800,418;    1,509;    0,864
404,230; 7035,015;    0,691;    0,318
404,821; 6973,773;   -0,127;    0,045
405,411; 7053,415;   -0,763;   -2,591
406,002; 6700,015;    3,237;   -1,136
406,592; 6600,213;    2,691;    0,045
407,183; 6851,083;    0,328;   -1,500
407,774; 6767,971;    1,419;   -0,136
408,364; 7031,230;    2,600;    0,409
408,954; 6701,701;   -0,036;    1,227
409,545; 6767,764;    1,873;    1,045
410,135; 6312,626;   -1,581;    0,500
410,726; 6462,045;    0,783;    0,318
411,316; 6811,602;    2,237;    0,773
411,906; 6529,341;    0,146;   -0,409
412,497; 6065,330;   -0,490;   -0,045
413,087; 6627,607;    0,783;   -0,227
413,677; 6939,341;   -2,490;    3,864
414,267; 6807,857;   -1,035;    1,409
414,857; 6816,639;    0,419;    4,227
415,448; 7071,615;   -0,763;    0,500
416,038; 6815,351;   -2,945;   -0,591
416,628; 6770,132;    0,965;    0,409
417,218; 6313,539;   -1,762;    3,318
417,808; 6546,594;    0,965;   -0,409
418,398; 6911,960;   -1,035;    2,682
418,988; 6918,012;   -2,217;    0,591
419,578; 7124,190;    3,601;    1,409
420,168; 7457,935;    0,692;   -0,955
420,757; 7104,911;    0,964;   -1,500
421,347; 6766,001;    1,601;   -0,227
421,937; 6919,633;    3,329;    1,409
422,527; 6892,721;    2,602;   -0,773
423,116; 6738,004;    2,692;   -0,045
423,706; 7016,433;    2,965;    0,318
424,296; 6977,475;    1,601;    0,682
424,885; 7379,020;    1,510;   -3,045
425,475; 7645,521;    1,147;   -2,864
426,065; 7554,859;   -1,489;   -0,318
426,654; 7214,037;    0,329;   -0,318
427,244; 7319,369;    1,147;    1,409
427,833; 6814,517;    1,056;   -0,500
428,423; 7215,702;    0,147;    1,136
429,012; 7902,584;    2,420;   -1,136
429,601; 7448,039;    2,057;    0,136
430,191; 7669,976;    2,511;    4,318
430,780; 7307,909;   -1,671;   -0,409
431,369; 7280,199;    1,329;   -0,045
431,959; 7839,389;    1,693;    0,500
432,548; 7607,349;   -1,398;   -0,045
433,137; 7712,913;    0,329;   -1,318
433,726; 8214,013;    0,148;    0,500
434,315; 7630,526;    0,148;    2,409
434,905; 7746,793;    0,693;    1,409
435,494; 7671,240;    3,148;    0,955
436,083; 8056,974;    1,420;   -0,955
436,672; 7945,993;    1,148;    0,500
437,261; 7549,322;    0,512;   -1,955
437,850; 7665,602;   -1,125;    0,682
438,439; 7636,431;    2,239;    1,955
439,027; 7537,262;    3,421;    1,773
439,616; 7835,134;    2,239;    1,227
440,205; 7676,877;    0,057;   -2,136
440,794; 7727,483;   -0,306;   -0,045
441,383; 7964,021;    1,603;   -0,591
441,971; 7811,197;   -0,306;    0,591
442,560; 7678,439;    0,603;   -1,773
443,149; 7433,490;    3,060;   -1,318
443,737; 7562,307;    0,968;   -2,318
444,326; 7834,557;    0,331;    0,318
444,915; 7847,141;   -1,851;    0,864
445,503; 8201,646;    0,058;   -0,318
446,092; 7542,113;    7,876;    2,136
446,680; 8037,159;    1,876;    0,318
447,269; 8214,036;   -1,487;   -0,318
447,857; 8008,340;    2,240;   -1,773
448,445; 8105,942;    2,149;    1,318
449,034; 8312,365;    0,876;   -1,136
449,622; 8419,617;    1,240;    3,500
450,210; 7737,706;    3,149;    2,227
450,799; 8198,831;    2,604;   -0,591
451,387; 8138,139;    1,786;   -0,591
451,975; 7839,736;   -1,305;    0,864
452,563; 7965,821;    0,422;    2,318
453,151; 7976,298;   -1,032;   -1,227
453,739; 7880,497;   -1,577;    0,136
454,328; 7763,204;    0,604;   -2,136
454,916; 7510,615;    1,150;   -0,136
455,504; 7683,320;    3,513;    1,227
456,092; 7855,709;    2,150;   -1,591
456,679; 7797,804;    0,604;    0,682
457,267; 7769,108;    3,604;    1,045
457,855; 7884,740;    3,241;    1,409
458,443; 7667,232;   -0,304;    1,682
459,031; 7811,913;    1,332;    2,409
459,619; 8200,165;   -3,577;    2,864
460,206; 8281,543;   -0,759;    2,045
460,794; 8365,270;   -0,668;   -0,227
461,382; 8563,930;    0,878;   -0,864
461,970; 8169,520;    0,605;    1,864
462,557; 8229,131;    0,878;   -0,682
463,145; 8403,796;   -0,304;   -1,682
463,732; 8562,209;    2,514;   -1,045
464,320; 8441,360;    1,514;   -3,045
464,907; 8138,346;    0,423;   -0,773
465,495; 8034,124;    2,696;   -1,227
466,082; 8186,083;    2,060;   -0,045
466,670; 8111,180;    2,605;    1,227
467,257; 8493,969;    0,060;    2,045
467,844; 8632,074;    1,514;    0,045
468,432; 8630,103;   -0,031;    3,500
469,019; 8191,851;    1,606;   -1,773
469,606; 8614,530;    0,969;    3,682
470,193; 8450,108;    2,151;    0,227
470,780; 8064,608;    0,333;    0,864
471,368; 8390,250;   -1,212;   -0,773
471,955; 8202,350;    1,060;   -0,682
472,542; 7880,095;   -0,303;   -1,136
473,129; 8096,199;   -0,485;    0,136
473,716; 7857,961;    0,060;    0,591
474,303; 8009,100;    1,333;   -0,864
474,890; 8267,128;    2,333;   -0,500
475,477; 8293,739;   -0,576;    0,409
476,064; 8205,124;    0,697;   -1,591
476,650; 8141,130;    2,152;    0,318
477,237; 7968,221;    1,879;    0,955
477,824; 8122,389;    3,879;    0,864
478,411; 8142,565;    0,606;   -0,318
478,997; 8285,623;    0,606;   -0,773
479,584; 8344,965;   -0,666;   -0,409
480,171; 9006,855;    1,243;   -0,773
480,757; 8642,852;   -0,848;    0,773
481,344; 8885,244;    0,334;    0,409
481,931; 8456,778;   -0,393;    1,045
482,517; 9332,226;    0,425;    0,318
483,104; 9777,396;    1,334;    2,864
483,690;10015,696;    0,243;    0,045
484,276;10303,072;    0,698;    0,227
484,863;10076,620;    2,152;    1,136
485,449;10604,145;    0,152;    0,318
486,035;10606,265;   -0,666;   -0,136
486,622;11001,801;   -2,393;    0,045
487,208;10917,300;    1,334;    1,500
487,794;10768,193;    0,971;    0,318
488,380;10886,660;    0,698;   -1,409
488,967;10953,925;   -1,120;   -0,409
489,553;10994,196;   -1,029;   -1,409
490,139;11189,403;    0,971;    0,773
490,725;10682,661;    0,789;   -0,227
491,311;10318,380;    1,516;    3,045
491,897; 9740,135;   -0,665;    1,500
492,483; 9604,898;    0,426;    1,227
493,069; 9456,754;    5,426;    0,864
493,655; 9400,739;    1,789;    0,682
494,241; 9318,003;    1,517;   -0,955
494,826; 9647,399;    0,335;   -1,045
495,412; 9158,604;    0,335;   -0,682
495,998; 9332,979;    0,971;   -0,318
496,584; 9421,823;    2,244;    1,045
497,169; 9390,476;    2,335;   -0,682
497,755; 9382,144;    1,244;    1,227
498,341; 9869,588;    2,153;    0,318
498,926; 9454,407;    2,881;    1,955
499,512; 9629,576;   -0,028;    2,955
500,097; 9691,932;   -0,574;   -0,318
500,683; 9650,914;   -0,028;    2,136
501,268; 9992,985;    1,881;   -0,955
501,854; 9743,435;   -0,119;    1,227
502,439; 9675,297;   -0,573;   -1,773
503,024; 9823,424;    1,608;    0,500
503,610; 9877,057;    1,335;   -0,682
504,195; 9854,029;    1,245;    1,955
504,780; 9976,537;    2,335;    1,227
505,366; 9846,482;    4,063;    2,864
505,951; 9586,380;   -1,119;    1,045
506,536; 9604,804;    1,427;   -3,682
507,121; 9604,626;    1,699;   -0,318
507,706;10043,017;   -0,392;    1,045
508,291;10384,814;   -2,937;    1,136
508,876; 9889,400;   -0,482;    2,591
509,461; 9417,299;    1,427;   -0,773
510,046; 9806,134;   -0,391;    0,318
510,631;10006,040;   -0,119;   -0,773
511,216; 9730,902;   -0,664;   -0,500
511,801;10047,444;   -0,755;    2,591
512,386;10283,483;    0,972;    0,500
512,971;10215,436;    0,427;    0,955
513,555; 9836,179;    1,154;   -1,500
514,140;10553,144;    1,336;   -3,136
514,725;10524,262;    1,791;   -1,136
515,309;10611,661;    1,064;    0,318
515,894;10180,387;   -0,300;   -2,227
516,479;10570,811;    1,973;   -0,955
517,063;10376,456;    0,882;    1,227
517,648;10522,008;    0,155;   -1,136
518,232;10137,721;   -1,300;   -1,409
518,817;10476,564;    1,337;    1,682
519,401;10687,577;    0,700;    0,591
519,985;10185,201;    2,700;    1,136
520,570;10080,843;   -0,118;   -1,955
521,154;10354,433;    0,064;    0,591
521,738;10512,930;    1,064;    2,409
522,323;11054,469;   -0,390;    1,682
522,907;10786,516;    2,428;   -0,136
523,491;10517,816;    1,155;    0,955
524,075;10495,842;    0,428;    0,591
524,659;10571,316;    0,973;    0,591
525,243;10103,800;    0,883;    0,409
525,827;10331,252;    0,883;   -0,045
526,411;11057,679;    1,155;   -0,136
526,995;11227,444;    0,337;    1,409
527,579;10848,934;    1,974;   -1,045
528,163;11114,073;    0,428;   -1,500
528,747;11063,906;    1,065;   -0,773
529,331;11343,671;    0,883;   -1,409
529,915;11492,053;    2,338;    0,955
530,499;11439,757;    0,247;    1,227
531,082;11176,612;    1,065;    1,591
531,666;10651,272;    0,520;    0,773
532,250;11240,476;    0,428;    2,682
532,833;11523,264;    0,610;    2,773
533,417;11405,972;    1,247;    0,864
534,001;11357,957;    0,429;   -0,318
534,584;12020,263;    1,974;    0,500
535,168;11855,850;    3,247;    1,409
535,751;11880,274;    4,520;    0,045
536,334;11322,538;    4,520;   -0,409
536,918;11905,262;    1,974;    1,591
537,501;12003,965;    1,520;    1,318
538,085;12006,999;    1,702;    1,045
538,668;12093,388;    0,883;    2,409
539,251;12365,958;    3,156;    3,773
539,834;12396,407;    0,156;    0,773
540,418;12346,110;    3,247;    4,318
541,001;12419,892;    2,702;    1,773
541,584;12386,510;    1,429;    2,227
542,167;12092,866;    0,702;    2,955
542,750;12208,699;    0,793;   -0,773
543,333;11818,795;    1,429;    2,136
543,916;12526,648;   -0,298;    2,500
544,499;13020,413;    2,520;    0,227
545,082;13026,599;    0,248;    3,591
545,665;13158,882;   -0,207;    1,500
546,248;13442,977;    0,520;   -0,318
546,830;13109,150;   -1,752;    1,955
547,413;13439,913;    0,157;   -0,773
547,996;13953,614;    0,157;    0,500
548,579;13718,776;   -0,843;    0,955
549,161;13563,690;    0,884;    2,682
549,744;13289,670;    0,612;    0,409
550,326;13769,355;    0,885;   -1,136
550,909;13576,126;    2,339;    0,591
551,492;13965,937;    0,521;    0,227
552,074;13753,707;   -0,024;   -1,318
552,657;14251,390;    2,430;    0,045
553,239;14035,739;   -3,024;   -0,773
553,821;13976,708;   -1,570;    1,045
554,404;13462,297;   -0,024;    1,136
554,986;13819,952;    2,248;    1,045
555,568;14326,937;    0,430;   -0,955
556,151;13621,417;    4,067;   -0,227
556,733;13824,422;   -1,388;   -0,864
557,315;14216,926;    4,703;    0,500
557,897;14022,078;    0,521;   -0,500
558,479;14120,423;    1,703;    1,318
559,061;14239,333;    1,067;   -0,864
559,643;14556,879;   -0,297;    0,045
560,225;14804,396;   -0,388;    2,864
560,807;14858,424;    0,340;    0,318
561,389;14430,456;   -1,206;    2,318
561,971;15000,924;   -0,660;    2,136
562,553;14894,607;    0,613;    1,591
563,135;15009,240;    1,249;    1,136
563,717;14610,874;    3,158;    1,136
564,298;15201,140;    3,976;   -0,045
564,880;14936,570;    0,340;   -1,409
565,462;15075,115;    1,977;    1,318
566,043;16088,110;   -0,933;    2,318
566,625;15653,586;    4,067;    1,227
567,207;15465,659;    0,704;    1,682
567,788;16386,371;   -0,114;    1,500
568,370;17128,364;   -1,841;   -0,500
568,951;16914,291;   -0,569;    0,227
569,533;17622,159;    0,977;   -0,500
570,114;18006,670;   -0,296;    0,682
570,695;18423,480;   -0,478;   -1,318
571,277;18728,408;   -0,205;   -1,682
571,858;19334,098;    2,704;   -1,136
572,439;20083,804;    0,795;   -1,045
573,021;20162,341;    0,432;   -2,773
573,602;20549,708;    1,795;    0,318
574,183;21396,955;   -0,114;    2,227
574,764;21450,358;    2,068;    0,409
575,345;21858,762;    0,250;   -0,136
575,926;22382,564;    2,704;    0,136
576,507;22310,365;    2,704;   -0,227
577,088;23288,069;    1,704;    1,682
577,669;23218,098;    1,704;    1,955
578,250;23826,500;   -0,750;   -1,045
578,831;24305,666;   -0,841;   -2,227
579,412;24477,487;   -1,205;    0,955
579,993;25314,218;    1,432;    0,227
580,573;25660,857;   -0,023;   -0,955
581,154;24642,009;    1,613;   -0,591
581,735;25437,096;    0,341;    0,773
582,315;24943,278;    0,523;    2,136
582,896;25224,813;   -1,750;    1,227
583,477;24770,123;    0,614;    1,227
584,057;24909,650;    1,159;    0,955
584,638;25128,218;   -2,750;    2,318
585,218;25200,147;    2,886;    2,682
585,799;25360,067;    1,977;   -0,227
586,379;25393,251;    1,250;    1,591
586,959;24289,274;    2,613;    0,318
587,540;23818,841;    0,432;    2,227
588,120;23388,272;   -1,113;   -0,045
588,700;22591,327;    2,977;    2,136
589,281;22874,265;    1,250;   -0,955
589,861;22818,888;   -0,296;   -1,682
590,441;22631,950;   -1,477;   -2,682
591,021;21698,240;    1,432;   -2,591
591,601;21954,423;    0,431;    0,500
592,181;22034,894;   -1,296;   -0,773
592,761;21401,634;    2,250;    1,409
593,341;21384,363;    1,522;    0,045
593,921;21343,046;   -0,569;    1,591
594,501;21265,842;    1,250;    1,318
595,081;21114,475;    0,522;   -0,318
595,661;21415,037;    1,068;    0,955
596,240;21885,264;   -1,023;    0,136
596,820;21503,780;    2,613;    1,955
597,400;21587,578;    1,977;    0,773
597,980;21840,638;   -0,750;    1,045
598,559;21856,278;    0,341;   -0,227
599,139;21637,333;   -0,750;   -1,227
599,718;21512,969;    0,795;   -0,409
600,298;21799,847;   -2,387;    0,682
600,877;21982,393;    4,795;    1,409
601,457;22234,182;    0,340;    1,136
602,036;22154,807;    1,795;    2,045
602,616;22289,023;    2,250;    1,682
603,195;22545,749;    0,431;    3,500
603,774;22141,508;   -0,296;    2,045
604,354;22030,260;    2,522;   -0,500
604,933;21585,486;    0,250;    1,864
605,512;21743,628;    2,340;    0,591
606,091;21796,783;    1,886;    3,773
606,671;22524,956;    0,249;    0,773
607,250;21689,277;    1,431;    3,136
607,829;21898,219;    1,158;    3,227
608,408;21766,257;    4,613;    2,591
608,987;20933,641;    2,704;    3,409
609,566;21212,471;    0,341;   -2,500
610,145;21304,714;    2,885;    0,682
610,723;21688,289;    1,613;    6,864
611,302;20991,558;    1,067;    1,682
611,881;20535,389;    5,158;   11,227
612,460;21313,211;    0,795;    3,955
613,039;21662,567;    1,703;    2,045
613,617;20514,976;    0,886;    4,773
614,196;20689,144;    1,613;    1,227
614,775;21001,132;    1,249;    2,409
615,353;20936,887;   -1,660;    0,864
615,932;20753,800;    0,249;    2,409
616,510;21295,426;    0,158;    0,591
617,089;20893,168;    8,794;   17,591
617,667;20694,324;    4,885;    6,136
618,246;20523,329;   -1,115;    1,318
618,824;20674,312;    1,612;   -0,955
619,402;20254,745;    0,431;   -1,773
619,981;20693,112;    1,067;   -1,045
620,559;20566,279;    0,794;    1,682
621,137;20147,947;    3,067;    1,864
621,715;20140,976;    3,703;   -0,682
622,293;20111,308;    1,885;   -0,773
622,871;20533,017;    0,340;    0,500
623,450;20145,322;    0,430;   -0,864
624,028;20087,960;   -0,388;   -0,955
624,606;19729,761;    2,339;    1,682
625,183;20081,853;   -0,661;   -1,136
625,761;19730,419;    1,885;    1,136
626,339;20009,178;    2,339;    2,591
626,917;20387,864;    0,339;   -0,045
627,495;20444,006;    2,794;    1,318
628,073;19899,074;    5,248;    2,864
628,650;19616,542;    3,067;    2,136
629,228;20015,975;    1,248;    4,409
629,806;19457,955;   -0,024;    1,136
630,383;19675,019;    0,066;   -0,318
630,961;19547,341;   -2,206;   -0,955
631,539;19304,583;   -2,479;    0,227
632,116;18688,160;   12,703;   15,409
632,694;19255,522;    4,885;    6,500
633,271;19483,223;    1,975;    2,682
633,848;19418,381;    1,430;    2,045
634,426;19443,502;    1,521;    1,773
635,003;18710,514;   -0,207;   -0,409
635,580;18954,872;    1,884;    3,682
636,158;19421,073;    3,793;    1,227
636,735;19397,519;    3,339;   -0,500
637,312;19499,433;    0,521;   -0,682
637,889;19591,221;    2,248;   -0,682
638,466;19172,635;    0,066;   -0,409
639,043;19155,636;    1,702;   -1,136
639,620;19481,452;    0,611;   -0,955
640,197;19716,127;    1,612;    1,682
640,774;19834,574;    1,430;    1,136
641,351;20161,202;    0,612;    1,136
641,928;19692,558;    2,794;    1,409
642,505;19343,551;    0,794;   -0,500
643,082;19502,816;    1,885;    1,227
643,658;18674,444;    1,157;    1,500
644,235;19269,619;   -2,479;    2,500
644,812;19449,611;    1,794;    0,773
645,388;19209,421;    1,612;    1,409
645,965;19316,505;    1,521;    1,682
646,542;19378,224;    3,430;   -0,227
647,118;19406,580;    3,703;   -0,955
647,695;19666,573;    0,339;    1,136
648,271;19585,838;   -2,115;    0,500
648,848;19806,921;    0,248;    2,227
649,424;19696,004;    0,976;    1,318
650,000;19443,815;   -0,388;   -1,045
650,577;19277,443;    0,158;   -0,955
651,153;19656,436;   -1,115;    0,955
651,729;20484,610;    0,521;    0,864
652,305;20581,420;    1,339;    2,773
652,881;23953,594;   -1,297;    1,136
653,458;29371,496;    0,249;    0,227
654,034;32370,125;    0,703;    1,591
654,610;33483,117;    0,339;    0,773
655,186;34658,109;    1,612;    3,045
655,762;34420,011;   -1,842;    0,409
656,338;34409,367;    0,703;    0,136
656,913;35340,904;   -0,297;    0,409
657,489;34691,806;    0,249;   -0,318
658,065;34650,980;    0,794;   -1,591
658,641;35255,245;    2,158;   -0,864
659,217;34672,237;    2,067;    0,409
659,792;34146,139;   -1,751;   -0,409
660,368;34426,040;   -0,388;   -0,682
660,944;34429,487;    1,794;    1,227
661,519;30842,207;    0,522;    0,409
662,095;25964,563;   -0,206;    0,591
662,670;22118,828;   -0,206;   -0,136
663,246;21217,729;   -0,660;   -0,409
663,821;20660,994;    0,431;    1,682
664,396;20210,077;    0,613;    1,864
664,972;20406,433;   -0,660;   -0,500
665,547;20703,698;    3,794;    0,136
666,122;20775,145;    1,340;    0,318
666,698;21040,047;    2,431;    0,318
667,273;20376,130;    0,885;    0,136
667,848;21053,759;    0,340;    1,500
668,423;20869,660;    1,795;    2,318
668,998;21312,834;    0,976;   -0,682
669,573;21788,099;    2,067;   -1,500
670,148;21621,183;    1,885;   -0,682
670,723;21389,175;   -0,024;    0,318
671,298;21800,713;   -1,296;    1,045
671,873;21828,523;   -0,296;   -0,136
672,448;21801,061;    1,704;    0,136
673,023;22121,599;    0,249;   -0,227
673,597;22386,046;    2,704;    2,318
674,172;22192,129;    2,431;    0,318
674,747;21679,939;   -0,205;   -1,045
675,321;21525,659;   -0,933;    3,318
675,896;21177,288;    2,158;    1,045
676,471;22020,826;    2,522;    1,591
677,045;21835,818;   -0,296;    0,682
677,620;21827,810;    2,158;    1,136
678,194;22142,075;    0,249;    1,136
678,769;21804,977;    0,886;   -0,318
679,343;21993,151;   -0,023;    1,773
679,917;21854,780;    0,340;    1,955
680,492;21893,863;    0,249;    3,227
681,066;21986,310;    0,613;    0,409
681,640;22031,575;    1,795;   -0,318
682,214;22761,931;    2,340;    0,500
682,788;22293,832;    0,613;   -0,773
683,363;22199,188;    1,977;    1,682
683,937;21932,817;    0,886;   -0,318
684,511;22648,718;   -1,023;   -0,591
685,085;22398,256;   -1,478;    0,318
685,659;22108,794;    1,431;    0,864
686,232;22373,422;    1,159;   -0,318
686,806;22134,324;    2,159;    0,409
687,380;22687,771;   -1,932;    0,591
687,954;22903,672;    2,432;    1,136
688,528;22634,392;    2,613;    1,955
689,101;23336,748;    0,432;    1,045
689,675;22892,195;    0,886;   -0,136
690,249;22302,914;    3,432;    0,409
690,822;22646,179;    1,159;    0,318
691,396;22789,626;    2,068;    1,227
691,969;22270,164;    2,523;    0,136
692,543;22693,429;   -0,568;   -1,955
693,116;22350,785;   -0,659;   -1,409
693,690;22256,323;   -0,296;    0,500
694,263;22801,861;    2,341;    2,955
694,836;22759,944;    2,795;    3,591
695,410;21556,391;    1,159;    1,773
695,983;21930,929;    1,614;    0,591
696,556;21945,375;   -0,750;   -1,045
697,129;22288,186;   -1,114;    1,409
697,703;21972,542;    1,341;    1,955
698,276;21969,080;    1,705;   -0,773
698,849;21824,072;   -1,023;    1,409
699,422;22141,883;    1,250;    0,591
699,995;21893,420;   -0,659;    0,136
700,568;22268,413;   -0,204;    3,045
701,140;22326,132;   -1,841;    1,682
701,713;22097,215;    0,341;    2,409
702,286;21877,026;    0,796;    0,864
702,859;21749,018;    0,614;   -0,591
703,432;21035,192;   -0,841;    0,682
704,004;21438,548;    1,978;    0,318
704,577;21308,814;    1,068;    0,136
705,150;21827,806;    0,887;    2,500
705,722;21628,253;    1,523;   -3,227
706,295;21452,154;    1,432;   -0,591
706,867;21336,056;    0,250;    1,955
707,440;21559,139;   -0,113;   -0,409
708,012;21765,768;   -0,022;    0,591
708,584;21660,487;    2,705;    0,227
709,157;21905,207;    1,160;   -0,591
709,729;21660,381;    1,069;    2,045
710,301;22429,828;   -1,204;    0,045
710,874;22471,184;    0,341;   -0,227
711,446;21372,449;   -0,295;    0,864
712,018;21253,350;   -3,022;    0,500
712,590;21079,888;   -0,204;    1,682
713,162;21508,971;   -0,477;    1,318
713,734;21711,873;    1,796;   -2,045
714,306;21671,229;    0,342;   -0,409
714,878;20492,585;   -0,295;    0,864
715,450;21247,122;   -0,113;    0,864
716,022;21480,751;    2,433;    1,318
716,593;21625,107;    0,978;    0,591
717,165;21618,827;    1,796;   -1,227
717,737;21301,728;    0,796;    0,409
718,309;21001,630;    1,160;   -0,045
718,880;20955,713;   -1,295;   -1,409
719,452;21223,523;    0,887;   -1,591
720,024;20896,516;    1,705;   -0,591
720,595;21354,235;    2,978;    0,955
721,167;20977,682;    1,160;   -2,045
721,738;20491,947;    2,069;   -1,045
722,309;20482,303;    1,251;   -1,227
722,881;20346,659;    2,705;    0,773
723,452;20931,197;    1,251;    2,864
724,023;21049,462;    1,524;    2,682
724,595;20819,000;    2,342;    0,682
725,166;20604,083;    1,524;   -0,409
725,737;20336,348;    1,887;    0,227
726,308;20437,249;    0,797;    0,318
726,879;20747,333;    1,069;    1,227
727,450;20622,598;   -2,022;   -0,045
728,021;20604,590;    1,069;    0,682
728,592;20422,582;    1,160;    0,500
729,163;20771,302;    1,433;   -0,136
729,734;20739,840;    2,160;   -0,227
730,305;21061,196;    0,615;    0,136
730,876;21306,915;    0,888;    2,955
731,447;21059,180;    0,797;    2,682
732,017;21177,900;   -0,840;    1,864
732,588;20768,620;   -0,021;    1,227
733,159;20828,794;    3,615;   -1,045
733,729;20690,513;    1,251;    0,409
734,300;20048,324;    0,160;    0,864
734,870;20445,316;   -1,385;    0,591
735,441;20954,036;    0,888;   -0,591
736,011;20797,301;    1,070;   -1,591
736,582;20708,293;    1,251;    0,045
737,152;20173,467;    0,979;   -2,045
737,722;20648,096;    1,070;   -0,682
738,293;20362,634;   -2,021;    1,318
738,863;20219,444;    1,797;    2,318
739,433;20097,800;    4,524;    0,318
740,003;20646,338;    1,524;   -0,682
740,573;20138,512;    2,252;   -1,591
741,143;20160,414;    3,615;    0,318
741,713;20808,861;    0,252;   -0,500
742,283;20576,398;    1,706;    1,591
742,853;20390,118;    0,524;    1,591
743,423;19901,565;    0,161;    0,045
743,993;19959,285;    1,070;    1,500
744,563;19420,368;    2,524;   -0,864
745,133;19376,996;   -0,112;   -0,864
745,702;20006,262;    2,797;    1,773
746,272;19269,799;    0,434;    0,591
746,842;19124,701;   -0,748;   -0,591
747,411;19533,420;   -0,839;   -0,318
747,981;19664,140;   -0,930;    0,500
748,551;19754,769;   -0,021;   -1,045
749,120;19585,125;   -0,112;   -0,227
749,690;19897,026;    2,161;    2,409
750,259;20229,655;    0,979;    2,955
750,828;20091,920;    4,070;   -1,955
751,398;20311,458;   -0,112;   -0,045
751,967;19877,086;    2,888;    0,409
752,536;20089,897;    1,161;   -0,227
753,105;20485,071;   -1,384;    0,227
753,675;20239,336;   -0,112;    1,773
754,244;20177,874;    0,888;    3,591
754,813;20181,957;    0,979;    1,227
755,382;19842,858;    0,798;    0,955
755,951;20307,305;   -0,112;    3,682
756,520;19887,479;    2,525;    1,864
757,089;20350,108;    1,888;    0,500
757,658;20464,010;    2,434;    1,227
758,227;20505,275;   -1,111;    0,318
758,795;20772,449;   -1,021;    1,136
759,364;21042,168;    0,525;   -0,591
759,933;20110,524;    1,343;   -0,045
760,501;19725,880;    0,252;   -1,318
761,070;20089,145;   -0,293;   -1,409
761,639;20761,592;    1,434;    1,318
762,207;20151,403;    0,889;   -0,955
762,776;20045,213;    2,889;    0,864
763,344;20060,933;    0,071;    0,591
763,913;19190,653;    1,616;    1,409
764,481;19931,099;    1,980;   -0,136
765,049;19807,183;    0,616;    1,409
765,618;19638,811;    1,434;    0,318
766,186;19792,804;    2,434;    0,136
766,754;19929,796;    1,798;    1,864
767,322;19021,607;    1,162;    0,409
767,890;18999,872;    0,525;   -1,773
768,459;19417,409;    2,616;   -0,318
769,027;19565,765;    2,525;    3,409
769,595;18639,940;    2,616;    2,591
770,163;19011,568;    3,344;    2,955
770,730;18869,288;    2,525;   -0,136
771,298;18760,098;    1,162;   -1,409
771,866;18836,636;    0,253;    4,955
772,434;19100,174;    1,162;   -1,864
773,002;19275,712;    2,616;    0,682
773,569;18944,522;    1,071;    1,682
774,137;18793,515;    0,889;   -0,045
774,705;19473,416;   -0,747;   -0,136
775,272;19083,772;    0,253;    0,682
775,840;18940,037;   -0,111;    2,682
776,407;18463,393;   -0,293;    1,955
776,975;18069,931;    1,162;    0,318
777,542;19024,741;    2,162;   -0,045
778,110;18900,552;    0,707;   -0,045
778,677;18565,635;    1,071;   -0,864
779,244;18378,536;   -1,020;    1,045
779,812;18471,438;    0,980;    0,864
780,379;18327,067;    2,435;    1,136
780,946;18562,150;    2,617;   -0,773
781,513;18860,779;   -0,565;    0,318
782,080;18290,316;    1,253;    2,864
782,647;18913,490;    1,708;    3,045
783,214;18602,756;   -0,201;    3,864
783,781;18236,748;    1,708;   -0,682
784,348;18140,831;    0,253;    1,500
784,915;18495,733;   -1,474;    0,318
785,482;18305,088;    2,708;    2,591
786,049;18733,444;    1,071;   -0,591
786,615;18842,891;    1,708;   -0,955
787,182;18642,156;   -3,201;   -0,682
787,749;18323,149;   -2,201;    1,409
788,315;17700,959;    0,253;   -0,409
788,882;17973,042;    0,981;   -1,227
789,448;18598,671;    1,435;   -0,955
790,015;18624,845;    1,799;    3,227
790,581;18228,292;    0,708;    0,227
791,148;18157,557;    1,344;    1,045
791,714;18345,368;   -1,019;    3,136
792,280;18087,360;    3,708;    1,591
792,847;17743,262;   -0,928;    2,500
793,413;18197,708;   -0,110;   -0,318
793,979;17806,973;    1,526;   -1,318
794,545;17888,057;    2,981;    2,682
795,111;17363,594;    2,435;    1,318
795,678;17521,860;    3,526;   -1,682
796,244;17195,306;    2,799;    0,136
796,810;17671,753;    0,799;    0,773
797,375;17424,927;   -0,292;   -2,136
797,941;17445,011;   -1,110;    0,591
798,507;17574,367;    0,254;   -0,955
799,073;17161,450;    2,708;    0,591
799,639;17266,715;    1,435;    3,136
800,205;17309,798;   -1,565;    2,682
800,770;16921,245;    1,345;    1,773
801,336;16939,965;    2,981;   -0,955
801,901;16733,503;    6,072;    3,136
802,467;17237,131;    0,526;    2,045
803,033;16653,760;   -0,019;    0,864
803,598;16850,025;    1,072;   -1,045
804,163;16888,199;    0,708;   -0,318
804,729;16857,191;   -0,110;    1,136
805,294;17150,820;    1,072;    2,227
805,859;17012,267;    0,890;   -0,409
806,425;16535,350;    3,890;    2,682
806,990;16202,343;    1,890;    4,318
807,555;16595,608;   -0,110;    2,591
808,120;16622,964;   -1,292;   -0,409
808,685;16662,320;    1,072;   -2,500
809,250;16212,221;    2,072;   -0,500
809,815;16453,941;   -0,201;    0,682
810,380;16947,751;    0,981;    1,591
810,945;17418,289;    2,890;    2,045
811,510;16733,827;   -0,200;    1,591
812,075;16427,455;    2,800;   -1,409
812,640;16465,720;    3,709;    1,409
813,204;16560,986;    2,163;   -0,227
813,769;16995,614;    0,254;   -0,045
814,334;16482,697;    0,527;    0,864
814,898;16542,144;    1,981;    0,591
815,463;16372,137;    0,981;   -0,773
816,027;16346,493;    1,345;   -2,318
816,592;16466,940;    2,163;   -2,045
817,156;16066,023;   -2,200;    1,136
817,721;15929,742;    0,982;    2,318
818,285;15911,644;    0,618;    1,500
818,849;16477,182;   -0,018;    1,682
819,414;16411,992;    0,073;    2,955
819,978;16016,803;   -0,291;    1,773
820,542;16527,068;    2,891;    0,500
821,106;16321,151;    2,800;    0,682
821,670;16390,143;    2,709;    2,591
822,234;16109,681;    1,073;    1,409
822,798;15580,946;   -0,836;    0,500
823,362;15621,575;    1,527;    4,227
823,926;15041,294;   -0,018;    1,136
824,490;15215,650;    3,527;   -0,682
825,054;15623,825;    2,527;   -1,136
825,618;15336,544;   -1,200;   -1,500
826,181;15282,900;    0,982;   -1,318
826,745;15204,165;   -0,745;   -1,045
827,309;15546,794;    2,255;    1,318
827,872;15013,604;    0,527;    0,955
828,436;15856,960;    1,982;   -0,773
828,999;15977,862;    2,436;    1,227
829,563;14964,945;   -0,654;    1,136
830,126;14812,483;   -0,018;   -0,591
830,690;14813,657;    0,709;    2,864
831,253;14379,013;   -0,473;    2,227
831,816;14503,551;   -0,018;    0,500
832,380;14416,088;    1,164;    0,864
832,943;14642,990;    3,073;   -0,500
833,506;14198,710;    0,255;   -1,227
834,069;14876,156;    2,164;   -0,955
834,632;14983,421;   -2,200;    1,318
835,195;14883,868;    1,346;    0,955
835,758;14173,133;    0,709;    1,955
836,321;14058,489;    1,073;   -1,045
836,884;14135,664;   -1,291;   -0,955
837,447;14206,383;    0,528;    1,773
838,010;14413,830;    1,800;    3,227
838,573;14681,459;    0,528;    0,773
839,135;14708,451;   -0,109;   -0,955
839,698;14202,807;    2,528;    0,409
840,261;13785,345;    0,255;   -0,227
840,823;13677,701;   -0,927;    0,864
841,386;13909,784;   -0,018;   -2,409
841,948;13836,049;    0,255;    1,773
842,511;13612,132;    0,255;    1,682
843,073;13707,943;    2,982;    0,227
843,636;13562,662;    0,619;   -0,227
844,198;13458,837;    1,255;    0,591
844,760;13594,556;    0,619;    1,955
845,322;13275,094;    0,164;    1,136
845,885;13659,632;   -0,290;    0,591
846,447;14085,533;    0,710;    0,227
847,009;13732,798;    3,983;   -0,682
847,571;13981,245;    1,346;   -2,045
848,133;14054,601;   -0,199;   -1,864
848,695;13913,684;    2,346;    1,409
849,257;13525,495;    1,346;   -1,682
849,819;13691,578;    2,983;   -0,409
850,381;13683,752;    1,801;   -0,864
850,942;13958,654;    1,892;   -0,591
851,504;13888,191;    0,983;    0,227
852,066;13927,457;    1,619;   -1,591
852,628;13612,267;    0,165;    1,955
853,189;13169,623;    0,256;    2,682
853,751;13306,070;   -0,654;    1,409
854,312;13107,244;    1,256;   -1,682
854,874;13568,145;   -0,108;   -0,773
855,435;13979,774;    0,528;   -1,682
855,997;14161,676;    3,983;   -0,136
856,558;13510,032;    0,801;    1,773
857,119;13594,478;   -0,744;    2,864
857,681;13319,289;   -0,108;    0,318
858,242;13390,281;    1,347;   -2,136
858,803;13751,455;    1,074;   -0,773
859,364;14303,357;    0,892;   -4,773
859,925;13731,713;   -0,290;   -0,955
860,486;13585,978;    0,529;   -0,955
861,047;13346,697;    0,165;   -1,227
861,608;13204,963;    0,165;   -0,773
862,169;13371,500;   -0,562;   -0,045
862,730;13136,674;   -0,290;    1,409
863,291;13380,030;    0,438;   -0,500
863,852;13643,477;   -0,926;    1,955
864,412;13190,015;   -1,835;   -0,864
864,973;11969,189;    1,892;    0,500
865,534;11856,363;    2,074;    0,227
866,094;13168,447;    2,620;    0,227
866,655;12879,894;    4,711;    3,318
867,215;13151,977;    0,074;    0,136
867,776;13023,515;   -1,199;   -0,136
868,336;13077,598;    1,529;    0,136
868,897;12642,499;    3,438;    1,682
869,457;12433,764;    3,256;    0,318
870,017;12715,757;    2,438;   -1,227
870,578;13143,204;    1,893;    0,773
871,138;12760,923;    2,620;   -0,955
871,698;12360,825;   -0,562;   -1,318
872,258;12292,362;    0,711;   -2,864
872,818;12622,991;    2,347;    0,045
873,378;12614,802;   -2,198;    1,045
873,938;12226,430;    4,984;    0,500
874,498;12491,695;    1,256;   -1,955
875,058;12423,051;    4,347;    1,773
875,618;12277,225;    1,438;   -2,682
876,177;12188,945;   -0,471;    0,136
876,737;11881,665;   -0,289;    1,955
877,297;11908,930;    2,711;    1,955
877,856;11942,104;    2,529;    0,318
878,416;11910,369;    2,438;   -0,136
878,976;12065,907;    3,438;    0,409
879,535;12221,535;    4,529;    3,136
880,095;12072,164;    1,347;    0,045
880,654;12118,156;    0,347;    1,318
881,213;12213,421;    2,347;    1,500
881,773;11912,414;    1,984;    2,682
882,332;12226,952;    6,075;    5,136
882,891;12073,580;    0,711;    2,136
883,451;12462,936;   -2,016;    1,682
884,010;11974,838;   -1,107;   -0,409
884,569;12093,375;   -2,289;   -0,045
885,128;12198,641;   -0,743;   -1,864
885,687;12287,997;   -0,743;    0,682
886,246;12039,262;    2,620;    2,136
886,805;11761,072;    1,620;    2,045
887,364;11993,974;    1,166;   -0,500
887,922;12331,511;   -0,016;    0,045
888,481;11886,504;    1,530;    0,591
889,040;12124,314;    3,711;    2,136
889,599;12680,670;    2,166;    1,409
890,157;12733,572;    2,166;    2,409
890,716;12384,018;    2,166;    0,227
891,274;12218,011;    0,075;   -1,136
891,833;12585,003;    1,166;    0,864
892,391;12462,450;    1,802;    0,500
892,950;12535,806;    0,166;   -0,773
893,508;12875,526;    0,984;   -0,409
894,067;12278,336;   -0,379;    0,136
894,625;12203,419;   -1,016;   -1,500
895,183;12421,139;   -0,198;   -0,682
895,741;12345,677;    2,257;   -1,773
896,299;12160,760;    1,621;   -2,409
896,858;12324,843;    1,530;   -1,591
897,416;12467,745;    0,166;   -1,318
897,974;12271,737;   -2,197;    0,318
898,532;12401,547;    6,530;    2,682
899,089;12331,631;    0,621;   -0,682
899,647;12391,532;    0,530;    1,318
900,205;12200,434;    0,257;    1,045
900,763;12372,426;    2,166;    0,227
901,321;12384,418;    3,530;   -1,409
901,878;11869,956;    3,257;   -0,773
902,436;11775,585;    0,257;    1,318
902,994;12171,668;    6,712;    3,682
903,551;11675,569;    1,439;    0,409
904,109;12050,744;    1,530;   -1,409
904,666;11714,099;    1,439;    1,045
905,224;11536,546;    3,894;   -0,409
905,781;11332,993;   -0,470;   -0,318
906,338;11399,258;    0,167;    1,045
906,895;11375,160;    1,894;    2,045
907,453;11306,970;    2,348;    1,136
908,010;11309,963;    3,348;    0,409
908,567;11031,137;   -0,561;    0,591
909,124;10631,129;    2,439;   -1,500
909,681;10661,485;   -1,288;    0,682
910,238;10901,477;   -0,106;   -1,318
910,795;11158,106;   -1,561;   -1,136
911,352;10816,742;   -0,379;   -2,682
911,909;10320,288;    2,803;   -0,864
912,466;10779,833;    1,985;    1,500
913,022;10358,106;   -0,924;    0,500
913,579;10688,561;   -0,470;    2,045
914,136;10438,288;   -2,561;    0,955
914,692;10753,652;    1,530;   -1,227
915,249;10389,561;    0,530;    0,409
915,806;10611,288;    1,803;    1,955
916,362;10449,652;    0,894;    1,864
916,918;10032,833;    2,439;    1,045
917,475;10057,197;    1,621;    0,955
918,031;10109,833;    0,076;   -0,045
918,587; 9668,288;    0,621;   -0,318
919,144; 9907,197;   -0,379;    0,227
919,700;10125,652;    0,167;    0,773
920,256; 9774,015;    0,439;    0,045
920,812; 9528,015;    1,439;   -1,045
921,368; 9547,652;    1,348;   -1,045
921,924; 9241,742;    0,439;   -0,136
922,480; 8889,015;    0,076;    1,227
923,036; 9418,015;   -0,652;    1,955
923,592; 9377,015;    0,621;    0,318
924,148; 9329,106;    1,894;   -0,955
924,704; 8795,924;    0,258;   -0,409
925,259; 9063,197;   -0,561;    0,591
925,815; 8846,379;    3,803;    0,500
926,371; 8465,470;    3,530;    1,409
926,926; 8366,106;    1,621;    0,591
927,482; 8070,924;    1,621;    0,773
928,037; 8003,924;   -0,833;    2,045
928,593; 8301,742;    0,258;    1,045
929,148; 8146,833;    1,167;   -1,500
929,704; 7720,015;    2,439;   -0,500
930,259; 7876,652;    0,894;   -0,136
930,814; 7166,924;    1,803;    1,955
931,369; 6942,652;    0,258;   -0,773
931,925; 6888,833;   -1,924;    0,136
932,480; 6790,379;    3,076;   -2,591
933,035; 6775,379;    3,985;   -0,318
933,590; 6593,015;   -1,742;   -1,773
934,145; 6325,288;   -1,288;   -0,318
934,700; 6630,561;    0,348;   -0,591
935,255; 6494,924;    4,803;    0,045
935,809; 5980,924;    6,258;    0,864
936,364; 5251,833;    2,167;   -0,136
936,919; 5305,288;    2,348;   -1,773
937,474; 5225,288;    1,348;    0,136
938,028; 5041,561;    3,076;    1,136
938,583; 4688,106;    6,348;    4,682
939,138; 4936,561;    0,167;    2,136
939,692; 4456,561;   -1,015;   -1,136
940,247; 4245,015;    1,167;   -1,045
940,801; 3946,742;    0,621;    0,227
941,355; 3896,833;    0,439;    2,591
941,910; 3610,015;    0,712;   -2,136
942,464; 3710,288;    2,712;   -0,318
943,018; 3617,652;    3,258;   -0,227
943,572; 3558,652;    2,803;   -0,682
944,126; 3145,288;   -0,924;   -0,409
944,681; 3029,197;    0,712;    0,227
945,235; 2994,379;    2,167;   -0,591
945,789; 2958,197;    1,258;   -1,864
946,342; 3136,742;   -0,561;   -0,591
946,896; 2898,470;    0,348;    0,955
947,450; 2696,197;   -0,561;   -0,227
948,004; 2938,288;    1,076;   -0,045
948,558; 2884,470;    1,258;   -0,864
949,111; 2831,288;   -1,197;   -0,318
949,665; 2943,379;   -0,106;   -0,682
950,219; 2842,470;    0,621;   -1,045
950,772; 2857,742;    0,258;    1,864
951,326; 2784,288;   -1,106;   -0,955
951,879; 2811,379;    1,076;   -2,318
952,433; 2876,924;    1,348;    2,227
952,986; 2717,561;    0,348;    0,682
953,539; 2667,561;    1,530;    0,591
954,093; 2620,833;    0,985;   -1,318
954,646; 2758,561;   -0,288;    1,318
955,199; 2591,106;    1,258;   -0,500
955,752; 2562,015;    1,985;    1,773
956,305; 2496,833;    0,894;    2,955
956,858; 2645,652;    0,621;   -0,318
957,411; 2774,742;    3,621;    2,136
957,964; 2614,379;    2,076;    2,136
958,517; 2596,470;    0,985;    3,136
959,070; 2465,652;   -1,197;    1,955
959,623; 2633,288;    1,076;    1,500
960,176; 2438,197;    0,712;    2,045
960,728; 2414,833;    1,712;    0,773
961,281; 2445,833;    2,258;    0,500
961,834; 2461,015;   -0,833;    0,864
962,386; 2397,106;    1,258;    1,045
962,939; 2322,379;    3,439;   -0,318
963,491; 2425,470;    2,621;    1,136
964,043; 2330,652;    0,076;    2,409
964,596; 2469,652;    1,712;    2,227
965,148; 2323,561;   -0,379;    1,773
965,700; 2249,470;   -0,015;   -0,227
966,253; 2389,833;   -0,833;    0,318
966,805; 2267,833;    1,894;    0,773
967,357; 2270,652;    0,439;   -1,500
967,909; 2283,288;    1,167;   -1,227
968,461; 2318,106;    0,894;    3,136
969,013; 2254,197;   -1,561;   -0,864
969,565; 2350,833;    1,803;   -1,136
970,117; 2544,288;    3,803;    1,045
970,669; 2297,924;    3,258;   -0,136
971,220; 2121,742;    2,167;   -1,500
971,772; 2094,197;    1,348;   -0,318
972,324; 2219,197;   -1,197;   -0,500
972,876; 2143,379;    0,167;   -0,045
973,427; 2310,561;   -1,197;   -1,045
973,979; 2303,106;    0,076;   -2,500
974,530; 2235,652;    0,803;    1,318
975,082; 2252,924;    2,167;    1,682
975,633; 2172,470;    2,894;    1,682
976,184; 2329,924;    2,076;    0,773
976,736; 2180,288;    0,348;    0,227
977,287; 2045,197;    0,258;   -0,500
977,838; 2172,470;   -0,924;   -0,318
978,389; 2199,379;    0,803;   -0,500
978,940; 2058,561;    1,258;   -0,409
979,491; 2089,833;    2,258;   -0,500
980,042; 2080,379;   -0,652;    3,045
980,593; 2107,652;    1,894;    0,227
981,144; 2192,106;    3,530;   -0,500
981,695; 2207,561;   -0,470;    1,500
982,246; 2149,652;   -1,833;    1,045
982,797; 2205,561;   -0,561;    0,682
983,347; 2327,015;    2,167;    0,591
983,898; 2518,833;    4,167;    0,409
984,449; 2389,742;    2,530;    0,773
984,999; 2225,015;    1,894;   -1,136
985,550; 2076,833;    3,167;   -0,318
986,100; 2044,470;    0,712;   -0,318
986,651; 2051,197;    0,258;    0,045
987,201; 2080,015;    0,894;   -0,591
987,751; 2134,924;   -0,288;    2,864
988,302; 2130,833;   -0,379;    1,500
988,852; 2155,833;    1,985;   -1,136
989,402; 2235,015;    0,985;    0,682
989,952; 2167,015;    1,621;    0,864
990,502; 2212,379;    1,076;    0,682
991,052; 2139,379;   -0,106;    0,045
991,602; 2042,379;    1,167;    1,318
992,152; 2066,015;    2,803;    0,682
992,702; 2070,197;    1,167;   -0,045
993,252; 2002,197;    0,076;   -0,500
993,802; 2104,561;    1,167;    1,318
994,352; 2249,833;   -0,742;    1,136
994,901; 2276,288;    1,076;    3,227
995,451; 2228,924;   -1,197;    0,318
996,000; 2287,379;    1,076;    0,318
996,550; 2084,652;    2,894;    0,227
997,100; 2092,379;   -0,561;   -0,045
997,649; 2349,379;   -0,197;    0,955
998,198; 2036,015;   -0,288;   -1,500
998,748; 2235,561;    0,348;   -2,318
999,297; 2105,197;    0,985;   -0,409
999,846; 2211,015;    1,894;   -0,773
1000,395; 2205,742;    1,530;    0,500
1000,945; 2251,742;    1,076;   -0,773
1001,494; 2300,561;    0,167;    0,682
1002,043; 2252,197;    0,712;    0,864
1002,592; 2079,833;    3,439;    1,955
1003,141; 2202,742;    2,439;   -0,682
1003,690; 2149,106;    1,258;    0,500
1004,238; 2152,742;   -0,106;   -0,045
1004,787; 1856,015;   -1,288;    1,227
1005,336; 2129,197;    1,621;    0,682
1005,885; 2171,288;   -0,197;   -2,773
1006,433; 2246,561;   -0,470;    0,955
1006,982; 2419,924;    2,167;    1,682
1007,531; 2294,197;    2,712;   -0,227
1008,079; 2205,924;    0,258;    0,500
1008,627; 2304,561;    1,621;    0,409
1009,176; 2094,742;    0,076;   -1,955
1009,724; 2127,742;   -2,742;    0,864
1010,273; 2238,379;    1,076;    0,500
1010,821; 2273,015;    1,076;    1,409
1011,369; 2052,652;    0,076;    1,318
1011,917; 2048,742;   -0,833;   -0,591
1012,465; 2281,015;    2,530;   -1,591
1013,013; 2355,015;    0,439;   -1,682
1013,561; 2303,288;   -1,288;   -0,773
1014,109; 2383,470;   -0,833;    1,682
1014,657; 2251,015;    1,348;    0,591
1015,205; 2303,470;    0,894;   -0,955
1015,753; 2298,106;    0,258;   -1,409
1016,301; 2340,561;    2,621;    3,045
1016,848; 2364,015;    2,167;    0,409
1017,396; 2410,106;    1,621;    0,045
1017,944; 2492,924;    2,621;    1,864
1018,491; 2280,106;   -0,197;    1,409
1019,039; 2546,015;   -0,652;    0,591
1019,586; 2378,470;    0,076;    1,682
1020,134; 2428,106;    0,712;    1,500
1020,681; 2446,652;    2,894;   -1,136
1021,228; 2403,197;   -0,561;   -2,227
1021,776; 2292,561;   -0,833;   -1,136
1022,323; 2544,197;    0,803;    0,773
1022,870; 2471,742;   -0,470;   -0,045
1023,417; 2418,379;    2,076;    1,864
1023,964; 2452,652;    0,621;    1,227
1024,511; 2339,652;   -0,652;    0,773
1025,058; 2199,924;    0,439;   -0,045
1025,605; 2225,288;   -1,742;    3,136
1026,152; 2468,379;   -0,106;   -0,591
1026,699; 2201,015;    0,167;    1,318
1027,245; 2327,015;    2,439;    0,318
1027,792; 2465,833;    0,712;    1,409
1028,339; 2452,924;    4,076;   -0,045
1028,885; 2313,833;    3,621;   -0,227
1029,432; 2240,742;   -0,106;    0,227
1029,978; 2337,379;    1,348;   -1,591
1030,525; 2235,015;    1,621;    0,409
1031,071; 2388,379;    0,348;    1,136
1031,618; 2582,833;    1,258;    1,682
1032,164; 2361,833;    2,076;    3,045
1032,710; 2403,288;    0,076;   -1,500
1033,256; 2319,742;    0,712;   -0,136
1033,803; 2250,288;   -0,288;    1,500
1034,349; 2037,742;    1,803;    0,136
1034,895; 2148,197;    2,621;   -0,318
1035,441; 2157,470;    0,439;    0,318
1035,987; 2177,561;   -2,288;   -0,682
1036,533; 2221,652;   -0,197;   -0,955
1037,078; 2416,379;    4,712;    1,682
1037,624; 2240,924;    2,439;   -0,955
1038,170; 2221,197;    1,712;   -0,318
1038,716; 2182,015;    2,167;   -0,409
1039,261; 2062,561;    2,167;   -0,773
1039,807; 2027,197;   -0,015;    3,409
1040,352; 2095,015;   -1,288;   -0,318
1040,898; 2133,561;    0,167;   -0,682
1041,443; 2036,652;    0,803;   -2,591
1041,989; 2184,379;    3,621;    1,591
1042,534; 1995,833;    0,985;    2,591
1043,079; 2026,015;    1,985;    0,955
1043,625; 1920,197;    0,258;    0,500
1044,170; 1977,924;    2,439;    1,045
1044,715; 2258,561;    0,167;    0,955
1045,260; 2068,015;   -0,833;   -0,955
1045,805; 2059,379;    0,258;   -0,591
1046,350; 1975,379;    0,530;   -0,409
1046,895; 2037,652;    0,803;    1,591
1047,440; 2016,652;    1,530;    0,409
1047,985; 1886,288;   -1,197;   -0,955
1048,530; 1807,742;    1,348;    1,227
1049,074; 1880,106;    2,803;    0,318
1049,619; 1840,652;   -0,924;    1,955
1050,164; 1701,833;    1,076;    0,227
1050,708; 1763,379;    2,621;    0,045
1051,253; 2142,015;    3,258;   -2,227
1051,797; 1830,288;   -0,197;   -1,318
1052,342; 1776,197;    1,348;    1,045
1052,886; 1811,288;    1,803;   -1,409
1053,430; 1674,561;    2,167;    0,136
1053,975; 1730,561;    0,894;   -0,318
1054,519; 1726,561;    1,803;    3,227
1055,063; 1785,288;    3,621;    1,318
1055,607; 1697,833;    1,348;    0,227
1056,151; 1693,742;    0,530;    1,682
1056,695; 1588,833;   -1,833;   -1,136
1057,239; 1641,288;   -1,197;   -0,682
1057,783; 1690,742;    2,258;   -1,500
1058,327; 1693,106;    3,076;    1,409
1058,871; 1905,379;    3,985;    1,318
1059,415; 1638,106;   -0,561;   -0,045
1059,958; 1922,379;    2,985;    2,591
1060,502; 1608,379;    1,348;   -0,773
1061,046; 1491,833;    1,712;   -0,955
1061,589; 1459,379;    2,803;   -1,136
1062,133; 1375,561;    0,985;    1,864
1062,676; 1357,924;    1,439;    0,864
1063,220; 1383,197;    0,985;    0,500
1063,763; 1400,561;    2,985;    1,136
1064,306; 1470,106;    0,985;    1,864
1064,849; 1386,106;    2,076;    0,591
1065,393; 1389,742;    2,894;   -1,500
1065,936; 1468,742;    2,530;   -0,409
1066,479; 1332,742;    2,621;    1,318
1067,022; 1366,197;    1,894;   -0,227
1067,565; 1291,379;   -1,197;   -1,318
1068,108; 1297,379;    1,258;   -0,591
1068,651; 1257,833;   -2,470;    1,409
1069,194; 1205,652;   -1,106;   -1,682
1069,736; 1233,652;    3,803;    0,955
1070,279; 1192,015;   -1,652;   -0,500
1070,822; 1285,197;    1,530;   -0,318
1071,364; 1414,470;    0,530;    1,318
1071,907; 1223,470;    0,348;    3,227
1072,450; 1089,197;    0,258;   -0,045
1072,992; 1111,924;   -0,561;    3,136
1073,535; 1255,288;    0,167;    2,136
1074,077; 1060,561;    2,985;    2,045
1074,619; 1037,379;    0,985;    0,591
1075,161; 1082,833;   -0,561;    1,500
1075,704; 1273,652;    0,258;    1,227
1076,246; 1059,288;    1,530;    0,682
1076,788;  964,288;   -1,015;    1,773
1077,330; 1025,106;   -2,106;    2,136
1077,872; 1023,197;   -1,924;    0,955
1078,414; 1261,561;    3,712;    0,773
1078,956; 1013,106;    0,167;   -0,227
1079,498; 1267,561;    0,439;    0,318
1080,040;  992,833;    0,985;   -1,318
1080,581;  921,924;    0,621;   -0,318
1081,123;  845,470;   -0,106;   -0,773
1081,665;  894,742;    3,803;   -0,955
1082,206; 1190,833;    3,258;   -0,500
1082,748; 1061,470;    3,258;    2,045
1083,289;  926,742;    0,167;    1,318
1083,831;  857,833;    0,258;    0,227
1084,372;  909,288;    0,894;    0,591
1084,913;  912,561;    3,348;    0,864
1085,455;  861,561;    1,530;   -2,045
1085,996;  858,833;    0,530;    0,136
1086,537;  896,652;    0,985;    0,864
1087,078;  904,470;    0,439;   -2,136
1087,619;  957,924;   -1,652;    0,227
1088,160;  882,742;    1,439;    1,318
1088,701;  855,470;   -0,742;    0,682
1089,242;  802,742;   -0,561;   -2,227
1089,783;  901,652;   -0,561;    1,409
1090,324;  878,379;   -0,833;    0,682
1090,865;  759,197;   -1,924;   -0,409
1091,405;  719,833;   -0,561;    2,227
1091,946;  755,742;   -0,197;   -0,955
1092,487;  673,652;   -1,288;   -1,409
1093,027;  852,379;    1,803;   -1,500
1093,568;  724,742;    2,258;    1,227
1094,108;  812,106;    0,621;    1,773
1094,649;  755,470;   -0,470;    0,136
1095,189;  680,379;    1,167;   -0,682
1095,729;  651,288;    0,712;    0,955
1096,269;  653,015;    1,258;   -0,955
1096,810;  951,106;   -0,197;    0,500
1097,350;  791,924;   -0,561;   -0,773
1097,890;  707,288;    2,985;    1,227
1098,430;  963,288;    4,985;    2,864
1098,970;  846,924;    1,894;    1,682
1099,510;  699,470;   -0,833;   -2,318
1100,050;  641,197;    0,258;   -1,591
1100,589;  615,470;    0,076;   -0,318
1101,129;  726,379;    0,894;   -0,955
1101,669;  883,015;    2,803;    2,136
1102,209;  711,106;    1,530;    2,227
1102,748;  656,742;    3,439;    0,955
1103,288;  645,470;    0,712;   -1,227
1103,827;  667,379;    3,530;   -2,227
1104,367;  570,652;    1,712;   -2,409
1104,906;  538,561;   -1,015;   -1,136
1105,445;  614,015;    0,985;   -1,136
1105,985;  566,470;   -0,652;    1,500
1106,524;  610,561;    1,530;   -0,682
1107,063;  589,742;    1,167;    1,409
1107,602;  548,197;    1,894;   -1,500
1108,141;  491,106;    1,621;    1,500
1108,680;  590,106;    3,985;   -0,591
1109,219;  526,742;    0,167;   -0,500
1109,758;  524,288;    4,167;    0,682
1110,297;  505,833;   -1,106;   -0,682
1110,836;  457,015;    1,439;    0,955
1111,375;  604,652;    0,348;    0,409
1111,913;  616,924;    0,985;    0,773
1112,452;  557,015;    0,894;    0,136
1112,991;  449,924;    1,076;    1,955
1113,529;  423,561;    0,167;   -0,045
1114,068;  495,742;    0,439;    2,955
1114,606;  397,106;   -0,561;   -0,955
1115,144;  550,379;    1,530;    1,045
1115,683;  491,652;    1,985;    0,318
1116,221;  538,015;    2,076;   -0,864
1116,759;  449,015;    1,621;   -0,864
1117,297;  635,470;    1,621;    1,864
1117,836;  462,742;    1,985;   -1,227
1118,374;  473,742;    0,258;   -0,682
1118,912;  420,197;    0,439;    2,682
1119,450;  416,288;    0,985;    0,864
1119,988;  455,561;    3,348;    2,136
1120,525;  881,833;    7,258;    3,318
1121,063;  606,106;    0,530;    1,864
1121,601;  422,833;    1,076;   -1,227
1122,139;  388,106;    1,076;   -2,045
1122,676;  576,652;   -1,652;    2,773
1123,214;  506,379;    0,712;    4,409
1123,751;  337,379;    0,621;    2,227
1124,289;  444,924;    0,894;   -0,409
1124,826;  330,742;   -0,379;    0,227
1125,364;  274,288;    0,712;   -0,955
1125,901;  445,379;    6,258;    1,227
1126,438;  537,106;    3,530;    0,955
1126,975;  287,561;    2,985;   -0,773
1127,513;  351,652;    2,621;    2,136
1128,050;  276,652;   -0,561;   -0,682
1128,587;  368,470;    1,348;   -0,227
1129,124;  402,288;   -0,015;    1,318
1129,661;  281,197;   -1,924;    0,227
1130,198;  437,833;    2,439;    0,773
1130,734;  380,288;   -0,379;    1,409
1131,271;  258,924;   -1,197;    0,864
1131,808;  420,470;    1,621;    3,045
1132,345;  304,015;    4,530;    0,318
1132,881;  190,197;   -0,561;   -1,864
1133,418;  303,561;    0,348;   -1,136
1133,954;  247,742;    0,712;   -2,682
1134,491;  327,652;    1,712;   -0,773
1135,027;  233,106;    2,167;    0,864
1135,564;  312,833;    1,439;    2,955
1136,100;  292,561;   -0,742;    2,136
1136,636;  198,742;   -1,015;   -1,045
1137,172;  288,106;    0,894;   -1,045
1137,708;  224,379;   -1,561;   -1,045
1138,245;  223,652;    0,803;   -1,227
1138,781;  174,833;    1,803;   -3,318
1139,317;  232,924;    1,894;   -1,409
1139,852;  224,742;    3,076;    0,136
1140,388;  323,833;    2,076;   -0,409
1140,924;  229,197;    1,076;   -2,227
1141,460;  167,924;   -0,288;    0,136
1141,996;  116,015;   -0,652;    2,682
1142,531;  155,379;    1,076;    3,318
1143,067;  350,833;    1,167;    1,045
1143,602;  408,288;    3,439;   -0,318
1144,138;  266,470;    0,803;    1,045
1144,673;  148,833;    1,621;    1,409
1145,209;  211,652;    2,894;   -0,318
1145,744;  140,197;    0,803;    0,864
1146,279;  258,652;    1,530;   -0,136
1146,815;  186,288;    1,530;   -2,682
1147,350;  216,833;   -0,924;    0,045
1147,885;  142,197;   -1,924;   -1,318
1148,420;  149,924;    2,439;    0,773
1148,955;  127,197;   -1,470;    1,864
1149,490;  151,652;   -1,106;   -1,591
1150,025;  131,379;   -1,106;   -1,773
1150,560;  231,833;   -0,288;   -0,955
1151,094;  199,470;    0,258;   -0,591
1151,629;  200,652;   -3,742;    0,864
1152,164;  148,561;   -1,288;    1,318
1152,698;  109,106;    1,258;   -0,136
1153,233;   71,924;   -1,379;   -0,682
1153,767;  119,742;   -0,288;   -2,318
1154,302;  158,561;   -0,379;    1,773
1154,836;  155,470;    0,803;   -2,136
1155,371;  206,106;    2,258;    3,682
1155,905;  163,833;    1,985;    1,682
1156,439;  137,106;    0,530;   -0,500
1156,973;  162,106;    0,439;    0,318
1157,507;  101,561;   -1,742;    0,682
1158,042;  128,379;   -0,652;    1,045
1158,576;  167,924;   -0,561;    1,773
1159,110;  166,197;    0,076;    2,409
1159,643;  141,742;   -2,470;   -0,045
1160,177;   86,924;   -2,015;    1,500

