
Integration time [ms]:   0,040
Averaging Nr. [scans]: 11
Smoothing Nr. [pixels]: 0
Data measured with spectrometer [name]: 7318044SP
Wave   ;Sample   ;Dark     ;Reference
[nm]   ;[counts] ;[counts] ;[counts] 

186,757;   24,183;   38,161;    1,318
187,357;   53,049;   26,706;    0,955
187,958;   39,850;   17,252;   -1,591
188,558;   77,861;   12,979;   -1,227
189,159;   51,168;   10,070;   -4,500
189,759;   19,711;    5,797;   -3,591
190,360;   16,414;    6,797;   -2,136
190,960;   46,638;    5,706;   -4,136
191,560;   59,005;    2,614;   -6,591
192,161;  280,975;    5,885;   -3,500
192,761;  136,759;    5,520;   -3,227
193,361;  100,548;    3,065;   -3,773
193,962;  146,156;    1,612;   -2,682
194,562;   72,315;   -0,114;   -3,955
195,162;  105,359;   -0,567;   -2,227
195,762;  251,408;    2,433;   -0,045
196,362;  207,791;    1,706;   -2,500
196,963;   83,182;    1,706;   -0,864
197,563;  152,840;    1,252;   -0,955
198,163;   97,215;   -0,111;   -0,682
198,763;  116,870;   -0,020;   -0,500
199,363;  215,692;    3,616;   -0,500
199,963;  174,198;    2,162;    0,409
200,563;  150,310;    6,344;   -1,409
201,163;  134,359;    5,435;   -0,227
201,763;  216,101;    1,435;    0,318
202,363;  157,979;    0,980;    1,500
202,963;  260,869;    1,526;    1,045
203,563;  364,306;    0,344;    0,500
204,162;  215,313;    1,889;   -1,864
204,762;  205,950;    2,071;    0,591
205,362;  171,831;    0,708;    1,955
205,962;  267,380;    3,435;    1,955
206,562;  266,408;    1,889;    2,318
207,161;  230,967;    1,708;    0,318
207,761;  381,613;    4,435;    2,409
208,361;  260,816;    1,889;    1,409
208,960;  349,924;    2,889;    1,500
209,560;  408,250;    0,435;    1,591
210,160;  396,182;    5,071;    1,864
210,759;  364,326;    0,708;    1,227
211,359;  367,751;   -0,474;    1,045
211,958;  633,028;    3,526;    2,045
212,558;  695,609;    0,799;    1,864
213,157;  531,698;   -0,929;    1,500
213,757;  950,533;    5,617;   -0,227
214,356;  657,713;    1,708;   -0,409
214,956;  983,121;    3,526;    0,409
215,555;  621,882;    0,617;    2,136
216,154;  556,996;   -0,292;   -0,591
216,754;  562,493;    1,253;    0,773
217,353;  685,641;   -0,383;   -1,045
217,952;  542,870;    2,072;    0,318
218,552;  776,030;    0,254;   -0,773
219,151;  668,891;   -1,110;    0,955
219,750;  666,627;    0,890;   -0,227
220,349;  751,174;   -2,292;    1,045
220,948;  843,606;    1,163;    1,136
221,548;  834,612;    0,617;    1,227
222,147;  943,468;   -1,292;   -0,409
222,746; 1227,942;    1,254;   -0,955
223,345; 1085,654;   -1,019;    0,500
223,944; 1088,851;    1,163;    0,773
224,543; 1240,489;    4,072;   -1,409
225,142; 1347,481;    1,345;    0,136
225,741; 1257,770;    1,163;    1,045
226,340; 1274,143;    1,254;   -0,955
226,939; 1684,874;    2,708;   -0,136
227,538; 1588,130;    1,163;   -0,773
228,137; 1776,656;    0,435;    0,864
228,735; 1880,859;    0,435;    1,227
229,334; 1649,447;   -0,474;   -0,227
229,933; 2018,269;    0,799;    0,591
230,532; 2107,523;   -1,201;   -0,409
231,131; 2171,351;    1,253;    0,318
231,729; 2274,466;    1,163;   -2,318
232,328; 2336,415;    0,435;   -1,500
232,927; 2392,546;    4,526;   -0,500
233,525; 2488,500;    0,981;    0,045
234,124; 2696,408;    1,890;   -1,591
234,723; 2698,149;    1,617;   -1,045
235,321; 2828,696;    1,163;    0,136
235,920; 3024,445;    2,526;   -1,227
236,518; 3267,174;    1,072;    0,318
237,117; 3395,749;    2,890;   -0,227
237,715; 3555,402;    1,163;   -0,500
238,314; 3593,914;    1,708;   -2,318
238,912; 3700,210;    0,526;   -1,409
239,510; 3717,567;    1,162;   -1,227
240,109; 3884,374;   -0,474;    3,773
240,707; 3916,609;   -0,474;    1,227
241,305; 4232,394;   -0,383;    0,136
241,904; 4426,575;   -0,292;   -2,045
242,502; 4385,967;    3,253;   -0,227
243,100; 4318,990;    3,344;   -0,955
243,698; 4558,552;    2,799;    1,682
244,297; 4707,062;   -0,656;    0,682
244,895; 4542,193;   -0,474;   -2,318
245,493; 4849,049;    2,981;   -0,591
246,091; 4890,383;    5,163;   -1,318
246,689; 4851,132;    2,163;    0,591
247,287; 4985,493;   -0,019;   -1,136
247,885; 5256,889;   -1,019;    1,227
248,483; 5367,309;   -0,201;   -0,500
249,081; 5448,555;    0,981;    1,591
249,679; 5577,663;   -1,019;    1,682
250,277; 5803,946;   -2,292;    0,864
250,875; 5787,696;    0,617;   -1,045
251,473; 5824,660;   -0,019;    0,500
252,071; 6003,855;   -0,383;    1,045
252,669; 6146,305;   -1,565;    0,318
253,267; 6365,314;    1,618;    0,773
253,864; 6305,857;    0,617;    0,682
254,462; 6218,680;    1,526;    1,591
255,060; 6162,240;    0,072;    1,318
255,658; 6443,305;   -3,292;   -0,136
256,255; 6823,424;   -0,201;   -2,045
256,853; 6699,525;    2,345;    1,409
257,451; 6689,183;    1,981;    1,864
258,048; 6986,470;    2,072;    1,864
258,646; 6707,246;    0,436;   -1,045
259,243; 6898,707;    2,981;    2,227
259,841; 6959,352;    1,799;    0,318
260,438; 6838,481;    0,254;    0,864
261,036; 7502,700;    0,617;    1,409
261,633; 7409,990;    1,526;    2,227
262,231; 7172,210;   -0,110;   -0,045
262,828; 7215,030;   -0,383;    1,136
263,425; 7290,603;   -1,928;   -0,591
264,023; 7541,785;    1,436;    0,045
264,620; 7109,834;    1,526;   -0,318
265,217; 7432,648;    2,890;    3,136
265,815; 7531,597;    2,527;    2,136
266,412; 7336,606;    0,072;    0,136
267,009; 7353,204;    0,526;    0,773
267,606; 7294,155;    0,345;   -0,955
268,203; 7270,548;   -0,383;   -0,591
268,801; 7515,986;   -0,474;    0,591
269,398; 7800,667;   -0,564;    2,500
269,995; 7748,576;    0,890;    1,591
270,592; 7592,834;    0,799;   -0,500
271,189; 7740,054;    1,981;    0,409
271,786; 7876,060;    2,072;    1,227
272,383; 7758,840;   -0,383;    0,227
272,980; 7896,956;    1,617;    0,318
273,577; 8326,087;    2,162;    1,227
274,174; 7900,299;    1,435;    2,591
274,771; 7879,396;    1,890;   -0,773
275,367; 8023,472;    3,253;    1,409
275,964; 7993,992;   -0,565;   -0,500
276,561; 8088,060;   -2,474;   -1,045
277,158; 8288,845;    1,799;   -1,773
277,755; 8393,373;   -0,110;    0,409
278,351; 7841,722;    0,436;   -1,500
278,948; 8136,007;   -0,201;    0,045
279,545; 8129,557;    0,527;    2,318
280,141; 8735,267;    1,254;   -2,045
280,738; 8579,166;    2,435;   -0,136
281,334; 8785,667;   -0,383;    0,591
281,931; 8194,765;    2,890;   -1,318
282,528; 8304,621;    4,072;   -0,500
283,124; 8960,316;    3,345;   -0,500
283,721; 8843,122;    0,709;    1,409
284,317; 8681,608;    0,163;    2,500
284,913; 9202,329;   -0,110;    0,591
285,510; 9396,147;    2,890;   -0,318
286,106; 9417,671;    2,345;   -0,955
286,703; 9019,684;    0,072;    1,955
287,299; 9185,988;    1,254;   -0,591
287,895; 9375,766;    0,890;   -1,045
288,491; 9911,122;    0,163;    2,136
289,088; 9667,363;    0,163;    2,409
289,684; 9721,942;    2,890;    1,500
290,280; 9723,785;    1,890;    0,682
290,876; 9802,014;    0,163;    5,500
291,472; 9720,141;    2,163;    2,227
292,068; 9806,993;    1,254;    0,227
292,665; 9530,352;   -0,564;    0,773
293,261; 9178,557;   -1,292;    2,136
293,857; 9545,464;    4,072;    2,136
294,453; 9526,017;   -0,928;    0,955
295,049; 9404,044;    0,253;    1,955
295,644; 9377,702;   -1,292;    0,136
296,240; 9305,947;    0,162;   -0,136
296,836; 9358,958;   -0,747;    0,318
297,432; 9596,907;    2,980;   -0,500
298,028; 9643,862;    0,435;    0,773
298,624;10006,440;    0,889;    1,864
299,220;10228,061;    0,435;    0,591
299,815; 9898,218;    0,526;   -0,409
300,411; 9725,408;    0,435;    1,773
301,007; 9728,562;    1,889;    0,227
301,602; 9780,165;    2,071;   -2,318
302,198; 9882,137;    1,435;   -0,773
302,794;10203,283;    1,526;   -0,500
303,389;10310,129;    1,071;    1,045
303,985;10424,678;    1,253;    1,409
304,580;10362,577;    0,889;    1,591
305,176;10348,385;    0,344;    0,136
305,771;10281,491;   -0,929;   -1,227
306,367;10175,410;    3,071;    0,136
306,962;10456,437;    2,889;    1,500
307,558;10185,209;    2,435;    0,136
308,153;10125,000;   -0,383;   -1,136
308,748;10350,376;    0,162;    1,682
309,344;10327,797;    0,253;   -1,318
309,939;10426,011;    2,071;   -1,318
310,534;10691,404;   -2,020;   -1,682
311,130;10630,220;   -0,656;   -2,500
311,725;10385,505;    0,526;   -0,500
312,320;10701,190;    1,253;    0,045
312,915;10546,383;    2,890;   -1,045
313,510;10607,053;    0,526;   -0,500
314,105;11088,568;   -3,565;    1,409
314,700;10503,763;   -1,656;   -1,045
315,295;10169,941;   -0,020;    0,045
315,890; 9744,934;   -0,292;    0,864
316,485;10064,099;    0,253;   -0,318
317,080;10203,032;   -0,929;    1,591
317,675;10684,442;    3,071;   -0,682
318,270;10133,668;    6,889;    3,318
318,865;10080,871;    2,435;    3,045
319,460; 9995,960;   -1,565;    0,591
320,055;10200,219;   -2,565;   -1,227
320,650; 9902,847;   -1,838;   -0,591
321,244; 9974,386;    0,889;   -1,409
321,839;10860,700;    0,980;   -0,227
322,434;10715,008;   -0,111;   -1,591
323,029;10382,403;   -0,474;    1,591
323,623;10226,285;    0,798;    0,773
324,218;10029,551;    2,707;    1,409
324,812; 9944,444;    0,889;    1,591
325,407; 9770,960;   -0,929;    2,045
326,002; 9721,803;    0,526;   -0,409
326,596;10002,008;   -0,656;    1,318
327,191;10180,636;   -0,383;   -1,045
327,785; 9817,917;   -0,747;   -0,227
328,379;10035,659;   -0,383;    0,136
328,974; 9823,501;    1,798;   -3,955
329,568;10063,446;    2,889;   -2,409
330,163; 9916,021;    2,435;    1,045
330,757;10270,922;    0,253;    1,591
331,351; 9637,087;   -0,292;    0,682
331,945; 9912,031;   -0,383;    1,409
332,540; 9529,611;    1,617;   -0,591
333,134; 9655,856;    3,344;    0,773
333,728; 9864,951;    2,799;    0,318
334,322;10199,361;    0,889;   -0,864
334,916; 9492,782;    0,344;    0,955
335,510; 9798,970;   -0,111;   -0,136
336,105;10036,636;   -0,929;    1,591
336,699; 9763,457;   -1,292;    0,591
337,293; 9678,165;    1,071;    0,318
337,887; 9818,577;    0,071;    1,955
338,481; 9931,019;    2,980;    0,591
339,074;10071,622;    2,071;    2,682
339,668; 9890,704;   -0,110;    1,227
340,262;10094,495;    7,708;    3,227
340,856; 9645,275;    1,708;   -0,682
341,450; 9062,425;    0,708;    1,864
342,044; 9868,165;    1,799;    0,136
342,637; 9631,465;    1,162;   -2,136
343,231; 9475,684;   -1,474;    0,682
343,825; 9414,569;   -0,747;   -0,591
344,419; 9406,359;   -0,474;    0,500
345,012; 9233,936;    2,889;    4,045
345,606; 9269,585;   -0,656;    1,591
346,199; 9128,974;   -0,111;   -0,227
346,793; 8739,966;    2,525;    2,045
347,386; 8899,714;    0,889;   -1,136
347,980; 8893,424;   -0,838;   -0,045
348,573; 8706,285;   -1,748;    0,409
349,167; 8434,914;    6,161;    4,773
349,760; 8757,441;    2,252;    2,682
350,354; 8725,548;    1,616;    1,136
350,947; 8495,219;    2,798;    1,682
351,540; 8213,011;    0,616;   -1,409
352,134; 8176,373;   -1,111;    1,136
352,727; 8245,803;   -0,657;    1,136
353,320; 8069,473;    2,343;    0,591
353,913; 7879,551;   -1,929;    1,864
354,507; 8091,991;    0,434;   -1,227
355,100; 8104,754;    0,071;    0,864
355,693; 7439,536;    4,798;    2,409
356,286; 7454,849;    0,980;    2,773
356,879; 7777,944;   -0,475;    1,227
357,472; 7414,631;    0,980;    1,500
358,065; 7601,855;    3,161;    2,500
358,658; 7540,329;    0,798;    2,318
359,251; 7242,105;    0,252;   -0,591
359,844; 6779,464;    0,343;   -1,136
360,437; 6942,506;    0,252;    0,045
361,030; 7176,536;    0,525;   -0,682
361,623; 6829,130;    0,434;    0,318
362,215; 6861,760;    0,979;    2,045
362,808; 6718,088;   -2,293;   -1,682
363,401; 6902,730;    0,798;    0,136
363,994; 6701,533;    3,252;   -1,500
364,586; 6634,988;    0,888;   -1,500
365,179; 6818,846;   -0,203;   -1,136
365,772; 6322,295;   -0,930;    2,045
366,364; 6576,749;    1,524;   -3,227
366,957; 6790,993;    1,342;   -0,045
367,549; 6780,997;   -0,203;   -0,864
368,142; 6482,707;    0,978;   -1,500
368,734; 6678,787;    2,523;   -2,136
369,327; 6648,552;    2,341;   -0,500
369,919; 6562,863;   -1,659;    0,409
370,512; 6395,809;   -1,023;   -0,500
371,104; 6183,694;    2,704;    1,591
371,696; 6316,782;    1,703;   -0,955
372,289; 6388,363;    0,157;    1,136
372,881; 6501,182;    1,156;    1,318
373,473; 6415,329;    4,064;    1,136
374,066; 6230,369;    1,336;    0,500
374,658; 6138,550;    0,879;    1,136
375,250; 6453,408;   -1,668;   -1,409
375,842; 6313,788;   -0,124;   -0,045
376,434; 6189,046;   -2,762;   -0,409
377,026; 6693,030;   -1,855;   -2,500
377,618; 6617,260;    0,779;   -0,682
378,210; 6467,241;    3,141;   -1,955
378,802; 6330,577;    3,412;   -0,591
379,394; 6297,096;    3,411;    0,682
379,986; 6803,780;    1,138;   -0,955
380,578; 6899,257;    1,410;    0,773
381,170; 6307,776;    0,320;    0,045
381,762; 6250,778;   -0,224;    1,409
382,354; 6426,205;   -0,223;   -1,318
382,945; 6517,955;    0,870;    0,318
383,537; 6668,623;    1,144;   -1,955
384,129; 6690,837;    0,963;   -1,136
384,721; 6838,063;    0,418;    0,955
385,312; 6760,717;   -1,399;   -0,955
385,904; 6869,782;   -0,945;    1,591
386,496; 6281,864;    0,691;    1,045
387,087; 6399,972;    0,418;    2,500
387,679; 6412,312;   -0,401;    0,045
388,270; 6570,434;   -2,401;    2,045
388,862; 6665,755;   -0,401;   -0,318
389,453; 6523,149;    1,054;    1,045
390,045; 6776,398;    3,236;   -2,682
390,636; 6711,218;    0,144;   -0,591
391,227; 6570,409;    2,054;   -0,045
391,819; 6705,231;    0,781;    0,773
392,410; 6768,155;    0,600;    0,045
393,001; 6708,224;    1,600;   -1,591
393,593; 6964,567;    0,600;   -0,045
394,184; 6808,091;    0,873;   -0,409
394,775; 6680,093;    1,146;    2,136
395,366; 6922,194;    1,782;    0,773
395,957; 6902,591;   -2,400;    0,136
396,548; 7171,587;    1,054;    2,682
397,139; 7449,978;    2,236;    0,591
397,730; 7173,668;    0,873;    0,955
398,321; 7233,524;    0,509;    0,955
398,912; 7259,469;   -0,764;    0,136
399,503; 7358,626;   -1,945;   -1,409
400,094; 6836,765;   -1,582;    1,682
400,685; 6707,814;    3,600;    0,045
401,276; 6784,528;   -0,400;   -0,955
401,867; 7058,581;   -1,127;    0,773
402,458; 7136,638;    1,509;   -2,318
403,048; 7116,433;    0,146;    0,591
403,639; 6756,543;    1,509;    0,864
404,230; 7021,505;    0,691;    0,318
404,821; 6972,444;   -0,127;    0,045
405,411; 7052,905;   -0,763;   -2,591
406,002; 6665,596;    3,237;   -1,136
406,592; 6572,886;    2,691;    0,045
407,183; 6842,212;    0,328;   -1,500
407,774; 6756,554;    1,419;   -0,136
408,364; 7050,176;    2,600;    0,409
408,954; 6692,829;   -0,036;    1,227
409,545; 6743,620;    1,873;    1,045
410,135; 6299,846;   -1,581;    0,500
410,726; 6441,086;    0,783;    0,318
411,316; 6814,823;    2,237;    0,773
411,906; 6506,382;    0,146;   -0,409
412,497; 6065,278;   -0,490;   -0,045
413,087; 6623,100;    0,783;   -0,227
413,677; 6952,291;   -2,490;    3,864
414,267; 6797,625;   -1,035;    1,409
414,857; 6792,044;    0,419;    4,227
415,448; 7050,745;   -0,763;    0,500
416,038; 6786,299;   -2,945;   -0,591
416,628; 6769,445;    0,965;    0,409
417,218; 6308,944;   -1,762;    3,318
417,808; 6522,181;    0,965;   -0,409
418,398; 6908,729;   -1,035;    2,682
418,988; 6920,054;   -2,217;    0,591
419,578; 7134,686;    3,601;    1,409
420,168; 7458,248;    0,692;   -0,955
420,757; 7068,405;    0,964;   -1,500
421,347; 6771,680;    1,601;   -0,227
421,937; 6901,767;    3,329;    1,409
422,527; 6862,492;    2,602;   -0,773
423,116; 6691,500;    2,692;   -0,045
423,706; 7012,112;    2,965;    0,318
424,296; 6956,790;    1,601;    0,682
424,885; 7363,699;    1,510;   -3,045
425,475; 7609,655;    1,147;   -2,864
426,065; 7508,721;   -1,489;   -0,318
426,654; 7164,355;    0,329;   -0,318
427,244; 7273,139;    1,147;    1,409
427,833; 6791,378;    1,056;   -0,500
428,423; 7186,564;    0,147;    1,136
429,012; 7875,085;    2,420;   -1,136
429,601; 7423,449;    2,057;    0,136
430,191; 7623,930;    2,511;    4,318
430,780; 7263,863;   -1,671;   -0,409
431,369; 7230,246;    1,329;   -0,045
431,959; 7798,254;    1,693;    0,500
432,548; 7575,669;   -1,398;   -0,045
433,137; 7683,233;    0,329;   -1,318
433,726; 8174,332;    0,148;    0,500
434,315; 7607,301;    0,148;    2,409
434,905; 7720,024;    0,693;    1,409
435,494; 7651,107;    3,148;    0,955
436,083; 8040,567;    1,420;   -0,955
436,672; 7894,314;    1,148;    0,500
437,261; 7490,825;    0,512;   -1,955
437,850; 7640,014;   -1,125;    0,682
438,439; 7593,845;    2,239;    1,955
439,027; 7456,221;    3,421;    1,773
439,616; 7749,731;    2,239;    1,227
440,205; 7631,291;    0,057;   -2,136
440,794; 7677,353;   -0,306;   -0,045
441,383; 7894,619;    1,603;   -0,591
441,971; 7777,522;   -0,306;    0,591
442,560; 7619,311;    0,603;   -1,773
443,149; 7392,648;    3,060;   -1,318
443,737; 7542,274;    0,968;   -2,318
444,326; 7792,066;    0,331;    0,318
444,915; 7829,558;   -1,851;    0,864
445,503; 8144,245;    0,058;   -0,318
446,092; 7499,622;    7,876;    2,136
446,680; 7984,941;    1,876;    0,318
447,269; 8125,000;   -1,487;   -0,318
447,857; 7908,941;    2,240;   -1,773
448,445; 8026,271;    2,149;    1,318
449,034; 8246,512;    0,876;   -1,136
449,622; 8330,764;    1,240;    3,500
450,210; 7683,855;    3,149;    2,227
450,799; 8175,798;    2,604;   -0,591
451,387; 8108,198;    1,786;   -0,591
451,975; 7787,430;   -1,305;    0,864
452,563; 7912,424;    0,422;    2,318
453,151; 7916,993;   -1,032;   -1,227
453,739; 7815,103;   -1,577;    0,136
454,328; 7696,627;    0,604;   -2,136
454,916; 7457,858;    1,150;   -0,136
455,504; 7643,380;    3,513;    1,227
456,092; 7799,951;    2,150;   -1,591
456,679; 7732,228;    0,604;    0,682
457,267; 7716,169;    3,604;    1,045
457,855; 7850,346;    3,241;    1,409
458,443; 7580,476;   -0,304;    1,682
459,031; 7723,974;    1,332;    2,409
459,619; 8145,862;   -3,577;    2,864
460,206; 8214,423;   -0,759;    2,045
460,794; 8303,332;   -0,668;   -0,227
461,382; 8486,721;    0,878;   -0,864
461,970; 8127,038;    0,605;    1,864
462,557; 8172,558;    0,878;   -0,682
463,145; 8333,586;   -0,304;   -1,682
463,732; 8452,637;    2,514;   -1,045
464,320; 8365,789;    1,514;   -3,045
464,907; 8078,956;    0,423;   -0,773
465,495; 7950,646;    2,696;   -1,227
466,082; 8131,876;    2,060;   -0,045
466,670; 8015,155;    2,605;    1,227
467,257; 8417,580;    0,060;    2,045
467,844; 8545,504;    1,514;    0,045
468,432; 8572,534;   -0,031;    3,500
469,019; 8119,919;    1,606;   -1,773
469,606; 8556,506;    0,969;    3,682
470,193; 8384,359;    2,151;    0,227
470,780; 8010,585;    0,333;    0,864
471,368; 8332,500;   -1,212;   -0,773
471,955; 8147,236;    1,060;   -0,682
472,542; 7779,346;   -0,303;   -1,136
473,129; 7985,722;   -0,485;    0,136
473,716; 7786,574;    0,060;    0,591
474,303; 7948,714;    1,333;   -0,864
474,890; 8220,653;    2,333;   -0,500
475,477; 8238,355;   -0,576;    0,409
476,064; 8113,833;    0,697;   -1,591
476,650; 8055,292;    2,152;    0,318
477,237; 7864,837;    1,879;    0,955
477,824; 8031,279;    3,879;    0,864
478,411; 8067,636;    0,606;   -0,318
478,997; 8228,514;    0,606;   -0,773
479,584; 8276,675;   -0,666;   -0,409
480,171; 8903,838;    1,243;   -0,773
480,757; 8605,108;   -0,848;    0,773
481,344; 8849,227;    0,334;    0,409
481,931; 8390,674;   -0,393;    1,045
482,517; 9239,210;    0,425;    0,318
483,104; 9682,743;    1,334;    2,864
483,690; 9897,497;    0,243;    0,045
484,276;10218,692;    0,698;    0,227
484,863; 9984,330;    2,152;    1,136
485,449;10489,948;    0,152;    0,318
486,035;10480,614;   -0,666;   -0,136
486,622;10873,785;   -2,393;    0,045
487,208;10800,830;    1,334;    1,500
487,794;10647,179;    0,971;    0,318
488,380;10774,464;    0,698;   -1,409
488,967;10832,277;   -1,120;   -0,409
489,553;10871,547;   -1,029;   -1,409
490,139;11076,936;    0,971;    0,773
490,725;10570,376;    0,789;   -0,227
491,311;10236,822;    1,516;    3,045
491,897; 9627,667;   -0,665;    1,500
492,483; 9532,885;    0,426;    1,227
493,069; 9380,651;    5,426;    0,864
493,655; 9316,091;    1,789;    0,682
494,241; 9231,718;    1,517;   -0,955
494,826; 9586,841;    0,335;   -1,045
495,412; 9083,864;    0,335;   -0,682
495,998; 9254,786;    0,971;   -0,318
496,584; 9332,812;    2,244;    1,045
497,169; 9346,647;    2,335;   -0,682
497,755; 9296,317;    1,244;    1,227
498,341; 9796,941;    2,153;    0,318
498,926; 9407,670;    2,881;    1,955
499,512; 9590,752;   -0,028;    2,955
500,097; 9649,743;   -0,574;   -0,318
500,683; 9626,451;   -0,028;    2,136
501,268; 9954,614;    1,881;   -0,955
501,854; 9684,337;   -0,119;    1,227
502,439; 9632,381;   -0,573;   -1,773
503,024; 9806,235;    1,608;    0,500
503,610; 9866,049;    1,335;   -0,682
504,195; 9853,113;    1,245;    1,955
504,780; 9951,075;    2,335;    1,227
505,366; 9816,019;    4,063;    2,864
505,951; 9585,466;   -1,119;    1,045
506,536; 9626,162;    1,427;   -3,682
507,121; 9604,893;    1,699;   -0,318
507,706;10082,284;   -0,392;    1,045
508,291;10372,627;   -2,937;    1,136
508,876; 9865,215;   -0,482;    2,591
509,461; 9409,114;    1,427;   -0,773
510,046; 9785,221;   -0,391;    0,318
510,631;10010,490;   -0,119;   -0,773
511,216; 9702,625;   -0,664;   -0,500
511,801;10025,984;   -0,755;    2,591
512,386;10329,207;    0,972;    0,500
512,971;10242,524;    0,427;    0,955
513,555; 9822,448;    1,154;   -1,500
514,140;10544,050;    1,336;   -3,136
514,725;10520,805;    1,791;   -1,136
515,309;10629,387;    1,064;    0,318
515,894;10148,657;   -0,300;   -2,227
516,479;10570,719;    1,973;   -0,955
517,063;10370,000;    0,882;    1,227
517,648;10501,279;    0,155;   -1,136
518,232;10108,994;   -1,300;   -1,409
518,817;10451,656;    1,337;    1,682
519,401;10660,668;    0,700;    0,591
519,985;10210,292;    2,700;    1,136
520,570;10107,571;   -0,118;   -1,955
521,154;10347,889;    0,064;    0,591
521,738;10508,933;    1,064;    2,409
522,323;11029,834;   -0,390;    1,682
522,907;10773,610;    2,428;   -0,136
523,491;10552,455;    1,155;    0,955
524,075;10514,754;    0,428;    0,591
524,659;10607,045;    0,973;    0,591
525,243;10107,257;    0,883;    0,409
525,827;10342,164;    0,883;   -0,045
526,411;11051,227;    1,155;   -0,136
526,995;11228,174;    0,337;    1,409
527,579;10858,392;    1,974;   -1,045
528,163;11139,987;    0,428;   -1,500
528,747;11081,183;    1,065;   -0,773
529,331;11326,949;    0,883;   -1,409
529,915;11467,059;    2,338;    0,955
530,499;11430,308;    0,247;    1,227
531,082;11152,616;    1,065;    1,591
531,666;10682,915;    0,520;    0,773
532,250;11271,663;    0,428;    2,682
532,833;11537,907;    0,610;    2,773
533,417;11420,251;    1,247;    0,864
534,001;11392,237;    0,429;   -0,318
534,584;11980,998;    1,974;    0,500
535,168;11831,768;    3,247;    1,409
535,751;11886,826;    4,520;    0,045
536,334;11333,818;    4,520;   -0,409
536,918;11919,541;    1,974;    1,591
537,501;11960,427;    1,520;    1,318
538,085;11957,279;    1,702;    1,045
538,668;12107,941;    0,883;    2,409
539,251;12387,603;    3,156;    3,773
539,834;12427,142;    0,156;    0,773
540,418;12360,755;    3,247;    4,318
541,001;12427,355;    2,702;    1,773
541,584;12358,703;    1,429;    2,227
542,167;12095,057;    0,702;    2,955
542,750;12251,436;    0,793;   -0,773
543,333;11838,625;    1,429;    2,136
543,916;12520,476;   -0,298;    2,500
544,499;12991,514;    2,520;    0,227
545,082;13002,791;    0,248;    3,591
545,665;13158,893;   -0,207;    1,500
546,248;13415,806;    0,520;   -0,318
546,830;13116,798;   -1,752;    1,955
547,413;13463,107;    0,157;   -0,773
547,996;13971,718;    0,157;    0,500
548,579;13757,608;   -0,843;    0,955
549,161;13543,521;    0,884;    2,682
549,744;13310,684;    0,612;    0,409
550,326;13777,369;    0,885;   -1,136
550,909;13593,141;    2,339;    0,591
551,492;13951,496;    0,521;    0,227
552,074;13750,541;   -0,024;   -1,318
552,657;14233,860;    2,430;    0,045
553,239;14059,573;   -3,024;   -0,773
553,821;13950,723;   -1,570;    1,045
554,404;13497,676;   -0,024;    1,136
554,986;13834,786;    2,248;    1,045
555,568;14375,226;    0,430;   -0,955
556,151;13665,433;    4,067;   -0,227
556,733;13817,710;   -1,388;   -0,864
557,315;14270,761;    4,703;    0,500
557,897;14024,277;    0,521;   -0,500
558,479;14141,713;    1,703;    1,318
559,061;14289,988;    1,067;   -0,864
559,643;14573,260;   -0,297;    0,045
560,225;14842,685;   -0,388;    2,864
560,807;14837,351;    0,340;    0,318
561,389;14444,928;   -1,206;    2,318
561,971;15017,126;   -0,660;    2,136
562,553;14887,444;    0,613;    1,591
563,135;15021,713;    1,249;    1,136
563,717;14618,984;    3,158;    1,136
564,298;15192,705;    3,976;   -0,045
564,880;14950,136;    0,340;   -1,409
565,462;15067,591;    1,977;    1,318
566,043;16091,584;   -0,933;    2,318
566,625;15674,787;    4,067;    1,227
567,207;15465,498;    0,704;    1,682
567,788;16389,210;   -0,114;    1,500
568,370;17133,568;   -1,841;   -0,500
568,951;16887,039;   -0,569;    0,227
569,533;17619,636;    0,977;   -0,500
570,114;17995,235;   -0,296;    0,682
570,695;18417,411;   -0,478;   -1,318
571,277;18746,158;   -0,205;   -1,682
571,858;19345,665;    2,704;   -1,136
572,439;20070,553;    0,795;   -1,045
573,021;20214,456;    0,432;   -2,773
573,602;20608,913;    1,795;    0,318
574,183;21376,797;   -0,114;    2,227
574,764;21427,928;    2,068;    0,409
575,345;21835,241;    0,250;   -0,136
575,926;22326,133;    2,704;    0,136
576,507;22331,661;    2,704;   -0,227
577,088;23270,820;    1,704;    1,682
577,669;23239,031;    1,704;    1,955
578,250;23869,888;   -0,750;   -1,045
578,831;24315,964;   -0,841;   -2,227
579,412;24532,420;   -1,205;    0,955
579,993;25402,970;    1,432;    0,227
580,573;25671,972;   -0,023;   -0,955
581,154;24707,215;    1,613;   -0,591
581,735;25451,484;    0,341;    0,773
582,315;24982,302;    0,523;    2,136
582,896;25266,200;   -1,750;    1,227
583,477;24786,057;    0,614;    1,227
584,057;24963,583;    1,159;    0,955
584,638;25188,152;   -2,750;    2,318
585,218;25202,716;    2,886;    2,682
585,799;25393,454;    1,977;   -0,227
586,379;25374,729;    1,250;    1,591
586,959;24328,298;    2,613;    0,318
587,540;23782,230;    0,432;    2,227
588,120;23369,571;   -1,113;   -0,045
588,700;22570,535;    2,977;    2,136
589,281;22908,198;    1,250;   -0,955
589,861;22798,822;   -0,296;   -1,682
590,441;22631,702;   -1,477;   -2,682
591,021;21744,446;    1,432;   -2,591
591,601;22019,264;    0,431;    0,500
592,181;22068,280;   -1,296;   -0,773
592,761;21391,660;    2,250;    1,409
593,341;21367,386;    1,522;    0,045
593,921;21335,615;   -0,569;    1,591
594,501;21251,412;    1,250;    1,318
595,081;21079,589;    0,522;   -0,318
595,661;21440,152;    1,068;    0,955
596,240;21910,832;   -1,023;    0,136
596,820;21508,621;    2,613;    1,955
597,400;21589,511;    1,977;    0,773
597,980;21851,116;   -0,750;    1,045
598,559;21905,938;    0,341;   -0,227
599,139;21633,357;   -0,750;   -1,227
599,718;21501,084;    0,795;   -0,409
600,298;21757,598;   -2,387;    0,682
600,877;21993,961;    4,795;    1,409
601,457;22248,568;    0,340;    1,136
602,036;22166,739;    1,795;    2,045
602,616;22322,955;    2,250;    1,682
603,195;22620,589;    0,431;    3,500
603,774;22108,984;   -0,296;    2,045
604,354;22010,464;    2,522;   -0,500
604,933;21607,418;    0,250;    1,864
605,512;21727,650;    2,340;    0,591
606,091;21761,350;    1,886;    3,773
606,671;22563,069;    0,249;    0,773
607,250;21722,936;    1,431;    3,136
607,829;21900,603;    1,158;    3,227
608,408;21792,187;    4,613;    2,591
608,987;20942,297;    2,704;    3,409
609,566;21159,040;    0,341;   -2,500
610,145;21288,643;    2,885;    0,682
610,723;21726,946;    1,613;    6,864
611,302;21028,851;    1,067;    1,682
611,881;20499,591;    5,158;   11,227
612,460;21292,140;    0,795;    3,955
613,039;21678,132;    1,703;    2,045
613,617;20535,633;    0,886;    4,773
614,196;20692,254;    1,613;    1,227
614,775;20988,151;    1,249;    2,409
615,353;20940,087;   -1,660;    0,864
615,932;20743,455;    0,249;    2,409
616,510;21276,444;    0,158;    0,591
617,089;20900,641;    8,794;   17,591
617,667;20719,888;    4,885;    6,136
618,246;20525,529;   -1,115;    1,318
618,824;20677,239;    1,612;   -0,955
619,402;20269,673;    0,431;   -1,773
619,981;20687,584;    1,067;   -1,045
620,559;20563,205;    0,794;    1,682
621,137;20200,691;    3,067;    1,864
621,715;20168,721;    3,703;   -0,682
622,293;20116,871;    1,885;   -0,773
622,871;20541,943;    0,340;    0,500
623,450;20133,975;    0,430;   -0,864
624,028;20069,340;   -0,388;   -0,955
624,606;19699,778;    2,339;    1,682
625,183;20104,778;   -0,661;   -1,136
625,761;19767,163;    1,885;    1,136
626,339;20039,740;    2,339;    2,591
626,917;20373,334;    0,339;   -0,045
627,495;20445,203;    2,794;    1,318
628,073;19909,179;    5,248;    2,864
628,650;19643,012;    3,067;    2,136
629,228;19973,900;    1,248;    4,409
629,806;19457,970;   -0,024;    1,136
630,383;19721,033;    0,066;   -0,318
630,961;19550,630;   -2,206;   -0,955
631,539;19311,780;   -2,479;    0,227
632,116;18734,630;   12,703;   15,409
632,694;19297,991;    4,885;    6,500
633,271;19467,600;    1,975;    2,682
633,848;19451,849;    1,430;    2,045
634,426;19481,060;    1,521;    1,773
635,003;18687,071;   -0,207;   -0,409
635,580;18910,337;    1,884;    3,682
636,158;19416,177;    3,793;    1,227
636,735;19433,805;    3,339;   -0,500
637,312;19490,084;    0,521;   -0,682
637,889;19597,597;    2,248;   -0,682
638,466;19191,555;    0,066;   -0,409
639,043;19172,736;    1,702;   -1,136
639,620;19434,643;    0,611;   -0,955
640,197;19713,777;    1,612;    1,682
640,774;19885,587;    1,430;    1,136
641,351;20231,943;    0,612;    1,136
641,928;19698,754;    2,794;    1,409
642,505;19352,474;    0,794;   -0,500
643,082;19491,103;    1,885;    1,227
643,658;18633,913;    1,157;    1,500
644,235;19260,724;   -2,479;    2,500
644,812;19449,898;    1,794;    0,773
645,388;19249,800;    1,612;    1,409
645,965;19321,610;    1,521;    1,682
646,542;19374,330;    3,430;   -0,227
647,118;19398,777;    3,703;   -0,955
647,695;19689,588;    0,339;    1,136
648,271;19576,035;   -2,115;    0,500
648,848;19822,845;    0,248;    2,227
649,424;19719,929;    0,976;    1,318
650,000;19456,376;   -0,388;   -1,045
650,577;19300,823;    0,158;   -0,955
651,153;19648,815;   -1,115;    0,955
651,729;20508,899;    0,521;    0,864
652,305;20607,164;    1,339;    2,773
652,881;23972,247;   -1,297;    1,136
653,458;29398,967;    0,249;    0,227
654,034;32387,232;    0,703;    1,591
654,610;33524,497;    0,339;    0,773
655,186;34689,944;    1,612;    3,045
655,762;34363,209;   -1,842;    0,409
656,338;34373,293;    0,703;    0,136
656,913;35338,376;   -0,297;    0,409
657,489;34678,005;    0,249;   -0,318
658,065;34679,088;    0,794;   -1,591
658,641;35249,172;    2,158;   -0,864
659,217;34658,255;    2,067;    0,409
659,792;34158,702;   -1,751;   -0,409
660,368;34583,240;   -0,388;   -0,682
660,944;34437,414;    1,794;    1,227
661,519;30814,861;    0,522;    0,409
662,095;25964,672;   -0,206;    0,591
662,670;22176,301;   -0,206;   -0,136
663,246;21276,293;   -0,660;   -0,409
663,821;20682,558;    0,431;    1,682
664,396;20216,823;    0,613;    1,864
664,972;20410,180;   -0,660;   -0,500
665,547;20677,536;    3,794;    0,136
666,122;20753,710;    1,340;    0,318
666,698;20973,975;    2,431;    0,318
667,273;20350,604;    0,885;    0,136
667,848;21082,414;    0,340;    1,500
668,423;20874,225;    1,795;    2,318
668,998;21300,945;    0,976;   -0,682
669,573;21784,210;    2,067;   -1,500
670,148;21609,293;    1,885;   -0,682
670,723;21387,013;   -0,024;    0,318
671,298;21817,642;   -1,296;    1,045
671,873;21841,271;   -0,296;   -0,136
672,448;21836,445;    1,704;    0,136
673,023;22135,710;    0,249;   -0,227
673,597;22408,248;    2,704;    2,318
674,172;22258,513;    2,431;    0,318
674,747;21771,051;   -0,205;   -1,045
675,321;21535,044;   -0,933;    3,318
675,896;21175,400;    2,158;    1,045
676,471;22073,210;    2,522;    1,591
677,045;21808,748;   -0,296;    0,682
677,620;21857,468;    2,158;    1,136
678,194;22160,824;    0,249;    1,136
678,769;21797,817;    0,886;   -0,318
679,343;21968,445;   -0,023;    1,773
679,917;21869,529;    0,340;    1,955
680,492;21930,067;    0,249;    3,227
681,066;22029,968;    0,613;    0,409
681,640;22042,961;    1,795;   -0,318
682,214;22780,135;    2,340;    0,500
682,788;22363,673;    0,613;   -0,773
683,363;22240,665;    1,977;    1,682
683,937;21956,203;    0,886;   -0,318
684,511;22643,559;   -1,023;   -0,591
685,085;22406,552;   -1,478;    0,318
685,659;22135,817;    1,431;    0,864
686,232;22357,718;    1,159;   -0,318
686,806;22090,802;    2,159;    0,409
687,380;22679,885;   -1,932;    0,591
687,954;22915,787;    2,432;    1,136
688,528;22587,234;    2,613;    1,955
689,101;23347,499;    0,432;    1,045
689,675;22910,037;    0,886;   -0,136
690,249;22353,847;    3,432;    0,409
690,822;22677,294;    1,159;    0,318
691,396;22765,105;    2,068;    1,227
691,969;22294,098;    2,523;    0,136
692,543;22721,454;   -0,568;   -1,955
693,116;22383,810;   -0,659;   -1,409
693,690;22278,984;   -0,296;    0,500
694,263;22755,886;    2,341;    2,955
694,836;22738,787;    2,795;    3,591
695,410;21563,325;    1,159;    1,773
695,983;21997,317;    1,614;    0,591
696,556;21978,946;   -0,750;   -1,045
697,129;22346,211;   -1,114;    1,409
697,703;21962,749;    1,341;    1,955
698,276;22034,378;    1,705;   -0,773
698,849;21848,916;   -1,023;    1,409
699,422;22202,727;    1,250;    0,591
699,995;21929,719;   -0,659;    0,136
700,568;22314,075;   -0,204;    3,045
701,140;22354,249;   -1,841;    1,682
701,713;22112,060;    0,341;    2,409
702,286;21892,962;    0,796;    0,864
702,859;21762,136;    0,614;   -0,591
703,432;21062,765;   -0,841;    0,682
704,004;21476,848;    1,978;    0,318
704,577;21359,750;    1,068;    0,136
705,150;21831,560;    0,887;    2,500
705,722;21656,189;    1,523;   -3,227
706,295;21404,909;    1,432;   -0,591
706,867;21332,174;    0,250;    1,955
707,440;21538,348;   -0,113;   -0,409
708,012;21799,886;   -0,022;    0,591
708,584;21706,606;    2,705;    0,227
709,157;21986,962;    1,160;   -0,591
709,729;21654,864;    1,069;    2,045
710,301;22479,765;   -1,204;    0,045
710,874;22415,667;    0,341;   -0,227
711,446;21336,205;   -0,295;    0,864
712,018;21270,379;   -3,022;    0,500
712,590;21046,099;   -0,204;    1,682
713,162;21503,727;   -0,477;    1,318
713,734;21732,993;    1,796;   -2,045
714,306;21641,712;    0,342;   -0,409
714,878;20511,432;   -0,295;    0,864
715,450;21273,424;   -0,113;    0,864
716,022;21505,417;    2,433;    1,318
716,593;21648,500;    0,978;    0,591
717,165;21592,675;    1,796;   -1,227
717,737;21335,303;    0,796;    0,409
718,309;21061,205;    1,160;   -0,045
718,880;20998,925;   -1,295;   -1,409
719,452;21204,917;    0,887;   -1,591
720,024;20847,910;    1,705;   -0,591
720,595;21422,993;    2,978;    0,955
721,167;20994,804;    1,160;   -2,045
721,738;20501,523;    2,069;   -1,045
722,309;20534,698;    1,251;   -1,227
722,881;20321,054;    2,705;    0,773
723,452;20899,319;    1,251;    2,864
724,023;21089,493;    1,524;    2,682
724,595;20902,758;    2,342;    0,682
725,166;20614,933;    1,524;   -0,409
725,737;20315,470;    1,887;    0,227
726,308;20413,099;    0,797;    0,318
726,879;20778,364;    1,069;    1,227
727,450;20623,902;   -2,022;   -0,045
728,021;20629,077;    1,069;    0,682
728,592;20462,615;    1,160;    0,500
729,163;20776,698;    1,433;   -0,136
729,734;20738,236;    2,160;   -0,227
730,305;21074,137;    0,615;    0,136
730,876;21376,948;    0,888;    2,955
731,447;21077,395;    0,797;    2,682
732,017;21182,206;   -0,840;    1,864
732,588;20731,198;   -0,021;    1,227
733,159;20885,827;    3,615;   -1,045
733,729;20690,001;    1,251;    0,409
734,300;20050,448;    0,160;    0,864
734,870;20472,350;   -1,385;    0,591
735,441;20936,888;    0,888;   -0,591
736,011;20765,425;    1,070;   -1,591
736,582;20698,236;    1,251;    0,045
737,152;20224,683;    0,979;   -2,045
737,722;20657,494;    1,070;   -0,682
738,293;20354,486;   -2,021;    1,318
738,863;20284,297;    1,797;    2,318
739,433;20126,471;    4,524;    0,318
740,003;20692,554;    1,524;   -0,682
740,573;20185,547;    2,252;   -1,591
741,143;20160,539;    3,615;    0,318
741,713;20843,623;    0,252;   -0,500
742,283;20567,888;    1,706;    1,591
742,853;20400,789;    0,524;    1,591
743,423;19946,782;    0,161;    0,045
743,993;20008,502;    1,070;    1,500
744,563;19457,949;    2,524;   -0,864
745,133;19389,487;   -0,112;   -0,864
745,702;20018,752;    2,797;    1,773
746,272;19309,471;    0,434;    0,591
746,842;19145,737;   -0,748;   -0,591
747,411;19545,184;   -0,839;   -0,318
747,981;19662,085;   -0,930;    0,500
748,551;19683,169;   -0,021;   -1,045
749,120;19570,252;   -0,112;   -0,227
749,690;19920,608;    2,161;    2,409
750,259;20172,873;    0,979;    2,955
750,828;20091,411;    4,070;   -1,955
751,398;20350,494;   -0,112;   -0,045
751,967;19930,214;    2,888;    0,409
752,536;20099,298;    1,161;   -0,227
753,105;20491,745;   -1,384;    0,227
753,675;20235,828;   -0,112;    1,773
754,244;20180,275;    0,888;    3,591
754,813;20209,631;    0,979;    1,227
755,382;19852,442;    0,798;    0,955
755,951;20277,980;   -0,112;    3,682
756,520;19933,245;    2,525;    1,864
757,089;20425,510;    1,888;    0,500
757,658;20504,866;    2,434;    1,227
758,227;20512,677;   -1,111;    0,318
758,795;20773,124;   -1,021;    1,136
759,364;21048,934;    0,525;   -0,591
759,933;20123,745;    1,343;   -0,045
760,501;19721,101;    0,252;   -1,318
761,070;20150,639;   -0,293;   -1,409
761,639;20793,540;    1,434;    1,318
762,207;20188,987;    0,889;   -0,955
762,776;20086,980;    2,889;    0,864
763,344;20083,063;    0,071;    0,591
763,913;19263,237;    1,616;    1,409
764,481;19941,684;    1,980;   -0,136
765,049;19790,313;    0,616;    1,409
765,618;19635,124;    1,434;    0,318
766,186;19752,844;    2,434;    0,136
766,754;19925,200;    1,798;    1,864
767,322;19036,192;    1,162;    0,409
767,890;19023,276;    0,525;   -1,773
768,459;19440,904;    2,616;   -0,318
769,027;19544,442;    2,525;    3,409
769,595;18645,617;    2,616;    2,591
770,163;19073,245;    3,344;    2,955
770,730;18920,874;    2,525;   -0,136
771,298;18751,503;    1,162;   -1,409
771,866;18854,586;    0,253;    4,955
772,434;19112,852;    1,162;   -1,864
773,002;19228,571;    2,616;    0,682
773,569;18968,382;    1,071;    1,682
774,137;18814,829;    0,889;   -0,045
774,705;19529,458;   -0,747;   -0,136
775,272;19101,814;    0,253;    0,682
775,840;18929,352;   -0,111;    2,682
776,407;18475,799;   -0,293;    1,955
776,975;18105,973;    1,162;    0,318
777,542;19044,602;    2,162;   -0,045
778,110;18907,140;    0,707;   -0,045
778,677;18602,223;    1,071;   -0,864
779,244;18377,488;   -1,020;    1,045
779,812;18496,935;    0,980;    0,864
780,379;18369,473;    2,435;    1,136
780,946;18574,647;    2,617;   -0,773
781,513;18856,004;   -0,565;    0,318
782,080;18270,996;    1,253;    2,864
782,647;18912,443;    1,708;    3,045
783,214;18601,163;   -0,201;    3,864
783,781;18233,155;    1,708;   -0,682
784,348;18103,239;    0,253;    1,500
784,915;18536,595;   -1,474;    0,318
785,482;18331,042;    2,708;    2,591
786,049;18785,580;    1,071;   -0,591
786,615;18886,663;    1,708;   -0,955
787,182;18614,746;   -3,201;   -0,682
787,749;18347,830;   -2,201;    1,409
788,315;17728,277;    0,253;   -0,409
788,882;17994,905;    0,981;   -1,227
789,448;18618,625;    1,435;   -0,955
790,015;18710,618;    1,799;    3,227
790,581;18311,246;    0,708;    0,227
791,148;18086,784;    1,344;    1,045
791,714;18368,231;   -1,019;    3,136
792,280;18086,133;    3,708;    1,591
792,847;17719,671;   -0,928;    2,500
793,413;18132,390;   -0,110;   -0,318
793,979;17816,837;    1,526;   -1,318
794,545;17913,012;    2,981;    2,682
795,111;17374,822;    2,435;    1,318
795,678;17541,906;    3,526;   -1,682
796,244;17248,171;    2,799;    0,136
796,810;17693,891;    0,799;    0,773
797,375;17460,247;   -0,292;   -2,136
797,941;17488,239;   -1,110;    0,591
798,507;17600,323;    0,254;   -0,955
799,073;17232,679;    2,708;    0,591
799,639;17320,307;    1,435;    3,136
800,205;17365,573;   -1,565;    2,682
800,770;16935,111;    1,345;    1,773
801,336;16947,467;    2,981;   -0,955
801,901;16731,641;    6,072;    3,136
802,467;17284,815;    0,526;    2,045
803,033;16655,989;   -0,019;    0,864
803,598;16845,346;    1,072;   -1,045
804,163;16906,065;    0,708;   -0,318
804,729;16849,512;   -0,110;    1,136
805,294;17189,868;    1,072;    2,227
805,859;16987,952;    0,890;   -0,409
806,425;16548,671;    3,890;    2,682
806,990;16219,028;    1,890;    4,318
807,555;16589,565;   -0,110;    2,591
808,120;16618,285;   -1,292;   -0,409
808,685;16669,732;    1,072;   -2,500
809,250;16229,543;    2,072;   -0,500
809,815;16465,990;   -0,201;    0,682
810,380;16963,073;    0,981;    1,591
810,945;17423,429;    2,890;    2,045
811,510;16712,149;   -0,200;    1,591
812,075;16434,141;    2,800;   -1,409
812,640;16475,861;    3,709;    1,409
813,204;16559,217;    2,163;   -0,227
813,769;17000,301;    0,254;   -0,045
814,334;16477,020;    0,527;    0,864
814,898;16538,467;    1,981;    0,591
815,463;16394,914;    0,981;   -0,773
816,027;16328,907;    1,345;   -2,318
816,592;16499,717;    2,163;   -2,045
817,156;16055,437;   -2,200;    1,136
817,721;15941,884;    0,982;    2,318
818,285;15939,695;    0,618;    1,500
818,849;16493,778;   -0,018;    1,682
819,414;16425,316;    0,073;    2,955
819,978;16011,854;   -0,291;    1,773
820,542;16549,392;    2,891;    0,500
821,106;16330,202;    2,800;    0,682
821,670;16404,013;    2,709;    2,591
822,234;16133,915;    1,073;    1,409
822,798;15634,816;   -0,836;    0,500
823,362;15638,536;    1,527;    4,227
823,926;15079,256;   -0,018;    1,136
824,490;15239,612;    3,527;   -0,682
825,054;15602,604;    2,527;   -1,136
825,618;15354,869;   -1,200;   -1,500
826,181;15281,680;    0,982;   -1,318
826,745;15197,127;   -0,745;   -1,045
827,309;15548,665;    2,255;    1,318
827,872;15045,203;    0,527;    0,955
828,436;15920,923;    1,982;   -0,773
828,999;16001,915;    2,436;    1,227
829,563;14953,362;   -0,654;    1,136
830,126;14777,991;   -0,018;   -0,591
830,690;14814,529;    0,709;    2,864
831,253;14348,521;   -0,473;    2,227
831,816;14487,695;   -0,018;    0,500
832,380;14449,233;    1,164;    0,864
832,943;14694,044;    3,073;   -0,500
833,506;14233,673;    0,255;   -1,227
834,069;14913,211;    2,164;   -0,955
834,632;15013,294;   -2,200;    1,318
835,195;14886,741;    1,346;    0,955
835,758;14247,188;    0,709;    1,955
836,321;14062,635;    1,073;   -1,045
836,884;14157,900;   -1,291;   -0,955
837,447;14198,984;    0,528;    1,773
838,010;14447,249;    1,800;    3,227
838,573;14726,150;    0,528;    0,773
839,135;14710,779;   -0,109;   -0,955
839,698;14219,226;    2,528;    0,409
840,261;13803,764;    0,255;   -0,227
840,823;13657,938;   -0,927;    0,864
841,386;13948,294;   -0,018;   -2,409
841,948;13847,105;    0,255;    1,773
842,511;13615,370;    0,255;    1,682
843,073;13723,999;    2,982;    0,227
843,636;13572,355;    0,619;   -0,227
844,198;13476,166;    1,255;    0,591
844,760;13587,158;    0,619;    1,955
845,322;13300,878;    0,164;    1,136
845,885;13687,234;   -0,290;    0,591
846,447;14094,954;    0,710;    0,227
847,009;13700,219;    3,983;   -0,682
847,571;13946,939;    1,346;   -2,045
848,133;14018,477;   -0,199;   -1,864
848,695;13874,469;    2,346;    1,409
849,257;13484,189;    1,346;   -1,682
849,819;13698,090;    2,983;   -0,409
850,381;13695,174;    1,801;   -0,864
850,942;14005,984;    1,892;   -0,591
851,504;13909,522;    0,983;    0,227
852,066;13944,151;    1,619;   -1,591
852,628;13564,507;    0,165;    1,955
853,189;13131,863;    0,256;    2,682
853,751;13311,583;   -0,654;    1,409
854,312;13125,848;    1,256;   -1,682
854,874;13545,841;   -0,108;   -0,773
855,435;13963,197;    0,528;   -1,682
855,997;14136,825;    3,983;   -0,136
856,558;13522,727;    0,801;    1,773
857,119;13607,356;   -0,744;    2,864
857,681;13317,348;   -0,108;    0,318
858,242;13368,886;    1,347;   -2,136
858,803;13769,879;    1,074;   -0,773
859,364;14292,871;    0,892;   -4,773
859,925;13732,045;   -0,290;   -0,955
860,486;13628,492;    0,529;   -0,955
861,047;13395,848;    0,165;   -1,227
861,608;13232,750;    0,165;   -0,773
862,169;13377,470;   -0,562;   -0,045
862,730;13130,735;   -0,290;    1,409
863,291;13396,182;    0,438;   -0,500
863,852;13695,265;   -0,926;    1,955
864,412;13205,349;   -1,835;   -0,864
864,973;11991,341;    1,892;    0,500
865,534;11863,424;    2,074;    0,227
866,094;13156,144;    2,620;    0,227
866,655;12841,500;    4,711;    3,318
867,215;13130,584;    0,074;    0,136
867,776;13003,667;   -1,199;   -0,136
868,336;13089,659;    1,529;    0,136
868,897;12656,743;    3,438;    1,682
869,457;12464,463;    3,256;    0,318
870,017;12669,364;    2,438;   -1,227
870,578;13102,357;    1,893;    0,773
871,138;12777,985;    2,620;   -0,955
871,698;12392,523;   -0,562;   -1,318
872,258;12263,152;    0,711;   -2,864
872,818;12607,145;    2,347;    0,045
873,378;12606,955;   -2,198;    1,045
873,938;12219,039;    4,984;    0,500
874,498;12480,304;    1,256;   -1,955
875,058;12430,478;    4,347;    1,773
875,618;12322,380;    1,438;   -2,682
876,177;12222,099;   -0,471;    0,136
876,737;11917,546;   -0,289;    1,955
877,297;11961,266;    2,711;    1,955
877,856;11933,713;    2,529;    0,318
878,416;11909,342;    2,438;   -0,136
878,976;12067,789;    3,438;    0,409
879,535;12241,599;    4,529;    3,136
880,095;12072,501;    1,347;    0,045
880,654;12136,857;    0,347;    1,318
881,213;12233,304;    2,347;    1,500
881,773;11909,478;    1,984;    2,682
882,332;12240,743;    6,075;    5,136
882,891;12115,372;    0,711;    2,136
883,451;12491,274;   -2,016;    1,682
884,010;11975,630;   -1,107;   -0,409
884,569;12088,441;   -2,289;   -0,045
885,128;12207,615;   -0,743;   -1,864
885,687;12272,153;   -0,743;    0,682
886,246;12013,418;    2,620;    2,136
886,805;11792,501;    1,620;    2,045
887,364;12004,403;    1,166;   -0,500
887,922;12300,759;   -0,016;    0,045
888,481;11861,479;    1,530;    0,591
889,040;12164,107;    3,711;    2,136
889,599;12707,645;    2,166;    1,409
890,157;12731,456;    2,166;    2,409
890,716;12372,812;    2,166;    0,227
891,274;12248,350;    0,075;   -1,136
891,833;12613,524;    1,166;    0,864
892,391;12482,244;    1,802;    0,500
892,950;12540,055;    0,166;   -0,773
893,508;12883,956;    0,984;   -0,409
894,067;12283,949;   -0,379;    0,136
894,625;12213,123;   -1,016;   -1,500
895,183;12431,752;   -0,198;   -0,682
895,741;12371,653;    2,257;   -1,773
896,299;12188,918;    1,621;   -2,409
896,858;12351,638;    1,530;   -1,591
897,416;12489,903;    0,166;   -1,318
897,974;12287,169;   -2,197;    0,318
898,532;12405,070;    6,530;    2,682
899,089;12313,790;    0,621;   -0,682
899,647;12408,510;    0,530;    1,318
900,205;12186,502;    0,257;    1,045
900,763;12331,767;    2,166;    0,227
901,321;12380,123;    3,530;   -1,409
901,878;11876,025;    3,257;   -0,773
902,436;11805,563;    0,257;    1,318
902,994;12193,010;    6,712;    3,682
903,551;11682,275;    1,439;    0,409
904,109;12039,540;    1,530;   -1,409
904,666;11684,896;    1,439;    1,045
905,224;11542,889;    3,894;   -0,409
905,781;11343,427;   -0,470;   -0,318
906,338;11400,874;    0,167;    1,045
906,895;11378,593;    1,894;    2,045
907,453;11277,222;    2,348;    1,136
908,010;11334,851;    3,348;    0,409
908,567;11059,025;   -0,561;    0,591
909,124;10597,472;    2,439;   -1,500
909,681;10653,010;   -1,288;    0,682
910,238;10853,002;   -0,106;   -1,318
910,795;11156,722;   -1,561;   -1,136
911,352;10835,449;   -0,379;   -2,682
911,909;10347,540;    2,803;   -0,864
912,466;10776,631;    1,985;    1,500
913,022;10377,813;   -0,924;    0,500
913,579;10697,813;   -0,470;    2,045
914,136;10462,086;   -2,561;    0,955
914,692;10798,359;    1,530;   -1,227
915,249;10392,359;    0,530;    0,409
915,806;10579,449;    1,803;    1,955
916,362;10447,904;    0,894;    1,864
916,918;10050,359;    2,439;    1,045
917,475;10097,540;    1,621;    0,955
918,031;10127,904;    0,076;   -0,045
918,587; 9695,631;    0,621;   -0,318
919,144; 9919,904;   -0,379;    0,227
919,700;10140,086;    0,167;    0,773
920,256; 9782,904;    0,439;    0,045
920,812; 9488,904;    1,439;   -1,045
921,368; 9537,540;    1,348;   -1,045
921,924; 9243,813;    0,439;   -0,136
922,480; 8880,631;    0,076;    1,227
923,036; 9418,268;   -0,652;    1,955
923,592; 9394,540;    0,621;    0,318
924,148; 9337,631;    1,894;   -0,955
924,704; 8757,722;    0,258;   -0,409
925,259; 9055,449;   -0,561;    0,591
925,815; 8863,449;    3,803;    0,500
926,371; 8447,813;    3,530;    1,409
926,926; 8407,177;    1,621;    0,591
927,482; 8102,086;    1,621;    0,773
928,037; 8019,268;   -0,833;    2,045
928,593; 8291,449;    0,258;    1,045
929,148; 8137,995;    1,167;   -1,500
929,704; 7730,722;    2,439;   -0,500
930,259; 7907,177;    0,894;   -0,136
930,814; 7186,449;    1,803;    1,955
931,369; 6944,177;    0,258;   -0,773
931,925; 6873,995;   -1,924;    0,136
932,480; 6808,449;    3,076;   -2,591
933,035; 6793,359;    3,985;   -0,318
933,590; 6595,449;   -1,742;   -1,773
934,145; 6338,995;   -1,288;   -0,318
934,700; 6616,359;    0,348;   -0,591
935,255; 6461,904;    4,803;    0,045
935,809; 5967,359;    6,258;    0,864
936,364; 5258,995;    2,167;   -0,136
936,919; 5289,722;    2,348;   -1,773
937,474; 5231,449;    1,348;    0,136
938,028; 5050,449;    3,076;    1,136
938,583; 4696,086;    6,348;    4,682
939,138; 4904,722;    0,167;    2,136
939,692; 4468,631;   -1,015;   -1,136
940,247; 4241,268;    1,167;   -1,045
940,801; 3964,449;    0,621;    0,227
941,355; 3904,813;    0,439;    2,591
941,910; 3619,359;    0,712;   -2,136
942,464; 3707,359;    2,712;   -0,318
943,018; 3630,722;    3,258;   -0,227
943,572; 3556,268;    2,803;   -0,682
944,126; 3138,086;   -0,924;   -0,409
944,681; 3032,631;    0,712;    0,227
945,235; 3002,631;    2,167;   -0,591
945,789; 2958,268;    1,258;   -1,864
946,342; 3152,540;   -0,561;   -0,591
946,896; 2900,722;    0,348;    0,955
947,450; 2672,904;   -0,561;   -0,227
948,004; 2935,540;    1,076;   -0,045
948,558; 2907,904;    1,258;   -0,864
949,111; 2833,540;   -1,197;   -0,318
949,665; 2939,177;   -0,106;   -0,682
950,219; 2839,086;    0,621;   -1,045
950,772; 2859,722;    0,258;    1,864
951,326; 2795,268;   -1,106;   -0,955
951,879; 2805,177;    1,076;   -2,318
952,433; 2878,268;    1,348;    2,227
952,986; 2717,268;    0,348;    0,682
953,539; 2656,540;    1,530;    0,591
954,093; 2635,268;    0,985;   -1,318
954,646; 2769,449;   -0,288;    1,318
955,199; 2587,268;    1,258;   -0,500
955,752; 2579,449;    1,985;    1,773
956,305; 2500,540;    0,894;    2,955
956,858; 2631,540;    0,621;   -0,318
957,411; 2776,904;    3,621;    2,136
957,964; 2620,995;    2,076;    2,136
958,517; 2581,631;    0,985;    3,136
959,070; 2481,631;   -1,197;    1,955
959,623; 2631,904;    1,076;    1,500
960,176; 2441,359;    0,712;    2,045
960,728; 2415,631;    1,712;    0,773
961,281; 2454,268;    2,258;    0,500
961,834; 2459,631;   -0,833;    0,864
962,386; 2379,177;    1,258;    1,045
962,939; 2315,631;    3,439;   -0,318
963,491; 2431,268;    2,621;    1,136
964,043; 2336,268;    0,076;    2,409
964,596; 2465,177;    1,712;    2,227
965,148; 2307,904;   -0,379;    1,773
965,700; 2249,540;   -0,015;   -0,227
966,253; 2386,540;   -0,833;    0,318
966,805; 2265,449;    1,894;    0,773
967,357; 2288,995;    0,439;   -1,500
967,909; 2293,813;    1,167;   -1,227
968,461; 2326,449;    0,894;    3,136
969,013; 2281,449;   -1,561;   -0,864
969,565; 2354,359;    1,803;   -1,136
970,117; 2552,813;    3,803;    1,045
970,669; 2288,177;    3,258;   -0,136
971,220; 2121,268;    2,167;   -1,500
971,772; 2096,359;    1,348;   -0,318
972,324; 2210,449;   -1,197;   -0,500
972,876; 2140,995;    0,167;   -0,045
973,427; 2302,631;   -1,197;   -1,045
973,979; 2303,722;    0,076;   -2,500
974,530; 2242,449;    0,803;    1,318
975,082; 2255,631;    2,167;    1,682
975,633; 2181,813;    2,894;    1,682
976,184; 2318,540;    2,076;    0,773
976,736; 2185,995;    0,348;    0,227
977,287; 2030,540;    0,258;   -0,500
977,838; 2154,995;   -0,924;   -0,318
978,389; 2198,904;    0,803;   -0,500
978,940; 2061,722;    1,258;   -0,409
979,491; 2082,177;    2,258;   -0,500
980,042; 2091,540;   -0,652;    3,045
980,593; 2104,268;    1,894;    0,227
981,144; 2206,904;    3,530;   -0,500
981,695; 2220,813;   -0,470;    1,500
982,246; 2151,086;   -1,833;    1,045
982,797; 2196,359;   -0,561;    0,682
983,347; 2323,813;    2,167;    0,591
983,898; 2514,359;    4,167;    0,409
984,449; 2387,449;    2,530;    0,773
984,999; 2236,904;    1,894;   -1,136
985,550; 2078,904;    3,167;   -0,318
986,100; 2054,540;    0,712;   -0,318
986,651; 2076,631;    0,258;    0,045
987,201; 2070,904;    0,894;   -0,591
987,751; 2131,268;   -0,288;    2,864
988,302; 2147,177;   -0,379;    1,500
988,852; 2159,722;    1,985;   -1,136
989,402; 2230,177;    0,985;    0,682
989,952; 2183,359;    1,621;    0,864
990,502; 2199,177;    1,076;    0,682
991,052; 2120,268;   -0,106;    0,045
991,602; 2050,449;    1,167;    1,318
992,152; 2063,631;    2,803;    0,682
992,702; 2061,813;    1,167;   -0,045
993,252; 1981,540;    0,076;   -0,500
993,802; 2078,449;    1,167;    1,318
994,352; 2252,086;   -0,742;    1,136
994,901; 2276,540;    1,076;    3,227
995,451; 2218,631;   -1,197;    0,318
996,000; 2293,631;    1,076;    0,318
996,550; 2084,813;    2,894;    0,227
997,100; 2087,268;   -0,561;   -0,045
997,649; 2356,177;   -0,197;    0,955
998,198; 2041,449;   -0,288;   -1,500
998,748; 2229,359;    0,348;   -2,318
999,297; 2127,268;    0,985;   -0,409
999,846; 2220,359;    1,894;   -0,773
1000,395; 2211,904;    1,530;    0,500
1000,945; 2255,722;    1,076;   -0,773
1001,494; 2313,995;    0,167;    0,682
1002,043; 2263,177;    0,712;    0,864
1002,592; 2076,904;    3,439;    1,955
1003,141; 2197,177;    2,439;   -0,682
1003,690; 2145,177;    1,258;    0,500
1004,238; 2153,086;   -0,106;   -0,045
1004,787; 1859,449;   -1,288;    1,227
1005,336; 2128,268;    1,621;    0,682
1005,885; 2184,904;   -0,197;   -2,773
1006,433; 2254,995;   -0,470;    0,955
1006,982; 2414,540;    2,167;    1,682
1007,531; 2278,359;    2,712;   -0,227
1008,079; 2201,540;    0,258;    0,500
1008,627; 2296,177;    1,621;    0,409
1009,176; 2105,995;    0,076;   -1,955
1009,724; 2121,359;   -2,742;    0,864
1010,273; 2225,086;    1,076;    0,500
1010,821; 2265,177;    1,076;    1,409
1011,369; 2045,540;    0,076;    1,318
1011,917; 2047,268;   -0,833;   -0,591
1012,465; 2289,086;    2,530;   -1,591
1013,013; 2351,813;    0,439;   -1,682
1013,561; 2316,904;   -1,288;   -0,773
1014,109; 2395,722;   -0,833;    1,682
1014,657; 2256,722;    1,348;    0,591
1015,205; 2304,086;    0,894;   -0,955
1015,753; 2290,086;    0,258;   -1,409
1016,301; 2341,086;    2,621;    3,045
1016,848; 2366,268;    2,167;    0,409
1017,396; 2412,904;    1,621;    0,045
1017,944; 2498,904;    2,621;    1,864
1018,491; 2272,722;   -0,197;    1,409
1019,039; 2545,268;   -0,652;    0,591
1019,586; 2367,268;    0,076;    1,682
1020,134; 2419,540;    0,712;    1,500
1020,681; 2455,268;    2,894;   -1,136
1021,228; 2406,904;   -0,561;   -2,227
1021,776; 2284,449;   -0,833;   -1,136
1022,323; 2543,540;    0,803;    0,773
1022,870; 2470,177;   -0,470;   -0,045
1023,417; 2416,359;    2,076;    1,864
1023,964; 2445,995;    0,621;    1,227
1024,511; 2356,359;   -0,652;    0,773
1025,058; 2182,359;    0,439;   -0,045
1025,605; 2233,904;   -1,742;    3,136
1026,152; 2482,631;   -0,106;   -0,591
1026,699; 2208,359;    0,167;    1,318
1027,245; 2328,722;    2,439;    0,318
1027,792; 2456,449;    0,712;    1,409
1028,339; 2462,449;    4,076;   -0,045
1028,885; 2307,268;    3,621;   -0,227
1029,432; 2242,359;   -0,106;    0,227
1029,978; 2323,904;    1,348;   -1,591
1030,525; 2245,177;    1,621;    0,409
1031,071; 2394,177;    0,348;    1,136
1031,618; 2585,995;    1,258;    1,682
1032,164; 2360,359;    2,076;    3,045
1032,710; 2410,177;    0,076;   -1,500
1033,256; 2304,086;    0,712;   -0,136
1033,803; 2244,177;   -0,288;    1,500
1034,349; 2013,086;    1,803;    0,136
1034,895; 2169,722;    2,621;   -0,318
1035,441; 2158,540;    0,439;    0,318
1035,987; 2177,904;   -2,288;   -0,682
1036,533; 2210,722;   -0,197;   -0,955
1037,078; 2422,722;    4,712;    1,682
1037,624; 2241,813;    2,439;   -0,955
1038,170; 2222,086;    1,712;   -0,318
1038,716; 2192,631;    2,167;   -0,409
1039,261; 2074,177;    2,167;   -0,773
1039,807; 2047,813;   -0,015;    3,409
1040,352; 2117,722;   -1,288;   -0,318
1040,898; 2141,177;    0,167;   -0,682
1041,443; 2036,722;    0,803;   -2,591
1041,989; 2179,177;    3,621;    1,591
1042,534; 2005,177;    0,985;    2,591
1043,079; 2037,359;    1,985;    0,955
1043,625; 1917,540;    0,258;    0,500
1044,170; 1985,722;    2,439;    1,045
1044,715; 2239,904;    0,167;    0,955
1045,260; 2073,540;   -0,833;   -0,955
1045,805; 2049,449;    0,258;   -0,591
1046,350; 1972,813;    0,530;   -0,409
1046,895; 2033,904;    0,803;    1,591
1047,440; 2028,086;    1,530;    0,409
1047,985; 1887,631;   -1,197;   -0,955
1048,530; 1807,813;    1,348;    1,227
1049,074; 1877,449;    2,803;    0,318
1049,619; 1842,995;   -0,924;    1,955
1050,164; 1697,177;    1,076;    0,227
1050,708; 1735,813;    2,621;    0,045
1051,253; 2139,268;    3,258;   -2,227
1051,797; 1851,540;   -0,197;   -1,318
1052,342; 1800,268;    1,348;    1,045
1052,886; 1811,268;    1,803;   -1,409
1053,430; 1685,995;    2,167;    0,136
1053,975; 1723,449;    0,894;   -0,318
1054,519; 1728,813;    1,803;    3,227
1055,063; 1793,177;    3,621;    1,318
1055,607; 1703,995;    1,348;    0,227
1056,151; 1720,813;    0,530;    1,682
1056,695; 1600,540;   -1,833;   -1,136
1057,239; 1657,268;   -1,197;   -0,682
1057,783; 1681,449;    2,258;   -1,500
1058,327; 1679,904;    3,076;    1,409
1058,871; 1906,359;    3,985;    1,318
1059,415; 1645,086;   -0,561;   -0,045
1059,958; 1911,722;    2,985;    2,591
1060,502; 1629,813;    1,348;   -0,773
1061,046; 1502,904;    1,712;   -0,955
1061,589; 1464,449;    2,803;   -1,136
1062,133; 1378,722;    0,985;    1,864
1062,676; 1355,268;    1,439;    0,864
1063,220; 1385,449;    0,985;    0,500
1063,763; 1418,904;    2,985;    1,136
1064,306; 1479,086;    0,985;    1,864
1064,849; 1386,177;    2,076;    0,591
1065,393; 1400,904;    2,894;   -1,500
1065,936; 1465,268;    2,530;   -0,409
1066,479; 1344,268;    2,621;    1,318
1067,022; 1375,177;    1,894;   -0,227
1067,565; 1297,995;   -1,197;   -1,318
1068,108; 1300,904;    1,258;   -0,591
1068,651; 1265,631;   -2,470;    1,409
1069,194; 1204,904;   -1,106;   -1,682
1069,736; 1245,449;    3,803;    0,955
1070,279; 1203,722;   -1,652;   -0,500
1070,822; 1299,813;    1,530;   -0,318
1071,364; 1429,540;    0,530;    1,318
1071,907; 1211,904;    0,348;    3,227
1072,450; 1087,813;    0,258;   -0,045
1072,992; 1113,631;   -0,561;    3,136
1073,535; 1262,086;    0,167;    2,136
1074,077; 1062,813;    2,985;    2,045
1074,619; 1047,813;    0,985;    0,591
1075,161; 1075,813;   -0,561;    1,500
1075,704; 1264,268;    0,258;    1,227
1076,246; 1047,359;    1,530;    0,682
1076,788;  970,904;   -1,015;    1,773
1077,330; 1032,995;   -2,106;    2,136
1077,872; 1024,177;   -1,924;    0,955
1078,414; 1263,995;    3,712;    0,773
1078,956; 1004,631;    0,167;   -0,227
1079,498; 1270,904;    0,439;    0,318
1080,040; 1001,268;    0,985;   -1,318
1080,581;  935,813;    0,621;   -0,318
1081,123;  854,268;   -0,106;   -0,773
1081,665;  890,813;    3,803;   -0,955
1082,206; 1186,177;    3,258;   -0,500
1082,748; 1066,177;    3,258;    2,045
1083,289;  933,449;    0,167;    1,318
1083,831;  868,449;    0,258;    0,227
1084,372;  914,449;    0,894;    0,591
1084,913;  914,449;    3,348;    0,864
1085,455;  857,813;    1,530;   -2,045
1085,996;  844,631;    0,530;    0,136
1086,537;  883,995;    0,985;    0,864
1087,078;  901,540;    0,439;   -2,136
1087,619;  961,540;   -1,652;    0,227
1088,160;  879,631;    1,439;    1,318
1088,701;  858,449;   -0,742;    0,682
1089,242;  811,540;   -0,561;   -2,227
1089,783;  905,540;   -0,561;    1,409
1090,324;  874,995;   -0,833;    0,682
1090,865;  760,631;   -1,924;   -0,409
1091,405;  716,904;   -0,561;    2,227
1091,946;  758,449;   -0,197;   -0,955
1092,487;  669,540;   -1,288;   -1,409
1093,027;  854,813;    1,803;   -1,500
1093,568;  730,722;    2,258;    1,227
1094,108;  813,722;    0,621;    1,773
1094,649;  755,268;   -0,470;    0,136
1095,189;  694,449;    1,167;   -0,682
1095,729;  656,631;    0,712;    0,955
1096,269;  647,449;    1,258;   -0,955
1096,810;  953,813;   -0,197;    0,500
1097,350;  805,086;   -0,561;   -0,773
1097,890;  696,722;    2,985;    1,227
1098,430;  952,359;    4,985;    2,864
1098,970;  842,359;    1,894;    1,682
1099,510;  691,722;   -0,833;   -2,318
1100,050;  629,268;    0,258;   -1,591
1100,589;  613,268;    0,076;   -0,318
1101,129;  722,359;    0,894;   -0,955
1101,669;  871,359;    2,803;    2,136
1102,209;  712,268;    1,530;    2,227
1102,748;  663,722;    3,439;    0,955
1103,288;  659,813;    0,712;   -1,227
1103,827;  672,268;    3,530;   -2,227
1104,367;  574,813;    1,712;   -2,409
1104,906;  546,177;   -1,015;   -1,136
1105,445;  620,722;    0,985;   -1,136
1105,985;  568,359;   -0,652;    1,500
1106,524;  607,722;    1,530;   -0,682
1107,063;  593,086;    1,167;    1,409
1107,602;  552,359;    1,894;   -1,500
1108,141;  487,995;    1,621;    1,500
1108,680;  592,177;    3,985;   -0,591
1109,219;  527,540;    0,167;   -0,500
1109,758;  527,722;    4,167;    0,682
1110,297;  503,177;   -1,106;   -0,682
1110,836;  451,995;    1,439;    0,955
1111,375;  600,631;    0,348;    0,409
1111,913;  620,813;    0,985;    0,773
1112,452;  558,722;    0,894;    0,136
1112,991;  442,631;    1,076;    1,955
1113,529;  421,177;    0,167;   -0,045
1114,068;  489,631;    0,439;    2,955
1114,606;  407,177;   -0,561;   -0,955
1115,144;  552,540;    1,530;    1,045
1115,683;  487,449;    1,985;    0,318
1116,221;  533,631;    2,076;   -0,864
1116,759;  446,540;    1,621;   -0,864
1117,297;  630,268;    1,621;    1,864
1117,836;  456,904;    1,985;   -1,227
1118,374;  462,268;    0,258;   -0,682
1118,912;  417,086;    0,439;    2,682
1119,450;  411,540;    0,985;    0,864
1119,988;  450,722;    3,348;    2,136
1120,525;  877,359;    7,258;    3,318
1121,063;  597,177;    0,530;    1,864
1121,601;  417,995;    1,076;   -1,227
1122,139;  384,995;    1,076;   -2,045
1122,676;  570,449;   -1,652;    2,773
1123,214;  498,359;    0,712;    4,409
1123,751;  329,813;    0,621;    2,227
1124,289;  449,540;    0,894;   -0,409
1124,826;  344,995;   -0,379;    0,227
1125,364;  276,086;    0,712;   -0,955
1125,901;  446,540;    6,258;    1,227
1126,438;  539,449;    3,530;    0,955
1126,975;  290,086;    2,985;   -0,773
1127,513;  356,631;    2,621;    2,136
1128,050;  272,540;   -0,561;   -0,682
1128,587;  360,359;    1,348;   -0,227
1129,124;  403,540;   -0,015;    1,318
1129,661;  283,904;   -1,924;    0,227
1130,198;  438,177;    2,439;    0,773
1130,734;  382,904;   -0,379;    1,409
1131,271;  259,177;   -1,197;    0,864
1131,808;  416,449;    1,621;    3,045
1132,345;  298,904;    4,530;    0,318
1132,881;  177,540;   -0,561;   -1,864
1133,418;  310,631;    0,348;   -1,136
1133,954;  255,995;    0,712;   -2,682
1134,491;  318,177;    1,712;   -0,773
1135,027;  233,177;    2,167;    0,864
1135,564;  316,177;    1,439;    2,955
1136,100;  308,813;   -0,742;    2,136
1136,636;  205,268;   -1,015;   -1,045
1137,172;  287,449;    0,894;   -1,045
1137,708;  219,813;   -1,561;   -1,045
1138,245;  222,359;    0,803;   -1,227
1138,781;  181,268;    1,803;   -3,318
1139,317;  239,995;    1,894;   -1,409
1139,852;  232,904;    3,076;    0,136
1140,388;  331,813;    2,076;   -0,409
1140,924;  227,995;    1,076;   -2,227
1141,460;  177,086;   -0,288;    0,136
1141,996;  114,722;   -0,652;    2,682
1142,531;  162,995;    1,076;    3,318
1143,067;  352,177;    1,167;    1,045
1143,602;  407,177;    3,439;   -0,318
1144,138;  270,995;    0,803;    1,045
1144,673;  149,722;    1,621;    1,409
1145,209;  205,177;    2,894;   -0,318
1145,744;  129,177;    0,803;    0,864
1146,279;  246,995;    1,530;   -0,136
1146,815;  176,359;    1,530;   -2,682
1147,350;  214,449;   -0,924;    0,045
1147,885;  147,449;   -1,924;   -1,318
1148,420;  146,177;    2,439;    0,773
1148,955;  126,540;   -1,470;    1,864
1149,490;  143,904;   -1,106;   -1,591
1150,025;  129,177;   -1,106;   -1,773
1150,560;  239,359;   -0,288;   -0,955
1151,094;  206,268;    0,258;   -0,591
1151,629;  211,904;   -3,742;    0,864
1152,164;  145,268;   -1,288;    1,318
1152,698;  107,995;    1,258;   -0,136
1153,233;   72,540;   -1,379;   -0,682
1153,767;  111,631;   -0,288;   -2,318
1154,302;  154,359;   -0,379;    1,773
1154,836;  164,086;    0,803;   -2,136
1155,371;  204,177;    2,258;    3,682
1155,905;  158,449;    1,985;    1,682
1156,439;  137,540;    0,530;   -0,500
1156,973;  160,722;    0,439;    0,318
1157,507;  102,177;   -1,742;    0,682
1158,042;  127,995;   -0,652;    1,045
1158,576;  169,268;   -0,561;    1,773
1159,110;  163,631;    0,076;    2,409
1159,643;  138,177;   -2,470;   -0,045
1160,177;   83,995;   -2,015;    1,500

