
Integration time [ms]:   0,040
Averaging Nr. [scans]: 11
Smoothing Nr. [pixels]: 0
Data measured with spectrometer [name]: 7318044SP
Wave   ;Sample   ;Dark     ;Reference
[nm]   ;[counts] ;[counts] ;[counts] 

186,757;   38,844;   38,161;    1,318
187,357;   60,710;   26,706;    0,955
187,958;   37,875;   17,252;   -1,591
188,558;   69,977;   12,979;   -1,227
189,159;   44,283;   10,070;   -4,500
189,759;   20,735;    5,797;   -3,591
190,360;   16,801;    6,797;   -2,136
190,960;   53,843;    5,706;   -4,136
191,560;   63,026;    2,614;   -6,591
192,161;  283,266;    5,885;   -3,500
192,761;  149,411;    5,520;   -3,227
193,361;   89,380;    3,065;   -3,773
193,962;  141,899;    1,612;   -2,682
194,562;   74,154;   -0,114;   -3,955
195,162;  107,018;   -0,567;   -2,227
195,762;  263,613;    2,433;   -0,045
196,362;  209,542;    1,706;   -2,500
196,963;   85,479;    1,706;   -0,864
197,563;  151,592;    1,252;   -0,955
198,163;   97,694;   -0,111;   -0,682
198,763;  122,804;   -0,020;   -0,500
199,363;  218,535;    3,616;   -0,500
199,963;  178,860;    2,162;    0,409
200,563;  156,245;    6,344;   -1,409
201,163;  132,839;    5,435;   -0,227
201,763;  216,581;    1,435;    0,318
202,363;  156,823;    0,980;    1,500
202,963;  264,349;    1,526;    1,045
203,563;  366,423;    0,344;    0,500
204,162;  215,611;    1,889;   -1,864
204,762;  203,431;    2,071;    0,591
205,362;  171,857;    0,708;    1,955
205,962;  269,133;    3,435;    1,955
206,562;  263,616;    1,889;    2,318
207,161;  235,175;    1,708;    0,318
207,761;  390,276;    4,435;    2,409
208,361;  276,569;    1,889;    1,409
208,960;  364,223;    2,889;    1,500
209,560;  422,367;    0,435;    1,591
210,160;  405,390;    5,071;    1,864
210,759;  361,443;    0,708;    1,227
211,359;  365,960;   -0,474;    1,045
211,958;  622,418;    3,526;    2,045
212,558;  691,999;    0,799;    1,864
213,157;  546,725;   -0,929;    1,500
213,757;  955,560;    5,617;   -0,227
214,356;  665,740;    1,708;   -0,409
214,956;  986,056;    3,526;    0,409
215,555;  615,455;    0,617;    2,136
216,154;  555,751;   -0,292;   -0,591
216,754;  555,248;    1,253;    0,773
217,353;  683,122;   -0,383;   -1,045
217,952;  552,443;    2,072;    0,318
218,552;  781,058;    0,254;   -0,773
219,151;  668,828;   -1,110;    0,955
219,750;  662,473;    0,890;   -0,227
220,349;  756,202;   -2,292;    1,045
220,948;  846,270;    1,163;    1,136
221,548;  826,548;    0,617;    1,227
222,147;  936,586;   -1,292;   -0,409
222,746; 1226,333;    1,254;   -0,955
223,345; 1084,864;   -1,019;    0,500
223,944; 1093,151;    1,163;    0,773
224,543; 1245,335;    4,072;   -1,409
225,142; 1366,600;    1,345;    0,136
225,741; 1264,889;    1,163;    1,045
226,340; 1279,079;    1,254;   -0,955
226,939; 1689,447;    2,708;   -0,136
227,538; 1612,521;    1,163;   -0,773
228,137; 1774,774;    0,435;    0,864
228,735; 1876,977;    0,435;    1,227
229,334; 1644,201;   -0,474;   -0,227
229,933; 2006,024;    0,799;    0,591
230,532; 2125,913;   -1,201;   -0,409
231,131; 2186,287;    1,253;    0,318
231,729; 2276,584;    1,163;   -2,318
232,328; 2351,624;    0,435;   -1,500
232,927; 2406,209;    4,526;   -0,500
233,525; 2501,527;    0,981;    0,045
234,124; 2709,799;    1,890;   -1,591
234,723; 2715,630;    1,617;   -1,045
235,321; 2840,633;    1,163;    0,136
235,920; 3051,926;    2,526;   -1,227
236,518; 3291,111;    1,072;    0,318
237,117; 3437,686;    2,890;   -0,227
237,715; 3559,975;    1,163;   -0,500
238,314; 3597,668;    1,708;   -2,318
238,912; 3706,328;    0,526;   -1,409
239,510; 3736,685;    1,162;   -1,227
240,109; 3905,856;   -0,474;    3,773
240,707; 3941,727;   -0,474;    1,227
241,305; 4248,875;   -0,383;    0,136
241,904; 4436,784;   -0,292;   -2,045
242,502; 4424,175;    3,253;   -0,227
243,100; 4346,563;    3,344;   -0,955
243,698; 4592,215;    2,799;    1,682
244,297; 4755,271;   -0,656;    0,682
244,895; 4599,130;   -0,474;   -2,318
245,493; 4880,077;    2,981;   -0,591
246,091; 4898,047;    5,163;   -1,318
246,689; 4881,432;    2,163;    0,591
247,287; 5033,430;   -0,019;   -1,136
247,885; 5299,826;   -1,019;    1,227
248,483; 5376,155;   -0,201;   -0,500
249,081; 5475,947;    0,981;    1,591
249,679; 5614,600;   -1,019;    1,682
250,277; 5858,337;   -2,292;    0,864
250,875; 5808,996;    0,617;   -1,045
251,473; 5850,870;   -0,019;    0,500
252,071; 6040,973;   -0,383;    1,045
252,669; 6168,969;   -1,565;    0,318
253,267; 6386,888;    1,618;    0,773
253,864; 6343,975;    0,617;    0,682
254,462; 6254,162;    1,526;    1,591
255,060; 6222,176;    0,072;    1,318
255,658; 6492,060;   -3,292;   -0,136
256,255; 6891,178;   -0,201;   -2,045
256,853; 6762,098;    2,345;    1,409
257,451; 6740,483;    1,981;    1,864
258,048; 7021,043;    2,072;    1,864
258,646; 6761,456;    0,436;   -1,045
259,243; 6942,644;    2,981;    2,227
259,841; 6988,834;    1,799;    0,318
260,438; 6881,418;    0,254;    0,864
261,036; 7505,637;    0,617;    1,409
261,633; 7415,836;    1,526;    2,227
262,231; 7206,329;   -0,110;   -0,045
262,828; 7292,239;   -0,383;    1,136
263,425; 7331,903;   -1,928;   -0,591
264,023; 7569,176;    1,436;    0,045
264,620; 7153,043;    1,526;   -0,318
265,217; 7465,766;    2,890;    3,136
265,815; 7572,898;    2,527;    2,136
266,412; 7384,906;    0,072;    0,136
267,009; 7414,686;    0,526;    0,773
267,606; 7355,001;    0,345;   -0,955
268,203; 7316,303;   -0,383;   -0,591
268,801; 7572,832;   -0,474;    0,591
269,398; 7838,149;   -0,564;    2,500
269,995; 7830,966;    0,890;    1,591
270,592; 7604,315;    0,799;   -0,500
271,189; 7807,900;    1,981;    0,409
271,786; 7923,269;    2,072;    1,227
272,383; 7748,322;   -0,383;    0,227
272,980; 7896,802;    1,617;    0,318
273,577; 8381,205;    2,162;    1,227
274,174; 7955,689;    1,435;    2,591
274,771; 7913,060;    1,890;   -0,773
275,367; 8070,681;    3,253;    1,409
275,964; 8014,292;   -0,565;   -0,500
276,561; 8142,179;   -2,474;   -1,045
277,158; 8306,509;    1,799;   -1,773
277,755; 8418,219;   -0,110;    0,409
278,351; 7872,568;    0,436;   -1,500
278,948; 8157,763;   -0,201;    0,045
279,545; 8156,948;    0,527;    2,318
280,141; 8764,113;    1,254;   -2,045
280,738; 8600,466;    2,435;   -0,136
281,334; 8810,967;   -0,383;    0,591
281,931; 8211,793;    2,890;   -1,318
282,528; 8356,194;    4,072;   -0,500
283,124; 9000,707;    3,345;   -0,500
283,721; 8857,423;    0,709;    1,409
284,317; 8674,818;    0,163;    2,500
284,913; 9222,448;   -0,110;    0,591
285,510; 9415,085;    2,890;   -0,318
286,106; 9417,881;    2,345;   -0,955
286,703; 9025,803;    0,072;    1,955
287,299; 9218,288;    1,254;   -0,591
287,895; 9430,885;    0,890;   -1,045
288,491; 9962,149;    0,163;    2,136
289,088; 9727,300;    0,163;    2,409
289,684; 9752,878;    2,890;    1,500
290,280; 9746,631;    1,890;    0,682
290,876; 9843,223;    0,163;    5,500
291,472; 9730,532;    2,163;    2,227
292,068; 9823,930;    1,254;    0,227
292,665; 9550,379;   -0,564;    0,773
293,261; 9211,494;   -1,292;    2,136
293,857; 9561,309;    4,072;    2,136
294,453; 9518,681;   -0,928;    0,955
295,049; 9389,798;    0,253;    1,955
295,644; 9429,729;   -1,292;    0,136
296,240; 9331,701;    0,162;   -0,136
296,836; 9395,984;   -0,747;    0,318
297,432; 9671,751;    2,980;   -0,500
298,028; 9658,797;    0,435;    0,773
298,624;10028,102;    0,889;    1,864
299,220;10266,087;    0,435;    0,591
299,815; 9931,062;    0,526;   -0,409
300,411; 9729,434;    0,435;    1,773
301,007; 9738,315;    1,889;    0,227
301,602; 9764,100;    2,071;   -2,318
302,198; 9908,344;    1,435;   -0,773
302,794;10247,036;    1,526;   -0,500
303,389;10369,518;    1,071;    1,045
303,985;10392,523;    1,253;    1,409
304,580;10397,239;    0,889;    1,591
305,176;10361,866;    0,344;    0,136
305,771;10328,426;   -0,929;   -1,227
306,367;10181,801;    3,071;    0,136
306,962;10475,736;    2,889;    1,500
307,558;10227,599;    2,435;    0,136
308,153;10125,844;   -0,383;   -1,136
308,748;10375,221;    0,162;    1,682
309,344;10363,642;    0,253;   -1,318
309,939;10448,946;    2,071;   -1,318
310,534;10697,885;   -2,020;   -1,682
311,130;10627,973;   -0,656;   -2,500
311,725;10382,804;    0,526;   -0,500
312,320;10705,489;    1,253;    0,045
312,915;10559,500;    2,890;   -1,045
313,510;10613,443;    0,526;   -0,500
314,105;11133,049;   -3,565;    1,409
314,700;10528,698;   -1,656;   -1,045
315,295;10173,239;   -0,020;    0,045
315,890; 9770,597;   -0,292;    0,864
316,485;10122,217;    0,253;   -0,318
317,080;10220,967;   -0,929;    1,591
317,675;10678,922;    3,071;   -0,682
318,270;10158,239;    6,889;    3,318
318,865;10143,260;    2,435;    3,045
319,460; 9993,713;   -1,565;    0,591
320,055;10215,609;   -2,565;   -1,227
320,650; 9907,236;   -1,838;   -0,591
321,244; 9969,412;    0,889;   -1,409
321,839;10846,817;    0,980;   -0,227
322,434;10722,125;   -0,111;   -1,591
323,029;10371,520;   -0,474;    1,591
323,623;10235,857;    0,798;    0,773
324,218;10059,304;    2,707;    1,409
324,812; 9962,742;    0,889;    1,591
325,407; 9789,077;   -0,929;    2,045
326,002; 9755,557;    0,526;   -0,409
326,596;10068,489;   -0,656;    1,318
327,191;10260,480;   -0,383;   -1,045
327,785; 9846,670;   -0,747;   -0,227
328,379;10055,504;   -0,383;    0,136
328,974; 9850,891;    1,798;   -3,955
329,568;10106,745;    2,889;   -2,409
330,163; 9918,228;    2,435;    1,045
330,757;10231,494;    0,253;    1,591
331,351; 9593,749;   -0,292;    0,682
331,945; 9914,421;   -0,383;    1,409
332,540; 9541,728;    1,617;   -0,591
333,134; 9689,701;    3,344;    0,773
333,728; 9888,250;    2,799;    0,318
334,322;10208,478;    0,889;   -0,864
334,916; 9528,355;    0,344;    0,955
335,510; 9831,997;   -0,111;   -0,136
336,105;10037,208;   -0,929;    1,591
336,699; 9771,847;   -1,292;    0,591
337,293; 9713,464;    1,071;    0,318
337,887; 9822,331;    0,071;    1,955
338,481; 9928,773;    2,980;    0,591
339,074;10098,103;    2,071;    2,682
339,668; 9912,822;   -0,110;    1,227
340,262;10158,430;    7,708;    3,227
340,856; 9659,393;    1,708;   -0,682
341,450; 9042,452;    0,708;    1,864
342,044; 9880,828;    1,799;    0,136
342,637; 9663,583;    1,162;   -2,136
343,231; 9502,893;   -1,474;    0,682
343,825; 9459,413;   -0,747;   -0,591
344,419; 9413,476;   -0,474;    0,500
345,012; 9250,235;    2,889;    4,045
345,606; 9287,157;   -0,656;    1,591
346,199; 9160,272;   -0,111;   -0,227
346,793; 8719,900;    2,525;    2,045
347,386; 8892,013;    0,889;   -1,136
347,980; 8883,177;   -0,838;   -0,045
348,573; 8702,946;   -1,748;    0,409
349,167; 8429,303;    6,161;    4,773
349,760; 8753,466;    2,252;    2,682
350,354; 8712,663;    1,616;    1,136
350,947; 8496,425;    2,798;    1,682
351,540; 8215,763;    0,616;   -1,409
352,134; 8168,853;   -1,111;    1,136
352,727; 8258,192;   -0,657;    1,136
353,320; 8056,043;    2,343;    0,591
353,913; 7901,576;   -1,929;    1,864
354,507; 8119,743;    0,434;   -1,227
355,100; 8120,870;    0,071;    0,864
355,693; 7451,924;    4,798;    2,409
356,286; 7474,419;    0,980;    2,773
356,879; 7818,242;   -0,475;    1,227
357,472; 7463,747;    0,980;    1,500
358,065; 7637,243;    3,161;    2,500
358,658; 7558,535;    0,798;    2,318
359,251; 7261,675;    0,252;   -0,591
359,844; 6809,579;    0,343;   -1,136
360,437; 7004,077;    0,252;    0,045
361,030; 7235,106;    0,525;   -0,682
361,623; 6862,791;    0,434;    0,318
362,215; 6903,512;    0,979;    2,045
362,808; 6721,021;   -2,293;   -1,682
363,401; 6931,663;    0,798;    0,136
363,994; 6704,830;    3,252;   -1,500
364,586; 6640,193;    0,888;   -1,500
365,179; 6834,142;   -0,203;   -1,136
365,772; 6351,137;   -0,930;    2,045
366,364; 6615,499;    1,524;   -3,227
366,957; 6786,471;    1,342;   -0,045
367,549; 6797,566;   -0,203;   -0,864
368,142; 6492,548;    0,978;   -1,500
368,734; 6687,627;    2,523;   -2,136
369,327; 6650,574;    2,341;   -0,500
369,919; 6553,702;   -1,659;    0,409
370,512; 6387,557;   -1,023;   -0,500
371,104; 6142,258;    2,704;    1,591
371,696; 6327,981;    1,703;   -0,955
372,289; 6382,742;    0,157;    1,136
372,881; 6515,650;    1,156;    1,318
373,473; 6451,341;    4,064;    1,136
374,066; 6266,833;    1,336;    0,500
374,658; 6151,738;    0,879;    1,136
375,250; 6459,775;   -1,668;   -1,409
375,842; 6309,241;   -0,124;   -0,045
376,434; 6217,405;   -2,762;   -0,409
377,026; 6749,022;   -1,855;   -2,500
377,618; 6615,702;    0,779;   -0,682
378,210; 6460,497;    3,141;   -1,955
378,802; 6328,922;    3,412;   -0,591
379,394; 6298,348;    3,411;    0,682
379,986; 6812,121;    1,138;   -0,955
380,578; 6917,052;    1,410;    0,773
381,170; 6328,664;    0,320;    0,045
381,762; 6271,304;   -0,224;    1,409
382,354; 6430,006;   -0,223;   -1,318
382,945; 6534,669;    0,870;    0,318
383,537; 6696,250;    1,144;   -1,955
384,129; 6705,920;    0,963;   -1,136
384,721; 6878,239;    0,418;    0,955
385,312; 6784,075;   -1,399;   -0,955
385,904; 6884,230;   -0,945;    1,591
386,496; 6281,676;    0,691;    1,045
387,087; 6433,054;    0,418;    2,500
387,679; 6446,667;   -0,401;    0,045
388,270; 6578,516;   -2,401;    2,045
388,862; 6685,020;   -0,401;   -0,318
389,453; 6562,322;    1,054;    1,045
390,045; 6821,571;    3,236;   -2,682
390,636; 6755,936;    0,144;   -0,591
391,227; 6624,036;    2,054;   -0,045
391,819; 6711,314;    0,781;    0,773
392,410; 6778,420;    0,600;    0,045
393,001; 6708,126;    1,600;   -1,591
393,593; 6967,469;    0,600;   -0,045
394,184; 6841,538;    0,873;   -0,409
394,775; 6706,904;    1,146;    2,136
395,366; 6930,005;    1,782;    0,773
395,957; 6921,765;   -2,400;    0,136
396,548; 7154,307;    1,054;    2,682
397,139; 7457,515;    2,236;    0,591
397,730; 7206,206;    0,873;    0,955
398,321; 7241,881;    0,509;    0,955
398,912; 7259,735;   -0,764;    0,136
399,503; 7367,800;   -1,945;   -1,409
400,094; 6869,940;   -1,582;    1,682
400,685; 6727,170;    3,600;    0,045
401,276; 6807,430;   -0,400;   -0,955
401,867; 7079,211;   -1,127;    0,773
402,458; 7163,449;    1,509;   -2,318
403,048; 7149,245;    0,146;    0,591
403,639; 6790,172;    1,509;    0,864
404,230; 7039,589;    0,691;    0,318
404,821; 6976,437;   -0,127;    0,045
405,411; 7073,171;   -0,763;   -2,591
406,002; 6690,317;    3,237;   -1,136
406,592; 6588,152;    2,691;    0,045
407,183; 6872,479;    0,328;   -1,500
407,774; 6751,366;    1,419;   -0,136
408,364; 7059,897;    2,600;    0,409
408,954; 6710,914;   -0,036;    1,227
409,545; 6761,068;    1,873;    1,045
410,135; 6319,477;   -1,581;    0,500
410,726; 6472,990;    0,783;    0,318
411,316; 6847,181;    2,237;    0,773
411,906; 6522,558;    0,146;   -0,409
412,497; 6079,727;   -0,490;   -0,045
413,087; 6626,094;    0,783;   -0,227
413,677; 6983,650;   -2,490;    3,864
414,267; 6831,256;   -1,035;    1,409
414,857; 6824,948;    0,419;    4,227
415,448; 7094,558;   -0,763;    0,500
416,038; 6814,293;   -2,945;   -0,591
416,628; 6749,622;    0,965;    0,409
417,218; 6298,212;   -1,762;    3,318
417,808; 6556,631;    0,965;   -0,409
418,398; 6942,633;   -1,035;    2,682
418,988; 6925,504;   -2,217;    0,591
419,578; 7165,772;    3,601;    1,409
420,168; 7455,153;    0,692;   -0,955
420,757; 7089,581;    0,964;   -1,500
421,347; 6775,494;    1,601;   -0,227
421,937; 6891,945;    3,329;    1,409
422,527; 6917,579;    2,602;   -0,773
423,116; 6757,223;    2,692;   -0,045
423,706; 7045,834;    2,965;    0,318
424,296; 7004,240;    1,601;    0,682
424,885; 7403,513;    1,510;   -3,045
425,475; 7635,833;    1,147;   -2,864
426,065; 7553,262;   -1,489;   -0,318
426,654; 7208,443;    0,329;   -0,318
427,244; 7326,044;    1,147;    1,409
427,833; 6816,556;    1,056;   -0,500
428,423; 7236,924;    0,147;    1,136
429,012; 7911,627;    2,420;   -1,136
429,601; 7430,537;    2,057;    0,136
430,191; 7666,745;    2,511;    4,318
430,780; 7341,677;   -1,671;   -0,409
431,369; 7303,334;    1,329;   -0,045
431,959; 7854,615;    1,693;    0,500
432,548; 7624,757;   -1,398;   -0,045
433,137; 7743,412;    0,329;   -1,318
433,726; 8231,330;    0,148;    0,500
434,315; 7686,389;    0,148;    2,409
434,905; 7768,841;    0,693;    1,409
435,494; 7650,104;    3,148;    0,955
436,083; 8059,110;    1,420;   -0,955
436,672; 7938,038;    1,148;    0,500
437,261; 7581,641;    0,512;   -1,955
437,850; 7687,375;   -1,125;    0,682
438,439; 7658,116;    2,239;    1,955
439,027; 7504,129;    3,421;    1,773
439,616; 7817,639;    2,239;    1,227
440,205; 7671,017;    0,057;   -2,136
440,794; 7716,624;   -0,306;   -0,045
441,383; 7929,982;    1,603;   -0,591
441,971; 7814,521;   -0,306;    0,591
442,560; 7703,128;    0,603;   -1,773
443,149; 7456,834;    3,060;   -1,318
443,737; 7617,638;    0,968;   -2,318
444,326; 7837,429;    0,331;    0,318
444,915; 7899,467;   -1,851;    0,864
445,503; 8247,335;    0,058;   -0,318
446,092; 7573,257;    7,876;    2,136
446,680; 8092,668;    1,876;    0,318
447,269; 8220,364;   -1,487;   -0,318
447,857; 8001,214;    2,240;   -1,773
448,445; 8084,908;    2,149;    1,318
449,034; 8308,694;    0,876;   -1,136
449,622; 8452,946;    1,240;    3,500
450,210; 7764,038;    3,149;    2,227
450,799; 8206,708;    2,604;   -0,591
451,387; 8147,744;    1,786;   -0,591
451,975; 7841,067;   -1,305;    0,864
452,563; 7946,061;    0,422;    2,318
453,151; 7987,266;   -1,032;   -1,227
453,739; 7908,741;   -1,577;    0,136
454,328; 7780,447;    0,604;   -2,136
454,916; 7497,496;    1,150;   -0,136
455,504; 7682,381;    3,513;    1,227
456,092; 7823,497;    2,150;   -1,591
456,679; 7833,138;    0,604;    0,682
457,267; 7810,716;    3,604;    1,045
457,855; 7915,621;    3,241;    1,409
458,443; 7644,660;   -0,304;    1,682
459,031; 7819,704;    1,332;    2,409
459,619; 8219,137;   -3,577;    2,864
460,206; 8287,515;   -0,759;    2,045
460,794; 8387,334;   -0,668;   -0,227
461,382; 8586,178;    0,878;   -0,864
461,970; 8201,950;    0,605;    1,864
462,557; 8238,288;    0,878;   -0,682
463,145; 8410,770;   -0,304;   -1,682
463,732; 8567,003;    2,514;   -1,045
464,320; 8454,702;    1,514;   -3,045
464,907; 8172,232;    0,423;   -0,773
465,495; 8047,195;    2,696;   -1,227
466,082; 8199,516;    2,060;   -0,045
466,670; 8062,613;    2,605;    1,227
467,257; 8462,129;    0,060;    2,045
467,844; 8626,599;    1,514;    0,045
468,432; 8653,628;   -0,031;    3,500
469,019; 8191,650;    1,606;   -1,773
469,606; 8624,874;    0,969;    3,682
470,193; 8503,818;    2,151;    0,227
470,780; 8106,680;    0,333;    0,864
471,368; 8407,868;   -1,212;   -0,773
471,955; 8220,967;    1,060;   -0,682
472,542; 7861,987;   -0,303;   -1,136
473,129; 8091,727;   -0,485;    0,136
473,716; 7871,851;    0,060;    0,591
474,303; 8028,263;    1,333;   -0,864
474,890; 8290,022;    2,333;   -0,500
475,477; 8296,269;   -0,576;    0,409
476,064; 8202,566;    0,697;   -1,591
476,650; 8144,570;    2,152;    0,318
477,237; 7971,115;    1,879;    0,955
477,824; 8118,466;    3,879;    0,864
478,411; 8160,187;    0,606;   -0,318
478,997; 8332,519;    0,606;   -0,773
479,584; 8389,954;   -0,666;   -0,409
480,171; 8987,752;    1,243;   -0,773
480,757; 8696,569;   -0,848;    0,773
481,344; 8951,596;    0,334;    0,409
481,931; 8473,772;   -0,393;    1,045
482,517; 9341,217;    0,425;    0,318
483,104; 9770,203;    1,334;    2,864
483,690;10023,231;    0,243;    0,045
484,276;10337,244;    0,698;    0,227
484,863;10077,973;    2,152;    1,136
485,449;10621,773;    0,152;    0,318
486,035;10616,166;   -0,666;   -0,136
486,622;11005,155;   -2,393;    0,045
487,208;10938,564;    1,334;    1,500
487,794;10801,277;    0,971;    0,318
488,380;10907,380;    0,698;   -1,409
488,967;10963,012;   -1,120;   -0,409
489,553;11047,191;   -1,029;   -1,409
490,139;11174,580;    0,971;    0,773
490,725;10722,838;    0,789;   -0,227
491,311;10361,011;    1,516;    3,045
491,897; 9719,948;   -0,665;    1,500
492,483; 9609,075;    0,426;    1,227
493,069; 9491,295;    5,426;    0,864
493,655; 9427,008;    1,789;    0,682
494,241; 9337,363;    1,517;   -0,955
494,826; 9688,121;    0,335;   -1,045
495,412; 9186,326;    0,335;   -0,682
495,998; 9312,795;    0,971;   -0,318
496,584; 9413,729;    2,244;    1,045
497,169; 9397,019;    2,335;   -0,682
497,755; 9394,599;    1,244;    1,227
498,341; 9890,313;    2,153;    0,318
498,926; 9484,224;    2,881;    1,955
499,512; 9651,670;   -0,028;    2,955
500,097; 9726,297;   -0,574;   -0,318
500,683; 9660,551;   -0,028;    2,136
501,268;10008,532;    1,881;   -0,955
501,854; 9784,255;   -0,119;    1,227
502,439; 9697,300;   -0,573;   -1,773
503,024; 9825,154;    1,608;    0,500
503,610; 9912,422;    1,335;   -0,682
504,195; 9916,577;    1,245;    1,955
504,780;10033,538;    2,335;    1,227
505,366; 9880,119;    4,063;    2,864
505,951; 9598,204;   -1,119;    1,045
506,536; 9656,808;    1,427;   -3,682
507,121; 9620,630;    1,699;   -0,318
507,706;10098,658;   -0,392;    1,045
508,291;10420,637;   -2,937;    1,136
508,876; 9888,954;   -0,482;    2,591
509,461; 9424,306;    1,427;   -0,773
510,046; 9833,323;   -0,391;    0,318
510,631;10032,318;   -0,119;   -0,773
511,216; 9706,818;   -0,664;   -0,500
511,801;10040,085;   -0,755;    2,591
512,386;10298,853;    0,972;    0,500
512,971;10224,626;    0,427;    0,955
513,555; 9835,186;    1,154;   -1,500
514,140;10555,334;    1,336;   -3,136
514,725;10514,635;    1,791;   -1,136
515,309;10642,216;    1,064;    0,318
515,894;10167,305;   -0,300;   -2,227
516,479;10579,094;    1,973;   -0,955
517,063;10359,738;    0,882;    1,227
517,648;10483,836;    0,155;   -1,136
518,232;10138,642;   -1,300;   -1,409
518,817;10508,759;    1,337;    1,682
519,401;10690,408;    0,700;    0,591
519,985;10204,304;    2,700;    1,136
520,570;10123,402;   -0,118;   -1,955
521,154;10348,446;    0,064;    0,591
521,738;10495,855;    1,064;    2,409
522,323;11057,573;   -0,390;    1,682
522,907;10795,804;    2,428;   -0,136
523,491;10544,195;    1,155;    0,955
524,075;10508,312;    0,428;    0,591
524,659;10618,512;    0,973;    0,591
525,243;10136,087;    0,883;    0,409
525,827;10328,540;    0,883;   -0,045
526,411;11057,239;    1,155;   -0,136
526,995;11242,278;    0,337;    1,409
527,579;10897,133;    1,974;   -1,045
528,163;11182,000;    0,428;   -1,500
528,747;11085,651;    1,065;   -0,773
529,331;11325,689;    0,883;   -1,409
529,915;11505,163;    2,338;    0,955
530,499;11457,322;    0,247;    1,227
531,082;11170,084;    1,065;    1,591
531,666;10708,111;    0,520;    0,773
532,250;11290,040;    0,428;    2,682
532,833;11549,193;    0,610;    2,773
533,417;11424,083;    1,247;    0,864
534,001;11386,614;    0,429;   -0,318
534,584;12033,649;    1,974;    0,500
535,168;11844,146;    3,247;    1,409
535,751;11864,295;    4,520;    0,045
536,334;11360,741;    4,520;   -0,409
536,918;11943,919;    1,974;    1,591
537,501;11977,805;    1,520;    1,318
538,085;11987,475;    1,702;    1,045
538,668;12077,228;    0,883;    2,409
539,251;12403,799;    3,156;    3,773
539,834;12406,065;    0,156;    0,773
540,418;12323,315;    3,247;    4,318
541,001;12417,916;    2,702;    1,773
541,584;12389,445;    1,429;    2,227
542,167;12104,527;    0,702;    2,955
542,750;12209,178;    0,793;   -0,773
543,333;11816,004;    1,429;    2,136
543,916;12527,764;   -0,298;    2,500
544,499;13021,257;    2,520;    0,227
545,082;13031,170;    0,248;    3,591
545,665;13147,726;   -0,207;    1,500
546,248;13417,822;    0,520;   -0,318
546,830;13121,813;   -1,752;    1,955
547,413;13495,486;    0,157;   -0,773
547,996;13996,825;    0,157;    0,500
548,579;13757,715;   -0,843;    0,955
549,161;13543,356;    0,884;    2,682
549,744;13324,428;    0,612;    0,409
550,326;13796,113;    0,885;   -1,136
550,909;13629,249;    2,339;    0,591
551,492;13962,967;    0,521;    0,227
552,074;13760,558;   -0,024;   -1,318
552,657;14240,968;    2,430;    0,045
553,239;14060,499;   -3,024;   -0,773
553,821;13957,830;   -1,570;    1,045
554,404;13519,693;   -0,024;    1,136
554,986;13812,349;    2,248;    1,045
555,568;14369,789;    0,430;   -0,955
556,151;13672,360;    4,067;   -0,227
556,733;13792,091;   -1,388;   -0,864
557,315;14195,052;    4,703;    0,500
557,897;14013,295;    0,521;   -0,500
558,479;14141,821;    1,703;    1,318
559,061;14271,551;    1,067;   -0,864
559,643;14557,096;   -0,297;    0,045
560,225;14853,884;   -0,388;    2,864
560,807;14872,369;    0,340;    0,318
561,389;14433,401;   -1,206;    2,318
561,971;15057,780;   -0,660;    2,136
562,553;14880,463;    0,613;    1,591
563,135;14996,458;    1,249;    1,136
563,717;14629,183;    3,158;    1,136
564,298;15215,905;    3,976;   -0,045
564,880;14936,246;    0,340;   -1,409
565,462;15086,064;    1,977;    1,318
566,043;16092,421;   -0,933;    2,318
566,625;15669,533;    4,067;    1,227
567,207;15507,244;    0,704;    1,682
567,788;16444,956;   -0,114;    1,500
568,370;17141,223;   -1,841;   -0,500
568,951;16894,785;   -0,569;    0,227
569,533;17654,746;    0,977;   -0,500
570,114;18006,799;   -0,296;    0,682
570,695;18419,885;   -0,478;   -1,318
571,277;18755,450;   -0,205;   -1,682
571,858;19409,775;    2,704;   -1,136
572,439;20119,572;    0,795;   -1,045
573,021;20216,658;    0,432;   -2,773
573,602;20617,478;    1,795;    0,318
574,183;21392,271;   -0,114;    2,227
574,764;21414,493;    2,068;    0,409
575,345;21824,624;    0,250;   -0,136
575,926;22357,516;    2,704;    0,136
576,507;22313,317;    2,704;   -0,227
577,088;23309,021;    1,704;    1,682
577,669;23255,051;    1,704;    1,955
578,250;23859,907;   -0,750;   -1,045
578,831;24371,984;   -0,841;   -2,227
579,412;24539,077;   -1,205;    0,955
579,993;25382,535;    1,432;    0,227
580,573;25684,265;   -0,023;   -0,955
581,154;24674,690;    1,613;   -0,591
581,735;25460,504;    0,341;    0,773
582,315;24943,322;    0,523;    2,136
582,896;25291,129;   -1,750;    1,227
583,477;24812,077;    0,614;    1,227
584,057;25021,603;    1,159;    0,955
584,638;25257,081;   -2,750;    2,318
585,218;25265,009;    2,886;    2,682
585,799;25422,110;    1,977;   -0,227
586,379;25443,203;    1,250;    1,591
586,959;24360,863;    2,613;    0,318
587,540;23843,069;    0,432;    2,227
588,120;23454,319;   -1,113;   -0,045
588,700;22609,737;    2,977;    2,136
589,281;22912,309;    1,250;   -0,955
589,861;22783,751;   -0,296;   -1,682
590,441;22644,903;   -1,477;   -2,682
591,021;21747,647;    1,432;   -2,591
591,601;21989,647;    0,431;    0,500
592,181;22062,027;   -1,296;   -0,773
592,761;21352,226;    2,250;    1,409
593,341;21374,406;    1,522;    0,045
593,921;21371,180;   -0,569;    1,591
594,501;21247,341;    1,250;    1,318
595,081;21094,063;    0,522;   -0,318
595,661;21411,535;    1,068;    0,955
596,240;21888,761;   -1,023;    0,136
596,820;21507,276;    2,613;    1,955
597,400;21596,440;    1,977;    0,773
597,980;21836,498;   -0,750;    1,045
598,559;21912,321;    0,341;   -0,227
599,139;21614,376;   -0,750;   -1,227
599,718;21527,104;    0,795;   -0,409
600,298;21769,163;   -2,387;    0,682
600,877;21984,162;    4,795;    1,409
601,457;22206,496;    0,340;    1,136
602,036;22135,486;    1,795;    2,045
602,616;22301,429;    2,250;    1,682
603,195;22602,699;    0,431;    3,500
603,774;22177,640;   -0,296;    2,045
604,354;22023,756;    2,522;   -0,500
604,933;21630,801;    0,250;    1,864
605,512;21725,306;    2,340;    0,591
606,091;21753,096;    1,886;    3,773
606,671;22528,633;    0,249;    0,773
607,250;21720,591;    1,431;    3,136
607,829;21922,804;    1,158;    3,227
608,408;21761,570;    4,613;    2,591
608,987;20900,861;    2,704;    3,409
609,566;21177,787;    0,341;   -2,500
610,145;21296,935;    2,885;    0,682
610,723;21660,146;    1,613;    6,864
611,302;20997,869;    1,067;    1,682
611,881;20546,154;    5,158;   11,227
612,460;21310,068;    0,795;    3,955
613,039;21679,695;    1,703;    2,045
613,617;20525,834;    0,886;    4,773
614,196;20648,364;    1,613;    1,227
614,775;21028,532;    1,249;    2,409
615,353;20990,105;   -1,660;    0,864
615,932;20769,109;    0,249;    2,409
616,510;21311,372;    0,158;    0,591
617,089;20850,477;    8,794;   17,591
617,667;20661,724;    4,885;    6,136
618,246;20539,728;   -1,115;    1,318
618,824;20681,802;    1,612;   -0,955
619,402;20283,327;    0,431;   -1,773
619,981;20677,329;    1,067;   -1,045
620,559;20557,950;    0,794;    1,682
621,137;20145,345;    3,067;    1,864
621,715;20099,102;    3,703;   -0,682
622,293;20084,707;    1,885;   -0,773
622,871;20531,506;    0,340;    0,500
623,450;20164,901;    0,430;   -0,864
624,028;20068,358;   -0,388;   -0,955
624,606;19692,432;    2,339;    1,682
625,183;20089,431;   -0,661;   -1,136
625,761;19755,634;    1,885;    1,136
626,339;20065,939;    2,339;    2,591
626,917;20386,168;    0,339;   -0,045
627,495;20441,856;    2,794;    1,318
628,073;19950,923;    5,248;    2,864
628,650;19670,302;    3,067;    2,136
629,228;20066,554;    1,248;    4,409
629,806;19501,169;   -0,024;    1,136
630,383;19698,686;    0,066;   -0,318
630,961;19569,192;   -2,206;   -0,955
631,539;19309,978;   -2,479;    0,227
632,116;18742,828;   12,703;   15,409
632,694;19235,917;    4,885;    6,500
633,271;19481,889;    1,975;    2,682
633,848;19435,320;    1,430;    2,045
634,426;19479,531;    1,521;    1,773
635,003;18742,450;   -0,207;   -0,409
635,580;18919,898;    1,884;    3,682
636,158;19470,920;    3,793;    1,227
636,735;19448,457;    3,339;   -0,500
637,312;19574,282;    0,521;   -0,682
637,889;19646,704;    2,248;   -0,682
638,466;19208,933;    0,066;   -0,409
639,043;19201,478;    1,702;   -1,136
639,620;19425,749;    0,611;   -0,955
640,197;19711,520;    1,612;    1,682
640,774;19872,058;    1,430;    1,136
641,351;20147,414;    0,612;    1,136
641,928;19683,861;    2,794;    1,409
642,505;19396,672;    0,794;   -0,500
643,082;19517,028;    1,885;    1,227
643,658;18629,930;    1,157;    1,500
644,235;19262,831;   -2,479;    2,500
644,812;19508,460;    1,794;    0,773
645,388;19250,907;    1,612;    1,409
645,965;19313,263;    1,521;    1,682
646,542;19426,165;    3,430;   -0,227
647,118;19463,248;    3,703;   -0,955
647,695;19701,968;    0,339;    1,136
648,271;19589,233;   -2,115;    0,500
648,848;19807,590;    0,248;    2,227
649,424;19666,128;    0,976;    1,318
650,000;19439,120;   -0,388;   -1,045
650,577;19282,385;    0,158;   -0,955
651,153;19670,014;   -1,115;    0,955
651,729;20526,916;    0,521;    0,864
652,305;20573,726;    1,339;    2,773
652,881;23978,901;   -1,297;    1,136
653,458;29366,984;    0,249;    0,227
654,034;32360,158;    0,703;    1,591
654,610;33561,151;    0,339;    0,773
655,186;34699,143;    1,612;    3,045
655,762;34399,409;   -1,842;    0,409
656,338;34418,674;    0,703;    0,136
656,913;35373,666;   -0,297;    0,409
657,489;34716,841;    0,249;   -0,318
658,065;34673,924;    0,794;   -1,591
658,641;35224,735;    2,158;   -0,864
659,217;34626,454;    2,067;    0,409
659,792;34151,174;   -1,751;   -0,409
660,368;34517,349;   -0,388;   -0,682
660,944;34380,068;    1,794;    1,227
661,519;30797,334;    0,522;    0,409
662,095;25972,508;   -0,206;    0,591
662,670;22214,864;   -0,206;   -0,136
663,246;21303,856;   -0,660;   -0,409
663,821;20740,758;    0,431;    1,682
664,396;20227,569;    0,613;    1,864
664,972;20461,016;   -0,660;   -0,500
665,547;20752,008;    3,794;    0,136
666,122;20738,910;    1,340;    0,318
666,698;21000,266;    2,431;    0,318
667,273;20365,531;    0,885;    0,136
667,848;21093,251;    0,340;    1,500
668,423;20863,334;    1,795;    2,318
668,998;21345,236;    0,976;   -0,682
669,573;21787,683;    2,067;   -1,500
670,148;21618,857;    1,885;   -0,682
670,723;21381,213;   -0,024;    0,318
671,298;21740,570;   -1,296;    1,045
671,873;21844,926;   -0,296;   -0,136
672,448;21814,009;    1,704;    0,136
673,023;22123,638;    0,249;   -0,227
673,597;22398,176;    2,704;    2,318
674,172;22229,350;    2,431;    0,318
674,747;21765,252;   -0,205;   -1,045
675,321;21564,517;   -0,933;    3,318
675,896;21215,691;    2,158;    1,045
676,471;22055,047;    2,522;    1,591
677,045;21843,494;   -0,296;    0,682
677,620;21845,760;    2,158;    1,136
678,194;22182,479;    0,249;    1,136
678,769;21821,017;    0,886;   -0,318
679,343;22024,828;   -0,023;    1,773
679,917;21884,639;    0,340;    1,955
680,492;21926,177;    0,249;    3,227
681,066;22025,987;    0,613;    0,409
681,640;22059,707;    1,795;   -0,318
682,214;22788,427;    2,340;    0,500
682,788;22362,238;    0,613;   -0,773
683,363;22275,503;    1,977;    1,682
683,937;21957,404;    0,886;   -0,318
684,511;22697,670;   -1,023;   -0,591
685,085;22433,844;   -1,478;    0,318
685,659;22136,109;    1,431;    0,864
686,232;22385,374;    1,159;   -0,318
686,806;22153,730;    2,159;    0,409
687,380;22710,450;   -1,932;    0,591
687,954;22898,534;    2,432;    1,136
688,528;22606,617;    2,613;    1,955
689,101;23335,337;    0,432;    1,045
689,675;22913,784;    0,886;   -0,136
690,249;22332,595;    3,432;    0,409
690,822;22651,042;    1,159;    0,318
691,396;22765,579;    2,068;    1,227
691,969;22304,299;    2,523;    0,136
692,543;22729,019;   -0,568;   -1,955
693,116;22402,921;   -0,659;   -1,409
693,690;22285,822;   -0,296;    0,500
694,263;22797,269;    2,341;    2,955
694,836;22786,534;    2,795;    3,591
695,410;21566,072;    1,159;    1,773
695,983;21982,065;    1,614;    0,591
696,556;21952,421;   -0,750;   -1,045
697,129;22273,777;   -1,114;    1,409
697,703;21925,406;    1,341;    1,955
698,276;21951,126;    1,705;   -0,773
698,849;21789,573;   -1,023;    1,409
699,422;22153,838;    1,250;    0,591
699,995;21929,194;   -0,659;    0,136
700,568;22351,278;   -0,204;    3,045
701,140;22378,816;   -1,841;    1,682
701,713;22148,535;    0,341;    2,409
702,286;21905,891;    0,796;    0,864
702,859;21751,157;    0,614;   -0,591
703,432;21017,149;   -0,841;    0,682
704,004;21450,596;    1,978;    0,318
704,577;21365,498;    1,068;    0,136
705,150;21850,490;    0,887;    2,500
705,722;21693,028;    1,523;   -3,227
706,295;21532,293;    1,432;   -0,591
706,867;21376,922;    0,250;    1,955
707,440;21552,460;   -0,113;   -0,409
708,012;21770,635;   -0,022;    0,591
708,584;21690,536;    2,705;    0,227
709,157;21947,074;    1,160;   -0,591
709,729;21691,794;    1,069;    2,045
710,301;22432,150;   -1,204;    0,045
710,874;22474,233;    0,341;   -0,227
711,446;21436,044;   -0,295;    0,864
712,018;21257,855;   -3,022;    0,500
712,590;21080,756;   -0,204;    1,682
713,162;21567,021;   -0,477;    1,318
713,734;21767,105;    1,796;   -2,045
714,306;21685,825;    0,342;   -0,409
714,878;20496,726;   -0,295;    0,864
715,450;21306,173;   -0,113;    0,864
716,022;21535,529;    2,433;    1,318
716,593;21681,158;    0,978;    0,591
717,165;21611,060;    1,796;   -1,227
717,737;21318,325;    0,796;    0,409
718,309;21037,772;    1,160;   -0,045
718,880;21037,128;   -1,295;   -1,409
719,452;21205,484;    0,887;   -1,591
720,024;20857,840;    1,705;   -0,591
720,595;21384,924;    2,978;    0,955
721,167;20997,462;    1,160;   -2,045
721,738;20525,091;    2,069;   -1,045
722,309;20560,992;    1,251;   -1,227
722,881;20364,167;    2,705;    0,773
723,452;20895,068;    1,251;    2,864
724,023;21088,697;    1,524;    2,682
724,595;20893,053;    2,342;    0,682
725,166;20667,318;    1,524;   -0,409
725,737;20311,129;    1,887;    0,227
726,308;20419,667;    0,797;    0,318
726,879;20791,569;    1,069;    1,227
727,450;20655,288;   -2,022;   -0,045
728,021;20608,917;    1,069;    0,682
728,592;20480,182;    1,160;    0,500
729,163;20759,811;    1,433;   -0,136
729,734;20736,077;    2,160;   -0,227
730,305;21036,705;    0,615;    0,136
730,876;21366,789;    0,888;    2,955
731,447;21123,509;    0,797;    2,682
732,017;21183,592;   -0,840;    1,864
732,588;20758,584;   -0,021;    1,227
733,159;20895,759;    3,615;   -1,045
733,729;20709,933;    1,251;    0,409
734,300;20083,653;    0,160;    0,864
734,870;20465,009;   -1,385;    0,591
735,441;20940,729;    0,888;   -0,591
736,011;20778,903;    1,070;   -1,591
736,582;20731,986;    1,251;    0,045
737,152;20211,888;    0,979;   -2,045
737,722;20650,971;    1,070;   -0,682
738,293;20370,328;   -2,021;    1,318
738,863;20263,138;    1,797;    2,318
739,433;20128,313;    4,524;    0,318
740,003;20696,941;    1,524;   -0,682
740,573;20155,116;    2,252;   -1,591
741,143;20142,563;    3,615;    0,318
741,713;20866,555;    0,252;   -0,500
742,283;20575,548;    1,706;    1,591
742,853;20422,631;    0,524;    1,591
743,423;19942,987;    0,161;    0,045
743,993;20004,252;    1,070;    1,500
744,563;19470,881;    2,524;   -0,864
745,133;19427,783;   -0,112;   -0,864
745,702;20008,412;    2,797;    1,773
746,272;19318,859;    0,434;    0,591
746,842;19153,306;   -0,748;   -0,591
747,411;19523,117;   -0,839;   -0,318
747,981;19672,745;   -0,930;    0,500
748,551;19702,829;   -0,021;   -1,045
749,120;19573,821;   -0,112;   -0,227
749,690;19921,632;    2,161;    2,409
750,259;20263,715;    0,979;    2,955
750,828;20124,526;    4,070;   -1,955
751,398;20342,155;   -0,112;   -0,045
751,967;19917,966;    2,888;    0,409
752,536;20068,867;    1,161;   -0,227
753,105;20477,860;   -1,384;    0,227
753,675;20268,943;   -0,112;    1,773
754,244;20206,845;    0,888;    3,591
754,813;20257,473;    0,979;    1,227
755,382;19862,920;    0,798;    0,955
755,951;20304,640;   -0,112;    3,682
756,520;19945,087;    2,525;    1,864
757,089;20389,716;    1,888;    0,500
757,658;20498,527;    2,434;    1,227
758,227;20528,428;   -1,111;    0,318
758,795;20817,512;   -1,021;    1,136
759,364;21042,686;    0,525;   -0,591
759,933;20144,497;    1,343;   -0,045
760,501;19725,580;    0,252;   -1,318
761,070;20084,391;   -0,293;   -1,409
761,639;20782,656;    1,434;    1,318
762,207;20162,376;    0,889;   -0,955
762,776;20091,914;    2,889;    0,864
763,344;20081,543;    0,071;    0,591
763,913;19243,808;    1,616;    1,409
764,481;19931,164;    1,980;   -0,136
765,049;19774,975;    0,616;    1,409
765,618;19681,967;    1,434;    0,318
766,186;19814,051;    2,434;    0,136
766,754;20002,407;    1,798;    1,864
767,322;19042,490;    1,162;    0,409
767,890;19035,664;    0,525;   -1,773
768,459;19446,748;    2,616;   -0,318
769,027;19560,559;    2,525;    3,409
769,595;18657,278;    2,616;    2,591
770,163;19063,543;    3,344;    2,955
770,730;18926,263;    2,525;   -0,136
771,298;18761,801;    1,162;   -1,409
771,866;18864,794;    0,253;    4,955
772,434;19154,059;    1,162;   -1,864
773,002;19299,961;    2,616;    0,682
773,569;18981,680;    1,071;    1,682
774,137;18777,945;    0,889;   -0,045
774,705;19501,574;   -0,747;   -0,136
775,272;19106,294;    0,253;    0,682
775,840;18964,650;   -0,111;    2,682
776,407;18497,370;   -0,293;    1,955
776,975;18099,817;    1,162;    0,318
777,542;19017,355;    2,162;   -0,045
778,110;18903,438;    0,707;   -0,045
778,677;18607,067;    1,071;   -0,864
779,244;18358,514;   -1,020;    1,045
779,812;18427,234;    0,980;    0,864
780,379;18361,954;    2,435;    1,136
780,946;18603,492;    2,617;   -0,773
781,513;18841,302;   -0,565;    0,318
782,080;18272,840;    1,253;    2,864
782,647;18933,651;    1,708;    3,045
783,214;18612,644;   -0,201;    3,864
783,781;18259,818;    1,708;   -0,682
784,348;18166,810;    0,253;    1,500
784,915;18537,621;   -1,474;    0,318
785,482;18326,523;    2,708;    2,591
786,049;18745,606;    1,071;   -0,591
786,615;18863,144;    1,708;   -0,955
787,182;18618,227;   -3,201;   -0,682
787,749;18358,129;   -2,201;    1,409
788,315;17735,031;    0,253;   -0,409
788,882;18029,296;    0,981;   -1,227
789,448;18615,197;    1,435;   -0,955
790,015;18685,553;    1,799;    3,227
790,581;18275,091;    0,708;    0,227
791,148;18156,538;    1,344;    1,045
791,714;18373,531;   -1,019;    3,136
792,280;18083,705;    3,708;    1,591
792,847;17731,061;   -0,928;    2,500
793,413;18185,508;   -0,110;   -0,318
793,979;17798,319;    1,526;   -1,318
794,545;17946,221;    2,981;    2,682
795,111;17400,940;    2,435;    1,318
795,678;17557,478;    3,526;   -1,682
796,244;17258,835;    2,799;    0,136
796,810;17721,827;    0,799;    0,773
797,375;17465,729;   -0,292;   -2,136
797,941;17479,812;   -1,110;    0,591
798,507;17591,714;    0,254;   -0,955
799,073;17189,433;    2,708;    0,591
799,639;17295,426;    1,435;    3,136
800,205;17365,691;   -1,565;    2,682
800,770;16952,956;    1,345;    1,773
801,336;16989,676;    2,981;   -0,955
801,901;16780,578;    6,072;    3,136
802,467;17285,025;    0,526;    2,045
803,033;16647,472;   -0,019;    0,864
803,598;16845,101;    1,072;   -1,045
804,163;16899,366;    0,708;   -0,318
804,729;16874,995;   -0,110;    1,136
805,294;17199,987;    1,072;    2,227
805,859;17030,252;    0,890;   -0,409
806,425;16592,790;    3,890;    2,682
806,990;16271,237;    1,890;    4,318
807,555;16700,230;   -0,110;    2,591
808,120;16605,041;   -1,292;   -0,409
808,685;16664,215;    1,072;   -2,500
809,250;16215,025;    2,072;   -0,500
809,815;16472,018;   -0,201;    0,682
810,380;16928,829;    0,981;    1,591
810,945;17401,003;    2,890;    2,045
811,510;16758,814;   -0,200;    1,591
812,075;16465,897;    2,800;   -1,409
812,640;16482,980;    3,709;    1,409
813,204;16583,064;    2,163;   -0,227
813,769;16994,693;    0,254;   -0,045
814,334;16454,958;    0,527;    0,864
814,898;16558,587;    1,981;    0,591
815,463;16396,943;    0,981;   -0,773
816,027;16357,117;    1,345;   -2,318
816,592;16514,292;    2,163;   -2,045
817,156;16030,011;   -2,200;    1,136
817,721;15920,458;    0,982;    2,318
818,285;15925,633;    0,618;    1,500
818,849;16479,352;   -0,018;    1,682
819,414;16374,527;    0,073;    2,955
819,978;15988,883;   -0,291;    1,773
820,542;16539,421;    2,891;    0,500
821,106;16362,050;    2,800;    0,682
821,670;16416,406;    2,709;    2,591
822,234;16188,216;    1,073;    1,409
822,798;15635,936;   -0,836;    0,500
823,362;15661,565;    1,527;    4,227
823,926;15074,012;   -0,018;    1,136
824,490;15238,641;    3,527;   -0,682
825,054;15669,361;    2,527;   -1,136
825,618;15342,444;   -1,200;   -1,500
826,181;15275,982;    0,982;   -1,318
826,745;15156,247;   -0,745;   -1,045
827,309;15530,967;    2,255;    1,318
827,872;15038,687;    0,527;    0,955
828,436;15891,316;    1,982;   -0,773
828,999;16010,763;    2,436;    1,227
829,563;14988,846;   -0,654;    1,136
830,126;14812,293;   -0,018;   -0,591
830,690;14836,922;    0,709;    2,864
831,253;14393,369;   -0,473;    2,227
831,816;14504,543;   -0,018;    0,500
832,380;14477,536;    1,164;    0,864
832,943;14672,256;    3,073;   -0,500
833,506;14172,066;    0,255;   -1,227
834,069;14875,695;    2,164;   -0,955
834,632;15028,051;   -2,200;    1,318
835,195;14900,498;    1,346;    0,955
835,758;14204,582;    0,709;    1,955
836,321;14045,574;    1,073;   -1,045
836,884;14130,203;   -1,291;   -0,955
837,447;14199,014;    0,528;    1,773
838,010;14458,915;    1,800;    3,227
838,573;14715,726;    0,528;    0,773
839,135;14696,809;   -0,109;   -0,955
839,698;14216,166;    2,528;    0,409
840,261;13788,249;    0,255;   -0,227
840,823;13685,605;   -0,927;    0,864
841,386;13956,325;   -0,018;   -2,409
841,948;13864,772;    0,255;    1,773
842,511;13629,310;    0,255;    1,682
843,073;13732,302;    2,982;    0,227
843,636;13567,386;    0,619;   -0,227
844,198;13493,742;    1,255;    0,591
844,760;13631,825;    0,619;    1,955
845,322;13324,272;    0,164;    1,136
845,885;13687,356;   -0,290;    0,591
846,447;14096,621;    0,710;    0,227
847,009;13732,795;    3,983;   -0,682
847,571;13974,242;    1,346;   -2,045
848,133;14081,417;   -0,199;   -1,864
848,695;13911,136;    2,346;    1,409
849,257;13538,311;    1,346;   -1,682
849,819;13692,849;    2,983;   -0,409
850,381;13697,568;    1,801;   -0,864
850,942;13972,652;    1,892;   -0,591
851,504;13919,735;    0,983;    0,227
852,066;13945,455;    1,619;   -1,591
852,628;13613,720;    0,165;    1,955
853,189;13149,349;    0,256;    2,682
853,751;13311,160;   -0,654;    1,409
854,312;13110,789;    1,256;   -1,682
854,874;13523,599;   -0,108;   -0,773
855,435;14030,683;    0,528;   -1,682
855,997;14162,130;    3,983;   -0,136
856,558;13498,486;    0,801;    1,773
857,119;13619,115;   -0,744;    2,864
857,681;13348,653;   -0,108;    0,318
858,242;13346,463;    1,347;   -2,136
858,803;13748,728;    1,074;   -0,773
859,364;14303,448;    0,892;   -4,773
859,925;13727,259;   -0,290;   -0,955
860,486;13611,524;    0,529;   -0,955
861,047;13362,698;    0,165;   -1,227
861,608;13207,600;    0,165;   -0,773
862,169;13379,411;   -0,562;   -0,045
862,730;13122,494;   -0,290;    1,409
863,291;13360,305;    0,438;   -0,500
863,852;13632,297;   -0,926;    1,955
864,412;13197,199;   -1,835;   -0,864
864,973;11974,737;    1,892;    0,500
865,534;11857,275;    2,074;    0,227
866,094;13176,358;    2,620;    0,227
866,655;12880,987;    4,711;    3,318
867,215;13139,252;    0,074;    0,136
867,776;13021,427;   -1,199;   -0,136
868,336;13066,146;    1,529;    0,136
868,897;12682,230;    3,438;    1,682
869,457;12454,040;    3,256;    0,318
870,017;12693,851;    2,438;   -1,227
870,578;13124,025;    1,893;    0,773
871,138;12794,382;    2,620;   -0,955
871,698;12377,283;   -0,562;   -1,318
872,258;12274,094;    0,711;   -2,864
872,818;12644,177;    2,347;    0,045
873,378;12589,624;   -2,198;    1,045
873,938;12204,708;    4,984;    0,500
874,498;12487,700;    1,256;   -1,955
875,058;12415,511;    4,347;    1,773
875,618;12297,049;    1,438;   -2,682
876,177;12243,314;   -0,471;    0,136
876,737;11895,761;   -0,289;    1,955
877,297;11927,208;    2,711;    1,955
877,856;11934,201;    2,529;    0,318
878,416;11902,920;    2,438;   -0,136
878,976;12095,095;    3,438;    0,409
879,535;12275,087;    4,529;    3,136
880,095;12085,898;    1,347;    0,045
880,654;12130,618;    0,347;    1,318
881,213;12245,701;    2,347;    1,500
881,773;11906,148;    1,984;    2,682
882,332;12223,413;    6,075;    5,136
882,891;12065,769;    0,711;    2,136
883,451;12452,853;   -2,016;    1,682
884,010;12005,118;   -1,107;   -0,409
884,569;12097,838;   -2,289;   -0,045
885,128;12204,194;   -0,743;   -1,864
885,687;12259,368;   -0,743;    0,682
886,246;12008,361;    2,620;    2,136
886,805;11763,899;    1,620;    2,045
887,364;12011,891;    1,166;   -0,500
887,922;12324,338;   -0,016;    0,045
888,481;11856,694;    1,530;    0,591
889,040;12139,505;    3,711;    2,136
889,599;12643,952;    2,166;    1,409
890,157;12740,854;    2,166;    2,409
890,716;12388,391;    2,166;    0,227
891,274;12231,020;    0,075;   -1,136
891,833;12626,195;    1,166;    0,864
892,391;12473,914;    1,802;    0,500
892,950;12573,816;    0,166;   -0,773
893,508;12900,354;    0,984;   -0,409
894,067;12290,437;   -0,379;    0,136
894,625;12203,884;   -1,016;   -1,500
895,183;12400,604;   -0,198;   -0,682
895,741;12339,960;    2,257;   -1,773
896,299;12186,316;    1,621;   -2,409
896,858;12329,491;    1,530;   -1,591
897,416;12461,301;    0,166;   -1,318
897,974;12275,748;   -2,197;    0,318
898,532;12411,195;    6,530;    2,682
899,089;12334,461;    0,621;   -0,682
899,647;12418,999;    0,530;    1,318
900,205;12226,537;    0,257;    1,045
900,763;12386,620;    2,166;    0,227
901,321;12412,885;    3,530;   -1,409
901,878;11871,332;    3,257;   -0,773
902,436;11775,416;    0,257;    1,318
902,994;12212,408;    6,712;    3,682
903,551;11690,855;    1,439;    0,409
904,109;12053,575;    1,530;   -1,409
904,666;11712,749;    1,439;    1,045
905,224;11563,014;    3,894;   -0,409
905,781;11354,734;   -0,470;   -0,318
906,338;11415,272;    0,167;    1,045
906,895;11406,992;    1,894;    2,045
907,453;11344,894;    2,348;    1,136
908,010;11298,977;    3,348;    0,409
908,567;11029,515;   -0,561;    0,591
909,124;10598,962;    2,439;   -1,500
909,681;10682,227;   -1,288;    0,682
910,238;10860,220;   -0,106;   -1,318
910,795;11158,848;   -1,561;   -1,136
911,352;10817,121;   -0,379;   -2,682
911,909;10337,485;    2,803;   -0,864
912,466;10775,212;    1,985;    1,500
913,022;10411,848;   -0,924;    0,500
913,579;10729,030;   -0,470;    2,045
914,136;10503,121;   -2,561;    0,955
914,692;10791,303;    1,530;   -1,227
915,249;10424,030;    0,530;    0,409
915,806;10613,667;    1,803;    1,955
916,362;10449,758;    0,894;    1,864
916,918;10049,667;    2,439;    1,045
917,475;10042,939;    1,621;    0,955
918,031;10125,121;    0,076;   -0,045
918,587; 9693,030;    0,621;   -0,318
919,144; 9916,394;   -0,379;    0,227
919,700;10123,848;    0,167;    0,773
920,256; 9765,030;    0,439;    0,045
920,812; 9489,485;    1,439;   -1,045
921,368; 9522,212;    1,348;   -1,045
921,924; 9251,485;    0,439;   -0,136
922,480; 8877,030;    0,076;    1,227
923,036; 9432,485;   -0,652;    1,955
923,592; 9402,394;    0,621;    0,318
924,148; 9348,121;    1,894;   -0,955
924,704; 8755,121;    0,258;   -0,409
925,259; 9091,485;   -0,561;    0,591
925,815; 8862,576;    3,803;    0,500
926,371; 8452,758;    3,530;    1,409
926,926; 8382,212;    1,621;    0,591
927,482; 8116,848;    1,621;    0,773
928,037; 8047,485;   -0,833;    2,045
928,593; 8309,848;    0,258;    1,045
929,148; 8147,030;    1,167;   -1,500
929,704; 7744,758;    2,439;   -0,500
930,259; 7935,303;    0,894;   -0,136
930,814; 7176,939;    1,803;    1,955
931,369; 6942,667;    0,258;   -0,773
931,925; 6899,212;   -1,924;    0,136
932,480; 6816,939;    3,076;   -2,591
933,035; 6777,939;    3,985;   -0,318
933,590; 6588,758;   -1,742;   -1,773
934,145; 6329,576;   -1,288;   -0,318
934,700; 6604,758;    0,348;   -0,591
935,255; 6472,212;    4,803;    0,045
935,809; 5964,848;    6,258;    0,864
936,364; 5272,394;    2,167;   -0,136
936,919; 5315,939;    2,348;   -1,773
937,474; 5229,758;    1,348;    0,136
938,028; 5050,939;    3,076;    1,136
938,583; 4716,030;    6,348;    4,682
939,138; 4919,848;    0,167;    2,136
939,692; 4464,303;   -1,015;   -1,136
940,247; 4252,576;    1,167;   -1,045
940,801; 3963,212;    0,621;    0,227
941,355; 3890,303;    0,439;    2,591
941,910; 3621,848;    0,712;   -2,136
942,464; 3700,939;    2,712;   -0,318
943,018; 3614,394;    3,258;   -0,227
943,572; 3546,485;    2,803;   -0,682
944,126; 3137,667;   -0,924;   -0,409
944,681; 3056,667;    0,712;    0,227
945,235; 3015,394;    2,167;   -0,591
945,789; 2960,485;    1,258;   -1,864
946,342; 3137,121;   -0,561;   -0,591
946,896; 2898,848;    0,348;    0,955
947,450; 2695,485;   -0,561;   -0,227
948,004; 2943,212;    1,076;   -0,045
948,558; 2894,939;    1,258;   -0,864
949,111; 2830,121;   -1,197;   -0,318
949,665; 2945,667;   -0,106;   -0,682
950,219; 2840,848;    0,621;   -1,045
950,772; 2866,939;    0,258;    1,864
951,326; 2785,576;   -1,106;   -0,955
951,879; 2817,121;    1,076;   -2,318
952,433; 2880,212;    1,348;    2,227
952,986; 2716,303;    0,348;    0,682
953,539; 2665,848;    1,530;    0,591
954,093; 2625,758;    0,985;   -1,318
954,646; 2772,758;   -0,288;    1,318
955,199; 2587,848;    1,258;   -0,500
955,752; 2583,667;    1,985;    1,773
956,305; 2515,394;    0,894;    2,955
956,858; 2630,939;    0,621;   -0,318
957,411; 2781,758;    3,621;    2,136
957,964; 2623,212;    2,076;    2,136
958,517; 2599,121;    0,985;    3,136
959,070; 2457,212;   -1,197;    1,955
959,623; 2643,667;    1,076;    1,500
960,176; 2436,030;    0,712;    2,045
960,728; 2410,394;    1,712;    0,773
961,281; 2450,848;    2,258;    0,500
961,834; 2443,576;   -0,833;    0,864
962,386; 2384,394;    1,258;    1,045
962,939; 2322,212;    3,439;   -0,318
963,491; 2438,394;    2,621;    1,136
964,043; 2321,030;    0,076;    2,409
964,596; 2465,576;    1,712;    2,227
965,148; 2320,212;   -0,379;    1,773
965,700; 2238,212;   -0,015;   -0,227
966,253; 2399,576;   -0,833;    0,318
966,805; 2278,485;    1,894;    0,773
967,357; 2278,121;    0,439;   -1,500
967,909; 2281,576;    1,167;   -1,227
968,461; 2310,030;    0,894;    3,136
969,013; 2276,758;   -1,561;   -0,864
969,565; 2354,121;    1,803;   -1,136
970,117; 2533,212;    3,803;    1,045
970,669; 2290,576;    3,258;   -0,136
971,220; 2125,758;    2,167;   -1,500
971,772; 2111,576;    1,348;   -0,318
972,324; 2215,121;   -1,197;   -0,500
972,876; 2157,030;    0,167;   -0,045
973,427; 2317,121;   -1,197;   -1,045
973,979; 2291,303;    0,076;   -2,500
974,530; 2251,667;    0,803;    1,318
975,082; 2259,212;    2,167;    1,682
975,633; 2179,758;    2,894;    1,682
976,184; 2318,121;    2,076;    0,773
976,736; 2173,939;    0,348;    0,227
977,287; 2034,667;    0,258;   -0,500
977,838; 2161,303;   -0,924;   -0,318
978,389; 2195,667;    0,803;   -0,500
978,940; 2057,212;    1,258;   -0,409
979,491; 2074,667;    2,258;   -0,500
980,042; 2084,394;   -0,652;    3,045
980,593; 2107,848;    1,894;    0,227
981,144; 2194,576;    3,530;   -0,500
981,695; 2222,667;   -0,470;    1,500
982,246; 2150,303;   -1,833;    1,045
982,797; 2210,939;   -0,561;    0,682
983,347; 2324,667;    2,167;    0,591
983,898; 2512,030;    4,167;    0,409
984,449; 2389,485;    2,530;    0,773
984,999; 2238,667;    1,894;   -1,136
985,550; 2086,667;    3,167;   -0,318
986,100; 2047,394;    0,712;   -0,318
986,651; 2083,303;    0,258;    0,045
987,201; 2088,576;    0,894;   -0,591
987,751; 2138,121;   -0,288;    2,864
988,302; 2143,212;   -0,379;    1,500
988,852; 2159,303;    1,985;   -1,136
989,402; 2230,758;    0,985;    0,682
989,952; 2184,212;    1,621;    0,864
990,502; 2196,576;    1,076;    0,682
991,052; 2129,758;   -0,106;    0,045
991,602; 2050,030;    1,167;    1,318
992,152; 2075,303;    2,803;    0,682
992,702; 2067,667;    1,167;   -0,045
993,252; 2003,485;    0,076;   -0,500
993,802; 2103,030;    1,167;    1,318
994,352; 2236,030;   -0,742;    1,136
994,901; 2272,303;    1,076;    3,227
995,451; 2217,576;   -1,197;    0,318
996,000; 2289,303;    1,076;    0,318
996,550; 2079,576;    2,894;    0,227
997,100; 2081,121;   -0,561;   -0,045
997,649; 2353,667;   -0,197;    0,955
998,198; 2045,848;   -0,288;   -1,500
998,748; 2227,939;    0,348;   -2,318
999,297; 2123,667;    0,985;   -0,409
999,846; 2227,485;    1,894;   -0,773
1000,395; 2214,121;    1,530;    0,500
1000,945; 2245,939;    1,076;   -0,773
1001,494; 2306,485;    0,167;    0,682
1002,043; 2267,576;    0,712;    0,864
1002,592; 2081,848;    3,439;    1,955
1003,141; 2210,394;    2,439;   -0,682
1003,690; 2144,121;    1,258;    0,500
1004,238; 2147,939;   -0,106;   -0,045
1004,787; 1862,121;   -1,288;    1,227
1005,336; 2140,758;    1,621;    0,682
1005,885; 2186,121;   -0,197;   -2,773
1006,433; 2253,303;   -0,470;    0,955
1006,982; 2428,394;    2,167;    1,682
1007,531; 2285,576;    2,712;   -0,227
1008,079; 2200,576;    0,258;    0,500
1008,627; 2292,667;    1,621;    0,409
1009,176; 2108,758;    0,076;   -1,955
1009,724; 2128,485;   -2,742;    0,864
1010,273; 2244,121;    1,076;    0,500
1010,821; 2268,758;    1,076;    1,409
1011,369; 2062,667;    0,076;    1,318
1011,917; 2054,394;   -0,833;   -0,591
1012,465; 2305,758;    2,530;   -1,591
1013,013; 2369,939;    0,439;   -1,682
1013,561; 2311,121;   -1,288;   -0,773
1014,109; 2396,758;   -0,833;    1,682
1014,657; 2249,939;    1,348;    0,591
1015,205; 2293,121;    0,894;   -0,955
1015,753; 2299,394;    0,258;   -1,409
1016,301; 2356,121;    2,621;    3,045
1016,848; 2366,030;    2,167;    0,409
1017,396; 2412,758;    1,621;    0,045
1017,944; 2500,485;    2,621;    1,864
1018,491; 2282,303;   -0,197;    1,409
1019,039; 2546,394;   -0,652;    0,591
1019,586; 2362,485;    0,076;    1,682
1020,134; 2413,394;    0,712;    1,500
1020,681; 2452,030;    2,894;   -1,136
1021,228; 2422,394;   -0,561;   -2,227
1021,776; 2299,030;   -0,833;   -1,136
1022,323; 2534,848;    0,803;    0,773
1022,870; 2466,212;   -0,470;   -0,045
1023,417; 2423,212;    2,076;    1,864
1023,964; 2449,212;    0,621;    1,227
1024,511; 2361,667;   -0,652;    0,773
1025,058; 2187,576;    0,439;   -0,045
1025,605; 2218,212;   -1,742;    3,136
1026,152; 2482,485;   -0,106;   -0,591
1026,699; 2198,394;    0,167;    1,318
1027,245; 2327,576;    2,439;    0,318
1027,792; 2458,485;    0,712;    1,409
1028,339; 2455,121;    4,076;   -0,045
1028,885; 2308,121;    3,621;   -0,227
1029,432; 2252,030;   -0,106;    0,227
1029,978; 2326,303;    1,348;   -1,591
1030,525; 2234,212;    1,621;    0,409
1031,071; 2374,303;    0,348;    1,136
1031,618; 2573,030;    1,258;    1,682
1032,164; 2353,848;    2,076;    3,045
1032,710; 2390,667;    0,076;   -1,500
1033,256; 2302,485;    0,712;   -0,136
1033,803; 2236,667;   -0,288;    1,500
1034,349; 2026,303;    1,803;    0,136
1034,895; 2153,485;    2,621;   -0,318
1035,441; 2143,212;    0,439;    0,318
1035,987; 2189,485;   -2,288;   -0,682
1036,533; 2214,576;   -0,197;   -0,955
1037,078; 2420,939;    4,712;    1,682
1037,624; 2236,758;    2,439;   -0,955
1038,170; 2210,212;    1,712;   -0,318
1038,716; 2177,667;    2,167;   -0,409
1039,261; 2061,121;    2,167;   -0,773
1039,807; 2034,485;   -0,015;    3,409
1040,352; 2120,485;   -1,288;   -0,318
1040,898; 2149,394;    0,167;   -0,682
1041,443; 2030,576;    0,803;   -2,591
1041,989; 2182,030;    3,621;    1,591
1042,534; 2009,576;    0,985;    2,591
1043,079; 2045,848;    1,985;    0,955
1043,625; 1915,485;    0,258;    0,500
1044,170; 1980,939;    2,439;    1,045
1044,715; 2244,212;    0,167;    0,955
1045,260; 2071,030;   -0,833;   -0,955
1045,805; 2044,485;    0,258;   -0,591
1046,350; 1983,030;    0,530;   -0,409
1046,895; 2040,030;    0,803;    1,591
1047,440; 2023,939;    1,530;    0,409
1047,985; 1889,939;   -1,197;   -0,955
1048,530; 1801,485;    1,348;    1,227
1049,074; 1881,939;    2,803;    0,318
1049,619; 1847,303;   -0,924;    1,955
1050,164; 1682,848;    1,076;    0,227
1050,708; 1754,667;    2,621;    0,045
1051,253; 2148,939;    3,258;   -2,227
1051,797; 1850,030;   -0,197;   -1,318
1052,342; 1796,485;    1,348;    1,045
1052,886; 1819,848;    1,803;   -1,409
1053,430; 1684,758;    2,167;    0,136
1053,975; 1713,212;    0,894;   -0,318
1054,519; 1719,758;    1,803;    3,227
1055,063; 1789,121;    3,621;    1,318
1055,607; 1698,939;    1,348;    0,227
1056,151; 1712,485;    0,530;    1,682
1056,695; 1606,394;   -1,833;   -1,136
1057,239; 1661,121;   -1,197;   -0,682
1057,783; 1677,939;    2,258;   -1,500
1058,327; 1688,848;    3,076;    1,409
1058,871; 1908,758;    3,985;    1,318
1059,415; 1636,394;   -0,561;   -0,045
1059,958; 1919,030;    2,985;    2,591
1060,502; 1614,212;    1,348;   -0,773
1061,046; 1490,485;    1,712;   -0,955
1061,589; 1469,212;    2,803;   -1,136
1062,133; 1369,667;    0,985;    1,864
1062,676; 1356,939;    1,439;    0,864
1063,220; 1374,030;    0,985;    0,500
1063,763; 1400,576;    2,985;    1,136
1064,306; 1466,939;    0,985;    1,864
1064,849; 1383,485;    2,076;    0,591
1065,393; 1390,394;    2,894;   -1,500
1065,936; 1471,758;    2,530;   -0,409
1066,479; 1344,848;    2,621;    1,318
1067,022; 1373,758;    1,894;   -0,227
1067,565; 1287,394;   -1,197;   -1,318
1068,108; 1304,667;    1,258;   -0,591
1068,651; 1268,576;   -2,470;    1,409
1069,194; 1217,848;   -1,106;   -1,682
1069,736; 1235,394;    3,803;    0,955
1070,279; 1195,394;   -1,652;   -0,500
1070,822; 1281,303;    1,530;   -0,318
1071,364; 1406,212;    0,530;    1,318
1071,907; 1217,212;    0,348;    3,227
1072,450; 1082,394;    0,258;   -0,045
1072,992; 1109,758;   -0,561;    3,136
1073,535; 1250,394;    0,167;    2,136
1074,077; 1062,030;    2,985;    2,045
1074,619; 1057,667;    0,985;    0,591
1075,161; 1097,394;   -0,561;    1,500
1075,704; 1274,030;    0,258;    1,227
1076,246; 1046,667;    1,530;    0,682
1076,788;  973,303;   -1,015;    1,773
1077,330; 1037,212;   -2,106;    2,136
1077,872; 1030,485;   -1,924;    0,955
1078,414; 1270,394;    3,712;    0,773
1078,956; 1018,667;    0,167;   -0,227
1079,498; 1283,758;    0,439;    0,318
1080,040; 1004,667;    0,985;   -1,318
1080,581;  939,121;    0,621;   -0,318
1081,123;  845,939;   -0,106;   -0,773
1081,665;  897,030;    3,803;   -0,955
1082,206; 1196,030;    3,258;   -0,500
1082,748; 1065,303;    3,258;    2,045
1083,289;  937,394;    0,167;    1,318
1083,831;  874,394;    0,258;    0,227
1084,372;  916,394;    0,894;    0,591
1084,913;  909,394;    3,348;    0,864
1085,455;  867,848;    1,530;   -2,045
1085,996;  859,394;    0,530;    0,136
1086,537;  894,939;    0,985;    0,864
1087,078;  908,576;    0,439;   -2,136
1087,619;  963,485;   -1,652;    0,227
1088,160;  880,576;    1,439;    1,318
1088,701;  856,848;   -0,742;    0,682
1089,242;  812,030;   -0,561;   -2,227
1089,783;  903,939;   -0,561;    1,409
1090,324;  873,121;   -0,833;    0,682
1090,865;  764,667;   -1,924;   -0,409
1091,405;  710,394;   -0,561;    2,227
1091,946;  755,121;   -0,197;   -0,955
1092,487;  683,485;   -1,288;   -1,409
1093,027;  856,121;    1,803;   -1,500
1093,568;  713,030;    2,258;    1,227
1094,108;  809,939;    0,621;    1,773
1094,649;  747,576;   -0,470;    0,136
1095,189;  687,212;    1,167;   -0,682
1095,729;  659,030;    0,712;    0,955
1096,269;  644,848;    1,258;   -0,955
1096,810;  942,394;   -0,197;    0,500
1097,350;  797,030;   -0,561;   -0,773
1097,890;  703,939;    2,985;    1,227
1098,430;  950,303;    4,985;    2,864
1098,970;  830,485;    1,894;    1,682
1099,510;  686,939;   -0,833;   -2,318
1100,050;  623,212;    0,258;   -1,591
1100,589;  607,758;    0,076;   -0,318
1101,129;  724,576;    0,894;   -0,955
1101,669;  881,758;    2,803;    2,136
1102,209;  716,485;    1,530;    2,227
1102,748;  657,848;    3,439;    0,955
1103,288;  654,121;    0,712;   -1,227
1103,827;  682,394;    3,530;   -2,227
1104,367;  569,303;    1,712;   -2,409
1104,906;  541,212;   -1,015;   -1,136
1105,445;  613,667;    0,985;   -1,136
1105,985;  573,758;   -0,652;    1,500
1106,524;  607,485;    1,530;   -0,682
1107,063;  587,848;    1,167;    1,409
1107,602;  545,939;    1,894;   -1,500
1108,141;  482,667;    1,621;    1,500
1108,680;  596,939;    3,985;   -0,591
1109,219;  533,030;    0,167;   -0,500
1109,758;  523,576;    4,167;    0,682
1110,297;  500,394;   -1,106;   -0,682
1110,836;  456,939;    1,439;    0,955
1111,375;  602,667;    0,348;    0,409
1111,913;  623,758;    0,985;    0,773
1112,452;  564,394;    0,894;    0,136
1112,991;  459,121;    1,076;    1,955
1113,529;  422,576;    0,167;   -0,045
1114,068;  482,121;    0,439;    2,955
1114,606;  400,030;   -0,561;   -0,955
1115,144;  543,121;    1,530;    1,045
1115,683;  491,303;    1,985;    0,318
1116,221;  532,121;    2,076;   -0,864
1116,759;  445,394;    1,621;   -0,864
1117,297;  632,848;    1,621;    1,864
1117,836;  458,939;    1,985;   -1,227
1118,374;  462,848;    0,258;   -0,682
1118,912;  419,667;    0,439;    2,682
1119,450;  404,212;    0,985;    0,864
1119,988;  448,576;    3,348;    2,136
1120,525;  877,939;    7,258;    3,318
1121,063;  596,121;    0,530;    1,864
1121,601;  422,576;    1,076;   -1,227
1122,139;  384,576;    1,076;   -2,045
1122,676;  567,667;   -1,652;    2,773
1123,214;  498,303;    0,712;    4,409
1123,751;  328,939;    0,621;    2,227
1124,289;  447,121;    0,894;   -0,409
1124,826;  339,848;   -0,379;    0,227
1125,364;  269,939;    0,712;   -0,955
1125,901;  448,939;    6,258;    1,227
1126,438;  538,758;    3,530;    0,955
1126,975;  289,303;    2,985;   -0,773
1127,513;  357,667;    2,621;    2,136
1128,050;  273,667;   -0,561;   -0,682
1128,587;  369,212;    1,348;   -0,227
1129,124;  404,121;   -0,015;    1,318
1129,661;  282,212;   -1,924;    0,227
1130,198;  435,303;    2,439;    0,773
1130,734;  378,576;   -0,379;    1,409
1131,271;  256,212;   -1,197;    0,864
1131,808;  412,303;    1,621;    3,045
1132,345;  307,212;    4,530;    0,318
1132,881;  186,394;   -0,561;   -1,864
1133,418;  315,303;    0,348;   -1,136
1133,954;  254,303;    0,712;   -2,682
1134,491;  324,394;    1,712;   -0,773
1135,027;  231,758;    2,167;    0,864
1135,564;  320,848;    1,439;    2,955
1136,100;  301,303;   -0,742;    2,136
1136,636;  207,030;   -1,015;   -1,045
1137,172;  285,121;    0,894;   -1,045
1137,708;  220,576;   -1,561;   -1,045
1138,245;  224,485;    0,803;   -1,227
1138,781;  179,212;    1,803;   -3,318
1139,317;  243,576;    1,894;   -1,409
1139,852;  236,848;    3,076;    0,136
1140,388;  335,939;    2,076;   -0,409
1140,924;  224,303;    1,076;   -2,227
1141,460;  170,394;   -0,288;    0,136
1141,996;  117,030;   -0,652;    2,682
1142,531;  164,303;    1,076;    3,318
1143,067;  349,212;    1,167;    1,045
1143,602;  406,576;    3,439;   -0,318
1144,138;  265,394;    0,803;    1,045
1144,673;  143,121;    1,621;    1,409
1145,209;  206,212;    2,894;   -0,318
1145,744;  133,485;    0,803;    0,864
1146,279;  255,485;    1,530;   -0,136
1146,815;  195,394;    1,530;   -2,682
1147,350;  224,758;   -0,924;    0,045
1147,885;  149,121;   -1,924;   -1,318
1148,420;  147,121;    2,439;    0,773
1148,955;  129,121;   -1,470;    1,864
1149,490;  147,576;   -1,106;   -1,591
1150,025;  130,030;   -1,106;   -1,773
1150,560;  236,030;   -0,288;   -0,955
1151,094;  207,667;    0,258;   -0,591
1151,629;  208,939;   -3,742;    0,864
1152,164;  149,758;   -1,288;    1,318
1152,698;  115,121;    1,258;   -0,136
1153,233;   67,212;   -1,379;   -0,682
1153,767;  112,758;   -0,288;   -2,318
1154,302;  155,576;   -0,379;    1,773
1154,836;  152,394;    0,803;   -2,136
1155,371;  200,758;    2,258;    3,682
1155,905;  161,667;    1,985;    1,682
1156,439;  142,212;    0,530;   -0,500
1156,973;  168,303;    0,439;    0,318
1157,507;  114,667;   -1,742;    0,682
1158,042;  131,030;   -0,652;    1,045
1158,576;  164,030;   -0,561;    1,773
1159,110;  161,485;    0,076;    2,409
1159,643;  140,212;   -2,470;   -0,045
1160,177;   88,576;   -2,015;    1,500

