
Integration time [ms]:   0,050
Averaging Nr. [scans]: 11
Smoothing Nr. [pixels]: 0
Data measured with spectrometer [name]: 7318044SP
Wave   ;Sample   ;Dark     ;Reference
[nm]   ;[counts] ;[counts] ;[counts] 

186,757;   -1,604;   38,161;    1,318
187,357;   25,300;   26,706;    0,955
187,958;   12,118;   17,252;   -1,591
188,558;   54,107;   12,979;   -1,227
189,159;   31,415;   10,070;   -4,500
189,759;    4,283;    5,797;   -3,591
190,360;    4,263;    6,797;   -2,136
190,960;   44,623;    5,706;   -4,136
191,560;   62,401;    2,614;   -6,591
192,161;  290,405;    5,885;   -3,500
192,761;  136,655;    5,520;   -3,227
193,361;   90,533;    3,065;   -3,773
193,962;  143,464;    1,612;   -2,682
194,562;   70,860;   -0,114;   -3,955
195,162;  105,443;   -0,567;   -2,227
195,762;  273,139;    2,433;   -0,045
196,362;  210,237;    1,706;   -2,500
196,963;   82,682;    1,706;   -0,864
197,563;  162,934;    1,252;   -0,955
198,163;  117,616;   -0,111;   -0,682
198,763;  134,965;   -0,020;   -0,500
199,363;  238,956;    3,616;   -0,500
199,963;  203,581;    2,162;    0,409
200,563;  169,720;    6,344;   -1,409
201,163;  149,793;    5,435;   -0,227
201,763;  256,116;    1,435;    0,318
202,363;  189,702;    0,980;    1,500
202,963;  294,353;    1,526;    1,045
203,563;  407,933;    0,344;    0,500
204,162;  246,693;    1,889;   -1,864
204,762;  241,407;    2,071;    0,591
205,362;  229,326;    0,708;    1,955
205,962;  324,876;    3,435;    1,955
206,562;  327,559;    1,889;    2,318
207,161;  293,555;    1,708;    0,318
207,761;  437,864;    4,435;    2,409
208,361;  321,527;    1,889;    1,409
208,960;  413,857;    2,889;    1,500
209,560;  500,068;    0,435;    1,591
210,160;  476,499;    5,071;    1,864
210,759;  459,996;    0,708;    1,227
211,359;  461,918;   -0,474;    1,045
211,958;  732,160;    3,526;    2,045
212,558;  823,566;    0,799;    1,864
213,157;  649,854;   -0,929;    1,500
213,757; 1104,694;    5,617;   -0,227
214,356;  808,324;    1,708;   -0,409
214,956; 1156,690;    3,526;    0,409
215,555;  788,553;    0,617;    2,136
216,154;  707,677;   -0,292;   -0,591
216,754;  732,388;    1,253;    0,773
217,353;  889,093;   -0,383;   -1,045
217,952;  750,146;    2,072;    0,318
218,552;  981,063;    0,254;   -0,773
219,151;  884,649;   -1,110;    0,955
219,750;  894,234;    0,890;   -0,227
220,349; 1059,162;   -2,292;    1,045
220,948; 1100,913;    1,163;    1,136
221,548; 1172,378;    0,617;    1,227
222,147; 1294,279;   -1,292;   -0,409
222,746; 1572,797;    1,254;   -0,955
223,345; 1466,293;   -1,019;    0,500
223,944; 1497,559;    1,163;    0,773
224,543; 1698,453;    4,072;   -1,409
225,142; 1807,605;    1,345;    0,136
225,741; 1730,856;    1,163;    1,045
226,340; 1778,930;    1,254;   -0,955
226,939; 2279,081;    2,708;   -0,136
227,538; 2317,137;    1,163;   -0,773
228,137; 2447,347;    0,435;    0,864
228,735; 2680,338;    0,435;    1,227
229,334; 2394,231;   -0,474;   -0,227
229,933; 2785,314;    0,799;    0,591
230,532; 2948,579;   -1,201;   -0,409
231,131; 2977,910;    1,253;    0,318
231,729; 3179,091;    1,163;   -2,318
232,328; 3388,942;    0,435;   -1,500
232,927; 3515,647;    4,526;   -0,500
233,525; 3674,568;    0,981;    0,045
234,124; 3929,364;    1,890;   -1,591
234,723; 4005,248;    1,617;   -1,045
235,321; 4189,982;    1,163;    0,136
235,920; 4479,554;    2,526;   -1,227
236,518; 4781,288;    1,072;    0,318
237,117; 5060,990;    2,890;   -0,227
237,715; 5239,934;    1,163;   -0,500
238,314; 5273,331;    1,708;   -2,318
238,912; 5365,364;    0,526;   -1,409
239,510; 5459,695;    1,162;   -1,227
240,109; 5686,069;   -0,474;    3,773
240,707; 5749,804;   -0,474;    1,227
241,305; 6247,167;   -0,383;    0,136
241,904; 6456,531;   -0,292;   -2,045
242,502; 6399,464;    3,253;   -0,227
243,100; 6389,372;    3,344;   -0,955
243,698; 6701,043;    2,799;    1,682
244,297; 6920,967;   -0,656;    0,682
244,895; 6722,693;   -0,474;   -2,318
245,493; 7128,105;    2,981;   -0,591
246,091; 7191,585;    5,163;   -1,318
246,689; 7174,849;    2,163;    0,591
247,287; 7368,444;   -0,019;   -1,136
247,885; 7728,426;   -1,019;    1,227
248,483; 7866,858;   -0,201;   -0,500
249,081; 8016,730;    0,981;    1,591
249,679; 8220,276;   -1,019;    1,682
250,277; 8545,369;   -2,292;    0,864
250,875; 8500,562;    0,617;   -1,045
251,473; 8575,849;   -0,019;    0,500
252,071; 8802,676;   -0,383;    1,045
252,669; 8971,650;   -1,565;    0,318
253,267; 9302,382;    1,618;    0,773
253,864; 9268,535;    0,617;    0,682
254,462; 9078,947;    1,526;    1,591
255,060; 9111,633;    0,072;    1,318
255,658; 9509,650;   -3,292;   -0,136
256,255; 9958,527;   -0,201;   -2,045
256,853; 9777,699;    2,345;    1,409
257,451; 9820,907;    1,981;    1,864
258,048;10055,866;    2,072;    1,864
258,646; 9833,030;    0,436;   -1,045
259,243;10059,426;    2,981;    2,227
259,841;10162,080;    1,799;    0,318
260,438;10010,310;    0,254;    0,864
261,036;10897,462;    0,617;    1,409
261,633;10829,394;    1,526;    2,227
262,231;10500,204;   -0,110;   -0,045
262,828;10575,042;   -0,383;    1,136
263,425;10660,395;   -1,928;   -0,591
264,023;10948,542;    1,436;    0,045
264,620;10463,013;    1,526;   -0,318
265,217;10866,749;    2,890;    3,136
265,815;11036,986;    2,527;    2,136
266,412;10737,402;    0,072;    0,136
267,009;10822,626;    0,526;    0,773
267,606;10664,575;    0,345;   -0,955
268,203;10653,073;   -0,383;   -0,591
268,801;10987,948;   -0,474;    0,591
269,398;11320,483;   -0,564;    2,500
269,995;11334,769;    0,890;    1,591
270,592;11070,901;    0,799;   -0,500
271,189;11339,971;    1,981;    0,409
271,786;11480,618;    2,072;    1,227
272,383;11273,479;   -0,383;    0,227
272,980;11502,609;    1,617;    0,318
273,577;12028,075;    2,162;    1,227
274,174;11566,505;    1,435;    2,591
274,771;11582,559;    1,890;   -0,773
275,367;11705,522;    3,253;    1,409
275,964;11662,686;   -0,565;   -0,500
276,561;11828,765;   -2,474;   -1,045
277,158;12095,730;    1,799;   -1,773
277,755;12202,366;   -0,110;    0,409
278,351;11535,112;    0,436;   -1,500
278,948;11911,689;   -0,201;    0,045
279,545;11976,078;    0,527;    2,318
280,141;12647,783;    1,254;   -2,045
280,738;12454,452;    2,435;   -0,136
281,334;12749,665;   -0,383;    0,591
281,931;12096,265;    2,890;   -1,318
282,528;12263,258;    4,072;   -0,500
283,124;13030,856;    3,345;   -0,500
283,721;12950,505;    0,709;    1,409
284,317;12784,158;    0,163;    2,500
284,913;13345,398;   -0,110;    0,591
285,510;13553,307;    2,890;   -0,318
286,106;13612,895;    2,345;   -0,955
286,703;13143,268;    0,072;    1,955
287,299;13370,352;    1,254;   -0,591
287,895;13606,410;    0,890;   -1,045
288,491;14301,847;    0,163;    2,136
289,088;14017,251;    0,163;    2,409
289,684;14072,468;    2,890;    1,500
290,280;14062,759;    1,890;    0,682
290,876;14143,972;    0,163;    5,500
291,472;14073,400;    2,163;    2,227
292,068;14176,911;    1,254;    0,227
292,665;13888,352;   -0,564;    0,773
293,261;13407,351;   -1,292;    2,136
293,857;13839,470;    4,072;    2,136
294,453;13802,487;   -0,928;    0,955
295,049;13626,104;    0,253;    1,955
295,644;13637,391;   -1,292;    0,136
296,240;13581,673;    0,162;   -0,136
296,836;13641,403;   -0,747;    0,318
297,432;13955,198;    2,980;   -0,500
298,028;13914,991;    0,435;    0,773
298,624;14396,791;    0,889;    1,864
299,220;14752,684;    0,435;    0,591
299,815;14374,394;    0,526;   -0,409
300,411;14153,559;    0,435;    1,773
301,007;14158,149;    1,889;    0,227
301,602;14238,204;    2,071;   -2,318
302,198;14365,067;    1,435;   -0,773
302,794;14762,991;    1,526;   -0,500
303,389;14954,288;    1,071;    1,045
303,985;14984,007;    1,253;    1,409
304,580;14909,164;    0,889;    1,591
305,176;14919,707;    0,344;    0,136
305,771;14906,723;   -0,929;   -1,227
306,367;14653,656;    3,071;    0,136
306,962;15040,386;    2,889;    1,500
307,558;14768,229;    2,435;    0,136
308,153;14749,897;   -0,383;   -1,136
308,748;15028,725;    0,162;    1,682
309,344;14991,507;    0,253;   -1,318
309,939;15072,467;    2,071;   -1,318
310,534;15418,351;   -2,020;   -1,682
311,130;15354,799;   -0,656;   -2,500
311,725;15099,773;    0,526;   -0,500
312,320;15410,642;    1,253;    0,045
312,915;15244,086;    2,890;   -1,045
313,510;15286,996;    0,526;   -0,500
314,105;15857,727;   -3,565;    1,409
314,700;15223,156;   -1,656;   -1,045
315,295;14811,528;   -0,020;    0,045
315,890;14316,552;   -0,292;    0,864
316,485;14673,153;    0,253;   -0,318
317,080;14833,584;   -0,929;    1,591
317,675;15408,559;    3,071;   -0,682
318,270;14689,471;    6,889;    3,318
318,865;14786,191;    2,435;    3,045
319,460;14578,717;   -1,565;    0,591
320,055;14826,084;   -2,565;   -1,227
320,650;14461,465;   -1,838;   -0,591
321,244;14488,852;    0,889;   -1,409
321,839;15522,089;    0,980;   -0,227
322,434;15452,642;   -0,111;   -1,591
323,029;15042,454;   -0,474;    1,591
323,623;14865,997;    0,798;    0,773
324,218;14592,306;    2,707;    1,409
324,812;14502,817;    0,889;    1,591
325,407;14280,080;   -0,929;    2,045
326,002;14207,518;    0,526;   -0,409
326,596;14515,404;   -0,656;    1,318
327,191;14778,841;   -0,383;   -1,045
327,785;14321,949;   -0,747;   -0,227
328,379;14564,147;   -0,383;    0,136
328,974;14360,816;    1,798;   -3,955
329,568;14586,222;    2,889;   -2,409
330,163;14409,958;    2,435;    1,045
330,757;14769,690;    0,253;    1,591
331,351;14037,270;   -0,292;    0,682
331,945;14351,346;   -0,383;    1,409
332,540;13873,369;    1,617;   -0,591
333,134;14029,673;    3,344;    0,773
333,728;14307,336;    2,799;    0,318
334,322;14676,709;    0,889;   -0,864
334,916;13926,912;    0,344;    0,955
335,510;14287,468;   -0,111;   -0,136
336,105;14528,114;   -0,929;    1,591
336,699;14175,484;   -1,292;    0,591
337,293;14075,135;    1,071;    0,318
337,887;14236,857;    0,071;    1,955
338,481;14306,394;    2,980;    0,591
339,074;14470,995;    2,071;    2,682
339,668;14252,557;   -0,110;    1,227
340,262;14518,442;    7,708;    3,227
340,856;14027,233;    1,708;   -0,682
341,450;13316,819;    0,708;    1,864
342,044;14285,590;    1,799;    0,136
342,637;14002,796;    1,162;   -2,136
343,231;13826,700;   -1,474;    0,682
343,825;13781,476;   -0,747;   -0,591
344,419;13706,850;   -0,474;    0,500
345,012;13395,809;    2,889;    4,045
345,606;13399,636;   -0,656;    1,591
346,199;13267,654;   -0,111;   -0,227
346,793;12692,671;    2,525;    2,045
347,386;12941,958;    0,889;   -1,136
347,980;12940,424;   -0,838;   -0,045
348,573;12734,533;   -1,748;    0,409
349,167;12289,172;    6,161;    4,773
349,760;12662,585;    2,252;    2,682
350,354;12670,507;    1,616;    1,136
350,947;12349,893;    2,798;    1,682
351,540;11985,819;    0,616;   -1,409
352,134;11927,436;   -1,111;    1,136
352,727;11985,565;   -0,657;    1,136
353,320;11778,510;    2,343;    0,591
353,913;11613,501;   -1,929;    1,864
354,507;11801,723;    0,434;   -1,227
355,100;11792,493;    0,071;    0,864
355,693;10856,827;    4,798;    2,409
356,286;10941,882;    0,980;    2,773
356,879;11357,146;   -0,475;    1,227
357,472;10925,840;    0,980;    1,500
358,065;11099,040;    3,161;    2,500
358,658;11044,229;    0,798;    2,318
359,251;10601,427;    0,252;   -0,591
359,844;10003,016;    0,343;   -1,136
360,437;10196,658;    0,252;    0,045
361,030;10471,212;    0,525;   -0,682
361,623;10016,116;    0,434;    0,318
362,215;10090,230;    0,979;    2,045
362,808; 9921,825;   -2,293;   -1,682
363,401;10108,017;    0,798;    0,136
363,994; 9802,093;    3,252;   -1,500
364,586; 9700,616;    0,888;   -1,500
365,179; 9952,957;   -0,203;   -1,136
365,772; 9372,661;   -0,930;    2,045
366,364; 9684,526;    1,524;   -3,227
366,957; 9890,514;    1,342;   -0,045
367,549; 9928,267;   -0,203;   -0,864
368,142; 9518,972;    0,978;   -1,500
368,734; 9759,052;    2,523;   -2,136
369,327; 9697,442;    2,341;   -0,500
369,919; 9624,049;   -1,659;    0,409
370,512; 9366,508;   -1,023;   -0,500
371,104; 9019,136;    2,704;    1,591
371,696; 9203,246;    1,703;   -0,955
372,289; 9345,607;    0,157;    1,136
372,881; 9516,379;    1,156;    1,318
373,473; 9435,711;    4,064;    1,136
374,066; 9178,108;    1,336;    0,500
374,658; 9020,519;    0,879;    1,136
375,250; 9431,202;   -1,668;   -1,409
375,842; 9251,739;   -0,124;   -0,045
376,434; 9101,485;   -2,762;   -0,409
377,026; 9793,223;   -1,855;   -2,500
377,618; 9647,992;    0,779;   -0,682
378,210; 9485,089;    3,141;   -1,955
378,802; 9317,485;    3,412;   -0,591
379,394; 9223,176;    3,411;    0,682
379,986; 9935,615;    1,138;   -0,955
380,578;10063,353;    1,410;    0,773
381,170; 9243,724;    0,320;    0,045
381,762; 9213,504;   -0,224;    1,409
382,354; 9506,445;   -0,223;   -1,318
382,945; 9620,716;    0,870;    0,318
383,537; 9759,390;    1,144;   -1,955
384,129; 9760,712;    0,963;   -1,136
384,721; 9978,508;    0,418;    0,955
385,312; 9875,314;   -1,399;   -0,955
385,904; 9965,309;   -0,945;    1,591
386,496; 9270,486;    0,691;    1,045
387,087; 9419,624;    0,418;    2,500
387,679; 9499,115;   -0,401;    0,045
388,270; 9685,563;   -2,401;    2,045
388,862; 9773,909;   -0,401;   -0,318
389,453; 9653,464;    1,054;    1,045
390,045; 9949,612;    3,236;   -2,682
390,636; 9937,177;    0,144;   -0,591
391,227; 9751,000;    2,054;   -0,045
391,819; 9818,412;    0,781;    0,773
392,410; 9891,484;    0,600;    0,045
393,001; 9797,642;    1,600;   -1,591
393,593;10133,888;    0,600;   -0,045
394,184; 9966,749;    0,873;   -0,409
394,775; 9909,972;    1,146;    2,136
395,366;10136,918;    1,782;    0,773
395,957;10178,351;   -2,400;    0,136
396,548;10530,291;    1,054;    2,682
397,139;10813,782;    2,236;    0,591
397,730;10495,778;    0,873;    0,955
398,321;10589,428;    0,509;    0,955
398,912;10615,617;   -0,764;    0,136
399,503;10718,361;   -1,945;   -1,409
400,094;10101,161;   -1,582;    1,682
400,685; 9954,247;    3,600;    0,045
401,276;10052,818;   -0,400;   -0,955
401,867;10374,336;   -1,127;    0,773
402,458;10487,314;    1,509;   -2,318
403,048;10486,030;    0,146;    0,591
403,639;10032,322;    1,509;    0,864
404,230;10260,807;    0,691;    0,318
404,821;10191,089;   -0,127;    0,045
405,411;10288,087;   -0,763;   -2,591
406,002; 9876,079;    3,237;   -1,136
406,592; 9659,920;    2,691;    0,045
407,183;10010,586;    0,328;   -1,500
407,774; 9919,447;    1,419;   -0,136
408,364;10319,886;    2,600;    0,409
408,954; 9836,124;   -0,036;    1,227
409,545; 9879,100;    1,873;    1,045
410,135; 9336,692;   -1,581;    0,500
410,726; 9567,861;    0,783;    0,318
411,316;10006,534;    2,237;    0,773
411,906; 9650,383;    0,146;   -0,409
412,497; 9028,386;   -0,490;   -0,045
413,087; 9717,560;    0,783;   -0,227
413,677;10154,985;   -2,490;    3,864
414,267; 9961,010;   -1,035;    1,409
414,857; 9987,241;    0,419;    4,227
415,448;10308,815;   -0,763;    0,500
416,038; 9981,253;   -2,945;   -0,591
416,628; 9947,687;    0,965;    0,409
417,218; 9329,405;   -1,762;    3,318
417,808; 9607,908;    0,965;   -0,409
418,398;10164,404;   -1,035;    2,682
418,988;10179,776;   -2,217;    0,591
419,578;10479,546;    3,601;    1,409
420,168;10831,944;    0,692;   -0,955
420,757;10331,030;    0,964;   -1,500
421,347;10023,955;    1,601;   -0,227
421,937;10200,782;    3,329;    1,409
422,527;10091,615;    2,602;   -0,773
423,116; 9904,793;    2,692;   -0,045
423,706;10330,593;    2,965;    0,318
424,296;10336,486;    1,601;    0,682
424,885;10787,940;    1,510;   -3,045
425,475;11084,699;    1,147;   -2,864
426,065;10989,625;   -1,489;   -0,318
426,654;10579,935;    0,329;   -0,318
427,244;10701,038;    1,147;    1,409
427,833;10093,799;    1,056;   -0,500
428,423;10626,812;    0,147;    1,136
429,012;11521,123;    2,420;   -1,136
429,601;10954,271;    2,057;    0,136
430,191;11185,273;    2,511;    4,318
430,780;10764,432;   -1,671;   -0,409
431,369;10669,370;    1,329;   -0,045
431,959;11381,989;    1,693;    0,500
432,548;11156,047;   -1,398;   -0,045
433,137;11329,690;    0,329;   -1,318
433,726;11878,798;    0,148;    0,500
434,315;11199,293;    0,148;    2,409
434,905;11288,653;    0,693;    1,409
435,494;11164,614;    3,148;    0,955
436,083;11674,352;    1,420;   -0,955
436,672;11516,450;    1,148;    0,500
437,261;11020,414;    0,512;   -1,955
437,850;11149,936;   -1,125;    0,682
438,439;11132,569;    2,239;    1,955
439,027;10916,725;    3,421;    1,773
439,616;11349,740;    2,239;    1,227
440,205;11223,824;    0,057;   -2,136
440,794;11279,326;   -0,306;   -0,045
441,383;11585,861;    1,603;   -0,591
441,971;11477,646;   -0,306;    0,591
442,560;11316,693;    0,603;   -1,773
443,149;11105,938;    3,060;   -1,318
443,737;11253,165;    0,968;   -2,318
444,326;11504,263;    0,331;    0,318
444,915;11559,437;   -1,851;    0,864
445,503;11974,984;    0,058;   -0,318
446,092;11178,049;    7,876;    2,136
446,680;11815,444;    1,876;    0,318
447,269;12020,121;   -1,487;   -0,318
447,857;11731,739;    2,240;   -1,773
448,445;11849,284;    2,149;    1,318
449,034;12143,995;    0,876;   -1,136
449,622;12296,912;    1,240;    3,500
450,210;11360,354;    3,149;    2,227
450,799;11927,230;    2,604;   -0,591
451,387;11862,328;    1,786;   -0,591
451,975;11483,238;   -1,305;    0,864
452,563;11592,149;    0,422;    2,318
453,151;11646,022;   -1,032;   -1,227
453,739;11549,688;   -1,577;    0,136
454,328;11370,094;    0,604;   -2,136
454,916;11051,803;    1,150;   -0,136
455,504;11293,441;    3,513;    1,227
456,092;11462,640;    2,150;   -1,591
456,679;11437,905;    0,604;    0,682
457,267;11271,704;    3,604;    1,045
457,855;11494,678;    3,241;    1,409
458,443;11270,783;   -0,304;    1,682
459,031;11393,479;    1,332;    2,409
459,619;11923,704;   -3,577;    2,864
460,206;12092,719;   -0,759;    2,045
460,794;12166,139;   -0,668;   -0,227
461,382;12415,417;    0,878;   -0,864
461,970;11940,351;    0,605;    1,864
462,557;11981,550;    0,878;   -0,682
463,145;12232,427;   -0,304;   -1,682
463,732;12366,234;    2,514;   -1,045
464,320;12313,917;    1,514;   -3,045
464,907;11935,629;    0,423;   -0,773
465,495;11793,169;    2,696;   -1,227
466,082;11979,926;    2,060;   -0,045
466,670;11885,595;    2,605;    1,227
467,257;12294,949;    0,060;    2,045
467,844;12475,510;    1,514;    0,045
468,432;12531,030;   -0,031;    3,500
469,019;11976,499;    1,606;   -1,773
469,606;12456,426;    0,969;    3,682
470,193;12238,505;    2,151;    0,227
470,780;11742,326;    0,333;    0,864
471,368;12118,870;   -1,212;   -0,773
471,955;11883,433;    1,060;   -0,682
472,542;11492,769;   -0,303;   -1,136
473,129;11788,176;   -0,485;    0,136
473,716;11482,177;    0,060;    0,591
474,303;11722,102;    1,333;   -0,864
474,890;12052,337;    2,333;   -0,500
475,477;12026,865;   -0,576;    0,409
476,064;11969,829;    0,697;   -1,591
476,650;11896,344;    2,152;    0,318
477,237;11722,707;    1,879;    0,955
477,824;11899,335;    3,879;    0,864
478,411;11970,211;    0,606;   -0,318
478,997;12178,490;    0,606;   -0,773
479,584;12240,156;   -0,666;   -0,409
480,171;12989,422;    1,243;   -0,773
480,757;12654,494;   -0,848;    0,773
481,344;12963,769;    0,334;    0,409
481,931;12453,943;   -0,393;    1,045
482,517;13501,483;    0,425;    0,318
483,104;14173,578;    1,334;    2,864
483,690;14586,875;    0,243;    0,045
484,276;15042,088;    0,698;    0,227
484,863;14750,254;    2,152;    1,136
485,449;15408,689;    0,152;    0,318
486,035;15398,573;   -0,666;   -0,136
486,622;15859,402;   -2,393;    0,045
487,208;15804,119;    1,334;    1,500
487,794;15674,489;    0,971;    0,318
488,380;15759,918;    0,698;   -1,409
488,967;15798,964;   -1,120;   -0,409
489,553;15842,957;   -1,029;   -1,409
490,139;16013,577;    0,971;    0,773
490,725;15470,527;    0,789;   -0,227
491,311;14945,089;    1,516;    3,045
491,897;14118,205;   -0,665;    1,500
492,483;13913,030;    0,426;    1,227
493,069;13569,477;    5,426;    0,864
493,655;13602,392;    1,789;    0,682
494,241;13529,410;    1,517;   -0,955
494,826;13961,676;    0,335;   -1,045
495,412;13372,891;    0,335;   -0,682
495,998;13563,580;    0,971;   -0,318
496,584;13734,689;    2,244;    1,045
497,169;13691,200;    2,335;   -0,682
497,755;13638,188;    1,244;    1,227
498,341;14230,010;    2,153;    0,318
498,926;13790,835;    2,881;    1,955
499,512;14008,331;   -0,028;    2,955
500,097;14126,872;   -0,574;   -0,318
500,683;14063,592;   -0,028;    2,136
501,268;14459,732;    1,881;   -0,955
501,854;14147,888;   -0,119;    1,227
502,439;14082,662;   -0,573;   -1,773
503,024;14300,739;    1,608;    0,500
503,610;14355,020;    1,335;   -0,682
504,195;14394,234;    1,245;    1,955
504,780;14472,038;    2,335;    1,227
505,366;14280,898;    4,063;    2,864
505,951;14006,015;   -1,119;    1,045
506,536;14043,272;    1,427;   -3,682
507,121;13986,571;    1,699;   -0,318
507,706;14579,050;   -0,392;    1,045
508,291;15007,933;   -2,937;    1,136
508,876;14430,596;   -0,482;    2,591
509,461;13812,334;    1,427;   -0,773
510,046;14252,971;   -0,391;    0,318
510,631;14495,287;   -0,119;   -0,773
511,216;14161,822;   -0,664;   -0,500
511,801;14583,082;   -0,755;    2,591
512,386;14869,955;    0,972;    0,500
512,971;14811,002;    0,427;    0,955
513,555;14320,814;    1,154;   -1,500
514,140;15229,086;    1,336;   -3,136
514,725;15193,587;    1,791;   -1,136
515,309;15350,811;    1,064;    0,318
515,894;14757,042;   -0,300;   -2,227
516,479;15199,306;    1,973;   -0,955
517,063;15030,778;    0,882;    1,227
517,648;15232,719;    0,155;   -1,136
518,232;14857,243;   -1,300;   -1,409
518,817;15166,954;    1,337;    1,682
519,401;15358,781;    0,700;    0,591
519,985;14880,988;    2,700;    1,136
520,570;14736,168;   -0,118;   -1,955
521,154;15049,522;    0,064;    0,591
521,738;15220,842;    1,064;    2,409
522,323;15840,110;   -0,390;    1,682
522,907;15570,784;    2,428;   -0,136
523,491;15248,082;    1,155;    0,955
524,075;15265,429;    0,428;    0,591
524,659;15354,141;    0,973;    0,591
525,243;14726,843;    0,883;    0,409
525,827;15016,222;    0,883;   -0,045
526,411;15899,050;    1,155;   -0,136
526,995;16147,281;    0,337;    1,409
527,579;15714,128;    1,974;   -1,045
528,163;16037,837;    0,428;   -1,500
528,747;16009,524;    1,065;   -0,773
529,331;16315,425;    0,883;   -1,409
529,915;16505,250;    2,338;    0,955
530,499;16443,308;    0,247;    1,227
531,082;16118,021;    1,065;    1,591
531,666;15527,628;    0,520;    0,773
532,250;16278,143;    0,428;    2,682
532,833;16624,463;    0,610;    2,773
533,417;16518,149;    1,247;    0,864
534,001;16499,246;    0,429;   -0,318
534,584;17246,542;    1,974;    0,500
535,168;17058,707;    3,247;    1,409
535,751;17058,851;    4,520;    0,045
536,334;16520,561;    4,520;   -0,409
536,918;17159,297;    1,974;    1,591
537,501;17282,138;    1,520;    1,318
538,085;17247,377;    1,702;    1,045
538,668;17403,997;    0,883;    2,409
539,251;17805,707;    3,156;    3,773
539,834;17789,675;    0,156;    0,773
540,418;17714,573;    3,247;    4,318
541,001;17849,474;    2,702;    1,773
541,584;17878,280;    1,429;    2,227
542,167;17559,275;    0,702;    2,955
542,750;17714,199;    0,793;   -0,773
543,333;17254,163;    1,429;    2,136
543,916;18092,653;   -0,298;    2,500
544,499;18768,065;    2,520;    0,227
545,082;18736,784;    0,248;    3,591
545,665;18913,661;   -0,207;    1,500
546,248;19289,890;    0,520;   -0,318
546,830;18918,908;   -1,752;    1,955
547,413;19393,608;    0,157;   -0,773
547,996;19993,044;    0,157;    0,500
548,579;19694,150;   -0,843;    0,955
549,161;19511,051;    0,884;    2,682
549,744;19279,157;    0,612;    0,409
550,326;19835,718;    0,885;   -1,136
550,909;19549,072;    2,339;    0,591
551,492;19975,760;    0,521;    0,227
552,074;19705,171;   -0,024;   -1,318
552,657;20338,055;    2,430;    0,045
553,239;20112,005;   -3,024;   -0,773
553,821;20010,478;   -1,570;    1,045
554,404;19479,923;   -0,024;    1,136
554,986;19909,839;    2,248;    1,045
555,568;20543,698;    0,430;   -0,955
556,151;19645,500;    4,067;   -0,227
556,733;19898,162;   -1,388;   -0,864
557,315;20394,241;    4,703;    0,500
557,897;20186,357;    0,521;   -0,500
558,479;20321,134;    1,703;    1,318
559,061;20498,924;    1,067;   -0,864
559,643;20848,686;   -0,297;    0,045
560,225;21254,326;   -0,388;    2,864
560,807;21263,959;    0,340;    0,318
561,389;20731,248;   -1,206;    2,318
561,971;21485,740;   -0,660;    2,136
562,553;21282,966;    0,613;    1,591
563,135;21431,611;    1,249;    1,136
563,717;21027,569;    3,158;    1,136
564,298;21797,411;    3,976;   -0,045
564,880;21481,457;    0,340;   -1,409
565,462;21700,002;    1,977;    1,318
566,043;22933,857;   -0,933;    2,318
566,625;22421,848;    4,067;    1,227
567,207;22302,450;    0,704;    1,682
567,788;23508,127;   -0,114;    1,500
568,370;24402,025;   -1,841;   -0,500
568,951;24224,697;   -0,569;    0,227
569,533;25131,503;    0,977;   -0,500
570,114;25655,690;   -0,296;    0,682
570,695;26234,463;   -0,478;   -1,318
571,277;26815,198;   -0,205;   -1,682
571,858;27568,604;    2,704;   -1,136
572,439;28575,101;    0,795;   -1,045
573,021;28769,748;    0,432;   -2,773
573,602;29339,824;    1,795;    0,318
574,183;30298,715;   -0,114;    2,227
574,764;30547,931;    2,068;    0,409
575,345;31106,293;    0,250;   -0,136
575,926;31799,453;    2,704;    0,136
576,507;31878,816;    2,704;   -0,227
577,088;32949,510;    1,704;    1,682
577,669;32917,541;    1,704;    1,955
578,250;33690,897;   -0,750;   -1,045
578,831;34454,778;   -0,841;   -2,227
579,412;34790,888;   -1,205;    0,955
579,993;35826,516;    1,432;    0,227
580,573;36125,375;   -0,023;   -0,955
581,154;35052,673;    1,613;   -0,591
581,735;35880,864;    0,341;    0,773
582,315;35417,864;    0,523;    2,136
582,896;35791,021;   -1,750;    1,227
583,477;35167,672;    0,614;    1,227
584,057;35372,938;    1,159;    0,955
584,638;35678,516;   -2,750;    2,318
585,218;35689,376;    2,886;    2,682
585,799;35828,434;    1,977;   -0,227
586,379;35799,783;    1,250;    1,591
586,959;34511,327;    2,613;    0,318
587,540;33765,836;    0,432;    2,227
588,120;33199,371;   -1,113;   -0,045
588,700;32122,307;    2,977;    2,136
589,281;32389,219;    1,250;   -0,955
589,861;32262,846;   -0,296;   -1,682
590,441;32090,689;   -1,477;   -2,682
591,021;30998,962;    1,432;   -2,591
591,601;31242,759;    0,431;    0,500
592,181;31246,123;   -1,296;   -0,773
592,761;30518,455;    2,250;    1,409
593,341;30405,831;    1,522;    0,045
593,921;30333,386;   -0,569;    1,591
594,501;30191,087;    1,250;    1,318
595,081;30065,130;    0,522;   -0,318
595,661;30446,278;    1,068;    0,955
596,240;30954,610;   -1,023;    0,136
596,820;30509,306;    2,613;    1,955
597,400;30831,650;    1,977;    0,773
597,980;31015,123;   -0,750;    1,045
598,559;31025,989;    0,341;   -0,227
599,139;30714,947;   -0,750;   -1,227
599,718;30616,038;    0,795;   -0,409
600,298;30913,659;   -2,387;    0,682
600,877;31088,602;    4,795;    1,409
601,457;31348,025;    0,340;    1,136
602,036;31267,114;    1,795;    2,045
602,616;31532,660;    2,250;    1,682
603,195;31903,926;    0,431;    3,500
603,774;31393,488;   -0,296;    2,045
604,354;31254,380;    2,522;   -0,500
604,933;30697,734;    0,250;    1,864
605,512;30828,735;    2,340;    0,591
606,091;30802,291;    1,886;    3,773
606,671;31626,364;    0,249;    0,773
607,250;30662,290;    1,431;    3,136
607,829;30983,829;    1,158;    3,227
608,408;30812,151;    4,613;    2,591
608,987;29838,079;    2,704;    3,409
609,566;30190,013;    0,341;   -2,500
610,145;30231,533;    2,885;    0,682
610,723;30666,417;    1,613;    6,864
611,302;29842,824;    1,067;    1,682
611,881;29309,526;    5,158;   11,227
612,460;30169,063;    0,795;    3,955
613,039;30603,841;    1,703;    2,045
613,617;29285,349;    0,886;    4,773
614,196;29459,641;    1,613;    1,227
614,775;29818,792;    1,249;    2,409
615,353;29809,396;   -1,660;    0,864
615,932;29443,388;    0,249;    2,409
616,510;30047,693;    0,158;    0,591
617,089;29527,288;    8,794;   17,591
617,667;29313,396;    4,885;    6,136
618,246;29084,240;   -1,115;    1,318
618,824;29202,240;    1,612;   -0,955
619,402;28762,703;    0,431;   -1,773
619,981;29319,233;    1,067;   -1,045
620,559;29169,944;    0,794;    1,682
621,137;28669,506;    3,067;    1,864
621,715;28615,390;    3,703;   -0,682
622,293;28560,374;    1,885;   -0,773
622,871;29064,332;    0,340;    0,500
623,450;28603,781;    0,430;   -0,864
624,028;28537,969;   -0,388;   -0,955
624,606;28095,367;    2,339;    1,682
625,183;28482,492;   -0,661;   -1,136
625,761;28082,030;    1,885;    1,136
626,339;28386,557;    2,339;    2,591
626,917;28778,949;    0,339;   -0,045
627,495;28827,279;    2,794;    1,318
628,073;28242,281;    5,248;    2,864
628,650;27897,535;    3,067;    2,136
629,228;28393,963;    1,248;    4,409
629,806;27728,915;   -0,024;    1,136
630,383;27976,561;    0,066;   -0,318
630,961;27719,402;   -2,206;   -0,955
631,539;27456,148;   -2,479;    0,227
632,116;26708,857;   12,703;   15,409
632,694;27378,850;    4,885;    6,500
633,271;27683,167;    1,975;    2,682
633,848;27585,463;    1,430;    2,045
634,426;27644,144;    1,521;    1,773
635,003;26748,908;   -0,207;   -0,409
635,580;26994,693;    1,884;    3,682
636,158;27554,980;    3,793;    1,227
636,735;27538,200;    3,339;   -0,500
637,312;27681,562;    0,521;   -0,682
637,889;27764,161;    2,248;   -0,682
638,466;27224,099;    0,066;   -0,409
639,043;27298,077;    1,702;   -1,136
639,620;27593,490;    0,611;   -0,955
640,197;27848,701;    1,612;    1,682
640,774;28012,948;    1,430;    1,136
641,351;28492,195;    0,612;    1,136
641,928;27824,625;    2,794;    1,409
642,505;27485,145;    0,794;   -0,500
643,082;27649,665;    1,885;    1,227
643,658;26609,640;    1,157;    1,500
644,235;27328,978;   -2,479;    2,500
644,812;27665,498;    1,794;    0,773
645,388;27373,382;    1,612;    1,409
645,965;27475,448;    1,521;    1,682
646,542;27561,241;    3,430;   -0,227
647,118;27544,488;    3,703;   -0,955
647,695;27829,281;    0,339;    1,136
648,271;27769,619;   -2,115;    0,500
648,848;28076,958;    0,248;    2,227
649,424;27916,478;    0,976;    1,318
650,000;27586,089;   -0,388;   -1,045
650,577;27458,154;    0,158;   -0,955
651,153;27928,675;   -1,115;    0,955
651,729;28897,104;    0,521;    0,864
652,305;29194,169;    1,339;    2,773
652,881;33928,599;   -1,297;    1,136
653,458;41359,119;    0,249;    0,227
654,034;45652,366;    0,703;    1,591
654,610;47358,159;    0,339;    0,773
655,186;48751,316;    1,612;    3,045
655,762;48441,927;   -1,842;    0,409
656,338;48533,447;    0,703;    0,136
656,913;49565,240;   -0,297;    0,409
657,489;48850,215;    0,249;   -0,318
658,065;48814,735;    0,794;   -1,591
658,641;49301,346;    2,158;   -0,864
659,217;48567,684;    2,067;    0,409
659,792;48042,113;   -1,751;   -0,409
660,368;48325,634;   -0,388;   -0,682
660,944;47918,790;    1,794;    1,227
661,519;43034,219;    0,522;    0,409
662,095;36418,194;   -0,206;    0,591
662,670;31283,896;   -0,206;   -0,136
663,246;29939,143;   -0,660;   -0,409
663,821;29164,845;    0,431;    1,682
664,396;28688,366;    0,613;    1,864
664,972;28951,704;   -0,660;   -0,500
665,547;29303,951;    3,794;    0,136
666,122;29301,017;    1,340;    0,318
666,698;29580,719;    2,431;    0,318
667,273;28862,330;    0,885;    0,136
667,848;29719,759;    0,340;    1,500
668,423;29482,916;    1,795;    2,318
668,998;30082,618;    0,976;   -0,682
669,573;30624,229;    2,067;   -1,500
670,148;30473,840;    1,885;   -0,682
670,723;30305,360;   -0,024;    0,318
671,298;30805,789;   -1,296;    1,045
671,873;30890,037;   -0,296;   -0,136
672,448;30831,830;    1,704;    0,136
673,023;31211,077;    0,249;   -0,227
673,597;31476,143;    2,704;    2,318
674,172;31213,299;    2,431;    0,318
674,747;30731,274;   -0,205;   -1,045
675,321;30520,703;   -0,933;    3,318
675,896;30107,405;    2,158;    1,045
676,471;31165,471;    2,522;    1,591
677,045;30863,627;   -0,296;    0,682
677,620;30914,329;    2,158;    1,136
678,194;31296,213;    0,249;    1,136
678,769;30810,370;    0,886;   -0,318
679,343;31049,072;   -0,023;    1,773
679,917;30946,137;    0,340;    1,955
680,492;31053,839;    0,249;    3,227
681,066;31181,541;    0,613;    0,409
681,640;31145,789;    1,795;   -0,318
682,214;32025,672;    2,340;    0,500
682,788;31521,556;    0,613;   -0,773
683,363;31485,622;    1,977;    1,682
683,937;31148,597;    0,886;   -0,318
684,511;31966,390;   -1,023;   -0,591
685,085;31709,091;   -1,478;    0,318
685,659;31442,884;    1,431;    0,864
686,232;31623,314;    1,159;   -0,318
686,806;31385,834;    2,159;    0,409
687,380;32042,990;   -1,932;    0,591
687,954;32319,329;    2,432;    1,136
688,528;31996,940;    2,613;    1,955
689,101;32802,824;    0,432;    1,045
689,675;32289,344;    0,886;   -0,136
690,249;31680,227;    3,432;    0,409
690,822;31933,748;    1,159;    0,318
691,396;32052,813;    2,068;    1,227
691,969;31487,788;    2,523;    0,136
692,543;31990,490;   -0,568;   -1,955
693,116;31611,919;   -0,659;   -1,409
693,690;31450,985;   -0,296;    0,500
694,263;32037,687;    2,341;    2,955
694,836;32057,025;    2,795;    3,591
695,410;30695,363;    1,159;    1,773
695,983;31140,702;    1,614;    0,591
696,556;31069,858;   -0,750;   -1,045
697,129;31557,742;   -1,114;    1,409
697,703;31147,717;    1,341;    1,955
698,276;31111,782;    1,705;   -0,773
698,849;30894,212;   -1,023;    1,409
699,422;31235,641;    1,250;    0,591
699,995;30914,888;   -0,659;    0,136
700,568;31484,954;   -0,204;    3,045
701,140;31481,020;   -1,841;    1,682
701,713;31197,722;    0,341;    2,409
702,286;30958,696;    0,796;    0,864
702,859;30848,580;    0,614;   -0,591
703,432;29983,737;   -0,841;    0,682
704,004;30540,984;    1,978;    0,318
704,577;30339,141;    1,068;    0,136
705,150;30917,752;    0,887;    2,500
705,722;30697,636;    1,523;   -3,227
706,295;30496,792;    1,432;   -0,591
706,867;30327,312;    0,250;    1,955
707,440;30541,014;   -0,113;   -0,409
708,012;30800,898;   -0,022;    0,591
708,584;30676,418;    2,705;    0,227
709,157;31013,302;    1,160;   -0,591
709,729;30689,186;    1,069;    2,045
710,301;31531,888;   -1,204;    0,045
710,874;31497,862;    0,341;   -0,227
711,446;30393,110;   -0,295;    0,864
712,018;30288,448;   -3,022;    0,500
712,590;29936,423;   -0,204;    1,682
713,162;30533,216;   -0,477;    1,318
713,734;30806,009;    1,796;   -2,045
714,306;30642,892;    0,342;   -0,409
714,878;29254,594;   -0,295;    0,864
715,450;30112,024;   -0,113;    0,864
716,022;30429,726;    2,433;    1,318
716,593;30552,246;    0,978;    0,591
717,165;30466,493;    1,796;   -1,227
717,737;30168,832;    0,796;    0,409
718,309;29825,079;    1,160;   -0,045
718,880;29816,963;   -1,295;   -1,409
719,452;30002,574;    0,887;   -1,591
720,024;29492,276;    1,705;   -0,591
720,595;30112,432;    2,978;    0,955
721,167;29616,316;    1,160;   -2,045
721,738;29116,564;    2,069;   -1,045
722,309;29024,357;    1,251;   -1,227
722,881;28798,240;    2,705;    0,773
723,452;29553,761;    1,251;    2,864
724,023;29713,099;    1,524;    2,682
724,595;29474,892;    2,342;    0,682
725,166;29213,685;    1,524;   -0,409
725,737;28867,114;    1,887;    0,227
726,308;28939,361;    0,797;    0,318
726,879;29325,245;    1,069;    1,227
727,450;29190,129;   -2,022;   -0,045
728,021;29139,467;    1,069;    0,682
728,592;28964,169;    1,160;    0,500
729,163;29292,780;    1,433;   -0,136
729,734;29282,119;    2,160;   -0,227
730,305;29660,184;    0,615;    0,136
730,876;29977,159;    0,888;    2,955
731,447;29688,406;    0,797;    2,682
732,017;29829,290;   -0,840;    1,864
732,588;29340,356;   -0,021;    1,227
733,159;29513,603;    3,615;   -1,045
733,729;29287,851;    1,251;    0,409
734,300;28586,916;    0,160;    0,864
734,870;29022,255;   -1,385;    0,591
735,441;29547,229;    0,888;   -0,591
736,011;29369,295;    1,070;   -1,591
736,582;29295,542;    1,251;    0,045
737,152;28750,608;    0,979;   -2,045
737,722;29176,401;    1,070;   -0,682
738,293;28955,012;   -2,021;    1,318
738,863;28788,714;    1,797;    2,318
739,433;28575,052;    4,524;    0,318
740,003;29229,754;    1,524;   -0,682
740,573;28602,638;    2,252;   -1,591
741,143;28603,977;    3,615;    0,318
741,713;29389,224;    0,252;   -0,500
742,283;29015,108;    1,706;    1,591
742,853;28774,355;    0,524;    1,591
743,423;28223,875;    0,161;    0,045
743,993;28329,759;    1,070;    1,500
744,563;27709,461;    2,524;   -0,864
745,133;27569,345;   -0,112;   -0,864
745,702;28379,956;    2,797;    1,773
746,272;27502,749;    0,434;    0,591
746,842;27290,905;   -0,748;   -0,591
747,411;27812,244;   -0,839;   -0,318
747,981;27981,946;   -0,930;    0,500
748,551;28018,920;   -0,021;   -1,045
749,120;27876,077;   -0,112;   -0,227
749,690;28232,779;    2,161;    2,409
750,259;28554,663;    0,979;    2,955
750,828;28453,365;    4,070;   -1,955
751,398;28712,794;   -0,112;   -0,045
751,967;28130,132;    2,888;    0,409
752,536;28444,925;    1,161;   -0,227
753,105;28844,900;   -1,384;    0,227
753,675;28636,420;   -0,112;    1,773
754,244;28572,395;    0,888;    3,591
754,813;28616,460;    0,979;    1,227
755,382;28223,890;    0,798;    0,955
755,951;28684,410;   -0,112;    3,682
756,520;28281,475;    2,525;    1,864
757,089;28861,632;    1,888;    0,500
757,658;28953,698;    2,434;    1,227
758,227;29007,400;   -1,111;    0,318
758,795;29290,374;   -1,021;    1,136
759,364;29551,804;    0,525;   -0,591
759,933;28521,960;    1,343;   -0,045
760,501;28054,753;    0,252;   -1,318
761,070;28525,455;   -0,293;   -1,409
761,639;29290,702;    1,434;    1,318
762,207;28538,677;    0,889;   -0,955
762,776;28445,015;    2,889;    0,864
763,344;28436,536;    0,071;    0,591
763,913;27523,419;    1,616;    1,409
764,481;28275,576;    1,980;   -0,136
765,049;28054,551;    0,616;    1,409
765,618;27933,071;    1,434;    0,318
766,186;28036,864;    2,434;    0,136
766,754;28184,929;    1,798;    1,864
767,322;27116,359;    1,162;    0,409
767,890;27159,606;    0,525;   -1,773
768,459;27546,308;    2,616;   -0,318
769,027;27722,101;    2,525;    3,409
769,595;26703,894;    2,616;    2,591
770,163;27112,959;    3,344;    2,955
770,730;26845,480;    2,525;   -0,136
771,298;26780,000;    1,162;   -1,409
771,866;26867,247;    0,253;    4,955
772,434;27133,222;    1,162;   -1,864
773,002;27291,378;    2,616;    0,682
773,569;26939,808;    1,071;    1,682
774,137;26792,691;    0,889;   -0,045
774,705;27619,939;   -0,747;   -0,136
775,272;27038,914;    0,253;    0,682
775,840;26790,979;   -0,111;    2,682
776,407;26222,863;   -0,293;    1,955
776,975;25866,747;    1,162;    0,318
777,542;26892,903;    2,162;   -0,045
778,110;26750,151;    0,707;   -0,045
778,677;26396,944;    1,071;   -0,864
779,244;26126,918;   -1,020;    1,045
779,812;26282,257;    0,980;    0,864
780,379;26062,777;    2,435;    1,136
780,946;26316,842;    2,617;   -0,773
781,513;26690,363;   -0,565;    0,318
782,080;26010,701;    1,253;    2,864
782,647;26721,494;    1,708;    3,045
783,214;26356,741;   -0,201;    3,864
783,781;25948,716;    1,708;   -0,682
784,348;25832,963;    0,253;    1,500
784,915;26306,302;   -1,474;    0,318
785,482;26025,913;    2,708;    2,591
786,049;26483,797;    1,071;   -0,591
786,615;26614,590;    1,708;   -0,955
787,182;26402,382;   -3,201;   -0,682
787,749;26059,539;   -2,201;    1,409
788,315;25351,605;    0,253;   -0,409
788,882;25695,670;    0,981;   -1,227
789,448;26325,645;    1,435;   -0,955
790,015;26369,074;    1,799;    3,227
790,581;25911,049;    0,708;    0,227
791,148;25790,933;    1,344;    1,045
791,714;25972,180;   -1,019;    3,136
792,280;25688,791;    3,708;    1,591
792,847;25297,311;   -0,928;    2,500
793,413;25853,286;   -0,110;   -0,318
793,979;25324,261;    1,526;   -1,318
794,545;25417,963;    2,981;    2,682
795,111;24789,937;    2,435;    1,318
795,678;24994,821;    3,526;   -1,682
796,244;24589,887;    2,799;    0,136
796,810;25189,225;    0,799;    0,773
797,375;24884,109;   -0,292;   -2,136
797,941;24935,993;   -1,110;    0,591
798,507;25064,604;    0,254;   -0,955
799,073;24613,760;    2,708;    0,591
799,639;24676,644;    1,435;    3,136
800,205;24700,164;   -1,565;    2,682
800,770;24206,866;    1,345;    1,773
801,336;24225,023;    2,981;   -0,955
801,901;23914,452;    6,072;    3,136
802,467;24541,518;    0,526;    2,045
803,033;23858,129;   -0,019;    0,864
803,598;24054,558;    1,072;   -1,045
804,163;24092,260;    0,708;   -0,318
804,729;23945,144;   -0,110;    1,136
805,294;24379,391;    1,072;    2,227
805,859;24243,093;    0,890;   -0,409
806,425;23665,159;    3,890;    2,682
806,990;23317,315;    1,890;    4,318
807,555;23833,381;   -0,110;    2,591
808,120;23688,992;   -1,292;   -0,409
808,685;23774,330;    1,072;   -2,500
809,250;23284,032;    2,072;   -0,500
809,815;23649,462;   -0,201;    0,682
810,380;24127,345;    0,981;    1,591
810,945;24615,957;    2,890;    2,045
811,510;23867,022;   -0,200;    1,591
812,075;23543,815;    2,800;   -1,409
812,640;23561,153;    3,709;    1,409
813,204;23601,492;    2,163;   -0,227
813,769;24144,739;    0,254;   -0,045
814,334;23482,077;    0,527;    0,864
814,898;23541,143;    1,981;    0,591
815,463;23382,391;    0,981;   -0,773
816,027;23359,274;    1,345;   -2,318
816,592;23465,794;    2,163;   -2,045
817,156;22941,042;   -2,200;    1,136
817,721;22733,744;    0,982;    2,318
818,285;22705,537;    0,618;    1,500
818,849;23403,239;   -0,018;    1,682
819,414;23304,123;    0,073;    2,955
819,978;22851,279;   -0,291;    1,773
820,542;23448,981;    2,891;    0,500
821,106;23163,865;    2,800;    0,682
821,670;23229,203;    2,709;    2,591
822,234;22936,723;    1,073;    1,409
822,798;22300,244;   -0,836;    0,500
823,362;22318,400;    1,527;    4,227
823,926;21571,466;   -0,018;    1,136
824,490;21804,077;    3,527;   -0,682
825,054;22272,961;    2,527;   -1,136
825,618;21860,117;   -1,200;   -1,500
826,181;21766,819;    0,982;   -1,318
826,745;21644,794;   -0,745;   -1,045
827,309;21982,405;    2,255;    1,318
827,872;21401,016;    0,527;    0,955
828,436;22420,809;    1,982;   -0,773
828,999;22463,784;    2,436;    1,227
829,563;21296,304;   -0,654;    1,136
830,126;21098,187;   -0,018;   -0,591
830,690;21090,071;    0,709;    2,864
831,253;20580,228;   -0,473;    2,227
831,816;20750,293;   -0,018;    0,500
832,380;20667,086;    1,164;    0,864
832,943;20852,425;    3,073;   -0,500
833,506;20340,945;    0,255;   -1,227
834,069;21161,920;    2,164;   -0,955
834,632;21218,894;   -2,200;    1,318
835,195;21104,687;    1,346;    0,955
835,758;20327,480;    0,709;    1,955
836,321;20140,273;    1,073;   -1,045
836,884;20245,066;   -1,291;   -0,955
837,447;20290,677;    0,528;    1,773
838,010;20497,015;    1,800;    3,227
838,573;20836,717;    0,528;    0,773
839,135;20723,056;   -0,109;   -0,955
839,698;20161,667;    2,528;    0,409
840,261;19695,096;    0,255;   -0,227
840,823;19554,616;   -0,927;    0,864
841,386;19839,954;   -0,018;   -2,409
841,948;19683,202;    0,255;    1,773
842,511;19449,631;    0,255;    1,682
843,073;19599,060;    2,982;    0,227
843,636;19402,762;    0,619;   -0,227
844,198;19315,373;    1,255;    0,591
844,760;19502,075;    0,619;    1,955
845,322;19112,505;    0,164;    1,136
845,885;19522,752;   -0,290;    0,591
846,447;19967,636;    0,710;    0,227
847,009;19502,338;    3,983;   -0,682
847,571;19840,403;    1,346;   -2,045
848,133;19931,651;   -0,199;   -1,864
848,695;19768,898;    2,346;    1,409
849,257;19303,509;    1,346;   -1,682
849,819;19427,120;    2,983;   -0,409
850,381;19496,641;    1,801;   -0,864
850,942;19897,706;    1,892;   -0,591
851,504;19805,863;    0,983;    0,227
852,066;19852,383;    1,619;   -1,591
852,628;19406,539;    0,165;    1,955
853,189;18966,514;    0,256;    2,682
853,751;19109,580;   -0,654;    1,409
854,312;18928,373;    1,256;   -1,682
854,874;19463,256;   -0,108;   -0,773
855,435;19959,686;    0,528;   -1,682
855,997;20089,479;    3,983;   -0,136
856,558;19321,999;    0,801;    1,773
857,119;19451,155;   -0,744;    2,864
857,681;19110,766;   -0,108;    0,318
858,242;19153,832;    1,347;   -2,136
858,803;19613,352;    1,074;   -0,773
859,364;20185,781;    0,892;   -4,773
859,925;19545,574;   -0,290;   -0,955
860,486;19414,458;    0,529;   -0,955
861,047;19082,251;    0,165;   -1,227
861,608;18900,135;    0,165;   -0,773
862,169;19083,928;   -0,562;   -0,045
862,730;18808,993;   -0,290;    1,409
863,291;19043,332;    0,438;   -0,500
863,852;19381,488;   -0,926;    1,955
864,412;18843,463;   -1,835;   -0,864
864,973;17416,347;    1,892;    0,500
865,534;17242,594;    2,074;    0,227
866,094;18724,296;    2,620;    0,227
866,655;18394,453;    4,711;    3,318
867,215;18745,518;    0,074;    0,136
867,776;18614,584;   -1,199;   -0,136
868,336;18719,559;    1,529;    0,136
868,897;18113,806;    3,438;    1,682
869,457;17894,144;    3,256;    0,318
870,017;18145,664;    2,438;   -1,227
870,578;18664,548;    1,893;    0,773
871,138;18268,705;    2,620;   -0,955
871,698;17807,770;   -0,562;   -1,318
872,258;17659,745;    0,711;   -2,864
872,818;18021,720;    2,347;    0,045
873,378;18019,785;   -2,198;    1,045
873,938;17571,578;    4,984;    0,500
874,498;17922,553;    1,256;   -1,955
875,058;17760,437;    4,347;    1,773
875,618;17626,775;    1,438;   -2,682
876,177;17606,568;   -0,471;    0,136
876,737;17155,816;   -0,289;    1,955
877,297;17140,881;    2,711;    1,955
877,856;17154,583;    2,529;    0,318
878,416;17090,467;    2,438;   -0,136
878,976;17355,896;    3,438;    0,409
879,535;17530,507;    4,529;    3,136
880,095;17235,846;    1,347;    0,045
880,654;17345,820;    0,347;    1,318
881,213;17458,704;    2,347;    1,500
881,773;17114,952;    1,984;    2,682
882,332;17453,744;    6,075;    5,136
882,891;17295,810;    0,711;    2,136
883,451;17763,876;   -2,016;    1,682
884,010;17248,305;   -1,107;   -0,409
884,569;17313,098;   -2,289;   -0,045
885,128;17441,982;   -0,743;   -1,864
885,687;17478,047;   -0,743;    0,682
886,246;17160,022;    2,620;    2,136
886,805;16885,997;    1,620;    2,045
887,364;17186,517;    1,166;   -0,500
887,922;17579,764;   -0,016;    0,045
888,481;17060,648;    1,530;    0,591
889,040;17381,623;    3,711;    2,136
889,599;18109,870;    2,166;    1,409
890,157;18180,572;    2,166;    2,409
890,716;17817,001;    2,166;    0,227
891,274;17628,340;    0,075;   -1,136
891,833;18034,951;    1,166;    0,864
892,391;17918,289;    1,802;    0,500
892,950;17999,264;    0,166;   -0,773
893,508;18350,511;    0,984;   -0,409
894,067;17693,122;   -0,379;    0,136
894,625;17616,461;   -1,016;   -1,500
895,183;17836,981;   -0,198;   -0,682
895,741;17762,501;    2,257;   -1,773
896,299;17579,658;    1,621;   -2,409
896,858;17782,723;    1,530;   -1,591
897,416;17854,880;    0,166;   -1,318
897,974;17604,673;   -2,197;    0,318
898,532;17783,102;    6,530;    2,682
899,089;17663,349;    0,621;   -0,682
899,647;17721,324;    0,530;    1,318
900,205;17447,481;    0,257;    1,045
900,763;17700,819;    2,166;    0,227
901,321;17675,885;    3,530;   -1,409
901,878;17131,405;    3,257;   -0,773
902,436;16953,379;    0,257;    1,318
902,994;17320,809;    6,712;    3,682
903,551;16728,511;    1,439;    0,409
904,109;17181,485;    1,530;   -1,409
904,666;16786,096;    1,439;    1,045
905,224;16547,798;    3,894;   -0,409
905,781;16264,773;   -0,470;   -0,318
906,338;16335,566;    0,167;    1,045
906,895;16313,268;    1,894;    2,045
907,453;16228,424;    2,348;    1,136
908,010;16259,126;    3,348;    0,409
908,567;15879,010;   -0,561;    0,591
909,124;15380,894;    2,439;   -1,500
909,681;15416,505;   -1,288;    0,682
910,238;15589,207;   -0,106;   -1,318
910,795;15944,000;   -1,561;   -1,136
911,352;15532,636;   -0,379;   -2,682
911,909;14951,909;    2,803;   -0,864
912,466;15457,273;    1,985;    1,500
913,022;14982,909;   -0,924;    0,500
913,579;15333,545;   -0,470;    2,045
914,136;15017,636;   -2,561;    0,955
914,692;15393,727;    1,530;   -1,227
915,249;14990,364;    0,530;    0,409
915,806;15165,000;    1,803;    1,955
916,362;14859,818;    0,894;    1,864
916,918;14456,000;    2,439;    1,045
917,475;14440,818;    1,621;    0,955
918,031;14567,000;    0,076;   -0,045
918,587;13998,727;    0,621;   -0,318
919,144;14212,727;   -0,379;    0,227
919,700;14543,091;    0,167;    0,773
920,256;14104,455;    0,439;    0,045
920,812;13710,727;    1,439;   -1,045
921,368;13702,545;    1,348;   -1,045
921,924;13324,909;    0,439;   -0,136
922,480;12888,455;    0,076;    1,227
923,036;13512,545;   -0,652;    1,955
923,592;13452,727;    0,621;    0,318
924,148;13327,273;    1,894;   -0,955
924,704;12667,364;    0,258;   -0,409
925,259;12940,091;   -0,561;    0,591
925,815;12670,273;    3,803;    0,500
926,371;12228,364;    3,530;    1,409
926,926;12105,364;    1,621;    0,591
927,482;11706,909;    1,621;    0,773
928,037;11599,000;   -0,833;    2,045
928,593;11935,273;    0,258;    1,045
929,148;11701,091;    1,167;   -1,500
929,704;11221,818;    2,439;   -0,500
930,259;11402,909;    0,894;   -0,136
930,814;10506,000;    1,803;    1,955
931,369;10200,727;    0,258;   -0,773
931,925;10078,455;   -1,924;    0,136
932,480; 9897,727;    3,076;   -2,591
933,035; 9790,455;    3,985;   -0,318
933,590; 9525,455;   -1,742;   -1,773
934,145; 9181,364;   -1,288;   -0,318
934,700; 9552,636;    0,348;   -0,591
935,255; 9313,636;    4,803;    0,045
935,809; 8578,727;    6,258;    0,864
936,364; 7716,091;    2,167;   -0,136
936,919; 7697,636;    2,348;   -1,773
937,474; 7577,000;    1,348;    0,136
938,028; 7360,818;    3,076;    1,136
938,583; 6784,273;    6,348;    4,682
939,138; 7085,818;    0,167;    2,136
939,692; 6534,818;   -1,015;   -1,136
940,247; 6206,545;    1,167;   -1,045
940,801; 5722,182;    0,621;    0,227
941,355; 5626,545;    0,439;    2,591
941,910; 5298,818;    0,712;   -2,136
942,464; 5380,545;    2,712;   -0,318
943,018; 5152,818;    3,258;   -0,227
943,572; 5106,000;    2,803;   -0,682
944,126; 4498,182;   -0,924;   -0,409
944,681; 4379,182;    0,712;    0,227
945,235; 4381,182;    2,167;   -0,591
945,789; 4300,909;    1,258;   -1,864
946,342; 4390,636;   -0,561;   -0,591
946,896; 4207,000;    0,348;    0,955
947,450; 3959,455;   -0,561;   -0,227
948,004; 4136,000;    1,076;   -0,045
948,558; 4172,364;    1,258;   -0,864
949,111; 4076,091;   -1,197;   -0,318
949,665; 4102,818;   -0,106;   -0,682
950,219; 3967,636;    0,621;   -1,045
950,772; 4052,364;    0,258;    1,864
951,326; 3984,182;   -1,106;   -0,955
951,879; 4075,636;    1,076;   -2,318
952,433; 4108,909;    1,348;    2,227
952,986; 3930,727;    0,348;    0,682
953,539; 3854,273;    1,530;    0,591
954,093; 3807,182;    0,985;   -1,318
954,646; 3939,000;   -0,288;    1,318
955,199; 3746,364;    1,258;   -0,500
955,752; 3620,818;    1,985;    1,773
956,305; 3591,636;    0,894;    2,955
956,858; 3752,182;    0,621;   -0,318
957,411; 3940,636;    3,621;    2,136
957,964; 3753,545;    2,076;    2,136
958,517; 3733,909;    0,985;    3,136
959,070; 3582,455;   -1,197;    1,955
959,623; 3643,000;    1,076;    1,500
960,176; 3399,818;    0,712;    2,045
960,728; 3360,818;    1,712;    0,773
961,281; 3448,636;    2,258;    0,500
961,834; 3486,545;   -0,833;    0,864
962,386; 3402,545;    1,258;    1,045
962,939; 3303,818;    3,439;   -0,318
963,491; 3477,727;    2,621;    1,136
964,043; 3334,091;    0,076;    2,409
964,596; 3435,091;    1,712;    2,227
965,148; 3279,364;   -0,379;    1,773
965,700; 3229,091;   -0,015;   -0,227
966,253; 3379,545;   -0,833;    0,318
966,805; 3212,182;    1,894;    0,773
967,357; 3252,273;    0,439;   -1,500
967,909; 3206,545;    1,167;   -1,227
968,461; 3342,636;    0,894;    3,136
969,013; 3259,182;   -1,561;   -0,864
969,565; 3314,727;    1,803;   -1,136
970,117; 3396,818;    3,803;    1,045
970,669; 3230,273;    3,258;   -0,136
971,220; 3094,182;    2,167;   -1,500
971,772; 3012,636;    1,348;   -0,318
972,324; 3121,273;   -1,197;   -0,500
972,876; 3090,091;    0,167;   -0,045
973,427; 3209,182;   -1,197;   -1,045
973,979; 3194,545;    0,076;   -2,500
974,530; 3215,091;    0,803;    1,318
975,082; 3222,455;    2,167;    1,682
975,633; 3108,818;    2,894;    1,682
976,184; 3265,091;    2,076;    0,773
976,736; 3057,091;    0,348;    0,227
977,287; 2845,273;    0,258;   -0,500
977,838; 3038,455;   -0,924;   -0,318
978,389; 3079,000;    0,803;   -0,500
978,940; 2959,727;    1,258;   -0,409
979,491; 2988,091;    2,258;   -0,500
980,042; 2931,364;   -0,652;    3,045
980,593; 3014,182;    1,894;    0,227
981,144; 3050,818;    3,530;   -0,500
981,695; 3021,000;   -0,470;    1,500
982,246; 2981,909;   -1,833;    1,045
982,797; 3158,091;   -0,561;    0,682
983,347; 3277,636;    2,167;    0,591
983,898; 3418,727;    4,167;    0,409
984,449; 3216,364;    2,530;    0,773
984,999; 3154,000;    1,894;   -1,136
985,550; 2908,909;    3,167;   -0,318
986,100; 2967,455;    0,712;   -0,318
986,651; 2983,364;    0,258;    0,045
987,201; 2969,909;    0,894;   -0,591
987,751; 3057,273;   -0,288;    2,864
988,302; 3046,000;   -0,379;    1,500
988,852; 3056,455;    1,985;   -1,136
989,402; 3093,545;    0,985;    0,682
989,952; 3014,182;    1,621;    0,864
990,502; 3126,273;    1,076;    0,682
991,052; 3096,545;   -0,106;    0,045
991,602; 2927,455;    1,167;    1,318
992,152; 2924,000;    2,803;    0,682
992,702; 2920,091;    1,167;   -0,045
993,252; 2840,273;    0,076;   -0,500
993,802; 2915,818;    1,167;    1,318
994,352; 3197,364;   -0,742;    1,136
994,901; 3311,273;    1,076;    3,227
995,451; 3208,364;   -1,197;    0,318
996,000; 3284,182;    1,076;    0,318
996,550; 2971,364;    2,894;    0,227
997,100; 2987,636;   -0,561;   -0,045
997,649; 3273,909;   -0,197;    0,955
998,198; 2911,364;   -0,288;   -1,500
998,748; 3086,545;    0,348;   -2,318
999,297; 2998,091;    0,985;   -0,409
999,846; 3071,727;    1,894;   -0,773
1000,395; 3118,273;    1,530;    0,500
1000,945; 3058,364;    1,076;   -0,773
1001,494; 3125,182;    0,167;    0,682
1002,043; 3143,909;    0,712;    0,864
1002,592; 2981,455;    3,439;    1,955
1003,141; 3129,727;    2,439;   -0,682
1003,690; 2958,000;    1,258;    0,500
1004,238; 3037,909;   -0,106;   -0,045
1004,787; 2647,091;   -1,288;    1,227
1005,336; 2897,545;    1,621;    0,682
1005,885; 3046,636;   -0,197;   -2,773
1006,433; 3202,818;   -0,470;    0,955
1006,982; 3250,545;    2,167;    1,682
1007,531; 3189,818;    2,712;   -0,227
1008,079; 3136,545;    0,258;    0,500
1008,627; 3295,818;    1,621;    0,409
1009,176; 3023,091;    0,076;   -1,955
1009,724; 3066,636;   -2,742;    0,864
1010,273; 3101,727;    1,076;    0,500
1010,821; 3229,182;    1,076;    1,409
1011,369; 2953,182;    0,076;    1,318
1011,917; 2920,727;   -0,833;   -0,591
1012,465; 3213,182;    2,530;   -1,591
1013,013; 3345,182;    0,439;   -1,682
1013,561; 3228,636;   -1,288;   -0,773
1014,109; 3267,091;   -0,833;    1,682
1014,657; 3120,545;    1,348;    0,591
1015,205; 3250,455;    0,894;   -0,955
1015,753; 3291,000;    0,258;   -1,409
1016,301; 3327,636;    2,621;    3,045
1016,848; 3321,273;    2,167;    0,409
1017,396; 3347,636;    1,621;    0,045
1017,944; 3496,091;    2,621;    1,864
1018,491; 3245,818;   -0,197;    1,409
1019,039; 3400,545;   -0,652;    0,591
1019,586; 3334,636;    0,076;    1,682
1020,134; 3414,000;    0,712;    1,500
1020,681; 3426,909;    2,894;   -1,136
1021,228; 3440,000;   -0,561;   -2,227
1021,776; 3284,000;   -0,833;   -1,136
1022,323; 3487,000;    0,803;    0,773
1022,870; 3421,727;   -0,470;   -0,045
1023,417; 3304,182;    2,076;    1,864
1023,964; 3482,636;    0,621;    1,227
1024,511; 3302,727;   -0,652;    0,773
1025,058; 3105,091;    0,439;   -0,045
1025,605; 3140,364;   -1,742;    3,136
1026,152; 3346,273;   -0,106;   -0,591
1026,699; 3094,545;    0,167;    1,318
1027,245; 3261,091;    2,439;    0,318
1027,792; 3504,455;    0,712;    1,409
1028,339; 3366,364;    4,076;   -0,045
1028,885; 3214,636;    3,621;   -0,227
1029,432; 3159,182;   -0,106;    0,227
1029,978; 3225,091;    1,348;   -1,591
1030,525; 3114,636;    1,621;    0,409
1031,071; 3377,000;    0,348;    1,136
1031,618; 3464,364;    1,258;    1,682
1032,164; 3248,273;    2,076;    3,045
1032,710; 3289,455;    0,076;   -1,500
1033,256; 3229,091;    0,712;   -0,136
1033,803; 3221,091;   -0,288;    1,500
1034,349; 2943,818;    1,803;    0,136
1034,895; 3104,182;    2,621;   -0,318
1035,441; 3051,364;    0,439;    0,318
1035,987; 3065,818;   -2,288;   -0,682
1036,533; 3061,182;   -0,197;   -0,955
1037,078; 3260,182;    4,712;    1,682
1037,624; 3083,636;    2,439;   -0,955
1038,170; 3110,364;    1,712;   -0,318
1038,716; 2976,455;    2,167;   -0,409
1039,261; 2931,000;    2,167;   -0,773
1039,807; 2866,636;   -0,015;    3,409
1040,352; 2926,909;   -1,288;   -0,318
1040,898; 2973,818;    0,167;   -0,682
1041,443; 2882,455;    0,803;   -2,591
1041,989; 2895,455;    3,621;    1,591
1042,534; 2778,273;    0,985;    2,591
1043,079; 2908,727;    1,985;    0,955
1043,625; 2683,364;    0,258;    0,500
1044,170; 2731,091;    2,439;    1,045
1044,715; 2991,545;    0,167;    0,955
1045,260; 2797,364;   -0,833;   -0,955
1045,805; 2844,545;    0,258;   -0,591
1046,350; 2796,182;    0,530;   -0,409
1046,895; 2743,909;    0,803;    1,591
1047,440; 2669,000;    1,530;    0,409
1047,985; 2587,091;   -1,197;   -0,955
1048,530; 2509,909;    1,348;    1,227
1049,074; 2575,818;    2,803;    0,318
1049,619; 2554,818;   -0,924;    1,955
1050,164; 2350,091;    1,076;    0,227
1050,708; 2399,000;    2,621;    0,045
1051,253; 2740,818;    3,258;   -2,227
1051,797; 2465,364;   -0,197;   -1,318
1052,342; 2498,182;    1,348;    1,045
1052,886; 2472,273;    1,803;   -1,409
1053,430; 2365,636;    2,167;    0,136
1053,975; 2382,273;    0,894;   -0,318
1054,519; 2355,455;    1,803;    3,227
1055,063; 2358,909;    3,621;    1,318
1055,607; 2241,091;    1,348;    0,227
1056,151; 2280,909;    0,530;    1,682
1056,695; 2199,455;   -1,833;   -1,136
1057,239; 2267,091;   -1,197;   -0,682
1057,783; 2261,091;    2,258;   -1,500
1058,327; 2215,000;    3,076;    1,409
1058,871; 2432,727;    3,985;    1,318
1059,415; 2136,273;   -0,561;   -0,045
1059,958; 2380,455;    2,985;    2,591
1060,502; 2124,545;    1,348;   -0,773
1061,046; 2031,000;    1,712;   -0,955
1061,589; 2008,636;    2,803;   -1,136
1062,133; 1888,636;    0,985;    1,864
1062,676; 1824,727;    1,439;    0,864
1063,220; 1826,818;    0,985;    0,500
1063,763; 1852,727;    2,985;    1,136
1064,306; 1924,636;    0,985;    1,864
1064,849; 1810,909;    2,076;    0,591
1065,393; 1809,000;    2,894;   -1,500
1065,936; 1928,545;    2,530;   -0,409
1066,479; 1825,727;    2,621;    1,318
1067,022; 1843,091;    1,894;   -0,227
1067,565; 1747,455;   -1,197;   -1,318
1068,108; 1766,455;    1,258;   -0,591
1068,651; 1757,818;   -2,470;    1,409
1069,194; 1683,455;   -1,106;   -1,682
1069,736; 1666,182;    3,803;    0,955
1070,279; 1650,818;   -1,652;   -0,500
1070,822; 1695,091;    1,530;   -0,318
1071,364; 1751,455;    0,530;    1,318
1071,907; 1594,636;    0,348;    3,227
1072,450; 1525,000;    0,258;   -0,045
1072,992; 1499,636;   -0,561;    3,136
1073,535; 1628,545;    0,167;    2,136
1074,077; 1431,818;    2,985;    2,045
1074,619; 1394,364;    0,985;    0,591
1075,161; 1415,091;   -0,561;    1,500
1075,704; 1607,818;    0,258;    1,227
1076,246; 1405,909;    1,530;    0,682
1076,788; 1342,091;   -1,015;    1,773
1077,330; 1442,818;   -2,106;    2,136
1077,872; 1388,727;   -1,924;    0,955
1078,414; 1608,455;    3,712;    0,773
1078,956; 1332,818;    0,167;   -0,227
1079,498; 1576,364;    0,439;    0,318
1080,040; 1273,909;    0,985;   -1,318
1080,581; 1227,273;    0,621;   -0,318
1081,123; 1177,182;   -0,106;   -0,773
1081,665; 1222,636;    3,803;   -0,955
1082,206; 1492,545;    3,258;   -0,500
1082,748; 1356,545;    3,258;    2,045
1083,289; 1254,727;    0,167;    1,318
1083,831; 1166,182;    0,258;    0,227
1084,372; 1182,273;    0,894;    0,591
1084,913; 1178,273;    3,348;    0,864
1085,455; 1159,455;    1,530;   -2,045
1085,996; 1121,455;    0,530;    0,136
1086,537; 1137,091;    0,985;    0,864
1087,078; 1180,818;    0,439;   -2,136
1087,619; 1216,636;   -1,652;    0,227
1088,160; 1131,818;    1,439;    1,318
1088,701; 1117,727;   -0,742;    0,682
1089,242; 1062,727;   -0,561;   -2,227
1089,783; 1156,000;   -0,561;    1,409
1090,324; 1129,636;   -0,833;    0,682
1090,865;  996,545;   -1,924;   -0,409
1091,405;  989,818;   -0,561;    2,227
1091,946; 1018,818;   -0,197;   -0,955
1092,487;  953,091;   -1,288;   -1,409
1093,027; 1091,909;    1,803;   -1,500
1093,568;  944,364;    2,258;    1,227
1094,108; 1014,182;    0,621;    1,773
1094,649;  972,636;   -0,470;    0,136
1095,189;  919,818;    1,167;   -0,682
1095,729;  883,727;    0,712;    0,955
1096,269;  885,455;    1,258;   -0,955
1096,810; 1183,818;   -0,197;    0,500
1097,350; 1013,182;   -0,561;   -0,773
1097,890;  912,545;    2,985;    1,227
1098,430; 1159,455;    4,985;    2,864
1098,970; 1035,091;    1,894;    1,682
1099,510;  919,909;   -0,833;   -2,318
1100,050;  843,636;    0,258;   -1,591
1100,589;  799,909;    0,076;   -0,318
1101,129;  914,182;    0,894;   -0,955
1101,669; 1048,273;    2,803;    2,136
1102,209;  888,727;    1,530;    2,227
1102,748;  834,000;    3,439;    0,955
1103,288;  816,818;    0,712;   -1,227
1103,827;  841,909;    3,530;   -2,227
1104,367;  736,545;    1,712;   -2,409
1104,906;  705,545;   -1,015;   -1,136
1105,445;  774,545;    0,985;   -1,136
1105,985;  712,364;   -0,652;    1,500
1106,524;  760,273;    1,530;   -0,682
1107,063;  730,727;    1,167;    1,409
1107,602;  703,000;    1,894;   -1,500
1108,141;  631,636;    1,621;    1,500
1108,680;  732,182;    3,985;   -0,591
1109,219;  680,364;    0,167;   -0,500
1109,758;  677,818;    4,167;    0,682
1110,297;  650,182;   -1,106;   -0,682
1110,836;  599,182;    1,439;    0,955
1111,375;  744,636;    0,348;    0,409
1111,913;  763,727;    0,985;    0,773
1112,452;  700,727;    0,894;    0,136
1112,991;  592,636;    1,076;    1,955
1113,529;  550,727;    0,167;   -0,045
1114,068;  616,364;    0,439;    2,955
1114,606;  517,545;   -0,561;   -0,955
1115,144;  671,273;    1,530;    1,045
1115,683;  623,818;    1,985;    0,318
1116,221;  666,364;    2,076;   -0,864
1116,759;  572,545;    1,621;   -0,864
1117,297;  753,909;    1,621;    1,864
1117,836;  566,182;    1,985;   -1,227
1118,374;  567,364;    0,258;   -0,682
1118,912;  527,455;    0,439;    2,682
1119,450;  509,818;    0,985;    0,864
1119,988;  552,273;    3,348;    2,136
1120,525;  999,909;    7,258;    3,318
1121,063;  710,727;    0,530;    1,864
1121,601;  520,000;    1,076;   -1,227
1122,139;  472,545;    1,076;   -2,045
1122,676;  664,455;   -1,652;    2,773
1123,214;  607,818;    0,712;    4,409
1123,751;  425,091;    0,621;    2,227
1124,289;  543,545;    0,894;   -0,409
1124,826;  419,364;   -0,379;    0,227
1125,364;  348,364;    0,712;   -0,955
1125,901;  537,091;    6,258;    1,227
1126,438;  622,909;    3,530;    0,955
1126,975;  374,364;    2,985;   -0,773
1127,513;  438,364;    2,621;    2,136
1128,050;  355,636;   -0,561;   -0,682
1128,587;  442,364;    1,348;   -0,227
1129,124;  476,091;   -0,015;    1,318
1129,661;  358,909;   -1,924;    0,227
1130,198;  512,636;    2,439;    0,773
1130,734;  456,727;   -0,379;    1,409
1131,271;  322,909;   -1,197;    0,864
1131,808;  494,455;    1,621;    3,045
1132,345;  369,091;    4,530;    0,318
1132,881;  252,273;   -0,561;   -1,864
1133,418;  371,455;    0,348;   -1,136
1133,954;  318,364;    0,712;   -2,682
1134,491;  382,909;    1,712;   -0,773
1135,027;  294,000;    2,167;    0,864
1135,564;  372,727;    1,439;    2,955
1136,100;  359,091;   -0,742;    2,136
1136,636;  261,000;   -1,015;   -1,045
1137,172;  341,364;    0,894;   -1,045
1137,708;  272,909;   -1,561;   -1,045
1138,245;  280,909;    0,803;   -1,227
1138,781;  244,273;    1,803;   -3,318
1139,317;  296,455;    1,894;   -1,409
1139,852;  286,545;    3,076;    0,136
1140,388;  394,727;    2,076;   -0,409
1140,924;  283,727;    1,076;   -2,227
1141,460;  226,182;   -0,288;    0,136
1141,996;  166,000;   -0,652;    2,682
1142,531;  199,909;    1,076;    3,318
1143,067;  404,182;    1,167;    1,045
1143,602;  458,636;    3,439;   -0,318
1144,138;  315,364;    0,803;    1,045
1144,673;  185,273;    1,621;    1,409
1145,209;  246,909;    2,894;   -0,318
1145,744;  176,091;    0,803;    0,864
1146,279;  300,182;    1,530;   -0,136
1146,815;  232,455;    1,530;   -2,682
1147,350;  269,636;   -0,924;    0,045
1147,885;  182,091;   -1,924;   -1,318
1148,420;  174,545;    2,439;    0,773
1148,955;  160,909;   -1,470;    1,864
1149,490;  191,182;   -1,106;   -1,591
1150,025;  171,182;   -1,106;   -1,773
1150,560;  270,818;   -0,288;   -0,955
1151,094;  231,545;    0,258;   -0,591
1151,629;  239,545;   -3,742;    0,864
1152,164;  175,818;   -1,288;    1,318
1152,698;  137,364;    1,258;   -0,136
1153,233;  101,091;   -1,379;   -0,682
1153,767;  150,909;   -0,288;   -2,318
1154,302;  192,455;   -0,379;    1,773
1154,836;  189,273;    0,803;   -2,136
1155,371;  232,364;    2,258;    3,682
1155,905;  192,818;    1,985;    1,682
1156,439;  170,182;    0,530;   -0,500
1156,973;  194,818;    0,439;    0,318
1157,507;  137,818;   -1,742;    0,682
1158,042;  167,545;   -0,652;    1,045
1158,576;  198,636;   -0,561;    1,773
1159,110;  198,818;    0,076;    2,409
1159,643;  176,091;   -2,470;   -0,045
1160,177;  114,364;   -2,015;    1,500

