
Integration time [ms]:   0,050
Averaging Nr. [scans]: 11
Smoothing Nr. [pixels]: 0
Data measured with spectrometer [name]: 7318044SP
Wave   ;Sample   ;Dark     ;Reference
[nm]   ;[counts] ;[counts] ;[counts] 

186,757;  -26,121;   38,161;    1,318
187,357;  -12,360;   26,706;    0,955
187,958;  -20,742;   17,252;   -1,591
188,558;   11,599;   12,979;   -1,227
189,159;   -8,986;   10,070;   -4,500
189,759;  -32,385;    5,797;   -3,591
190,360;  -23,647;    6,797;   -2,136
190,960;   -7,612;    5,706;   -4,136
191,560;   -2,354;    2,614;   -6,591
192,161;  174,013;    5,885;   -3,500
192,761;   51,024;    5,520;   -3,227
193,361;    9,448;    3,065;   -3,773
193,962;   44,020;    1,612;   -2,682
194,562;   -9,661;   -0,114;   -3,955
195,162;    4,117;   -0,567;   -2,227
195,762;  108,522;    2,433;   -0,045
196,362;   61,652;    1,706;   -2,500
196,963;  -10,898;    1,706;   -0,864
197,563;   28,148;    1,252;   -0,955
198,163;  -13,706;   -0,111;   -0,682
198,763;    0,542;   -0,020;   -0,500
199,363;   40,339;    3,616;   -0,500
199,963;   20,170;    2,162;    0,409
200,563;    4,880;    6,344;   -1,409
201,163;  -10,763;    5,435;   -0,227
201,763;   17,857;    1,435;    0,318
202,363;   -1,236;    0,980;    1,500
202,963;   25,151;    1,526;    1,045
203,563;   59,783;    0,344;    0,500
204,162;    8,524;    1,889;   -1,864
204,762;    5,755;    2,071;    0,591
205,362;  -14,241;    0,708;    1,955
205,962;    4,870;    3,435;    1,955
206,562;   -2,785;    1,889;    2,318
207,161;  -14,877;    1,708;    0,318
207,761;   48,519;    4,435;    2,409
208,361;   -1,379;    1,889;    1,409
208,960;   12,626;    2,889;    1,500
209,560;   10,037;    0,435;    1,591
210,160;   25,082;    5,071;    1,864
210,759;    1,899;    0,708;    1,227
211,359;   -4,732;   -0,474;    1,045
211,958;   85,547;    3,526;    2,045
212,558;   87,891;    0,799;    1,864
213,157;   37,751;   -0,929;    1,500
213,757;  145,106;    5,617;   -0,227
214,356;   41,721;    1,708;   -0,409
214,956;  113,504;    3,526;    0,409
215,555;   24,940;    0,617;    2,136
216,154;    3,608;   -0,292;   -0,591
216,754;   -0,944;    1,253;    0,773
217,353;    5,138;   -0,383;   -1,045
217,952;  -24,750;    2,072;    0,318
218,552;   32,435;    0,254;   -0,773
219,151;    4,505;   -1,110;    0,955
219,750;   -2,279;    0,890;   -0,227
220,349;  -16,126;   -2,292;    1,045
220,948;   32,556;    1,163;    1,136
221,548;   -0,494;    0,617;    1,227
222,147;   12,521;   -1,292;   -0,409
222,746;   59,456;    1,254;   -0,955
223,345;   19,835;   -1,019;    0,500
223,944;   17,106;    1,163;    0,773
224,543;   21,154;    4,072;   -1,409
225,142;    6,687;    1,345;    0,136
225,741;   18,552;    1,163;    1,045
226,340;   10,509;    1,254;   -0,955
226,939;   54,424;    2,708;   -0,136
227,538;    3,210;    1,163;   -0,773
228,137;   60,185;    0,435;    0,864
228,735;   31,636;    0,435;    1,227
229,334;  -17,552;   -0,474;   -0,227
229,933;   56,426;    0,799;    0,591
230,532;   49,932;   -1,201;   -0,409
231,131;   86,392;    1,253;    0,318
231,729;   28,591;    1,163;   -2,318
232,328;    5,823;    0,435;   -1,500
232,927;   20,614;    4,526;   -0,500
233,525;    4,600;    0,981;    0,045
234,124;   15,901;    1,890;   -1,591
234,723;  -10,437;    1,617;   -1,045
235,321;   -8,961;    1,163;    0,136
235,920;   -1,405;    2,526;   -1,227
236,518;   56,434;    1,072;    0,318
237,117;    3,023;    2,890;   -0,227
237,715;   18,056;    1,163;   -0,500
238,314;   24,215;    1,708;   -2,318
238,912;   57,519;    0,526;   -1,409
239,510;   28,415;    1,162;   -1,227
240,109;   68,619;   -0,474;    3,773
240,707;   44,877;   -0,474;    1,227
241,305;   -3,705;   -0,383;    0,136
241,904;   22,477;   -0,292;   -2,045
242,502;   80,941;    3,253;   -0,227
243,100;   26,413;    3,344;   -0,955
243,698;   -5,918;    2,799;    1,682
244,297;   12,360;   -0,656;    0,682
244,895;    2,850;   -0,474;   -2,318
245,493;   59,579;    2,981;   -0,591
246,091;   71,352;    5,163;   -1,318
246,689;   32,440;    2,163;    0,591
247,287;   28,860;   -0,019;   -1,136
247,885;   13,743;   -1,019;    1,227
248,483;   -3,175;   -0,201;   -0,500
249,081;   23,956;    0,981;    1,591
249,679;   34,065;   -1,019;    1,682
250,277;    0,084;   -2,292;    0,864
250,875;   31,507;    0,617;   -1,045
251,473;    1,058;   -0,019;    0,500
252,071;   42,734;   -0,383;    1,045
252,669;    6,560;   -1,565;    0,318
253,267;   -6,056;    1,618;    0,773
253,864;    7,769;    0,617;    0,682
254,462;   42,552;    1,526;    1,591
255,060;   -9,192;    0,072;    1,318
255,658;   -5,258;   -3,292;   -0,136
256,255;    5,675;   -0,201;   -2,045
256,853;   27,198;    2,345;    1,409
257,451;    9,845;    1,981;    1,864
258,048;  155,465;    2,072;    1,864
258,646;   53,912;    0,436;   -1,045
259,243;   82,925;    2,981;    2,227
259,841;   39,714;    1,799;    0,318
260,438;    6,442;    0,254;    0,864
261,036;   33,667;    0,617;    1,409
261,633;    4,930;    1,526;    2,227
262,231;   -9,600;   -0,110;   -0,045
262,828;  -14,537;   -0,383;    1,136
263,425;    0,913;   -1,928;   -0,591
264,023;   -2,646;    1,436;    0,045
264,620;   34,087;    1,526;   -0,318
265,217;   67,836;    2,890;    3,136
265,815;   10,676;    2,527;    2,136
266,412;   26,116;    0,072;    0,136
267,009;   18,114;    0,526;    0,773
267,606;   47,912;    0,345;   -0,955
268,203;    3,166;   -0,383;   -0,591
268,801;    4,407;   -0,474;    0,591
269,398;   -4,943;   -0,564;    2,500
269,995;   22,372;    0,890;    1,591
270,592;    8,206;    0,799;   -0,500
271,189;  -15,639;    1,981;    0,409
271,786;  -13,598;    2,072;    1,227
272,383;   37,674;   -0,383;    0,227
272,980;    7,544;    1,617;    0,318
273,577;   -7,287;    2,162;    1,227
274,174;   -8,334;    1,435;    2,591
274,771;   30,197;    1,890;   -0,773
275,367;  162,164;    3,253;    1,409
275,964;   68,538;   -0,565;   -0,500
276,561;   13,297;   -2,474;   -1,045
277,158;  -16,571;    1,799;   -1,773
277,755;   55,047;   -0,110;    0,409
278,351;   29,545;    0,436;   -1,500
278,948;   41,376;   -0,201;    0,045
279,545;   18,550;    0,527;    2,318
280,141;   61,377;    1,254;   -2,045
280,738;   71,917;    2,435;   -0,136
281,334;   11,784;   -0,383;    0,591
281,931;   -3,867;    2,890;   -1,318
282,528;   39,058;    4,072;   -0,500
283,124;   55,734;    3,345;   -0,500
283,721;   57,938;    0,709;    1,409
284,317;   21,018;    0,163;    2,500
284,913;   54,823;   -0,110;    0,591
285,510;  105,459;    2,890;   -0,318
286,106;   64,931;    2,345;   -0,955
286,703;   35,062;    0,072;    1,955
287,299;    8,805;    1,254;   -0,591
287,895;    4,755;    0,890;   -1,045
288,491;    0,784;    0,163;    2,136
289,088;   27,146;    0,163;    2,409
289,684;   29,469;    2,890;    1,500
290,280;   80,458;    1,890;    0,682
290,876;   55,598;    0,163;    5,500
291,472;   43,096;    2,163;    2,227
292,068;   48,301;    1,254;    0,227
292,665;   11,987;   -0,564;    0,773
293,261;   -8,178;   -1,292;    2,136
293,857;   41,452;    4,072;    2,136
294,453;   18,604;   -0,928;    0,955
295,049;   80,579;    0,253;    1,955
295,644;   34,912;   -1,292;    0,136
296,240;   -2,993;    0,162;   -0,136
296,836;   15,026;   -0,747;    0,318
297,432;   49,090;    2,980;   -0,500
298,028;   51,243;    0,435;    0,773
298,624;   22,036;    0,889;    1,864
299,220;   15,520;    0,435;    0,591
299,815;   13,168;    0,526;   -0,409
300,411;   40,761;    0,435;    1,773
301,007;   55,143;    1,889;    0,227
301,602;   12,819;    2,071;   -2,318
302,198;   56,019;    1,435;   -0,773
302,794;   20,479;    1,526;   -0,500
303,389;   -6,329;    1,071;    1,045
303,985;    4,195;    1,253;    1,409
304,580;   51,749;    0,889;    1,591
305,176;   15,548;    0,344;    0,136
305,771;  -25,573;   -0,929;   -1,227
306,367;  120,054;    3,071;    0,136
306,962;   39,183;    2,889;    1,500
307,558;   59,029;    2,435;    0,136
308,153;   42,187;   -0,383;   -1,136
308,748;   -8,591;    0,162;    1,682
309,344;   97,904;    0,253;   -1,318
309,939;   91,997;    2,071;   -1,318
310,534;   16,314;   -2,020;   -1,682
311,130;   10,384;   -0,656;   -2,500
311,725;   -0,499;    0,526;   -0,500
312,320;   12,431;    1,253;    0,045
312,915;   36,499;    2,890;   -1,045
313,510;  115,627;    0,526;   -0,500
314,105;   23,519;   -3,565;    1,409
314,700;   -8,818;   -1,656;   -1,045
315,295;    2,021;   -0,020;    0,045
315,890;   -3,187;   -0,292;    0,864
316,485;   25,508;    0,253;   -0,318
317,080;    3,280;   -0,929;    1,591
317,675;   98,434;    3,071;   -0,682
318,270;  200,126;    6,889;    3,318
318,865;  125,941;    2,435;    3,045
319,460;   58,242;   -1,565;    0,591
320,055;    5,790;   -2,565;   -1,227
320,650;   10,196;   -1,838;   -0,591
321,244;    7,988;    0,889;   -1,409
321,839;    9,737;    0,980;   -0,227
322,434;   19,431;   -0,111;   -1,591
323,029;    7,810;   -0,474;    1,591
323,623;    0,773;    0,798;    0,773
324,218;   74,697;    2,707;    1,409
324,812;   37,482;    0,889;    1,591
325,407;   24,424;   -0,929;    2,045
326,002;   96,399;    0,526;   -0,409
326,596;   58,990;   -0,656;    1,318
327,191;   10,747;   -0,383;   -1,045
327,785;   14,172;   -0,747;   -0,227
328,379;    2,414;   -0,383;    0,136
328,974;   18,991;    1,798;   -3,955
329,568;   30,335;    2,889;   -2,409
330,163;   56,757;    2,435;    1,045
330,757;    5,941;    0,253;    1,591
331,351;   -8,882;   -0,292;    0,682
331,945;   -8,069;   -0,383;    1,409
332,540;   25,576;    1,617;   -0,591
333,134;   21,643;    3,344;    0,773
333,728;   29,908;    2,799;    0,318
334,322;   -1,743;    0,889;   -0,864
334,916;   -6,898;    0,344;    0,955
335,510;   39,052;   -0,111;   -0,136
336,105;   27,292;   -0,929;    1,591
336,699;   -4,142;   -1,292;    0,591
337,293;   18,155;    1,071;    0,318
337,887;   -5,083;    0,071;    1,955
338,481;   36,786;    2,980;    0,591
339,074;   74,644;    2,071;    2,682
339,668;   66,324;   -0,110;    1,227
340,262;  296,223;    7,708;    3,227
340,856;  121,558;    1,708;   -0,682
341,450;   15,556;    0,708;    1,864
342,044;   29,064;    1,799;    0,136
342,637;   60,983;    1,162;   -2,136
343,231;   13,726;   -1,474;    0,682
343,825;    9,855;   -0,747;   -0,591
344,419;   13,768;   -0,474;    0,500
345,012;  234,407;    2,889;    4,045
345,606;  131,901;   -0,656;    1,591
346,199;   22,799;   -0,111;   -0,227
346,793;   57,388;    2,525;    2,045
347,386;    9,448;    0,889;   -1,136
347,980;  -14,711;   -0,838;   -0,045
348,573;    5,297;   -1,748;    0,409
349,167;  142,934;    6,161;    4,773
349,760;   66,063;    2,252;    2,682
350,354;   46,305;    1,616;    1,136
350,947;   62,496;    2,798;    1,682
351,540;   27,157;    0,616;   -1,409
352,134;  -10,542;   -1,111;    1,136
352,727;   -3,272;   -0,657;    1,136
353,320;   -4,403;    2,343;    0,591
353,913;  -20,443;   -1,929;    1,864
354,507;   52,755;    0,434;   -1,227
355,100;    6,644;    0,071;    0,864
355,693;  194,796;    4,798;    2,409
356,286;   70,091;    0,980;    2,773
356,879;   15,979;   -0,475;    1,227
357,472;   23,292;    0,980;    1,500
358,065;   32,391;    3,161;    2,500
358,658;  -14,116;    0,798;    2,318
359,251;  -23,291;    0,252;   -0,591
359,844;   40,654;    0,343;   -1,136
360,437;   65,983;    0,252;    0,045
361,030;   11,041;    0,525;   -0,682
361,623;   13,167;    0,434;    0,318
362,215;  103,594;    0,979;    2,045
362,808;   24,159;   -2,293;   -1,682
363,401;    4,927;    0,798;    0,136
363,994;  104,048;    3,252;   -1,500
364,586;   23,349;    0,888;   -1,500
365,179;    5,958;   -0,203;   -1,136
365,772;  -35,397;   -0,930;    2,045
366,364;   15,204;    1,524;   -3,227
366,957;   29,963;    1,342;   -0,045
367,549;    9,137;   -0,203;   -0,864
368,142;   17,329;    0,978;   -1,500
368,734;    1,743;    2,523;   -2,136
369,327;  -25,683;    2,341;   -0,500
369,919;   -3,185;   -1,659;    0,409
370,512;    5,417;   -1,023;   -0,500
371,104;  158,105;    2,704;    1,591
371,696;  163,441;    1,703;   -0,955
372,289;   76,659;    0,157;    1,136
372,881;   52,623;    1,156;    1,318
373,473;   -9,225;    4,064;    1,136
374,066;   43,208;    1,336;    0,500
374,658;   23,374;    0,879;    1,136
375,250;  -16,241;   -1,668;   -1,409
375,842;    2,776;   -0,124;   -0,045
376,434;  -27,615;   -2,762;   -0,409
377,026;  -44,209;   -1,855;   -2,500
377,618;   -6,553;    0,779;   -0,682
378,210;  -69,894;    3,141;   -1,955
378,802;  -76,171;    3,412;   -0,591
379,394;  250,434;    3,411;    0,682
379,986;   45,538;    1,138;   -0,955
380,578;  -34,130;    1,410;    0,773
381,170;  176,672;    0,320;    0,045
381,762;   96,092;   -0,224;    1,409
382,354;   70,139;   -0,223;   -1,318
382,945;    6,228;    0,870;    0,318
383,537;  -19,014;    1,144;   -1,955
384,129;  -18,759;    0,963;   -1,136
384,721;   71,395;    0,418;    0,955
385,312;   22,008;   -1,399;   -0,955
385,904;   77,788;   -0,945;    1,591
386,496;   11,859;    0,691;    1,045
387,087;  121,388;    0,418;    2,500
387,679;   67,839;   -0,401;    0,045
388,270;   35,582;   -2,401;    2,045
388,862;    9,939;   -0,401;   -0,318
389,453;   12,361;    1,054;    1,045
390,045;   14,875;    3,236;   -2,682
390,636;  -70,972;    0,144;   -0,591
391,227;  -29,952;    2,054;   -0,045
391,819;  -46,351;    0,781;    0,773
392,410;  171,968;    0,600;    0,045
393,001;    9,322;    1,600;   -1,591
393,593;   54,675;    0,600;   -0,045
394,184;   85,328;    0,873;   -0,409
394,775;   -1,183;    1,146;    2,136
395,366;  -62,695;    1,782;    0,773
395,957;   64,006;   -2,400;    0,136
396,548;  -15,637;    1,054;    2,682
397,139;   60,324;    2,236;    0,591
397,730;   -5,824;    0,873;    0,955
398,321;   15,436;    0,509;    0,955
398,912;  -26,415;   -0,764;    0,136
399,503;  -36,027;   -1,945;   -1,409
400,094;    2,238;   -1,582;    1,682
400,685;   -8,000;    3,600;    0,045
401,276;  -45,662;   -0,400;   -0,955
401,867;  -47,873;   -1,127;    0,773
402,458;  -96,155;    1,509;   -2,318
403,048;   23,877;    0,146;    0,591
403,639;  -16,679;    1,509;    0,864
404,230;   68,915;    0,691;    0,318
404,821;  116,973;   -0,127;    0,045
405,411;   47,245;   -0,763;   -2,591
406,002;  -31,722;    3,237;   -1,136
406,592;  154,996;    2,691;    0,045
407,183;   48,681;    0,328;   -1,500
407,774;   24,970;    1,419;   -0,136
408,364;  -11,090;    2,600;    0,409
408,954;   86,278;   -0,036;    1,227
409,545;   68,177;    1,873;    1,045
410,135;   39,268;   -1,581;    0,500
410,726;   -2,537;    0,783;    0,318
411,316;  158,132;    2,237;    0,773
411,906;   26,690;    0,146;   -0,409
412,497;   30,873;   -0,490;   -0,045
413,087;  -16,421;    0,783;   -0,227
413,677;  -65,779;   -2,490;    3,864
414,267;  -69,369;   -1,035;    1,409
414,857;  -76,531;    0,419;    4,227
415,448;  -74,101;   -0,763;    0,500
416,038;  -57,053;   -2,945;   -0,591
416,628;  -22,788;    0,965;    0,409
417,218;   22,226;   -1,762;    3,318
417,808;  147,154;    0,965;   -0,409
418,398;   53,098;   -1,035;    2,682
418,988;  -44,281;   -2,217;    0,591
419,578;   37,664;    3,601;    1,409
420,168;  -16,213;    0,692;   -0,955
420,757;   90,294;    0,964;   -1,500
421,347;   -0,664;    1,601;   -0,227
421,937;  -26,551;    3,329;    1,409
422,527;   89,219;    2,602;   -0,773
423,116;  203,217;    2,692;   -0,045
423,706;  -19,136;    2,965;    0,318
424,296;  -53,688;    1,601;    0,682
424,885;   47,767;    1,510;   -3,045
425,475;   27,634;    1,147;   -2,864
426,065;  -54,341;   -1,489;   -0,318
426,654;  -61,872;    0,329;   -0,318
427,244;  136,769;    1,147;    1,409
427,833;  105,019;    1,056;   -0,500
428,423;    1,970;    0,147;    1,136
429,012;    3,603;    2,420;   -1,136
429,601;  107,408;    2,057;    0,136
430,191;   19,354;    2,511;    4,318
430,780;  -64,146;   -1,671;   -0,409
431,369;   90,047;    1,329;   -0,045
431,959;    3,277;    1,693;    0,500
432,548;  -45,682;   -1,398;   -0,045
433,137;  -90,461;    0,329;   -1,318
433,726;  -29,945;    0,148;    0,500
434,315;  -12,220;    0,148;    2,409
434,905;   74,487;    0,693;    1,409
435,494;   53,726;    3,148;    0,955
436,083;  -37,597;    1,420;   -0,955
436,672;   34,897;    1,148;    0,500
437,261;   -0,063;    0,512;   -1,955
437,850;  191,146;   -1,125;    0,682
438,439;  229,872;    2,239;    1,955
439,027;  328,625;    3,421;    1,773
439,616;  243,994;    2,239;    1,227
440,205;   52,174;    0,057;   -2,136
440,794;   26,647;   -0,306;   -0,045
441,383;  -32,394;    1,603;   -0,591
441,971;  -52,407;   -0,306;    0,591
442,560;  -38,661;    0,603;   -1,773
443,149; -116,439;    3,060;   -1,318
443,737;  -87,746;    0,968;   -2,318
444,326;  -58,015;    0,331;    0,318
444,915;  -15,909;   -1,851;    0,864
445,503;  -10,218;    0,058;   -0,318
446,092;  219,536;    7,876;    2,136
446,680;  157,494;    1,876;    0,318
447,269;   61,037;   -1,487;   -0,318
447,857;   49,648;    2,240;   -1,773
448,445;   13,611;    2,149;    1,318
449,034;  -28,832;    0,876;   -1,136
449,622;  -21,556;    1,240;    3,500
450,210;  219,130;    3,149;    2,227
450,799;  131,152;    2,604;   -0,591
451,387;   96,301;    1,786;   -0,591
451,975;   85,083;   -1,305;    0,864
452,563;  144,811;    0,422;    2,318
453,151;    9,542;   -1,032;   -1,227
453,739;   44,735;   -1,577;    0,136
454,328;  123,934;    0,604;   -2,136
454,916;   75,927;    1,150;   -0,136
455,504;   90,455;    3,513;    1,227
456,092;   -4,556;    2,150;   -1,591
456,679;  -36,032;    0,604;    0,682
457,267;  337,215;    3,604;    1,045
457,855;   55,677;    3,241;    1,409
458,443;  -71,881;   -0,304;    1,682
459,031;   46,797;    1,332;    2,409
459,619;   25,814;   -3,577;    2,864
460,206;  -46,216;   -0,759;    2,045
460,794;  -48,593;   -0,668;   -0,227
461,382;  -15,737;    0,878;   -0,864
461,970;  -11,254;    0,605;    1,864
462,557;  -59,593;    0,878;   -0,682
463,145;   31,976;   -0,304;   -1,682
463,732;  237,807;    2,514;   -1,045
464,320;   47,281;    1,514;   -3,045
464,907;  155,674;    0,423;   -0,773
465,495;   80,436;    2,696;   -1,227
466,082;   13,120;    2,060;   -0,045
466,670;   32,224;    2,605;    1,227
467,257;  -49,834;    0,060;    2,045
467,844;   38,318;    1,514;    0,045
468,432;    9,271;   -0,031;    3,500
469,019;  -17,214;    1,606;   -1,773
469,606;   61,247;    0,969;    3,682
470,193;   78,606;    2,151;    0,227
470,780;   37,935;    0,333;    0,864
471,368;  -14,066;   -1,212;   -0,773
471,955;   72,995;    1,060;   -0,682
472,542;   31,930;   -0,303;   -1,136
473,129;  -56,653;   -0,485;    0,136
473,716;  -43,434;    0,060;    0,591
474,303;  -16,973;    1,333;   -0,864
474,890;  -15,789;    2,333;   -0,500
475,477;   65,495;   -0,576;    0,409
476,064;  -14,229;    0,697;   -1,591
476,650;   85,596;    2,152;    0,318
477,237;    7,596;    1,879;    0,955
477,824;   -9,444;    3,879;    0,864
478,411;  -66,548;    0,606;   -0,318
478,997;  -78,110;    0,606;   -0,773
479,584; -112,589;   -0,666;   -0,409
480,171;   21,372;    1,243;   -0,773
480,757;   74,128;   -0,848;    0,773
481,344;  -12,835;    0,334;    0,409
481,931;  -86,511;   -0,393;    1,045
482,517;   16,378;    0,425;    0,318
483,104;   87,198;    1,334;    2,864
483,690;   -9,974;    0,243;    0,045
484,276;  -32,962;    0,698;    0,227
484,863;  139,814;    2,152;    1,136
485,449;    4,733;    0,152;    0,318
486,035;  -27,313;   -0,666;   -0,136
486,622;   43,345;   -2,393;    0,045
487,208;  -22,549;    1,334;    1,500
487,794;  -81,729;    0,971;    0,318
488,380;  -77,885;    0,698;   -1,409
488,967;  -75,121;   -1,120;   -0,409
489,553;  -61,687;   -1,029;   -1,409
490,139;   -0,712;    0,971;    0,773
490,725;  -61,696;    0,789;   -0,227
491,311;  -21,653;    1,516;    3,045
491,897;  -42,370;   -0,665;    1,500
492,483;  -28,222;    0,426;    1,227
493,069;  363,157;    5,426;    0,864
493,655;  105,432;    1,789;    0,682
494,241;   -8,161;    1,517;   -0,955
494,826;   -3,782;    0,335;   -1,045
495,412;   45,613;    0,335;   -0,682
495,998;  -30,766;    0,971;   -0,318
496,584;   24,405;    2,244;    1,045
497,169;   43,137;    2,335;   -0,682
497,755;  -12,505;    1,244;    1,227
498,341;   91,679;    2,153;    0,318
498,926;  201,881;    2,881;    1,955
499,512;  -16,194;   -0,028;    2,955
500,097;  -23,486;   -0,574;   -0,318
500,683;   -6,434;   -0,028;    2,136
501,268;  -39,396;    1,881;   -0,955
501,854;  -21,752;   -0,119;    1,227
502,439;  -31,207;   -0,573;   -1,773
503,024;  -22,030;    1,608;    0,500
503,610;   -2,736;    1,335;   -0,682
504,195;  -31,487;    1,245;    1,955
504,780;   35,708;    2,335;    1,227
505,366;  108,052;    4,063;    2,864
505,951;   49,025;   -1,119;    1,045
506,536;  -15,872;    1,427;   -3,682
507,121;   24,120;    1,699;   -0,318
507,706;   -3,506;   -0,392;    1,045
508,291;  -51,426;   -2,937;    1,136
508,876;  -56,034;   -0,482;    2,591
509,461;  -20,648;    1,427;   -0,773
510,046;   13,007;   -0,391;    0,318
510,631;   23,679;   -0,119;   -0,773
511,216;  -38,579;   -0,664;   -0,500
511,801;    9,379;   -0,755;    2,591
512,386;   24,674;    0,972;    0,500
512,971;   28,310;    0,427;    0,955
513,555;   48,490;    1,154;   -1,500
514,140;   11,544;    1,336;   -3,136
514,725;  108,890;    1,791;   -1,136
515,309;   45,234;    1,064;    0,318
515,894;  -26,528;   -0,300;   -2,227
516,479;    7,686;    1,973;   -0,955
517,063;    2,748;    0,882;    1,227
517,648;  -22,876;    0,155;   -1,136
518,232;  -50,775;   -1,300;   -1,409
518,817;    9,018;    1,337;    1,682
519,401;   80,603;    0,700;    0,591
519,985;   63,123;    2,700;    1,136
520,570;  -13,424;   -0,118;   -1,955
521,154;   51,500;    0,064;    0,591
521,738;  143,864;    1,064;    2,409
522,323;   42,298;   -0,390;    1,682
522,907;   52,731;    2,428;   -0,136
523,491;   12,105;    1,155;    0,955
524,075;   11,353;    0,428;    0,591
524,659;  169,783;    0,973;    0,591
525,243;  145,373;    0,883;    0,409
525,827;  133,416;    0,883;   -0,045
526,411;  184,874;    1,155;   -0,136
526,995;  345,694;    0,337;    1,409
527,579;  462,723;    1,974;   -1,045
528,163;  469,170;    0,428;   -1,500
528,747;  705,245;    1,065;   -0,773
529,331;  748,624;    0,883;   -1,409
529,915;  663,754;    2,338;    0,955
530,499;  924,995;    0,247;    1,227
531,082; 1236,535;    1,065;    1,591
531,666; 1460,468;    0,520;    0,773
532,250; 1623,402;    0,428;    2,682
532,833; 2009,602;    0,610;    2,773
533,417; 2081,095;    1,247;    0,864
534,001; 2391,734;    0,429;   -0,318
534,584; 2850,288;    1,974;    0,500
535,168; 3070,281;    3,247;    1,409
535,751; 3639,776;    4,520;    0,045
536,334; 3605,078;    4,520;   -0,409
536,918; 4345,645;    1,974;    1,591
537,501; 4741,236;    1,520;    1,318
538,085; 5157,531;    1,702;    1,045
538,668; 5540,143;    0,883;    2,409
539,251; 6291,300;    3,156;    3,773
539,834; 6724,287;    0,156;    0,773
540,418; 7086,227;    3,247;    4,318
541,001; 7535,715;    2,702;    1,773
541,584; 7887,383;    1,429;    2,227
542,167; 7998,635;    0,702;    2,955
542,750; 8405,060;    0,793;   -0,773
543,333; 8346,590;    1,429;    2,136
543,916; 9352,459;   -0,298;    2,500
544,499;10037,279;    2,520;    0,227
545,082;10363,621;    0,248;    3,591
545,665;10792,990;   -0,207;    1,500
546,248;11299,772;    0,520;   -0,318
546,830;11259,906;   -1,752;    1,955
547,413;11885,314;    0,157;   -0,773
547,996;12588,597;    0,157;    0,500
548,579;12588,894;   -0,843;    0,955
549,161;12618,236;    0,884;    2,682
549,744;12625,805;    0,612;    0,409
550,326;13284,085;    0,885;   -1,136
550,909;13245,553;    2,339;    0,591
551,492;13811,974;    0,521;    0,227
552,074;13791,338;   -0,024;   -1,318
552,657;14458,946;    2,430;    0,045
553,239;14398,054;   -3,024;   -0,773
553,821;14469,352;   -1,570;    1,045
554,404;14099,457;   -0,024;    1,136
554,986;14591,405;    2,248;    1,045
555,568;15257,876;    0,430;   -0,955
556,151;14621,851;    4,067;   -0,227
556,733;14922,207;   -1,388;   -0,864
557,315;15423,675;    4,703;    0,500
557,897;15297,540;    0,521;   -0,500
558,479;15504,850;    1,703;    1,318
559,061;15743,403;    1,067;   -0,864
559,643;16159,144;   -0,297;    0,045
560,225;16569,945;   -0,388;    2,864
560,807;16678,689;    0,340;    0,318
561,389;16307,041;   -1,206;    2,318
561,971;16941,619;   -0,660;    2,136
562,553;16901,983;    0,613;    1,591
563,135;17098,368;    1,249;    1,136
563,717;16703,242;    3,158;    1,136
564,298;17443,943;    3,976;   -0,045
564,880;17233,961;    0,340;   -1,409
565,462;17457,688;    1,977;    1,318
566,043;18580,157;   -0,933;    2,318
566,625;18186,063;    4,067;    1,227
567,207;18106,758;    0,704;    1,682
567,788;19165,683;   -0,114;    1,500
568,370;20012,097;   -1,841;   -0,500
568,951;19822,493;   -0,569;    0,227
569,533;20727,870;    0,977;   -0,500
570,114;21244,491;   -0,296;    0,682
570,695;21716,799;   -0,478;   -1,318
571,277;22212,657;   -0,205;   -1,682
571,858;22933,837;    2,704;   -1,136
572,439;23843,582;    0,795;   -1,045
573,021;23992,786;    0,432;   -2,773
573,602;24537,834;    1,795;    0,318
574,183;25449,482;   -0,114;    2,227
574,764;25661,713;    2,068;    0,409
575,345;26224,658;    0,250;   -0,136
575,926;26794,031;    2,704;    0,136
576,507;26824,377;    2,704;   -0,227
577,088;27912,436;    1,704;    1,682
577,669;28027,830;    1,704;    1,955
578,250;28753,664;   -0,750;   -1,045
578,831;29402,561;   -0,841;   -2,227
579,412;29683,442;   -1,205;    0,955
579,993;30630,056;    1,432;    0,227
580,573;31038,273;   -0,023;   -0,955
581,154;30035,229;    1,613;   -0,591
581,735;30899,796;    0,341;    0,773
582,315;30407,705;    0,523;    2,136
582,896;30808,259;   -1,750;    1,227
583,477;30308,337;    0,614;    1,227
584,057;30514,116;    1,159;    0,955
584,638;30865,147;   -2,750;    2,318
585,218;30977,655;    2,886;    2,682
585,799;31126,478;    1,977;   -0,227
586,379;31154,527;    1,250;    1,591
586,959;30055,272;    2,613;    0,318
587,540;29429,003;    0,432;    2,227
588,120;28908,580;   -1,113;   -0,045
588,700;27981,173;    2,977;    2,136
589,281;28356,847;    1,250;   -0,955
589,861;28293,352;   -0,296;   -1,682
590,441;28140,944;   -1,477;   -2,682
591,021;27128,508;    1,432;   -2,591
591,601;27430,899;    0,431;    0,500
592,181;27479,372;   -1,296;   -0,773
592,761;26824,468;    2,250;    1,409
593,341;26774,964;    1,522;    0,045
593,921;26751,950;   -0,569;    1,591
594,501;26642,940;    1,250;    1,318
595,081;26548,975;    0,522;   -0,318
595,661;26975,252;    1,068;    0,955
596,240;27463,840;   -1,023;    0,136
596,820;26991,900;    2,613;    1,955
597,400;27248,547;    1,977;    0,773
597,980;27472,118;   -0,750;    1,045
598,559;27582,628;    0,341;   -0,227
599,139;27359,102;   -0,750;   -1,227
599,718;27266,375;    0,795;   -0,409
600,298;27570,841;   -2,387;    0,682
600,877;27767,037;    4,795;    1,409
601,457;28063,824;    0,340;    1,136
602,036;27999,532;    1,795;    2,045
602,616;28233,387;    2,250;    1,682
603,195;28527,276;    0,431;    3,500
603,774;28032,809;   -0,296;    2,045
604,354;28021,693;    2,522;   -0,500
604,933;27495,526;    0,250;    1,864
605,512;27609,854;    2,340;    0,591
606,091;27704,403;    1,886;    3,773
606,671;28533,160;    0,249;    0,773
607,250;27624,712;    1,431;    3,136
607,829;27927,819;    1,158;    3,227
608,408;27848,184;    4,613;    2,591
608,987;26886,355;    2,704;    3,409
609,566;27177,165;    0,341;   -2,500
610,145;27295,246;    2,885;    0,682
610,723;27722,018;    1,613;    6,864
611,302;26943,962;    1,067;    1,682
611,881;26413,261;    5,158;   11,227
612,460;27294,421;    0,795;    3,955
613,039;27750,297;    1,703;    2,045
613,617;26454,227;    0,886;    4,773
614,196;26650,998;    1,613;    1,227
614,775;27041,622;    1,249;    2,409
615,353;26964,919;   -1,660;    0,864
615,932;26695,624;    0,249;    2,409
616,510;27368,165;    0,158;    0,591
617,089;26916,785;    8,794;   17,591
617,667;26623,719;    4,885;    6,136
618,246;26484,711;   -1,115;    1,318
618,824;26645,602;    1,612;   -0,955
619,402;26194,878;    0,431;   -1,773
619,981;26747,199;    1,067;   -1,045
620,559;26626,502;    0,794;    1,682
621,137;26190,763;    3,067;    1,864
621,715;26167,171;    3,703;   -0,682
622,293;26040,637;    1,885;   -0,773
622,871;26614,402;    0,340;    0,500
623,450;26219,691;    0,430;   -0,864
624,028;26082,712;   -0,388;   -0,955
624,606;25703,798;    2,339;    1,682
625,183;26083,903;   -0,661;   -1,136
625,761;25744,264;    1,885;    1,136
626,339;26058,510;    2,339;    2,591
626,917;26434,013;    0,339;   -0,045
627,495;26513,327;    2,794;    1,318
628,073;25986,855;    5,248;    2,864
628,650;25626,447;    3,067;    2,136
629,228;26083,982;    1,248;    4,409
629,806;25518,636;   -0,024;    1,136
630,383;25777,458;    0,066;   -0,318
630,961;25535,031;   -2,206;   -0,955
631,539;25317,784;   -2,479;    0,227
632,116;24521,213;   12,703;   15,409
632,694;25180,737;    4,885;    6,500
633,271;25472,574;    1,975;    2,682
633,848;25488,528;    1,430;    2,045
634,426;25468,419;    1,521;    1,773
635,003;24626,997;   -0,207;   -0,409
635,580;24956,621;    1,884;    3,682
636,158;25533,317;    3,793;    1,227
636,735;25505,878;    3,339;   -0,500
637,312;25644,422;    0,521;   -0,682
637,889;25722,189;    2,248;   -0,682
638,466;25247,874;    0,066;   -0,409
639,043;25220,084;    1,702;   -1,136
639,620;25499,867;    0,611;   -0,955
640,197;25844,972;    1,612;    1,682
640,774;26030,298;    1,430;    1,136
641,351;26439,806;    0,612;    1,136
641,928;25873,768;    2,794;    1,409
642,505;25522,549;    0,794;   -0,500
643,082;25650,784;    1,885;    1,227
643,658;24680,201;    1,157;    1,500
644,235;25392,163;   -2,479;    2,500
644,812;25680,489;    1,794;    0,773
645,388;25442,452;    1,612;    1,409
645,965;25547,869;    1,521;    1,682
646,542;25676,104;    3,430;   -0,227
647,118;25684,066;    3,703;   -0,955
647,695;25957,392;    0,339;    1,136
648,271;25793,628;   -2,115;    0,500
648,848;26091,317;    0,248;    2,227
649,424;25964,189;    0,976;    1,318
650,000;25724,697;   -0,388;   -1,045
650,577;25607,841;    0,158;   -0,955
651,153;26044,531;   -1,115;    0,955
651,729;27030,675;    0,521;    0,864
652,305;27204,092;    1,339;    2,773
652,881;31589,509;   -1,297;    1,136
653,458;38424,744;    0,249;    0,227
654,034;42354,434;    0,703;    1,591
654,610;43923,942;    0,339;    0,773
655,186;45291,995;    1,612;    3,045
655,762;45027,140;   -1,842;    0,409
656,338;45073,284;    0,703;    0,136
656,913;46109,246;   -0,297;    0,409
657,489;45431,391;    0,249;   -0,318
658,065;45440,626;    0,794;   -1,591
658,641;46035,406;    2,158;   -0,864
659,217;45342,914;    2,067;    0,409
659,792;44785,422;   -1,751;   -0,409
660,368;45115,203;   -0,388;   -0,682
660,944;44826,529;    1,794;    1,227
661,519;40263,037;    0,522;    0,409
662,095;34056,999;   -0,206;    0,591
662,670;29271,598;   -0,206;   -0,136
663,246;28119,106;   -0,660;   -0,409
663,821;27389,341;    0,431;    1,682
664,396;26858,122;    0,613;    1,864
664,972;27075,448;   -0,660;   -0,500
665,547;27419,956;    3,794;    0,136
666,122;27461,827;    1,340;    0,318
666,698;27754,244;    2,431;    0,318
667,273;27092,752;    0,885;    0,136
667,848;27945,533;    0,340;    1,500
668,423;27708,404;    1,795;    2,318
668,998;28282,730;    0,976;   -0,682
669,573;28834,420;    2,067;   -1,500
670,148;28649,928;    1,885;   -0,682
670,723;28470,709;   -0,024;    0,318
671,298;28932,580;   -1,296;    1,045
671,873;29034,179;   -0,296;   -0,136
672,448;28976,869;    1,704;    0,136
673,023;29325,468;    0,249;   -0,227
673,597;29636,703;    2,704;    2,318
674,172;29413,483;    2,431;    0,318
674,747;28904,446;   -0,205;   -1,045
675,321;28716,590;   -0,933;    3,318
675,896;28308,189;    2,158;    1,045
676,471;29292,060;    2,522;    1,591
677,045;29080,841;   -0,296;    0,682
677,620;29138,713;    2,158;    1,136
678,194;29484,766;    0,249;    1,136
678,769;29009,819;    0,886;   -0,318
679,343;29218,600;   -0,023;    1,773
679,917;29063,562;    0,340;    1,955
680,492;29156,161;    0,249;    3,227
681,066;29333,306;    0,613;    0,409
681,640;29339,632;    1,795;   -0,318
682,214;30143,230;    2,340;    0,500
682,788;29649,647;    0,613;   -0,773
683,363;29555,610;    1,977;    1,682
683,937;29257,754;    0,886;   -0,318
684,511;30070,171;   -1,023;   -0,591
685,085;29823,679;   -1,478;    0,318
685,659;29574,460;    1,431;    0,864
686,232;29775,604;    1,159;   -0,318
686,806;29537,839;    2,159;    0,409
687,380;30215,347;   -1,932;    0,591
687,954;30469,764;    2,432;    1,136
688,528;30134,908;    2,613;    1,955
689,101;30966,598;    0,432;    1,045
689,675;30486,651;    0,886;   -0,136
690,249;29801,705;    3,432;    0,409
690,822;30173,667;    1,159;    0,318
691,396;30230,175;    2,068;    1,227
691,969;29685,592;    2,523;    0,136
692,543;30176,555;   -0,568;   -1,955
693,116;29832,426;   -0,659;   -1,409
693,690;29682,207;   -0,296;    0,500
694,263;30247,533;    2,341;    2,955
694,836;30237,677;    2,795;    3,591
695,410;28871,003;    1,159;    1,773
695,983;29357,329;    1,614;    0,591
696,556;29250,837;   -0,750;   -1,045
697,129;29734,981;   -1,114;    1,409
697,703;29367,398;    1,341;    1,955
698,276;29378,088;    1,705;   -0,773
698,849;29164,323;   -1,023;    1,409
699,422;29574,831;    1,250;    0,591
699,995;29204,521;   -0,659;    0,136
700,568;29708,665;   -0,204;    3,045
701,140;29706,900;   -1,841;    1,682
701,713;29490,317;    0,341;    2,409
702,286;29307,734;    0,796;    0,864
702,859;29155,151;    0,614;   -0,591
703,432;28226,659;   -0,841;    0,682
704,004;28759,804;    1,978;    0,318
704,577;28656,221;    1,068;    0,136
705,150;29209,183;    0,887;    2,500
705,722;29042,327;    1,523;   -3,227
706,295;28809,381;    1,432;   -0,591
706,867;28619,798;    0,250;    1,955
707,440;28841,851;   -0,113;   -0,409
708,012;29046,450;   -0,022;    0,591
708,584;28961,412;    2,705;    0,227
709,157;29327,102;    1,160;   -0,591
709,729;28956,064;    1,069;    2,045
710,301;29823,027;   -1,204;    0,045
710,874;29815,535;    0,341;   -0,227
711,446;28682,861;   -0,295;    0,864
712,018;28586,369;   -3,022;    0,500
712,590;28295,695;   -0,204;    1,682
713,162;28840,021;   -0,477;    1,318
713,734;29124,983;    1,796;   -2,045
714,306;28991,855;    0,342;   -0,409
714,878;27665,636;   -0,295;    0,864
715,450;28482,598;   -0,113;    0,864
716,022;28781,651;    2,433;    1,318
716,593;28959,159;    0,978;    0,591
717,165;28865,940;    1,796;   -1,227
717,737;28602,811;    0,796;    0,409
718,309;28242,319;    1,160;   -0,045
718,880;28138,464;   -1,295;   -1,409
719,452;28378,972;    0,887;   -1,591
720,024;27924,661;    1,705;   -0,591
720,595;28508,896;    2,978;    0,955
721,167;28066,313;    1,160;   -2,045
721,738;27537,185;    2,069;   -1,045
722,309;27486,147;    1,251;   -1,227
722,881;27318,564;    2,705;    0,773
723,452;28002,618;    1,251;    2,864
724,023;28178,671;    1,524;    2,682
724,595;27957,543;    2,342;    0,682
725,166;27653,778;    1,524;   -0,409
725,737;27315,649;    1,887;    0,227
726,308;27382,248;    0,797;    0,318
726,879;27773,938;    1,069;    1,227
727,450;27676,173;   -2,022;   -0,045
728,021;27640,045;    1,069;    0,682
728,592;27492,462;    1,160;    0,500
729,163;27790,970;    1,433;   -0,136
729,734;27708,932;    2,160;   -0,227
730,305;28121,894;    0,615;    0,136
730,876;28430,675;    0,888;    2,955
731,447;28148,819;    0,797;    2,682
732,017;28296,782;   -0,840;    1,864
732,588;27791,835;   -0,021;    1,227
733,159;27939,525;    3,615;   -1,045
733,729;27790,306;    1,251;    0,409
734,300;27042,723;    0,160;    0,864
734,870;27462,958;   -1,385;    0,591
735,441;28032,102;    0,888;   -0,591
736,011;27751,064;    1,070;   -1,591
736,582;27734,118;    1,251;    0,045
737,152;27200,444;    0,979;   -2,045
737,722;27672,952;    1,070;   -0,682
738,293;27370,914;   -2,021;    1,318
738,863;27194,695;    1,797;    2,318
739,433;27023,294;    4,524;    0,318
740,003;27719,347;    1,524;   -0,682
740,573;27101,219;    2,252;   -1,591
741,143;27106,545;    3,615;    0,318
741,713;27850,144;    0,252;   -0,500
742,283;27536,651;    1,706;    1,591
742,853;27272,068;    0,524;    1,591
743,423;26743,213;    0,161;    0,045
743,993;26858,448;    1,070;    1,500
744,563;26216,865;    2,524;   -0,864
745,133;26190,464;   -0,112;   -0,864
745,702;26899,062;    2,797;    1,773
746,272;26088,479;    0,434;    0,591
746,842;25774,987;   -0,748;   -0,591
747,411;26267,223;   -0,839;   -0,318
747,981;26428,821;   -0,930;    0,500
748,551;26558,420;   -0,021;   -1,045
749,120;26416,655;   -0,112;   -0,227
749,690;26771,436;    2,161;    2,409
750,259;27100,762;    0,979;    2,955
750,828;26942,543;    4,070;   -1,955
751,398;27218,505;   -0,112;   -0,045
751,967;26716,286;    2,888;    0,409
752,536;26941,976;    1,161;   -0,227
753,105;27354,665;   -1,384;    0,227
753,675;27144,900;   -0,112;    1,773
754,244;27077,136;    0,888;    3,591
754,813;27160,189;    0,979;    1,227
755,382;26795,061;    0,798;    0,955
755,951;27257,932;   -0,112;    3,682
756,520;26855,349;    2,525;    1,864
757,089;27419,675;    1,888;    0,500
757,658;27500,819;    2,434;    1,227
758,227;27538,782;   -1,111;    0,318
758,795;27854,744;   -1,021;    1,136
759,364;28067,070;    0,525;   -0,591
759,933;27021,033;    1,343;   -0,045
760,501;26603,632;    0,252;   -1,318
761,070;27040,685;   -0,293;   -1,409
761,639;27780,557;    1,434;    1,318
762,207;27083,246;    0,889;   -0,955
762,776;27055,663;    2,889;    0,864
763,344;27018,353;    0,071;    0,591
763,913;26138,497;    1,616;    1,409
764,481;26865,642;    1,980;   -0,136
765,049;26629,877;    0,616;    1,409
765,618;26528,839;    1,434;    0,318
766,186;26670,438;    2,434;    0,136
766,754;26806,582;    1,798;    1,864
767,322;25779,181;    1,162;    0,409
767,890;25804,780;    0,525;   -1,773
768,459;26212,924;    2,616;   -0,318
769,027;26341,705;    2,525;    3,409
769,595;25391,940;    2,616;    2,591
770,163;25765,902;    3,344;    2,955
770,730;25521,774;    2,525;   -0,136
771,298;25442,646;    1,162;   -1,409
771,866;25545,699;    0,253;    4,955
772,434;25787,934;    1,162;   -1,864
773,002;25942,078;    2,616;    0,682
773,569;25536,586;    1,071;    1,682
774,137;25427,730;    0,889;   -0,045
774,705;26225,784;   -0,747;   -0,136
775,272;25676,474;    0,253;    0,682
775,840;25454,345;   -0,111;    2,682
776,407;24981,308;   -0,293;    1,955
776,975;24565,088;    1,162;    0,318
777,542;25548,869;    2,162;   -0,045
778,110;25437,104;    0,707;   -0,045
778,677;25102,430;    1,071;   -0,864
779,244;24825,483;   -1,020;    1,045
779,812;25001,537;    0,980;    0,864
780,379;24808,317;    2,435;    1,136
780,946;25066,007;    2,617;   -0,773
781,513;25370,697;   -0,565;    0,318
782,080;24633,023;    1,253;    2,864
782,647;25411,895;    1,708;    3,045
783,214;25044,948;   -0,201;    3,864
783,781;24641,819;    1,708;   -0,682
784,348;24562,327;    0,253;    1,500
784,915;25014,563;   -1,474;    0,318
785,482;24749,525;    2,708;    2,591
786,049;25198,669;    1,071;   -0,591
786,615;25316,904;    1,708;   -0,955
787,182;25111,230;   -3,201;   -0,682
787,749;24757,557;   -2,201;    1,409
788,315;24071,883;    0,253;   -0,409
788,882;24395,481;    0,981;   -1,227
789,448;25002,989;    1,435;   -0,955
790,015;25017,497;    1,799;    3,227
790,581;24605,096;    0,708;    0,227
791,148;24484,786;    1,344;    1,045
791,714;24720,566;   -1,019;    3,136
792,280;24437,529;    3,708;    1,591
792,847;24010,219;   -0,928;    2,500
793,413;24553,908;   -0,110;   -0,318
793,979;24072,962;    1,526;   -1,318
794,545;24125,470;    2,981;    2,682
795,111;23562,523;    2,435;    1,318
795,678;23748,395;    3,526;   -1,682
796,244;23392,812;    2,799;    0,136
796,810;23974,138;    0,799;    0,773
797,375;23671,555;   -0,292;   -2,136
797,941;23714,335;   -1,110;    0,591
798,507;23826,752;    0,254;   -0,955
799,073;23360,533;    2,708;    0,591
799,639;23473,859;    1,435;    3,136
800,205;23491,367;   -1,565;    2,682
800,770;22985,238;    1,345;    1,773
801,336;23050,928;    2,981;   -0,955
801,901;22727,618;    6,072;    3,136
802,467;23332,671;    0,526;    2,045
803,033;22653,634;   -0,019;    0,864
803,598;22842,051;    1,072;   -1,045
804,163;22910,195;    0,708;   -0,318
804,729;22835,703;   -0,110;    1,136
805,294;23214,302;    1,072;    2,227
805,859;23025,446;    0,890;   -0,409
806,425;22492,499;    3,890;    2,682
806,990;22181,553;    1,890;    4,318
807,555;22654,061;   -0,110;    2,591
808,120;22589,205;   -1,292;   -0,409
808,685;22605,440;    1,072;   -2,500
809,250;22080,584;    2,072;   -0,500
809,815;22422,456;   -0,201;    0,682
810,380;22942,418;    0,981;    1,591
810,945;23433,653;    2,890;    2,045
811,510;22669,707;   -0,200;    1,591
812,075;22342,851;    2,800;   -1,409
812,640;22408,086;    3,709;    1,409
813,204;22433,412;    2,163;   -0,227
813,769;22932,829;    0,254;   -0,045
814,334;22309,701;    0,527;    0,864
814,898;22392,482;    1,981;    0,591
815,463;22210,080;    0,981;   -0,773
816,027;22183,225;    1,345;   -2,318
816,592;22317,732;    2,163;   -2,045
817,156;21803,059;   -2,200;    1,136
817,721;21583,021;    0,982;    2,318
818,285;21603,983;    0,618;    1,500
818,849;22271,582;   -0,018;    1,682
819,414;22211,181;    0,073;    2,955
819,978;21674,780;   -0,291;    1,773
820,542;22320,379;    2,891;    0,500
821,106;22056,523;    2,800;    0,682
821,670;22094,485;    2,709;    2,591
822,234;21792,539;    1,073;    1,409
822,798;21241,229;   -0,836;    0,500
823,362;21206,555;    1,527;    4,227
823,926;20474,244;   -0,018;    1,136
824,490;20715,025;    3,527;   -0,682
825,054;21189,624;    2,527;   -1,136
825,618;20827,404;   -1,200;   -1,500
826,181;20780,003;    0,982;   -1,318
826,745;20671,420;   -0,745;   -1,045
827,309;20971,837;    2,255;    1,318
827,872;20386,345;    0,527;    0,955
828,436;21412,035;    1,982;   -0,773
828,999;21442,725;    2,436;    1,227
829,563;20275,051;   -0,654;    1,136
830,126;20089,195;   -0,018;   -0,591
830,690;20094,248;    0,709;    2,864
831,253;19596,393;   -0,473;    2,227
831,816;19749,810;   -0,018;    0,500
832,380;19647,317;    1,164;    0,864
832,943;19850,462;    3,073;   -0,500
833,506;19362,424;    0,255;   -1,227
834,069;20208,205;    2,164;   -0,955
834,632;20230,804;   -2,200;    1,318
835,195;20121,857;    1,346;    0,955
835,758;19308,001;    0,709;    1,955
836,321;19123,327;    1,073;   -1,045
836,884;19257,744;   -1,291;   -0,955
837,447;19324,798;    0,528;    1,773
838,010;19584,578;    1,800;    3,227
838,573;19930,086;    0,528;    0,773
839,135;19895,412;   -0,109;   -0,955
839,698;19277,193;    2,528;    0,409
840,261;18725,610;    0,255;   -0,227
840,823;18612,027;   -0,927;    0,864
841,386;18907,535;   -0,018;   -2,409
841,948;18804,770;    0,255;    1,773
842,511;18541,096;    0,255;    1,682
843,073;18695,695;    2,982;    0,227
843,636;18507,839;    0,619;   -0,227
844,198;18401,711;    1,255;    0,591
844,760;18538,400;    0,619;    1,955
845,322;18213,817;    0,164;    1,136
845,885;18605,689;   -0,290;    0,591
846,447;19015,833;    0,710;    0,227
847,009;18581,432;    3,983;   -0,682
847,571;18949,213;    1,346;   -2,045
848,133;19045,993;   -0,199;   -1,864
848,695;18900,229;    2,346;    1,409
849,257;18405,373;    1,346;   -1,682
849,819;18566,517;    2,983;   -0,409
850,381;18628,661;    1,801;   -0,864
850,942;18959,987;    1,892;   -0,591
851,504;18875,677;    0,983;    0,227
852,066;18931,549;    1,619;   -1,591
852,628;18504,420;    0,165;    1,955
853,189;18009,837;    0,256;    2,682
853,751;18105,891;   -0,654;    1,409
854,312;17952,489;    1,256;   -1,682
854,874;18491,361;   -0,108;   -0,773
855,435;18943,960;    0,528;   -1,682
855,997;19088,831;    3,983;   -0,136
856,558;18369,885;    0,801;    1,773
857,119;18496,029;   -0,744;    2,864
857,681;18178,173;   -0,108;    0,318
858,242;18220,045;    1,347;   -2,136
858,803;18712,734;    1,074;   -0,773
859,364;19273,879;    0,892;   -4,773
859,925;18634,932;   -0,290;   -0,955
860,486;18526,531;    0,529;   -0,955
861,047;18221,493;    0,165;   -1,227
861,608;17988,819;    0,165;   -0,773
862,169;18213,055;   -0,562;   -0,045
862,730;17929,108;   -0,290;    1,409
863,291;18161,343;    0,438;   -0,500
863,852;18488,033;   -0,926;    1,955
864,412;17981,086;   -1,835;   -0,864
864,973;16514,503;    1,892;    0,500
865,534;16370,011;    2,074;    0,227
866,094;17908,974;    2,620;    0,227
866,655;17586,754;    4,711;    3,318
867,215;17901,171;    0,074;    0,136
867,776;17721,316;   -1,199;   -0,136
868,336;17782,187;    1,529;    0,136
868,897;17264,331;    3,438;    1,682
869,457;17048,112;    3,256;    0,318
870,017;17303,893;    2,438;   -1,227
870,578;17807,401;    1,893;    0,773
871,138;17410,636;    2,620;   -0,955
871,698;16997,598;   -0,562;   -1,318
872,258;16854,106;    0,711;   -2,864
872,818;17175,068;    2,347;    0,045
873,378;17214,485;   -2,198;    1,045
873,938;16773,812;    4,984;    0,500
874,498;17094,501;    1,256;   -1,955
875,058;16944,373;    4,347;    1,773
875,618;16792,244;    1,438;   -2,682
876,177;16719,207;   -0,471;    0,136
876,737;16295,260;   -0,289;    1,955
877,297;16305,859;    2,711;    1,955
877,856;16308,640;    2,529;    0,318
878,416;16241,966;    2,438;   -0,136
878,976;16477,292;    3,438;    0,409
879,535;16722,436;    4,529;    3,136
880,095;16434,217;    1,347;    0,045
880,654;16532,725;    0,347;    1,318
881,213;16601,323;    2,347;    1,500
881,773;16262,468;    1,984;    2,682
882,332;16631,703;    6,075;    5,136
882,891;16501,302;    0,711;    2,136
883,451;16948,446;   -2,016;    1,682
884,010;16410,136;   -1,107;   -0,409
884,569;16496,462;   -2,289;   -0,045
885,128;16616,879;   -0,743;   -1,864
885,687;16672,296;   -0,743;    0,682
886,246;16350,622;    2,620;    2,136
886,805;16137,584;    1,620;    2,045
887,364;16469,456;    1,166;   -0,500
887,922;16784,691;   -0,016;    0,045
888,481;16320,744;    1,530;    0,591
889,040;16636,343;    3,711;    2,136
889,599;17271,669;    2,166;    1,409
890,157;17353,268;    2,166;    2,409
890,716;17020,594;    2,166;    0,227
891,274;16776,466;    0,075;   -1,136
891,833;17198,883;    1,166;    0,864
892,391;17097,027;    1,802;    0,500
892,950;17200,262;    0,166;   -0,773
893,508;17538,134;    0,984;   -0,409
894,067;16887,187;   -0,379;    0,136
894,625;16781,240;   -1,016;   -1,500
895,183;16986,021;   -0,198;   -0,682
895,741;16917,802;    2,257;   -1,773
896,299;16752,037;    1,621;   -2,409
896,858;16936,272;    1,530;   -1,591
897,416;17062,235;    0,166;   -1,318
897,974;16761,379;   -2,197;    0,318
898,532;16940,250;    6,530;    2,682
899,089;16820,576;    0,621;   -0,682
899,647;16921,902;    0,530;    1,318
900,205;16628,410;    0,257;    1,045
900,763;16815,009;    2,166;    0,227
901,321;16881,517;    3,530;   -1,409
901,878;16311,480;    3,257;   -0,773
902,436;16130,169;    0,257;    1,318
902,994;16510,859;    6,712;    3,682
903,551;15998,912;    1,439;    0,409
904,109;16392,784;    1,530;   -1,409
904,666;15993,837;    1,439;    1,045
905,224;15780,891;    3,894;   -0,409
905,781;15539,944;   -0,470;   -0,318
906,338;15590,361;    0,167;    1,045
906,895;15532,687;    1,894;    2,045
907,453;15490,650;    2,348;    1,136
908,010;15499,521;    3,348;    0,409
908,567;15132,938;   -0,561;    0,591
909,124;14665,991;    2,439;   -1,500
909,681;14747,045;   -1,288;    0,682
910,238;14866,462;   -0,106;   -1,318
910,795;15198,970;   -1,561;   -1,136
911,352;14871,606;   -0,379;   -2,682
911,909;14241,788;    2,803;   -0,864
912,466;14763,879;    1,985;    1,500
913,022;14281,515;   -0,924;    0,500
913,579;14617,788;   -0,470;    2,045
914,136;14325,424;   -2,561;    0,955
914,692;14712,970;    1,530;   -1,227
915,249;14241,515;    0,530;    0,409
915,806;14441,606;    1,803;    1,955
916,362;14192,697;    0,894;    1,864
916,918;13740,424;    2,439;    1,045
917,475;13748,242;    1,621;    0,955
918,031;13859,061;    0,076;   -0,045
918,587;13292,879;    0,621;   -0,318
919,144;13493,970;   -0,379;    0,227
919,700;13862,970;    0,167;    0,773
920,256;13462,061;    0,439;    0,045
920,812;13058,333;    1,439;   -1,045
921,368;13058,697;    1,348;   -1,045
921,924;12707,879;    0,439;   -0,136
922,480;12260,152;    0,076;    1,227
923,036;12890,879;   -0,652;    1,955
923,592;12842,333;    0,621;    0,318
924,148;12769,606;    1,894;   -0,955
924,704;12105,424;    0,258;   -0,409
925,259;12377,788;   -0,561;    0,591
925,815;12120,879;    3,803;    0,500
926,371;11683,333;    3,530;    1,409
926,926;11573,424;    1,621;    0,591
927,482;11173,697;    1,621;    0,773
928,037;11011,152;   -0,833;    2,045
928,593;11333,788;    0,258;    1,045
929,148;11178,879;    1,167;   -1,500
929,704;10706,606;    2,439;   -0,500
930,259;10865,970;    0,894;   -0,136
930,814; 9931,152;    1,803;    1,955
931,369; 9624,242;    0,258;   -0,773
931,925; 9533,515;   -1,924;    0,136
932,480; 9453,970;    3,076;   -2,591
933,035; 9306,152;    3,985;   -0,318
933,590; 9092,424;   -1,742;   -1,773
934,145; 8740,879;   -1,288;   -0,318
934,700; 9115,879;    0,348;   -0,591
935,255; 8933,788;    4,803;    0,045
935,809; 8175,242;    6,258;    0,864
936,364; 7308,970;    2,167;   -0,136
936,919; 7314,606;    2,348;   -1,773
937,474; 7208,606;    1,348;    0,136
938,028; 6980,788;    3,076;    1,136
938,583; 6423,242;    6,348;    4,682
939,138; 6746,515;    0,167;    2,136
939,692; 6199,061;   -1,015;   -1,136
940,247; 5878,242;    1,167;   -1,045
940,801; 5448,788;    0,621;    0,227
941,355; 5355,879;    0,439;    2,591
941,910; 5038,515;    0,712;   -2,136
942,464; 5123,333;    2,712;   -0,318
943,018; 4911,424;    3,258;   -0,227
943,572; 4837,333;    2,803;   -0,682
944,126; 4264,788;   -0,924;   -0,409
944,681; 4154,879;    0,712;    0,227
945,235; 4133,061;    2,167;   -0,591
945,789; 4079,515;    1,258;   -1,864
946,342; 4167,970;   -0,561;   -0,591
946,896; 4006,242;    0,348;    0,955
947,450; 3759,242;   -0,561;   -0,227
948,004; 3954,515;    1,076;   -0,045
948,558; 3976,424;    1,258;   -0,864
949,111; 3891,242;   -1,197;   -0,318
949,665; 3929,152;   -0,106;   -0,682
950,219; 3809,242;    0,621;   -1,045
950,772; 3885,424;    0,258;    1,864
951,326; 3795,970;   -1,106;   -0,955
951,879; 3878,424;    1,076;   -2,318
952,433; 3907,515;    1,348;    2,227
952,986; 3739,061;    0,348;    0,682
953,539; 3669,061;    1,530;    0,591
954,093; 3617,061;    0,985;   -1,318
954,646; 3755,515;   -0,288;    1,318
955,199; 3568,061;    1,258;   -0,500
955,752; 3445,152;    1,985;    1,773
956,305; 3403,333;    0,894;    2,955
956,858; 3571,788;    0,621;   -0,318
957,411; 3754,061;    3,621;    2,136
957,964; 3570,879;    2,076;    2,136
958,517; 3565,606;    0,985;    3,136
959,070; 3405,424;   -1,197;    1,955
959,623; 3486,697;    1,076;    1,500
960,176; 3245,152;    0,712;    2,045
960,728; 3235,152;    1,712;    0,773
961,281; 3295,515;    2,258;    0,500
961,834; 3323,879;   -0,833;    0,864
962,386; 3244,606;    1,258;    1,045
962,939; 3167,515;    3,439;   -0,318
963,491; 3314,879;    2,621;    1,136
964,043; 3191,152;    0,076;    2,409
964,596; 3317,333;    1,712;    2,227
965,148; 3144,333;   -0,379;    1,773
965,700; 3085,333;   -0,015;   -0,227
966,253; 3242,788;   -0,833;    0,318
966,805; 3050,424;    1,894;    0,773
967,357; 3107,333;    0,439;   -1,500
967,909; 3046,970;    1,167;   -1,227
968,461; 3179,697;    0,894;    3,136
969,013; 3099,515;   -1,561;   -0,864
969,565; 3163,152;    1,803;   -1,136
970,117; 3257,879;    3,803;    1,045
970,669; 3075,152;    3,258;   -0,136
971,220; 2939,970;    2,167;   -1,500
971,772; 2850,515;    1,348;   -0,318
972,324; 2976,515;   -1,197;   -0,500
972,876; 2943,606;    0,167;   -0,045
973,427; 3064,333;   -1,197;   -1,045
973,979; 3044,879;    0,076;   -2,500
974,530; 3068,061;    0,803;    1,318
975,082; 3091,424;    2,167;    1,682
975,633; 2978,606;    2,894;    1,682
976,184; 3125,697;    2,076;    0,773
976,736; 2911,424;    0,348;    0,227
977,287; 2711,242;    0,258;   -0,500
977,838; 2901,879;   -0,924;   -0,318
978,389; 2952,333;    0,803;   -0,500
978,940; 2819,879;    1,258;   -0,409
979,491; 2837,970;    2,258;   -0,500
980,042; 2794,606;   -0,652;    3,045
980,593; 2862,242;    1,894;    0,227
981,144; 2931,152;    3,530;   -0,500
981,695; 2905,152;   -0,470;    1,500
982,246; 2849,152;   -1,833;    1,045
982,797; 3004,606;   -0,561;    0,682
983,347; 3115,333;    2,167;    0,591
983,898; 3268,333;    4,167;    0,409
984,449; 3087,879;    2,530;    0,773
984,999; 3005,606;    1,894;   -1,136
985,550; 2777,333;    3,167;   -0,318
986,100; 2824,242;    0,712;   -0,318
986,651; 2862,424;    0,258;    0,045
987,201; 2854,970;    0,894;   -0,591
987,751; 2931,788;   -0,288;    2,864
988,302; 2888,152;   -0,379;    1,500
988,852; 2919,333;    1,985;   -1,136
989,402; 2954,970;    0,985;    0,682
989,952; 2881,424;    1,621;    0,864
990,502; 2990,788;    1,076;    0,682
991,052; 2941,424;   -0,106;    0,045
991,602; 2798,879;    1,167;    1,318
992,152; 2793,333;    2,803;    0,682
992,702; 2778,424;    1,167;   -0,045
993,252; 2705,879;    0,076;   -0,500
993,802; 2783,424;    1,167;    1,318
994,352; 3041,242;   -0,742;    1,136
994,901; 3151,152;    1,076;    3,227
995,451; 3054,606;   -1,197;    0,318
996,000; 3132,697;    1,076;    0,318
996,550; 2816,152;    2,894;    0,227
997,100; 2843,152;   -0,561;   -0,045
997,649; 3130,697;   -0,197;    0,955
998,198; 2762,788;   -0,288;   -1,500
998,748; 2937,879;    0,348;   -2,318
999,297; 2836,061;    0,985;   -0,409
999,846; 2939,515;    1,894;   -0,773
1000,395; 2984,515;    1,530;    0,500
1000,945; 2935,242;    1,076;   -0,773
1001,494; 3002,515;    0,167;    0,682
1002,043; 2990,333;    0,712;    0,864
1002,592; 2825,061;    3,439;    1,955
1003,141; 2985,515;    2,439;   -0,682
1003,690; 2814,970;    1,258;    0,500
1004,238; 2884,424;   -0,106;   -0,045
1004,787; 2529,424;   -1,288;    1,227
1005,336; 2757,606;    1,621;    0,682
1005,885; 2901,879;   -0,197;   -2,773
1006,433; 3034,606;   -0,470;    0,955
1006,982; 3115,424;    2,167;    1,682
1007,531; 3019,152;    2,712;   -0,227
1008,079; 3004,424;    0,258;    0,500
1008,627; 3146,879;    1,621;    0,409
1009,176; 2861,152;    0,076;   -1,955
1009,724; 2899,424;   -2,742;    0,864
1010,273; 2959,424;    1,076;    0,500
1010,821; 3087,424;    1,076;    1,409
1011,369; 2811,424;    0,076;    1,318
1011,917; 2791,697;   -0,833;   -0,591
1012,465; 3064,061;    2,530;   -1,591
1013,013; 3186,061;    0,439;   -1,682
1013,561; 3069,879;   -1,288;   -0,773
1014,109; 3103,697;   -0,833;    1,682
1014,657; 2980,970;    1,348;    0,591
1015,205; 3086,606;    0,894;   -0,955
1015,753; 3109,788;    0,258;   -1,409
1016,301; 3167,333;    2,621;    3,045
1016,848; 3176,515;    2,167;    0,409
1017,396; 3231,333;    1,621;    0,045
1017,944; 3326,424;    2,621;    1,864
1018,491; 3099,061;   -0,197;    1,409
1019,039; 3265,152;   -0,652;    0,591
1019,586; 3183,879;    0,076;    1,682
1020,134; 3255,970;    0,712;    1,500
1020,681; 3276,424;    2,894;   -1,136
1021,228; 3294,242;   -0,561;   -2,227
1021,776; 3132,333;   -0,833;   -1,136
1022,323; 3332,333;    0,803;    0,773
1022,870; 3271,424;   -0,470;   -0,045
1023,417; 3185,061;    2,076;    1,864
1023,964; 3302,152;    0,621;    1,227
1024,511; 3147,242;   -0,652;    0,773
1025,058; 2946,515;    0,439;   -0,045
1025,605; 2999,424;   -1,742;    3,136
1026,152; 3208,424;   -0,106;   -0,591
1026,699; 2930,697;    0,167;    1,318
1027,245; 3109,424;    2,439;    0,318
1027,792; 3345,515;    0,712;    1,409
1028,339; 3216,515;    4,076;   -0,045
1028,885; 3075,697;    3,621;   -0,227
1029,432; 3005,424;   -0,106;    0,227
1029,978; 3064,788;    1,348;   -1,591
1030,525; 2956,606;    1,621;    0,409
1031,071; 3205,788;    0,348;    1,136
1031,618; 3326,242;    1,258;    1,682
1032,164; 3109,606;    2,076;    3,045
1032,710; 3144,152;    0,076;   -1,500
1033,256; 3094,242;    0,712;   -0,136
1033,803; 3077,515;   -0,288;    1,500
1034,349; 2805,242;    1,803;    0,136
1034,895; 2947,879;    2,621;   -0,318
1035,441; 2921,152;    0,439;    0,318
1035,987; 2940,333;   -2,288;   -0,682
1036,533; 2948,424;   -0,197;   -0,955
1037,078; 3140,606;    4,712;    1,682
1037,624; 2949,515;    2,439;   -0,955
1038,170; 2980,242;    1,712;   -0,318
1038,716; 2872,061;    2,167;   -0,409
1039,261; 2783,515;    2,167;   -0,773
1039,807; 2731,333;   -0,015;    3,409
1040,352; 2795,152;   -1,288;   -0,318
1040,898; 2846,788;    0,167;   -0,682
1041,443; 2749,152;    0,803;   -2,591
1041,989; 2795,424;    3,621;    1,591
1042,534; 2666,879;    0,985;    2,591
1043,079; 2793,970;    1,985;    0,955
1043,625; 2557,152;    0,258;    0,500
1044,170; 2600,970;    2,439;    1,045
1044,715; 2858,152;    0,167;    0,955
1045,260; 2671,606;   -0,833;   -0,955
1045,805; 2728,424;    0,258;   -0,591
1046,350; 2673,152;    0,530;   -0,409
1046,895; 2631,697;    0,803;    1,591
1047,440; 2585,061;    1,530;    0,409
1047,985; 2476,424;   -1,197;   -0,955
1048,530; 2389,424;    1,348;    1,227
1049,074; 2462,970;    2,803;    0,318
1049,619; 2434,970;   -0,924;    1,955
1050,164; 2250,697;    1,076;    0,227
1050,708; 2301,970;    2,621;    0,045
1051,253; 2652,970;    3,258;   -2,227
1051,797; 2377,242;   -0,197;   -1,318
1052,342; 2400,424;    1,348;    1,045
1052,886; 2382,061;    1,803;   -1,409
1053,430; 2262,970;    2,167;    0,136
1053,975; 2280,606;    0,894;   -0,318
1054,519; 2242,061;    1,803;    3,227
1055,063; 2264,333;    3,621;    1,318
1055,607; 2160,879;    1,348;    0,227
1056,151; 2185,697;    0,530;    1,682
1056,695; 2109,515;   -1,833;   -1,136
1057,239; 2165,061;   -1,197;   -0,682
1057,783; 2176,242;    2,258;   -1,500
1058,327; 2125,606;    3,076;    1,409
1058,871; 2337,697;    3,985;    1,318
1059,415; 2058,788;   -0,561;   -0,045
1059,958; 2317,061;    2,985;    2,591
1060,502; 2046,697;    1,348;   -0,773
1061,046; 1944,061;    1,712;   -0,955
1061,589; 1919,879;    2,803;   -1,136
1062,133; 1806,242;    0,985;    1,864
1062,676; 1750,061;    1,439;    0,864
1063,220; 1760,424;    0,985;    0,500
1063,763; 1771,697;    2,985;    1,136
1064,306; 1851,697;    0,985;    1,864
1064,849; 1734,879;    2,076;    0,591
1065,393; 1734,515;    2,894;   -1,500
1065,936; 1855,697;    2,530;   -0,409
1066,479; 1748,061;    2,621;    1,318
1067,022; 1767,515;    1,894;   -0,227
1067,565; 1662,879;   -1,197;   -1,318
1068,108; 1696,879;    1,258;   -0,591
1068,651; 1664,879;   -2,470;    1,409
1069,194; 1599,606;   -1,106;   -1,682
1069,736; 1607,424;    3,803;    0,955
1070,279; 1585,061;   -1,652;   -0,500
1070,822; 1639,515;    1,530;   -0,318
1071,364; 1695,242;    0,530;    1,318
1071,907; 1519,515;    0,348;    3,227
1072,450; 1446,788;    0,258;   -0,045
1072,992; 1445,424;   -0,561;    3,136
1073,535; 1568,424;    0,167;    2,136
1074,077; 1375,152;    2,985;    2,045
1074,619; 1339,061;    0,985;    0,591
1075,161; 1361,879;   -0,561;    1,500
1075,704; 1541,879;    0,258;    1,227
1076,246; 1364,061;    1,530;    0,682
1076,788; 1285,333;   -1,015;    1,773
1077,330; 1363,061;   -2,106;    2,136
1077,872; 1320,424;   -1,924;    0,955
1078,414; 1550,879;    3,712;    0,773
1078,956; 1278,152;    0,167;   -0,227
1079,498; 1533,515;    0,439;    0,318
1080,040; 1238,333;    0,985;   -1,318
1080,581; 1184,697;    0,621;   -0,318
1081,123; 1109,606;   -0,106;   -0,773
1081,665; 1173,242;    3,803;   -0,955
1082,206; 1444,152;    3,258;   -0,500
1082,748; 1323,515;    3,258;    2,045
1083,289; 1186,515;    0,167;    1,318
1083,831; 1115,061;    0,258;    0,227
1084,372; 1132,242;    0,894;    0,591
1084,913; 1133,152;    3,348;    0,864
1085,455; 1110,606;    1,530;   -2,045
1085,996; 1082,970;    0,530;    0,136
1086,537; 1096,333;    0,985;    0,864
1087,078; 1126,788;    0,439;   -2,136
1087,619; 1177,606;   -1,652;    0,227
1088,160; 1090,606;    1,439;    1,318
1088,701; 1079,152;   -0,742;    0,682
1089,242; 1024,970;   -0,561;   -2,227
1089,783; 1102,152;   -0,561;    1,409
1090,324; 1076,970;   -0,833;    0,682
1090,865;  955,697;   -1,924;   -0,409
1091,405;  953,333;   -0,561;    2,227
1091,946;  976,970;   -0,197;   -0,955
1092,487;  895,879;   -1,288;   -1,409
1093,027; 1057,061;    1,803;   -1,500
1093,568;  914,242;    2,258;    1,227
1094,108;  995,152;    0,621;    1,773
1094,649;  941,061;   -0,470;    0,136
1095,189;  883,788;    1,167;   -0,682
1095,729;  827,515;    0,712;    0,955
1096,269;  842,697;    1,258;   -0,955
1096,810; 1137,424;   -0,197;    0,500
1097,350;  985,152;   -0,561;   -0,773
1097,890;  885,697;    2,985;    1,227
1098,430; 1134,697;    4,985;    2,864
1098,970;  995,879;    1,894;    1,682
1099,510;  875,788;   -0,833;   -2,318
1100,050;  792,879;    0,258;   -1,591
1100,589;  765,515;    0,076;   -0,318
1101,129;  874,242;    0,894;   -0,955
1101,669; 1006,515;    2,803;    2,136
1102,209;  854,606;    1,530;    2,227
1102,748;  809,152;    3,439;    0,955
1103,288;  808,333;    0,712;   -1,227
1103,827;  824,606;    3,530;   -2,227
1104,367;  707,515;    1,712;   -2,409
1104,906;  671,879;   -1,015;   -1,136
1105,445;  751,061;    0,985;   -1,136
1105,985;  681,152;   -0,652;    1,500
1106,524;  728,606;    1,530;   -0,682
1107,063;  709,152;    1,167;    1,409
1107,602;  683,970;    1,894;   -1,500
1108,141;  608,879;    1,621;    1,500
1108,680;  702,152;    3,985;   -0,591
1109,219;  642,152;    0,167;   -0,500
1109,758;  650,606;    4,167;    0,682
1110,297;  626,606;   -1,106;   -0,682
1110,836;  570,242;    1,439;    0,955
1111,375;  723,515;    0,348;    0,409
1111,913;  731,515;    0,985;    0,773
1112,452;  680,515;    0,894;    0,136
1112,991;  572,970;    1,076;    1,955
1113,529;  529,515;    0,167;   -0,045
1114,068;  592,606;    0,439;    2,955
1114,606;  492,515;   -0,561;   -0,955
1115,144;  648,606;    1,530;    1,045
1115,683;  584,152;    1,985;    0,318
1116,221;  636,970;    2,076;   -0,864
1116,759;  555,606;    1,621;   -0,864
1117,297;  727,879;    1,621;    1,864
1117,836;  543,788;    1,985;   -1,227
1118,374;  547,424;    0,258;   -0,682
1118,912;  504,879;    0,439;    2,682
1119,450;  487,242;    0,985;    0,864
1119,988;  538,515;    3,348;    2,136
1120,525;  980,788;    7,258;    3,318
1121,063;  684,515;    0,530;    1,864
1121,601;  499,152;    1,076;   -1,227
1122,139;  469,242;    1,076;   -2,045
1122,676;  651,515;   -1,652;    2,773
1123,214;  586,061;    0,712;    4,409
1123,751;  406,970;    0,621;    2,227
1124,289;  522,333;    0,894;   -0,409
1124,826;  407,606;   -0,379;    0,227
1125,364;  334,424;    0,712;   -0,955
1125,901;  520,970;    6,258;    1,227
1126,438;  609,242;    3,530;    0,955
1126,975;  355,606;    2,985;   -0,773
1127,513;  409,242;    2,621;    2,136
1128,050;  333,152;   -0,561;   -0,682
1128,587;  423,970;    1,348;   -0,227
1129,124;  455,333;   -0,015;    1,318
1129,661;  345,970;   -1,924;    0,227
1130,198;  491,788;    2,439;    0,773
1130,734;  440,515;   -0,379;    1,409
1131,271;  311,879;   -1,197;    0,864
1131,808;  465,788;    1,621;    3,045
1132,345;  342,242;    4,530;    0,318
1132,881;  239,424;   -0,561;   -1,864
1133,418;  360,515;    0,348;   -1,136
1133,954;  312,697;    0,712;   -2,682
1134,491;  373,424;    1,712;   -0,773
1135,027;  289,061;    2,167;    0,864
1135,564;  365,515;    1,439;    2,955
1136,100;  343,788;   -0,742;    2,136
1136,636;  241,879;   -1,015;   -1,045
1137,172;  326,152;    0,894;   -1,045
1137,708;  254,515;   -1,561;   -1,045
1138,245;  262,970;    0,803;   -1,227
1138,781;  229,788;    1,803;   -3,318
1139,317;  280,788;    1,894;   -1,409
1139,852;  268,788;    3,076;    0,136
1140,388;  371,788;    2,076;   -0,409
1140,924;  262,879;    1,076;   -2,227
1141,460;  212,424;   -0,288;    0,136
1141,996;  158,879;   -0,652;    2,682
1142,531;  190,515;    1,076;    3,318
1143,067;  393,970;    1,167;    1,045
1143,602;  441,061;    3,439;   -0,318
1144,138;  296,242;    0,803;    1,045
1144,673;  184,424;    1,621;    1,409
1145,209;  245,606;    2,894;   -0,318
1145,744;  164,879;    0,803;    0,864
1146,279;  285,242;    1,530;   -0,136
1146,815;  217,515;    1,530;   -2,682
1147,350;  249,879;   -0,924;    0,045
1147,885;  168,242;   -1,924;   -1,318
1148,420;  177,152;    2,439;    0,773
1148,955;  158,606;   -1,470;    1,864
1149,490;  176,697;   -1,106;   -1,591
1150,025;  159,697;   -1,106;   -1,773
1150,560;  262,152;   -0,288;   -0,955
1151,094;  227,788;    0,258;   -0,591
1151,629;  231,697;   -3,742;    0,864
1152,164;  166,788;   -1,288;    1,318
1152,698;  127,788;    1,258;   -0,136
1153,233;   89,606;   -1,379;   -0,682
1153,767;  128,970;   -0,288;   -2,318
1154,302;  173,879;   -0,379;    1,773
1154,836;  175,788;    0,803;   -2,136
1155,371;  231,242;    2,258;    3,682
1155,905;  187,788;    1,985;    1,682
1156,439;  163,333;    0,530;   -0,500
1156,973;  184,152;    0,439;    0,318
1157,507;  131,242;   -1,742;    0,682
1158,042;  150,879;   -0,652;    1,045
1158,576;  194,697;   -0,561;    1,773
1159,110;  184,970;    0,076;    2,409
1159,643;  159,697;   -2,470;   -0,045
1160,177;  101,515;   -2,015;    1,500

