
Integration time [ms]:   0,040
Averaging Nr. [scans]: 11
Smoothing Nr. [pixels]: 0
Data measured with spectrometer [name]: 7318044SP
Wave   ;Sample   ;Dark     ;Reference
[nm]   ;[counts] ;[counts] ;[counts] 

186,757;   32,164;   38,161;    1,318
187,357;   59,665;   26,706;    0,955
187,958;   34,194;   17,252;   -1,591
188,558;   74,388;   12,979;   -1,227
189,159;   46,602;   10,070;   -4,500
189,759;   11,236;    5,797;   -3,591
190,360;   15,846;    6,797;   -2,136
190,960;   56,157;    5,706;   -4,136
191,560;   73,244;    2,614;   -6,591
192,161;  291,200;    5,885;   -3,500
192,761;  147,425;    5,520;   -3,227
193,361;  104,393;    3,065;   -3,773
193,962;  148,646;    1,612;   -2,682
194,562;   76,642;   -0,114;   -3,955
195,162;  101,331;   -0,567;   -2,227
195,762;  255,566;    2,433;   -0,045
196,362;  211,223;    1,706;   -2,500
196,963;   82,615;    1,706;   -0,864
197,563;  149,094;    1,252;   -0,955
198,163;   97,562;   -0,111;   -0,682
198,763;  126,307;   -0,020;   -0,500
199,363;  217,403;    3,616;   -0,500
199,963;  179,274;    2,162;    0,409
200,563;  155,751;    6,344;   -1,409
201,163;  134,619;    5,435;   -0,227
201,763;  216,179;    1,435;    0,318
202,363;  152,694;    0,980;    1,500
202,963;  257,130;    1,526;    1,045
203,563;  372,113;    0,344;    0,500
204,162;  219,847;    1,889;   -1,864
204,762;  214,577;    2,071;    0,591
205,362;  175,912;    0,708;    1,955
205,962;  278,640;    3,435;    1,955
206,562;  269,034;    1,889;    2,318
207,161;  237,141;    1,708;    0,318
207,761;  394,512;    4,435;    2,409
208,361;  268,804;    1,889;    1,409
208,960;  367,459;    2,889;    1,500
209,560;  425,423;    0,435;    1,591
210,160;  400,809;    5,071;    1,864
210,759;  367,588;    0,708;    1,227
211,359;  374,926;   -0,474;    1,045
211,958;  625,291;    3,526;    2,045
212,558;  708,781;    0,799;    1,864
213,157;  541,689;   -0,929;    1,500
213,757;  959,890;    5,617;   -0,227
214,356;  677,341;    1,708;   -0,409
214,956;  987,111;    3,526;    0,409
215,555;  619,330;    0,617;    2,136
216,154;  569,535;   -0,292;   -0,591
216,754;  565,396;    1,253;    0,773
217,353;  686,997;   -0,383;   -1,045
217,952;  540,592;    2,072;    0,318
218,552;  778,116;    0,254;   -0,773
219,151;  671,523;   -1,110;    0,955
219,750;  661,806;    0,890;   -0,227
220,349;  747,442;   -2,292;    1,045
220,948;  847,966;    1,163;    1,136
221,548;  833,606;    0,617;    1,227
222,147;  943,008;   -1,292;   -0,409
222,746; 1215,484;    1,254;   -0,955
223,345; 1083,651;   -1,019;    0,500
223,944; 1088,664;    1,163;    0,773
224,543; 1244,847;    4,072;   -1,409
225,142; 1356,207;    1,345;    0,136
225,741; 1259,403;    1,163;    1,045
226,340; 1265,411;    1,254;   -0,955
226,939; 1690,959;    2,708;   -0,136
227,538; 1617,762;    1,163;   -0,773
228,137; 1774,377;    0,435;    0,864
228,735; 1876,125;    0,435;    1,227
229,334; 1658,804;   -0,474;   -0,227
229,933; 2016,990;    0,799;    0,591
230,532; 2131,334;   -1,201;   -0,409
231,131; 2178,798;    1,253;    0,318
231,729; 2273,277;    1,163;   -2,318
232,328; 2336,499;    0,435;   -1,500
232,927; 2411,538;    4,526;   -0,500
233,525; 2511,040;    0,981;    0,045
234,124; 2705,310;    1,890;   -1,591
234,723; 2715,233;    1,617;   -1,045
235,321; 2858,236;    1,163;    0,136
235,920; 3045,074;    2,526;   -1,227
236,518; 3295,350;    1,072;    0,318
237,117; 3439,653;    2,890;   -0,227
237,715; 3587,668;    1,163;   -0,500
238,314; 3600,089;    1,708;   -2,318
238,912; 3720,839;    0,526;   -1,409
239,510; 3713,287;    1,162;   -1,227
240,109; 3915,911;   -0,474;    3,773
240,707; 3931,237;   -0,474;    1,227
241,305; 4244,658;   -0,383;    0,136
241,904; 4441,658;   -0,292;   -2,045
242,502; 4425,232;    3,253;   -0,227
243,100; 4365,801;    3,344;   -0,955
243,698; 4565,181;    2,799;    1,682
244,297; 4724,783;   -0,656;    0,682
244,895; 4579,006;   -0,474;   -2,318
245,493; 4870,408;    2,981;   -0,591
246,091; 4907,014;    5,163;   -1,318
246,689; 4886,399;    2,163;    0,591
247,287; 5013,670;   -0,019;   -1,136
247,885; 5282,248;   -1,019;    1,227
248,483; 5370,667;   -0,201;   -0,500
249,081; 5475,461;    0,981;    1,591
249,679; 5605,933;   -1,019;    1,682
250,277; 5854,760;   -2,292;    0,864
250,875; 5839,235;    0,617;   -1,045
251,473; 5882,292;   -0,019;    0,500
252,071; 6055,304;   -0,383;    1,045
252,669; 6183,482;   -1,565;    0,318
253,267; 6438,585;    1,618;    0,773
253,864; 6360,670;    0,617;    0,682
254,462; 6266,584;    1,526;    1,591
255,060; 6181,599;    0,072;    1,318
255,658; 6479,482;   -3,292;   -0,136
256,255; 6873,327;   -0,201;   -2,045
256,853; 6737,885;    2,345;    1,409
257,451; 6720,632;    1,981;    1,864
258,048; 7016,919;    2,072;    1,864
258,646; 6761,696;    0,436;   -1,045
259,243; 6939,158;    2,981;    2,227
259,841; 6967,620;    1,799;    0,318
260,438; 6861,204;    0,254;    0,864
261,036; 7534,603;    0,617;    1,409
261,633; 7455,531;    1,526;    2,227
262,231; 7210,387;   -0,110;   -0,045
262,828; 7255,841;   -0,383;    1,136
263,425; 7306,143;   -1,928;   -0,591
264,023; 7556,144;    1,436;    0,045
264,620; 7146,102;    1,526;   -0,318
265,217; 7468,916;    2,890;    3,136
265,815; 7578,958;    2,527;    2,136
266,412; 7367,419;    0,072;    0,136
267,009; 7382,108;    0,526;    0,773
267,606; 7311,969;    0,345;   -0,955
268,203; 7282,269;   -0,383;   -0,591
268,801; 7573,981;   -0,474;    0,591
269,398; 7855,845;   -0,564;    2,500
269,995; 7802,841;    0,890;    1,591
270,592; 7601,827;    0,799;   -0,500
271,189; 7818,505;    1,981;    0,409
271,786; 7914,782;    2,072;    1,227
272,383; 7779,470;   -0,383;    0,227
272,980; 7945,497;    1,617;    0,318
273,577; 8376,716;    2,162;    1,227
274,174; 7937,201;    1,435;    2,591
274,771; 7923,210;    1,890;   -0,773
275,367; 8049,737;    3,253;    1,409
275,964; 8037,804;   -0,565;   -0,500
276,561; 8112,874;   -2,474;   -1,045
277,158; 8324,842;    1,799;   -1,773
277,755; 8448,825;   -0,110;    0,409
278,351; 7879,445;    0,436;   -1,500
278,948; 8168,914;   -0,201;    0,045
279,545; 8151,917;    0,527;    2,318
280,141; 8746,807;    1,254;   -2,045
280,738; 8601,343;    2,435;   -0,136
281,334; 8821,845;   -0,383;    0,591
281,931; 8260,127;    2,890;   -1,318
282,528; 8343,255;    4,072;   -0,500
283,124; 8998,493;    3,345;   -0,500
283,721; 8879,484;    0,709;    1,409
284,317; 8708,152;    0,163;    2,500
284,913; 9212,146;   -0,110;    0,591
285,510; 9418,873;    2,890;   -0,318
286,106; 9426,851;    2,345;   -0,955
286,703; 9031,681;    0,072;    1,955
287,299; 9232,438;    1,254;   -0,591
287,895; 9431,216;    0,890;   -1,045
288,491; 9966,390;    0,163;    2,136
289,088; 9712,541;    0,163;    2,409
289,684; 9764,664;    2,890;    1,500
290,280; 9760,325;    1,890;    0,682
290,876; 9837,554;    0,163;    5,500
291,472; 9727,683;    2,163;    2,227
292,068; 9823,808;    1,254;    0,227
292,665; 9525,165;   -0,564;    0,773
293,261; 9210,008;   -1,292;    2,136
293,857; 9580,367;    4,072;    2,136
294,453; 9519,647;   -0,928;    0,955
295,049; 9410,398;    0,253;    1,955
295,644; 9462,967;   -1,292;    0,136
296,240; 9376,210;    0,162;   -0,136
296,836; 9404,219;   -0,747;    0,318
297,432; 9649,621;    2,980;   -0,500
298,028; 9682,668;    0,435;    0,773
298,624;10060,065;    0,889;    1,864
299,220;10276,777;    0,435;    0,591
299,815; 9930,661;    0,526;   -0,409
300,411; 9737,761;    0,435;    1,773
301,007; 9753,095;    1,889;    0,227
301,602; 9791,154;    2,071;   -2,318
302,198; 9955,305;    1,435;   -0,773
302,794;10255,726;    1,526;   -0,500
303,389;10350,299;    1,071;    1,045
303,985;10416,576;    1,253;    1,409
304,580;10377,110;    0,889;    1,591
305,176;10368,920;    0,344;    0,136
305,771;10271,299;   -0,929;   -1,227
306,367;10171,492;    3,071;    0,136
306,962;10474,336;    2,889;    1,500
307,558;10213,198;    2,435;    0,136
308,153;10153,081;   -0,383;   -1,136
308,748;10391,093;    0,162;    1,682
309,344;10331,879;    0,253;   -1,318
309,939;10435,183;    2,071;   -1,318
310,534;10709,576;   -2,020;   -1,682
311,130;10638,573;   -0,656;   -2,500
311,725;10400,495;    0,526;   -0,500
312,320;10709,816;    1,253;    0,045
312,915;10557,464;    2,890;   -1,045
313,510;10627,316;    0,526;   -0,500
314,105;11110,465;   -3,565;    1,409
314,700;10541,206;   -1,656;   -1,045
315,295;10200,110;   -0,020;    0,045
315,890; 9764,105;   -0,292;    0,864
316,485;10073,908;    0,253;   -0,318
317,080;10201,021;   -0,929;    1,591
317,675;10686,431;    3,071;   -0,682
318,270;10155,109;    6,889;    3,318
318,865;10175,403;    2,435;    3,045
319,460; 9999,585;   -1,565;    0,591
320,055;10242,024;   -2,565;   -1,227
320,650; 9915,469;   -1,838;   -0,591
321,244; 9966,191;    0,889;   -1,409
321,839;10838,143;    0,980;   -0,227
322,434;10714,270;   -0,111;   -1,591
323,029;10398,391;   -0,474;    1,591
323,623;10265,638;    0,798;    0,773
324,218;10104,538;    2,707;    1,409
324,812;10013,159;    0,889;    1,591
325,407; 9825,676;   -0,929;    2,045
326,002; 9753,065;    0,526;   -0,409
326,596;10075,360;   -0,656;    1,318
327,191;10242,534;   -0,383;   -1,045
327,785; 9870,723;   -0,747;   -0,227
328,379;10064,739;   -0,383;    0,136
328,974; 9874,308;    1,798;   -3,955
329,568;10096,798;    2,889;   -2,409
330,163; 9916,645;    2,435;    1,045
330,757;10281,276;    0,253;    1,591
331,351; 9630,349;   -0,292;    0,682
331,945; 9910,747;   -0,383;    1,409
332,540; 9540,601;    1,617;   -0,591
333,134; 9704,392;    3,344;    0,773
333,728; 9883,850;    2,799;    0,318
334,322;10185,714;    0,889;   -0,864
334,916; 9532,228;    0,344;    0,955
335,510; 9842,960;   -0,111;   -0,136
336,105;10069,625;   -0,929;    1,591
336,699; 9742,719;   -1,292;    0,591
337,293; 9711,611;    1,071;    0,318
337,887; 9836,930;    0,071;    1,955
338,481; 9961,918;    2,980;    0,591
339,074;10081,067;    2,071;    2,682
339,668; 9926,786;   -0,110;    1,227
340,262;10160,576;    7,708;    3,227
340,856; 9663,449;    1,708;   -0,682
341,450; 9071,054;    0,708;    1,864
342,044; 9864,429;    1,799;    0,136
342,637; 9642,093;    1,162;   -2,136
343,231; 9516,497;   -1,474;    0,682
343,825; 9464,740;   -0,747;   -0,591
344,419; 9435,620;   -0,474;    0,500
345,012; 9250,742;    2,889;    4,045
345,606; 9277,845;   -0,656;    1,591
346,199; 9112,415;   -0,111;   -0,227
346,793; 8714,406;    2,525;    2,045
347,386; 8934,248;    0,889;   -1,136
347,980; 8920,046;   -0,838;   -0,045
348,573; 8738,450;   -1,748;    0,409
349,167; 8442,261;    6,161;    4,773
349,760; 8775,060;    2,252;    2,682
350,354; 8756,619;    1,616;    1,136
350,947; 8504,018;    2,798;    1,682
351,540; 8218,901;    0,616;   -1,409
352,134; 8185,174;   -1,111;    1,136
352,727; 8282,969;   -0,657;    1,136
353,320; 8064,183;    2,343;    0,591
353,913; 7907,444;   -1,929;    1,864
354,507; 8098,066;    0,434;   -1,227
355,100; 8149,192;    0,071;    0,864
355,693; 7447,426;    4,798;    2,409
356,286; 7464,014;    0,980;    2,773
356,879; 7821,018;   -0,475;    1,227
357,472; 7453,887;    0,980;    1,500
358,065; 7655,474;    3,161;    2,500
358,658; 7541,130;    0,798;    2,318
359,251; 7252,633;    0,252;   -0,591
359,844; 6803,537;    0,343;   -1,136
360,437; 6980,763;    0,252;    0,045
361,030; 7242,701;    0,525;   -0,682
361,623; 6857,293;    0,434;    0,318
362,215; 6913,469;    0,979;    2,045
362,808; 6743,161;   -2,293;   -1,682
363,401; 6929,256;    0,798;    0,136
363,994; 6714,604;    3,252;   -1,500
364,586; 6636,511;    0,888;   -1,500
365,179; 6839,095;   -0,203;   -1,136
365,772; 6352,094;   -0,930;    2,045
366,364; 6601,090;    1,524;   -3,227
366,957; 6814,149;    1,342;   -0,045
367,549; 6820,516;   -0,203;   -0,864
368,142; 6508,315;    0,978;   -1,500
368,734; 6677,119;    2,523;   -2,136
369,327; 6658,701;    2,341;   -0,500
369,919; 6577,191;   -1,659;    0,409
370,512; 6401,406;   -1,023;   -0,500
371,104; 6181,194;    2,704;    1,591
371,696; 6325,002;    1,703;   -0,955
372,289; 6404,851;    0,157;    1,136
372,881; 6523,389;    1,156;    1,318
373,473; 6453,438;    4,064;    1,136
374,066; 6264,648;    1,336;    0,500
374,658; 6153,267;    0,879;    1,136
375,250; 6426,655;   -1,668;   -1,409
375,842; 6296,745;   -0,124;   -0,045
376,434; 6216,261;   -2,762;   -0,409
377,026; 6730,318;   -1,855;   -2,500
377,618; 6626,074;    0,779;   -0,682
378,210; 6476,221;    3,141;   -1,955
378,802; 6328,364;    3,412;   -0,591
379,394; 6338,691;    3,411;    0,682
379,986; 6858,095;    1,138;   -0,955
380,578; 6935,207;    1,410;    0,773
381,170; 6324,915;    0,320;    0,045
381,762; 6279,744;   -0,224;    1,409
382,354; 6443,275;   -0,223;   -1,318
382,945; 6567,675;    0,870;    0,318
383,537; 6712,903;    1,144;   -1,955
384,129; 6718,765;    0,963;   -1,136
384,721; 6856,996;    0,418;    0,955
385,312; 6791,561;   -1,399;   -0,955
385,904; 6878,624;   -0,945;    1,591
386,496; 6288,340;    0,691;    1,045
387,087; 6417,807;    0,418;    2,500
387,679; 6475,417;   -0,401;    0,045
388,270; 6590,720;   -2,401;    2,045
388,862; 6688,133;   -0,401;   -0,318
389,453; 6554,253;    1,054;    1,045
390,045; 6843,593;    3,236;   -2,682
390,636; 6785,957;    0,144;   -0,591
391,227; 6614,332;    2,054;   -0,045
391,819; 6722,792;    0,781;    0,773
392,410; 6773,627;    0,600;    0,045
393,001; 6721,792;    1,600;   -1,591
393,593; 6964,863;    0,600;   -0,045
394,184; 6842,658;    0,873;   -0,409
394,775; 6735,297;    1,146;    2,136
395,366; 6923,305;    1,782;    0,773
395,957; 6910,517;   -2,400;    0,136
396,548; 7198,606;    1,054;    2,682
397,139; 7477,721;    2,236;    0,591
397,730; 7237,505;    0,873;    0,955
398,321; 7281,818;    0,509;    0,955
398,912; 7292,218;   -0,764;    0,136
399,503; 7353,738;   -1,945;   -1,409
400,094; 6866,152;   -1,582;    1,682
400,685; 6735,744;    3,600;    0,045
401,276; 6807,367;   -0,400;   -0,955
401,867; 7078,239;   -1,127;    0,773
402,458; 7146,295;    1,509;   -2,318
403,048; 7149,456;    0,146;    0,591
403,639; 6807,381;    1,509;    0,864
404,230; 7051,709;    0,691;    0,318
404,821; 6996,829;   -0,127;    0,045
405,411; 7114,928;   -0,763;   -2,591
406,002; 6692,528;    3,237;   -1,136
406,592; 6587,092;    2,691;    0,045
407,183; 6871,420;    0,328;   -1,500
407,774; 6767,126;    1,419;   -0,136
408,364; 7090,110;    2,600;    0,409
408,954; 6734,582;   -0,036;    1,227
409,545; 6778,282;    1,873;    1,045
410,135; 6319,510;   -1,581;    0,500
410,726; 6463,299;    0,783;    0,318
411,316; 6831,125;    2,237;    0,773
411,906; 6540,776;    0,146;   -0,409
412,497; 6065,033;   -0,490;   -0,045
413,087; 6612,037;    0,783;   -0,227
413,677; 6972,504;   -2,490;    3,864
414,267; 6814,110;   -1,035;    1,409
414,857; 6801,802;    0,419;    4,227
415,448; 7092,955;   -0,763;    0,500
416,038; 6806,146;   -2,945;   -0,591
416,628; 6764,658;    0,965;    0,409
417,218; 6316,340;   -1,762;    3,318
417,808; 6570,668;    0,965;   -0,409
418,398; 6944,125;   -1,035;    2,682
418,988; 6952,905;   -2,217;    0,591
419,578; 7146,445;    3,601;    1,409
420,168; 7467,097;    0,692;   -0,955
420,757; 7095,887;    0,964;   -1,500
421,347; 6796,533;    1,601;   -0,227
421,937; 6914,710;    3,329;    1,409
422,527; 6905,437;    2,602;   -0,773
423,116; 6742,987;    2,692;   -0,045
423,706; 7029,690;    2,965;    0,318
424,296; 6998,460;    1,601;    0,682
424,885; 7374,005;    1,510;   -3,045
425,475; 7646,871;    1,147;   -2,864
426,065; 7564,118;   -1,489;   -0,318
426,654; 7244,120;    0,329;   -0,318
427,244; 7345,083;    1,147;    1,409
427,833; 6821,503;    1,056;   -0,500
428,423; 7247,692;    0,147;    1,136
429,012; 7945,396;    2,420;   -1,136
429,601; 7478,306;    2,057;    0,136
430,191; 7687,332;    2,511;    4,318
430,780; 7331,626;   -1,671;   -0,409
431,369; 7283,103;    1,329;   -0,045
431,959; 7840,567;    1,693;    0,500
432,548; 7614,981;   -1,398;   -0,045
433,137; 7735,638;    0,329;   -1,318
433,726; 8216,736;    0,148;    0,500
434,315; 7657,342;    0,148;    2,409
434,905; 7739,705;    0,693;    1,409
435,494; 7669,331;    3,148;    0,955
436,083; 8095,426;    1,420;   -0,955
436,672; 7971,719;    1,148;    0,500
437,261; 7584,778;    0,512;   -1,955
437,850; 7670,601;   -1,125;    0,682
438,439; 7660,344;    2,239;    1,955
439,027; 7537,449;    3,421;    1,773
439,616; 7842,142;    2,239;    1,227
440,205; 7667,882;    0,057;   -2,136
440,794; 7719,218;   -0,306;   -0,045
441,383; 7953,850;    1,603;   -0,591
441,971; 7804,298;   -0,306;    0,591
442,560; 7667,998;    0,603;   -1,773
443,149; 7441,537;    3,060;   -1,318
443,737; 7585,239;    0,968;   -2,318
444,326; 7828,207;    0,331;    0,318
444,915; 7865,427;   -1,851;    0,864
445,503; 8220,749;    0,058;   -0,318
446,092; 7555,672;    7,876;    2,136
446,680; 8050,720;    1,876;    0,318
447,269; 8192,779;   -1,487;   -0,318
447,857; 7969,813;    2,240;   -1,773
448,445; 8111,325;    2,149;    1,318
449,034; 8321,111;    0,876;   -1,136
449,622; 8409,726;    1,240;    3,500
450,210; 7732,639;    3,149;    2,227
450,799; 8236,946;    2,604;   -0,591
451,387; 8150,710;    1,786;   -0,591
451,975; 7862,487;   -1,305;    0,864
452,563; 7961,297;    0,422;    2,318
453,151; 7962,141;   -1,032;   -1,227
453,739; 7917,436;   -1,577;    0,136
454,328; 7774,778;    0,604;   -2,136
454,916; 7502,828;    1,150;   -0,136
455,504; 7687,894;    3,513;    1,227
456,092; 7856,919;    2,150;   -1,591
456,679; 7819,196;    0,604;    0,682
457,267; 7800,593;    3,604;    1,045
457,855; 7907,590;    3,241;    1,409
458,443; 7639,811;   -0,304;    1,682
459,031; 7813,036;    1,332;    2,409
459,619; 8212,196;   -3,577;    2,864
460,206; 8294,393;   -0,759;    2,045
460,794; 8373,667;   -0,668;   -0,227
461,382; 8573,150;    0,878;   -0,864
461,970; 8207,376;    0,605;    1,864
462,557; 8248,078;    0,878;   -0,682
463,145; 8398,741;   -0,304;   -1,682
463,732; 8520,703;    2,514;   -1,045
464,320; 8431,948;    1,514;   -3,045
464,907; 8112,478;    0,423;   -0,773
465,495; 8023,171;    2,696;   -1,227
466,082; 8157,489;    2,060;   -0,045
466,670; 8037,223;    2,605;    1,227
467,257; 8471,285;    0,060;    2,045
467,844; 8653,574;    1,514;    0,045
468,432; 8644,694;   -0,031;    3,500
469,019; 8189,445;    1,606;   -1,773
469,606; 8639,395;    0,969;    3,682
470,193; 8476,523;    2,151;    0,227
470,780; 8076,838;    0,333;    0,864
471,368; 8381,118;   -1,212;   -0,773
471,955; 8192,671;    1,060;   -0,682
472,542; 7843,511;   -0,303;   -1,136
473,129; 8070,703;   -0,485;    0,136
473,716; 7847,737;    0,060;    0,591
474,303; 8018,240;    1,333;   -0,864
474,890; 8270,728;    2,333;   -0,500
475,477; 8297,340;   -0,576;    0,409
476,064; 8216,184;    0,697;   -1,591
476,650; 8117,732;    2,152;    0,318
477,237; 7956,822;    1,879;    0,955
477,824; 8143,538;    3,879;    0,864
478,411; 8147,349;    0,606;   -0,318
478,997; 8299,501;    0,606;   -0,773
479,584; 8345,755;   -0,666;   -0,409
480,171; 8973,008;    1,243;   -0,773
480,757; 8642,735;   -0,848;    0,773
481,344; 8904,488;    0,334;    0,409
481,931; 8439,122;   -0,393;    1,045
482,517; 9333,111;    0,425;    0,318
483,104; 9799,005;    1,334;    2,864
483,690;10011,669;    0,243;    0,045
484,276;10315,320;    0,698;    0,227
484,863;10060,230;    2,152;    1,136
485,449;10574,213;    0,152;    0,318
486,035;10580,152;   -0,666;   -0,136
486,622;10971,595;   -2,393;    0,045
487,208;10900,640;    1,334;    1,500
487,794;10801,081;    0,971;    0,318
488,380;10908,095;    0,698;   -1,409
488,967;10960,183;   -1,120;   -0,409
489,553;11036,088;   -1,029;   -1,409
490,139;11208,841;    0,971;    0,773
490,725;10714,372;    0,789;   -0,227
491,311;10307,818;    1,516;    3,045
491,897; 9707,664;   -0,665;    1,500
492,483; 9610,428;    0,426;    1,227
493,069; 9447,192;    5,426;    0,864
493,655; 9417,361;    1,789;    0,682
494,241; 9352,989;    1,517;   -0,955
494,826; 9708,746;    0,335;   -1,045
495,412; 9184,769;    0,335;   -0,682
495,998; 9345,240;    0,971;   -0,318
496,584; 9391,810;    2,244;    1,045
497,169; 9356,373;    2,335;   -0,682
497,755; 9323,774;    1,244;    1,227
498,341; 9869,122;    2,153;    0,318
498,926; 9475,125;    2,881;    1,955
499,512; 9638,485;   -0,028;    2,955
500,097; 9728,474;   -0,574;   -0,318
500,683; 9687,726;   -0,028;    2,136
501,268;10021,071;    1,881;   -0,955
501,854; 9744,068;   -0,119;    1,227
502,439; 9672,478;   -0,573;   -1,773
503,024; 9832,149;    1,608;    0,500
503,610; 9900,872;    1,335;   -0,682
504,195; 9884,391;    1,245;    1,955
504,780;10006,169;    2,335;    1,227
505,366; 9878,659;    4,063;    2,864
505,951; 9616,928;   -1,119;    1,045
506,536; 9649,896;    1,427;   -3,682
507,121; 9634,899;    1,699;   -0,318
507,706;10055,927;   -0,392;    1,045
508,291;10380,907;   -2,937;    1,136
508,876; 9892,227;   -0,482;    2,591
509,461; 9418,306;    1,427;   -0,773
510,046; 9799,231;   -0,391;    0,318
510,631;10011,226;   -0,119;   -0,773
511,216; 9684,635;   -0,664;   -0,500
511,801;10069,810;   -0,755;    2,591
512,386;10356,307;    0,972;    0,500
512,971;10224,808;    0,427;    0,955
513,555; 9850,548;    1,154;   -1,500
514,140;10586,879;    1,336;   -3,136
514,725;10533,909;    1,791;   -1,136
515,309;10645,308;    1,064;    0,318
515,894;10153,124;   -0,300;   -2,227
516,479;10542,459;    1,973;   -0,955
517,063;10390,194;    0,882;    1,227
517,648;10509,746;    0,155;   -1,136
518,232;10153,192;   -1,300;   -1,409
518,817;10483,308;    1,337;    1,682
519,401;10707,684;    0,700;    0,591
519,985;10219,580;    2,700;    1,136
520,570;10114,042;   -0,118;   -1,955
521,154;10382,997;    0,064;    0,591
521,738;10520,771;    1,064;    2,409
522,323;11054,760;   -0,390;    1,682
522,907;10807,811;    2,428;   -0,136
523,491;10549,566;    1,155;    0,955
524,075;10540,409;    0,428;    0,591
524,659;10571,336;    0,973;    0,591
525,243;10099,275;    0,883;    0,409
525,827;10342,911;    0,883;   -0,045
526,411;11076,791;    1,155;   -0,136
526,995;11270,739;    0,337;    1,409
527,579;10886,869;    1,974;   -1,045
528,163;11161,191;    0,428;   -1,500
528,747;11085,297;    1,065;   -0,773
529,331;11362,243;    0,883;   -1,409
529,915;11530,900;    2,338;    0,955
530,499;11475,240;    0,247;    1,227
531,082;11201,274;    1,065;    1,591
531,666;10701,758;    0,520;    0,773
532,250;11305,140;    0,428;    2,682
532,833;11567,931;    0,610;    2,773
533,417;11458,912;    1,247;    0,864
534,001;11381,081;    0,429;   -0,318
534,584;12022,662;    1,974;    0,500
535,168;11848,067;    3,247;    1,409
535,751;11903,669;    4,520;    0,045
536,334;11389,571;    4,520;   -0,409
536,918;11933,657;    1,974;    1,591
537,501;11960,090;    1,520;    1,318
538,085;11994,578;    1,702;    1,045
538,668;12124,422;    0,883;    2,409
539,251;12383,448;    3,156;    3,773
539,834;12408,350;    0,156;    0,773
540,418;12313,875;    3,247;    4,318
541,001;12386,474;    2,702;    1,773
541,584;12378,189;    1,429;    2,227
542,167;12084,632;    0,702;    2,955
542,750;12225,557;    0,793;   -0,773
543,333;11845,838;    1,429;    2,136
543,916;12542,689;   -0,298;    2,500
544,499;12999,091;    2,520;    0,227
545,082;13044,914;    0,248;    3,591
545,665;13136,287;   -0,207;    1,500
546,248;13434,384;    0,520;   -0,318
546,830;13124,102;   -1,752;    1,955
547,413;13508,776;    0,157;   -0,773
547,996;13991,388;    0,157;    0,500
548,579;13773,643;   -0,843;    0,955
549,161;13564,921;    0,884;    2,682
549,744;13335,176;    0,612;    0,409
550,326;13826,861;    0,885;   -1,136
550,909;13610,361;    2,339;    0,591
551,492;13992,169;    0,521;    0,227
552,074;13781,307;   -0,024;   -1,318
552,657;14239,262;    2,430;    0,045
553,239;14047,066;   -3,024;   -0,773
553,821;13981,578;   -1,570;    1,045
554,404;13495,169;   -0,024;    1,136
554,986;13848,553;    2,248;    1,045
555,568;14392,448;    0,430;   -0,955
556,151;13692,473;    4,067;   -0,227
556,733;13863,022;   -1,388;   -0,864
557,315;14282,530;    4,703;    0,500
557,897;14011,500;    0,521;   -0,500
558,479;14170,936;    1,703;    1,318
559,061;14306,122;    1,067;   -0,864
559,643;14570,030;   -0,297;    0,045
560,225;14854,361;   -0,388;    2,864
560,807;14921,484;    0,340;    0,318
561,389;14432,153;   -1,206;    2,318
561,971;15069,989;   -0,660;    2,136
562,553;14898,124;    0,613;    1,591
563,135;15023,302;    1,249;    1,136
563,717;14649,208;    3,158;    1,136
564,298;15233,203;    3,976;   -0,045
564,880;14977,092;    0,340;   -1,409
565,462;15072,820;    1,977;    1,318
566,043;16097,992;   -0,933;    2,318
566,625;15664,104;    4,067;    1,227
567,207;15495,362;    0,704;    1,682
567,788;16427,165;   -0,114;    1,500
568,370;17090,979;   -1,841;   -0,500
568,951;16880,722;   -0,569;    0,227
569,533;17665,866;    0,977;   -0,500
570,114;18036,644;   -0,296;    0,682
570,695;18422,278;   -0,478;   -1,318
571,277;18739,661;   -0,205;   -1,682
571,858;19364,168;    2,704;   -1,136
572,439;20141,509;    0,795;   -1,045
573,021;20239,962;    0,432;   -2,773
573,602;20620,781;    1,795;    0,318
574,183;21385,029;   -0,114;    2,227
574,764;21441,251;    2,068;    0,409
575,345;21809,929;    0,250;   -0,136
575,926;22385,637;    2,704;    0,136
576,507;22333,984;    2,704;   -0,227
577,088;23255,597;    1,704;    1,682
577,669;23289,265;    1,704;    1,955
578,250;23877,029;   -0,750;   -1,045
578,831;24407,017;   -0,841;   -2,227
579,412;24581,563;   -1,205;    0,955
579,993;25446,476;    1,432;    0,227
580,573;25699,751;   -0,023;   -0,955
581,154;24717,903;    1,613;   -0,591
581,735;25554,262;    0,341;    0,773
582,315;25054,171;    0,523;    2,136
582,896;25269,706;   -1,750;    1,227
583,477;24841,291;    0,614;    1,227
584,057;25019,998;    1,159;    0,955
584,638;25287,567;   -2,750;    2,318
585,218;25249,404;    2,886;    2,682
585,799;25373,687;    1,977;   -0,227
586,379;25445,688;    1,250;    1,591
586,959;24382,167;    2,613;    0,318
587,540;23836,011;    0,432;    2,227
588,120;23441,626;   -1,113;   -0,045
588,700;22609,952;    2,977;    2,136
589,281;22948,159;    1,250;   -0,955
589,861;22820,965;   -0,296;   -1,682
590,441;22675,117;   -1,477;   -2,682
591,021;21765,134;    1,432;   -2,591
591,601;22019,404;    0,431;    0,500
592,181;22086,239;   -1,296;   -0,773
592,761;21387,077;    2,250;    1,409
593,341;21390,619;    1,522;    0,045
593,921;21374,119;   -0,569;    1,591
594,501;21328,099;    1,250;    1,318
595,081;21144,548;    0,522;   -0,318
595,661;21489,475;    1,068;    0,955
596,240;21900,882;   -1,023;    0,136
596,820;21493,669;    2,613;    1,955
597,400;21618,471;    1,977;    0,773
597,980;21858,528;   -0,750;    1,045
598,559;21918,352;    0,341;   -0,227
599,139;21658,680;   -0,750;   -1,227
599,718;21517,771;    0,795;   -0,409
600,298;21782,466;   -2,387;    0,682
600,877;22017,465;    4,795;    1,409
601,457;22245,525;    0,340;    1,136
602,036;22160,061;    1,795;    2,045
602,616;22321,004;    2,250;    1,682
603,195;22635,909;    0,431;    3,500
603,774;22170,305;   -0,296;    2,045
604,354;22053,240;    2,522;   -0,500
604,933;21663,649;    0,250;    1,864
605,512;21731,608;    2,340;    0,591
606,091;21822,670;    1,886;    3,773
606,671;22550,480;    0,249;    0,773
607,250;21765,802;    1,431;    3,136
607,829;21924,104;    1,158;    3,227
608,408;21779,689;    4,613;    2,591
608,987;20936,523;    2,704;    3,409
609,566;21174,181;    0,341;   -2,500
610,145;21335,598;    2,885;    0,682
610,723;21764,900;    1,613;    6,864
611,302;21014,077;    1,067;    1,682
611,881;20563,272;    5,158;   11,227
612,460;21336,367;    0,795;    3,955
613,039;21712,175;    1,703;    2,045
613,617;20563,225;    0,886;    4,773
614,196;20731,663;    1,613;    1,227
614,775;21061,830;    1,249;    2,409
615,353;20963,766;   -1,660;    0,864
615,932;20768,861;    0,249;    2,409
616,510;21319,124;    0,158;    0,591
617,089;20905,866;    8,794;   17,591
617,667;20708,840;    4,885;    6,136
618,246;20541,571;   -1,115;    1,318
618,824;20662,645;    1,612;   -0,955
619,402;20300,988;    0,431;   -1,773
619,981;20710,443;    1,067;   -1,045
620,559;20606,973;    0,794;    1,682
621,137;20194,914;    3,067;    1,864
621,715;20189,944;    3,703;   -0,682
622,293;20108,458;    1,885;   -0,773
622,871;20558,530;    0,340;    0,500
623,450;20210,741;    0,430;   -0,864
624,028;20105,018;   -0,388;   -0,955
624,606;19781,818;    2,339;    1,682
625,183;20122,544;   -0,661;   -1,136
625,761;19789,656;    1,885;    1,136
626,339;20054,598;    2,339;    2,591
626,917;20383,553;    0,339;   -0,045
627,495;20447,058;    2,794;    1,318
628,073;19896,579;    5,248;    2,864
628,650;19634,960;    3,067;    2,136
629,228;20061,394;    1,248;    4,409
629,806;19506,190;   -0,024;    1,136
630,383;19750,707;    0,066;   -0,318
630,961;19560,759;   -2,206;   -0,955
631,539;19326,180;   -2,479;    0,227
632,116;18765,486;   12,703;   15,409
632,694;19302,301;    4,885;    6,500
633,271;19480,362;    1,975;    2,682
633,848;19471,885;    1,430;    2,045
634,426;19481,822;    1,521;    1,773
635,003;18723,284;   -0,207;   -0,409
635,580;18980,732;    1,884;    3,682
636,158;19464,210;    3,793;    1,227
636,735;19411,203;    3,339;   -0,500
637,312;19541,757;    0,521;   -0,682
637,889;19666,540;    2,248;   -0,682
638,466;19210,131;    0,066;   -0,409
639,043;19224,674;    1,702;   -1,136
639,620;19464,126;    0,611;   -0,955
640,197;19760,176;    1,612;    1,682
640,774;19888,350;    1,430;    1,136
641,351;20229,979;    0,612;    1,136
641,928;19693,790;    2,794;    1,409
642,505;19392,601;    0,794;   -0,500
643,082;19514,866;    1,885;    1,227
643,658;18657,132;    1,157;    1,500
644,235;19308,670;   -2,479;    2,500
644,812;19530,117;    1,794;    0,773
645,388;19281,110;    1,612;    1,409
645,965;19361,648;    1,521;    1,682
646,542;19435,640;    3,430;   -0,227
647,118;19462,906;    3,703;   -0,955
647,695;19712,808;    0,339;    1,136
648,271;19580,800;   -2,115;    0,500
648,848;19816,247;    0,248;    2,227
649,424;19705,240;    0,976;    1,318
650,000;19495,869;   -0,388;   -1,045
650,577;19319,498;    0,158;   -0,955
651,153;19675,400;   -1,115;    0,955
651,729;20531,756;    0,521;    0,864
652,305;20618,112;    1,339;    2,773
652,881;24021,105;   -1,297;    1,136
653,458;29459,007;    0,249;    0,227
654,034;32478,817;    0,703;    1,591
654,610;33554,446;    0,339;    0,773
655,186;34769,075;    1,612;    3,045
655,762;34466,250;   -1,842;    0,409
656,338;34472,242;    0,703;    0,136
656,913;35401,599;   -0,297;    0,409
657,489;34809,410;    0,249;   -0,318
658,065;34769,766;    0,794;   -1,591
658,641;35310,304;    2,158;   -0,864
659,217;34673,297;    2,067;    0,409
659,792;34203,198;   -1,751;   -0,409
660,368;34506,009;   -0,388;   -0,682
660,944;34451,274;    1,794;    1,227
661,519;30835,176;    0,522;    0,409
662,095;26006,805;   -0,206;    0,591
662,670;22200,071;   -0,206;   -0,136
663,246;21308,790;   -0,660;   -0,409
663,821;20714,056;    0,431;    1,682
664,396;20227,230;    0,613;    1,864
664,972;20436,859;   -0,660;   -0,500
665,547;20750,488;    3,794;    0,136
666,122;20738,208;    1,340;    0,318
666,698;21005,019;    2,431;    0,318
667,273;20360,193;    0,885;    0,136
667,848;21113,550;    0,340;    1,500
668,423;20909,088;    1,795;    2,318
668,998;21358,717;    0,976;   -0,682
669,573;21830,255;    2,067;   -1,500
670,148;21643,429;    1,885;   -0,682
670,723;21403,695;   -0,024;    0,318
671,298;21788,778;   -1,296;    1,045
671,873;21828,953;   -0,296;   -0,136
672,448;21834,309;    1,704;    0,136
673,023;22175,302;    0,249;   -0,227
673,597;22429,203;    2,704;    2,318
674,172;22212,196;    2,431;    0,318
674,747;21785,098;   -0,205;   -1,045
675,321;21600,545;   -0,933;    3,318
675,896;21231,901;    2,158;    1,045
676,471;22058,439;    2,522;    1,591
677,045;21815,886;   -0,296;    0,682
677,620;21865,243;    2,158;    1,136
678,194;22164,508;    0,249;    1,136
678,769;21780,955;    0,886;   -0,318
679,343;22017,493;   -0,023;    1,773
679,917;21898,122;    0,340;    1,955
680,492;21934,388;    0,249;    3,227
681,066;22068,198;    0,613;    0,409
681,640;22117,736;    1,795;   -0,318
682,214;22786,184;    2,340;    0,500
682,788;22328,994;    0,613;   -0,773
683,363;22283,442;    1,977;    1,682
683,937;22053,889;    0,886;   -0,318
684,511;22706,245;   -1,023;   -0,591
685,085;22409,965;   -1,478;    0,318
685,659;22179,139;    1,431;    0,864
686,232;22409,223;    1,159;   -0,318
686,806;22170,125;    2,159;    0,409
687,380;22717,663;   -1,932;    0,591
687,954;22944,565;    2,432;    1,136
688,528;22600,284;    2,613;    1,955
689,101;23327,186;    0,432;    1,045
689,675;22929,270;    0,886;   -0,136
690,249;22346,717;    3,432;    0,409
690,822;22678,982;    1,159;    0,318
691,396;22800,702;    2,068;    1,227
691,969;22322,331;    2,523;    0,136
692,543;22777,415;   -0,568;   -1,955
693,116;22375,680;   -0,659;   -1,409
693,690;22261,582;   -0,296;    0,500
694,263;22760,393;    2,341;    2,955
694,836;22806,112;    2,795;    3,591
695,410;21594,832;    1,159;    1,773
695,983;22008,643;    1,614;    0,591
696,556;21974,999;   -0,750;   -1,045
697,129;22331,447;   -1,114;    1,409
697,703;21977,894;    1,341;    1,955
698,276;22015,796;    1,705;   -0,773
698,849;21835,970;   -1,023;    1,409
699,422;22164,963;    1,250;    0,591
699,995;21943,592;   -0,659;    0,136
700,568;22336,584;   -0,204;    3,045
701,140;22338,850;   -1,841;    1,682
701,713;22146,570;    0,341;    2,409
702,286;21948,744;    0,796;    0,864
702,859;21793,828;    0,614;   -0,591
703,432;21063,184;   -0,841;    0,682
704,004;21500,176;    1,978;    0,318
704,577;21368,260;    1,068;    0,136
705,150;21860,798;    0,887;    2,500
705,722;21666,972;    1,523;   -3,227
706,295;21482,692;    1,432;   -0,591
706,867;21380,230;    0,250;    1,955
707,440;21563,132;   -0,113;   -0,409
708,012;21792,761;   -0,022;    0,591
708,584;21711,845;    2,705;    0,227
709,157;21988,474;    1,160;   -0,591
709,729;21658,830;    1,069;    2,045
710,301;22439,732;   -1,204;    0,045
710,874;22481,452;    0,341;   -0,227
711,446;21412,081;   -0,295;    0,864
712,018;21271,528;   -3,022;    0,500
712,590;21083,248;   -0,204;    1,682
713,162;21553,968;   -0,477;    1,318
713,734;21785,233;    1,796;   -2,045
714,306;21693,226;    0,342;   -0,409
714,878;20484,673;   -0,295;    0,864
715,450;21304,029;   -0,113;    0,864
716,022;21553,840;    2,433;    1,318
716,593;21702,469;    0,978;    0,591
717,165;21599,734;    1,796;   -1,227
717,737;21364,363;    0,796;    0,409
718,309;21029,083;    1,160;   -0,045
718,880;21027,439;   -1,295;   -1,409
719,452;21277,250;    0,887;   -1,591
720,024;20897,697;    1,705;   -0,591
720,595;21446,326;    2,978;    0,955
721,167;21007,319;    1,160;   -2,045
721,738;20560,948;    2,069;   -1,045
722,309;20567,032;    1,251;   -1,227
722,881;20377,570;    2,705;    0,773
723,452;20917,471;    1,251;    2,864
724,023;21098,919;    1,524;    2,682
724,595;20909,457;    2,342;    0,682
725,166;20651,631;    1,524;   -0,409
725,737;20310,260;    1,887;    0,227
726,308;20358,980;    0,797;    0,318
726,879;20811,064;    1,069;    1,227
727,450;20656,238;   -2,022;   -0,045
728,021;20603,412;    1,069;    0,682
728,592;20439,314;    1,160;    0,500
729,163;20790,852;    1,433;   -0,136
729,734;20790,754;    2,160;   -0,227
730,305;21095,474;    0,615;    0,136
730,876;21359,376;    0,888;    2,955
731,447;21103,459;    0,797;    2,682
732,017;21214,361;   -0,840;    1,864
732,588;20773,263;   -0,021;    1,227
733,159;20892,710;    3,615;   -1,045
733,729;20733,157;    1,251;    0,409
734,300;20077,059;    0,160;    0,864
734,870;20507,051;   -1,385;    0,591
735,441;20967,044;    0,888;   -0,591
736,011;20756,673;    1,070;   -1,591
736,582;20704,393;    1,251;    0,045
737,152;20181,476;    0,979;   -2,045
737,722;20695,924;    1,070;   -0,682
738,293;20357,553;   -2,021;    1,318
738,863;20314,545;    1,797;    2,318
739,433;20155,811;    4,524;    0,318
740,003;20716,985;    1,524;   -0,682
740,573;20152,887;    2,252;   -1,591
741,143;20200,516;    3,615;    0,318
741,713;20876,781;    0,252;   -0,500
742,283;20607,592;    1,706;    1,591
742,853;20427,494;    0,524;    1,591
743,423;19956,213;    0,161;    0,045
743,993;20051,297;    1,070;    1,500
744,563;19468,562;    2,524;   -0,864
745,133;19439,919;   -0,112;   -0,864
745,702;20089,184;    2,797;    1,773
746,272;19331,268;    0,434;    0,591
746,842;19187,260;   -0,748;   -0,591
747,411;19558,616;   -0,839;   -0,318
747,981;19674,791;   -0,930;    0,500
748,551;19730,147;   -0,021;   -1,045
749,120;19610,049;   -0,112;   -0,227
749,690;19931,769;    2,161;    2,409
750,259;20219,852;    0,979;    2,955
750,828;20113,209;    4,070;   -1,955
751,398;20347,110;   -0,112;   -0,045
751,967;19931,648;    2,888;    0,409
752,536;20112,368;    1,161;   -0,227
753,105;20489,816;   -1,384;    0,227
753,675;20263,445;   -0,112;    1,773
754,244;20255,528;    0,888;    3,591
754,813;20279,884;    0,979;    1,227
755,382;19903,604;    0,798;    0,955
755,951;20346,779;   -0,112;    3,682
756,520;19929,044;    2,525;    1,864
757,089;20413,764;    1,888;    0,500
757,658;20548,666;    2,434;    1,227
758,227;20556,022;   -1,111;    0,318
758,795;20821,833;   -1,021;    1,136
759,364;21042,189;    0,525;   -0,591
759,933;20162,000;    1,343;   -0,045
760,501;19724,629;    0,252;   -1,318
761,070;20156,076;   -0,293;   -1,409
761,639;20825,523;    1,434;    1,318
762,207;20180,425;    0,889;   -0,955
762,776;20081,418;    2,889;    0,864
763,344;20110,501;    0,071;    0,591
763,913;19261,948;    1,616;    1,409
764,481;19987,668;    1,980;   -0,136
765,049;19848,115;    0,616;    1,409
765,618;19732,926;    1,434;    0,318
766,186;19781,010;    2,434;    0,136
766,754;19944,002;    1,798;    1,864
767,322;19036,177;    1,162;    0,409
767,890;19033,715;    0,525;   -1,773
768,459;19445,526;    2,616;   -0,318
769,027;19591,791;    2,525;    3,409
769,595;18722,420;    2,616;    2,591
770,163;19088,140;    3,344;    2,955
770,730;18866,042;    2,525;   -0,136
771,298;18767,762;    1,162;   -1,409
771,866;18866,027;    0,253;    4,955
772,434;19184,383;    1,162;   -1,864
773,002;19320,921;    2,616;    0,682
773,569;19005,914;    1,071;    1,682
774,137;18782,997;    0,889;   -0,045
774,705;19529,354;   -0,747;   -0,136
775,272;19145,528;    0,253;    0,682
775,840;18928,339;   -0,111;    2,682
776,407;18433,513;   -0,293;    1,955
776,975;18127,415;    1,162;    0,318
777,542;19062,044;    2,162;   -0,045
778,110;18953,219;    0,707;   -0,045
778,677;18635,666;    1,071;   -0,864
779,244;18429,022;   -1,020;    1,045
779,812;18508,106;    0,980;    0,864
780,379;18384,098;    2,435;    1,136
780,946;18608,364;    2,617;   -0,773
781,513;18889,174;   -0,565;    0,318
782,080;18323,167;    1,253;    2,864
782,647;18978,978;    1,708;    3,045
783,214;18623,516;   -0,201;    3,864
783,781;18262,963;    1,708;   -0,682
784,348;18119,319;    0,253;    1,500
784,915;18549,948;   -1,474;    0,318
785,482;18378,123;    2,708;    2,591
786,049;18773,479;    1,071;   -0,591
786,615;18882,199;    1,708;   -0,955
787,182;18606,737;   -3,201;   -0,682
787,749;18344,912;   -2,201;    1,409
788,315;17729,359;    0,253;   -0,409
788,882;18052,351;    0,981;   -1,227
789,448;18659,708;    1,435;   -0,955
790,015;18692,700;    1,799;    3,227
790,581;18300,057;    0,708;    0,227
791,148;18146,322;    1,344;    1,045
791,714;18362,224;   -1,019;    3,136
792,280;18099,853;    3,708;    1,591
792,847;17762,209;   -0,928;    2,500
793,413;18190,565;   -0,110;   -0,318
793,979;17805,830;    1,526;   -1,318
794,545;17919,005;    2,981;    2,682
795,111;17413,270;    2,435;    1,318
795,678;17539,445;    3,526;   -1,682
796,244;17215,256;    2,799;    0,136
796,810;17736,339;    0,799;    0,773
797,375;17502,786;   -0,292;   -2,136
797,941;17526,688;   -1,110;    0,591
798,507;17579,499;    0,254;   -0,955
799,073;17211,310;    2,708;    0,591
799,639;17330,484;    1,435;    3,136
800,205;17301,749;   -1,565;    2,682
800,770;16925,924;    1,345;    1,773
801,336;16991,826;    2,981;   -0,955
801,901;16753,455;    6,072;    3,136
802,467;17302,447;    0,526;    2,045
803,033;16684,167;   -0,019;    0,864
803,598;16863,614;    1,072;   -1,045
804,163;16925,425;    0,708;   -0,318
804,729;16863,509;   -0,110;    1,136
805,294;17155,319;    1,072;    2,227
805,859;17003,312;    0,890;   -0,409
806,425;16562,032;    3,890;    2,682
806,990;16242,752;    1,890;    4,318
807,555;16690,108;   -0,110;    2,591
808,120;16641,192;   -1,292;   -0,409
808,685;16632,548;    1,072;   -2,500
809,250;16248,359;    2,072;   -0,500
809,815;16546,897;   -0,201;    0,682
810,380;16959,162;    0,981;    1,591
810,945;17403,519;    2,890;    2,045
811,510;16727,966;   -0,200;    1,591
812,075;16453,504;    2,800;   -1,409
812,640;16498,406;    3,709;    1,409
813,204;16572,580;    2,163;   -0,227
813,769;17001,754;    0,254;   -0,045
814,334;16487,383;    0,527;    0,864
814,898;16557,285;    1,981;    0,591
815,463;16368,369;    0,981;   -0,773
816,027;16388,361;    1,345;   -2,318
816,592;16516,263;    2,163;   -2,045
817,156;16070,347;   -2,200;    1,136
817,721;15933,339;    0,982;    2,318
818,285;15963,695;    0,618;    1,500
818,849;16500,415;   -0,018;    1,682
819,414;16392,681;    0,073;    2,955
819,978;16035,128;   -0,291;    1,773
820,542;16566,121;    2,891;    0,500
821,106;16363,477;    2,800;    0,682
821,670;16382,469;    2,709;    2,591
822,234;16183,189;    1,073;    1,409
822,798;15647,455;   -0,836;    0,500
823,362;15654,811;    1,527;    4,227
823,926;15060,167;   -0,018;    1,136
824,490;15240,342;    3,527;   -0,682
825,054;15624,153;    2,527;   -1,136
825,618;15356,327;   -1,200;   -1,500
826,181;15329,683;    0,982;   -1,318
826,745;15220,403;   -0,745;   -1,045
827,309;15520,123;    2,255;    1,318
827,872;15031,752;    0,527;    0,955
828,436;15894,472;    1,982;   -0,773
828,999;16002,101;    2,436;    1,227
829,563;14964,821;   -0,654;    1,136
830,126;14805,359;   -0,018;   -0,591
830,690;14815,170;    0,709;    2,864
831,253;14376,799;   -0,473;    2,227
831,816;14517,791;   -0,018;    0,500
832,380;14449,966;    1,164;    0,864
832,943;14670,231;    3,073;   -0,500
833,506;14235,497;    0,255;   -1,227
834,069;14926,853;    2,164;   -0,955
834,632;15033,118;   -2,200;    1,318
835,195;14910,293;    1,346;    0,955
835,758;14193,194;    0,709;    1,955
836,321;14046,732;    1,073;   -1,045
836,884;14195,180;   -1,291;   -0,955
837,447;14227,900;    0,528;    1,773
838,010;14473,529;    1,800;    3,227
838,573;14748,067;    0,528;    0,773
839,135;14728,332;   -0,109;   -0,955
839,698;14203,688;    2,528;    0,409
840,261;13812,681;    0,255;   -0,227
840,823;13682,673;   -0,927;    0,864
841,386;13956,939;   -0,018;   -2,409
841,948;13887,386;    0,255;    1,773
842,511;13631,197;    0,255;    1,682
843,073;13725,917;    2,982;    0,227
843,636;13589,546;    0,619;   -0,227
844,198;13502,902;    1,255;    0,591
844,760;13638,986;    0,619;    1,955
845,322;13280,615;    0,164;    1,136
845,885;13693,153;   -0,290;    0,591
846,447;14101,691;    0,710;    0,227
847,009;13744,592;    3,983;   -0,682
847,571;13998,858;    1,346;   -2,045
848,133;14098,760;   -0,199;   -1,864
848,695;13884,389;    2,346;    1,409
849,257;13511,927;    1,346;   -1,682
849,819;13708,101;    2,983;   -0,409
850,381;13699,003;    1,801;   -0,864
850,942;13985,905;    1,892;   -0,591
851,504;13919,534;    0,983;    0,227
852,066;13971,981;    1,619;   -1,591
852,628;13636,792;    0,165;    1,955
853,189;13178,420;    0,256;    2,682
853,751;13319,049;   -0,654;    1,409
854,312;13141,133;    1,256;   -1,682
854,874;13588,580;   -0,108;   -0,773
855,435;13997,846;    0,528;   -1,682
855,997;14167,475;    3,983;   -0,136
856,558;13520,285;    0,801;    1,773
857,119;13604,733;   -0,744;    2,864
857,681;13355,271;   -0,108;    0,318
858,242;13367,809;    1,347;   -2,136
858,803;13803,710;    1,074;   -0,773
859,364;14299,249;    0,892;   -4,773
859,925;13740,423;   -0,290;   -0,955
860,486;13632,143;    0,529;   -0,955
861,047;13383,136;    0,165;   -1,227
861,608;13237,128;    0,165;   -0,773
862,169;13374,666;   -0,562;   -0,045
862,730;13139,386;   -0,290;    1,409
863,291;13402,288;    0,438;   -0,500
863,852;13688,644;   -0,926;    1,955
864,412;13248,273;   -1,835;   -0,864
864,973;12013,175;    1,892;    0,500
865,534;11872,349;    2,074;    0,227
866,094;13169,978;    2,620;    0,227
866,655;12866,607;    4,711;    3,318
867,215;13139,782;    0,074;    0,136
867,776;13028,411;   -1,199;   -0,136
868,336;13088,676;    1,529;    0,136
868,897;12668,032;    3,438;    1,682
869,457;12456,389;    3,256;    0,318
870,017;12692,381;    2,438;   -1,227
870,578;13129,556;    1,893;    0,773
871,138;12763,094;    2,620;   -0,955
871,698;12421,450;   -0,562;   -1,318
872,258;12312,625;    0,711;   -2,864
872,818;12671,344;    2,347;    0,045
873,378;12654,701;   -2,198;    1,045
873,938;12236,421;    4,984;    0,500
874,498;12481,322;    1,256;   -1,955
875,058;12418,315;    4,347;    1,773
875,618;12292,853;    1,438;   -2,682
876,177;12196,846;   -0,471;    0,136
876,737;11889,384;   -0,289;    1,955
877,297;11961,649;    2,711;    1,955
877,856;11970,733;    2,529;    0,318
878,416;11933,180;    2,438;   -0,136
878,976;12123,809;    3,438;    0,409
879,535;12270,256;    4,529;    3,136
880,095;12065,976;    1,347;    0,045
880,654;12154,423;    0,347;    1,318
881,213;12281,416;    2,347;    1,500
881,773;11932,772;    1,984;    2,682
882,332;12302,310;    6,075;    5,136
882,891;12153,212;    0,711;    2,136
883,451;12500,568;   -2,016;    1,682
884,010;11992,106;   -1,107;   -0,409
884,569;12062,008;   -2,289;   -0,045
885,128;12162,819;   -0,743;   -1,864
885,687;12255,266;   -0,743;    0,682
886,246;12015,349;    2,620;    2,136
886,805;11784,615;    1,620;    2,045
887,364;12033,517;    1,166;   -0,500
887,922;12367,600;   -0,016;    0,045
888,481;11890,502;    1,530;    0,591
889,040;12118,585;    3,711;    2,136
889,599;12672,487;    2,166;    1,409
890,157;12749,843;    2,166;    2,409
890,716;12415,472;    2,166;    0,227
891,274;12249,192;    0,075;   -1,136
891,833;12632,548;    1,166;    0,864
892,391;12511,268;    1,802;    0,500
892,950;12585,261;    0,166;   -0,773
893,508;12908,072;    0,984;   -0,409
894,067;12325,155;   -0,379;    0,136
894,625;12223,603;   -1,016;   -1,500
895,183;12396,959;   -0,198;   -0,682
895,741;12368,497;    2,257;   -1,773
896,299;12221,671;    1,621;   -2,409
896,858;12364,119;    1,530;   -1,591
897,416;12498,657;    0,166;   -1,318
897,974;12282,013;   -2,197;    0,318
898,532;12466,824;    6,530;    2,682
899,089;12372,635;    0,621;   -0,682
899,647;12405,264;    0,530;    1,318
900,205;12222,711;    0,257;    1,045
900,763;12395,158;    2,166;    0,227
901,321;12415,332;    3,530;   -1,409
901,878;11894,325;    3,257;   -0,773
902,436;11791,954;    0,257;    1,318
902,994;12225,765;    6,712;    3,682
903,551;11725,394;    1,439;    0,409
904,109;12060,750;    1,530;   -1,409
904,666;11722,197;    1,439;    1,045
905,224;11570,735;    3,894;   -0,409
905,781;11347,092;   -0,470;   -0,318
906,338;11423,811;    0,167;    1,045
906,895;11385,986;    1,894;    2,045
907,453;11332,524;    2,348;    1,136
908,010;11327,062;    3,348;    0,409
908,567;11037,782;   -0,561;    0,591
909,124;10630,684;    2,439;   -1,500
909,681;10699,949;   -1,288;    0,682
910,238;10881,487;   -0,106;   -1,318
910,795;11166,116;   -1,561;   -1,136
911,352;10832,025;   -0,379;   -2,682
911,909;10359,753;    2,803;   -0,864
912,466;10803,934;    1,985;    1,500
913,022;10370,207;   -0,924;    0,500
913,579;10713,116;   -0,470;    2,045
914,136;10463,480;   -2,561;    0,955
914,692;10799,843;    1,530;   -1,227
915,249;10420,753;    0,530;    0,409
915,806;10609,207;    1,803;    1,955
916,362;10476,116;    0,894;    1,864
916,918;10061,753;    2,439;    1,045
917,475;10054,571;    1,621;    0,955
918,031;10122,571;    0,076;   -0,045
918,587; 9688,207;    0,621;   -0,318
919,144; 9913,934;   -0,379;    0,227
919,700;10139,298;    0,167;    0,773
920,256; 9773,843;    0,439;    0,045
920,812; 9497,753;    1,439;   -1,045
921,368; 9526,298;    1,348;   -1,045
921,924; 9208,480;    0,439;   -0,136
922,480; 8864,025;    0,076;    1,227
923,036; 9436,480;   -0,652;    1,955
923,592; 9402,389;    0,621;    0,318
924,148; 9340,207;    1,894;   -0,955
924,704; 8763,934;    0,258;   -0,409
925,259; 9057,480;   -0,561;    0,591
925,815; 8865,116;    3,803;    0,500
926,371; 8471,934;    3,530;    1,409
926,926; 8398,207;    1,621;    0,591
927,482; 8110,025;    1,621;    0,773
928,037; 8023,662;   -0,833;    2,045
928,593; 8307,753;    0,258;    1,045
929,148; 8173,934;    1,167;   -1,500
929,704; 7731,662;    2,439;   -0,500
930,259; 7909,843;    0,894;   -0,136
930,814; 7197,843;    1,803;    1,955
931,369; 6961,025;    0,258;   -0,773
931,925; 6891,480;   -1,924;    0,136
932,480; 6817,025;    3,076;   -2,591
933,035; 6805,662;    3,985;   -0,318
933,590; 6633,753;   -1,742;   -1,773
934,145; 6349,116;   -1,288;   -0,318
934,700; 6639,389;    0,348;   -0,591
935,255; 6472,753;    4,803;    0,045
935,809; 5971,571;    6,258;    0,864
936,364; 5277,025;    2,167;   -0,136
936,919; 5308,480;    2,348;   -1,773
937,474; 5248,116;    1,348;    0,136
938,028; 5053,298;    3,076;    1,136
938,583; 4700,843;    6,348;    4,682
939,138; 4916,753;    0,167;    2,136
939,692; 4465,571;   -1,015;   -1,136
940,247; 4244,571;    1,167;   -1,045
940,801; 3960,389;    0,621;    0,227
941,355; 3904,025;    0,439;    2,591
941,910; 3608,934;    0,712;   -2,136
942,464; 3724,753;    2,712;   -0,318
943,018; 3630,207;    3,258;   -0,227
943,572; 3567,389;    2,803;   -0,682
944,126; 3145,207;   -0,924;   -0,409
944,681; 3056,025;    0,712;    0,227
945,235; 3026,389;    2,167;   -0,591
945,789; 2965,571;    1,258;   -1,864
946,342; 3147,571;   -0,561;   -0,591
946,896; 2910,934;    0,348;    0,955
947,450; 2705,753;   -0,561;   -0,227
948,004; 2953,116;    1,076;   -0,045
948,558; 2909,389;    1,258;   -0,864
949,111; 2829,662;   -1,197;   -0,318
949,665; 2946,934;   -0,106;   -0,682
950,219; 2830,116;    0,621;   -1,045
950,772; 2847,662;    0,258;    1,864
951,326; 2803,662;   -1,106;   -0,955
951,879; 2833,207;    1,076;   -2,318
952,433; 2881,025;    1,348;    2,227
952,986; 2710,116;    0,348;    0,682
953,539; 2677,389;    1,530;    0,591
954,093; 2637,753;    0,985;   -1,318
954,646; 2774,571;   -0,288;    1,318
955,199; 2598,934;    1,258;   -0,500
955,752; 2575,662;    1,985;    1,773
956,305; 2488,207;    0,894;    2,955
956,858; 2620,480;    0,621;   -0,318
957,411; 2788,025;    3,621;    2,136
957,964; 2620,934;    2,076;    2,136
958,517; 2597,116;    0,985;    3,136
959,070; 2468,298;   -1,197;    1,955
959,623; 2644,298;    1,076;    1,500
960,176; 2450,753;    0,712;    2,045
960,728; 2421,025;    1,712;    0,773
961,281; 2459,934;    2,258;    0,500
961,834; 2455,753;   -0,833;    0,864
962,386; 2385,025;    1,258;    1,045
962,939; 2321,480;    3,439;   -0,318
963,491; 2436,389;    2,621;    1,136
964,043; 2327,571;    0,076;    2,409
964,596; 2470,207;    1,712;    2,227
965,148; 2307,843;   -0,379;    1,773
965,700; 2252,934;   -0,015;   -0,227
966,253; 2396,843;   -0,833;    0,318
966,805; 2263,843;    1,894;    0,773
967,357; 2274,571;    0,439;   -1,500
967,909; 2290,025;    1,167;   -1,227
968,461; 2310,753;    0,894;    3,136
969,013; 2266,571;   -1,561;   -0,864
969,565; 2354,571;    1,803;   -1,136
970,117; 2533,207;    3,803;    1,045
970,669; 2278,843;    3,258;   -0,136
971,220; 2124,934;    2,167;   -1,500
971,772; 2105,753;    1,348;   -0,318
972,324; 2228,298;   -1,197;   -0,500
972,876; 2147,298;    0,167;   -0,045
973,427; 2313,934;   -1,197;   -1,045
973,979; 2306,025;    0,076;   -2,500
974,530; 2252,662;    0,803;    1,318
975,082; 2251,480;    2,167;    1,682
975,633; 2184,298;    2,894;    1,682
976,184; 2329,662;    2,076;    0,773
976,736; 2185,207;    0,348;    0,227
977,287; 2033,662;    0,258;   -0,500
977,838; 2159,116;   -0,924;   -0,318
978,389; 2193,753;    0,803;   -0,500
978,940; 2052,571;    1,258;   -0,409
979,491; 2076,843;    2,258;   -0,500
980,042; 2087,571;   -0,652;    3,045
980,593; 2109,480;    1,894;    0,227
981,144; 2192,934;    3,530;   -0,500
981,695; 2216,662;   -0,470;    1,500
982,246; 2154,934;   -1,833;    1,045
982,797; 2220,298;   -0,561;    0,682
983,347; 2352,753;    2,167;    0,591
983,898; 2533,298;    4,167;    0,409
984,449; 2388,934;    2,530;    0,773
984,999; 2239,025;    1,894;   -1,136
985,550; 2088,662;    3,167;   -0,318
986,100; 2056,207;    0,712;   -0,318
986,651; 2080,480;    0,258;    0,045
987,201; 2065,025;    0,894;   -0,591
987,751; 2132,843;   -0,288;    2,864
988,302; 2154,843;   -0,379;    1,500
988,852; 2155,116;    1,985;   -1,136
989,402; 2251,025;    0,985;    0,682
989,952; 2199,025;    1,621;    0,864
990,502; 2208,480;    1,076;    0,682
991,052; 2141,662;   -0,106;    0,045
991,602; 2049,480;    1,167;    1,318
992,152; 2068,571;    2,803;    0,682
992,702; 2060,571;    1,167;   -0,045
993,252; 1999,843;    0,076;   -0,500
993,802; 2103,207;    1,167;    1,318
994,352; 2254,662;   -0,742;    1,136
994,901; 2287,025;    1,076;    3,227
995,451; 2244,116;   -1,197;    0,318
996,000; 2310,843;    1,076;    0,318
996,550; 2098,934;    2,894;    0,227
997,100; 2107,298;   -0,561;   -0,045
997,649; 2362,116;   -0,197;    0,955
998,198; 2054,207;   -0,288;   -1,500
998,748; 2221,753;    0,348;   -2,318
999,297; 2112,843;    0,985;   -0,409
999,846; 2217,298;    1,894;   -0,773
1000,395; 2216,116;    1,530;    0,500
1000,945; 2245,571;    1,076;   -0,773
1001,494; 2305,480;    0,167;    0,682
1002,043; 2271,480;    0,712;    0,864
1002,592; 2088,480;    3,439;    1,955
1003,141; 2217,934;    2,439;   -0,682
1003,690; 2143,571;    1,258;    0,500
1004,238; 2139,934;   -0,106;   -0,045
1004,787; 1849,662;   -1,288;    1,227
1005,336; 2120,207;    1,621;    0,682
1005,885; 2186,025;   -0,197;   -2,773
1006,433; 2267,116;   -0,470;    0,955
1006,982; 2430,116;    2,167;    1,682
1007,531; 2289,207;    2,712;   -0,227
1008,079; 2184,480;    0,258;    0,500
1008,627; 2302,207;    1,621;    0,409
1009,176; 2105,662;    0,076;   -1,955
1009,724; 2120,389;   -2,742;    0,864
1010,273; 2229,571;    1,076;    0,500
1010,821; 2251,207;    1,076;    1,409
1011,369; 2058,753;    0,076;    1,318
1011,917; 2056,662;   -0,833;   -0,591
1012,465; 2303,389;    2,530;   -1,591
1013,013; 2359,389;    0,439;   -1,682
1013,561; 2321,025;   -1,288;   -0,773
1014,109; 2404,571;   -0,833;    1,682
1014,657; 2257,298;    1,348;    0,591
1015,205; 2301,662;    0,894;   -0,955
1015,753; 2292,753;    0,258;   -1,409
1016,301; 2348,662;    2,621;    3,045
1016,848; 2360,571;    2,167;    0,409
1017,396; 2412,753;    1,621;    0,045
1017,944; 2490,389;    2,621;    1,864
1018,491; 2267,025;   -0,197;    1,409
1019,039; 2540,389;   -0,652;    0,591
1019,586; 2367,662;    0,076;    1,682
1020,134; 2405,843;    0,712;    1,500
1020,681; 2443,389;    2,894;   -1,136
1021,228; 2412,934;   -0,561;   -2,227
1021,776; 2295,934;   -0,833;   -1,136
1022,323; 2546,934;    0,803;    0,773
1022,870; 2454,934;   -0,470;   -0,045
1023,417; 2417,480;    2,076;    1,864
1023,964; 2442,116;    0,621;    1,227
1024,511; 2361,934;   -0,652;    0,773
1025,058; 2201,298;    0,439;   -0,045
1025,605; 2232,025;   -1,742;    3,136
1026,152; 2478,843;   -0,106;   -0,591
1026,699; 2221,571;    0,167;    1,318
1027,245; 2340,389;    2,439;    0,318
1027,792; 2459,025;    0,712;    1,409
1028,339; 2459,753;    4,076;   -0,045
1028,885; 2301,298;    3,621;   -0,227
1029,432; 2241,298;   -0,106;    0,227
1029,978; 2332,298;    1,348;   -1,591
1030,525; 2249,207;    1,621;    0,409
1031,071; 2394,662;    0,348;    1,136
1031,618; 2583,753;    1,258;    1,682
1032,164; 2358,116;    2,076;    3,045
1032,710; 2401,025;    0,076;   -1,500
1033,256; 2306,389;    0,712;   -0,136
1033,803; 2252,025;   -0,288;    1,500
1034,349; 2024,207;    1,803;    0,136
1034,895; 2157,843;    2,621;   -0,318
1035,441; 2163,753;    0,439;    0,318
1035,987; 2198,480;   -2,288;   -0,682
1036,533; 2227,207;   -0,197;   -0,955
1037,078; 2425,025;    4,712;    1,682
1037,624; 2240,025;    2,439;   -0,955
1038,170; 2212,934;    1,712;   -0,318
1038,716; 2178,480;    2,167;   -0,409
1039,261; 2053,662;    2,167;   -0,773
1039,807; 2019,116;   -0,015;    3,409
1040,352; 2109,389;   -1,288;   -0,318
1040,898; 2156,116;    0,167;   -0,682
1041,443; 2042,116;    0,803;   -2,591
1041,989; 2182,662;    3,621;    1,591
1042,534; 2015,753;    0,985;    2,591
1043,079; 2051,389;    1,985;    0,955
1043,625; 1925,571;    0,258;    0,500
1044,170; 1991,389;    2,439;    1,045
1044,715; 2254,025;    0,167;    0,955
1045,260; 2064,934;   -0,833;   -0,955
1045,805; 2057,571;    0,258;   -0,591
1046,350; 1998,753;    0,530;   -0,409
1046,895; 2045,753;    0,803;    1,591
1047,440; 2016,571;    1,530;    0,409
1047,985; 1871,480;   -1,197;   -0,955
1048,530; 1797,116;    1,348;    1,227
1049,074; 1885,571;    2,803;    0,318
1049,619; 1843,480;   -0,924;    1,955
1050,164; 1705,662;    1,076;    0,227
1050,708; 1757,934;    2,621;    0,045
1051,253; 2146,389;    3,258;   -2,227
1051,797; 1854,843;   -0,197;   -1,318
1052,342; 1798,753;    1,348;    1,045
1052,886; 1826,480;    1,803;   -1,409
1053,430; 1684,662;    2,167;    0,136
1053,975; 1715,843;    0,894;   -0,318
1054,519; 1722,116;    1,803;    3,227
1055,063; 1768,025;    3,621;    1,318
1055,607; 1701,298;    1,348;    0,227
1056,151; 1717,571;    0,530;    1,682
1056,695; 1586,207;   -1,833;   -1,136
1057,239; 1642,480;   -1,197;   -0,682
1057,783; 1678,843;    2,258;   -1,500
1058,327; 1678,934;    3,076;    1,409
1058,871; 1908,298;    3,985;    1,318
1059,415; 1639,298;   -0,561;   -0,045
1059,958; 1918,116;    2,985;    2,591
1060,502; 1626,662;    1,348;   -0,773
1061,046; 1504,753;    1,712;   -0,955
1061,589; 1483,025;    2,803;   -1,136
1062,133; 1385,934;    0,985;    1,864
1062,676; 1354,389;    1,439;    0,864
1063,220; 1370,571;    0,985;    0,500
1063,763; 1400,843;    2,985;    1,136
1064,306; 1478,207;    0,985;    1,864
1064,849; 1390,298;    2,076;    0,591
1065,393; 1388,025;    2,894;   -1,500
1065,936; 1471,934;    2,530;   -0,409
1066,479; 1348,662;    2,621;    1,318
1067,022; 1370,480;    1,894;   -0,227
1067,565; 1289,207;   -1,197;   -1,318
1068,108; 1306,298;    1,258;   -0,591
1068,651; 1270,389;   -2,470;    1,409
1069,194; 1217,662;   -1,106;   -1,682
1069,736; 1240,025;    3,803;    0,955
1070,279; 1211,116;   -1,652;   -0,500
1070,822; 1291,753;    1,530;   -0,318
1071,364; 1399,298;    0,530;    1,318
1071,907; 1219,934;    0,348;    3,227
1072,450; 1090,662;    0,258;   -0,045
1072,992; 1114,843;   -0,561;    3,136
1073,535; 1266,843;    0,167;    2,136
1074,077; 1075,025;    2,985;    2,045
1074,619; 1053,207;    0,985;    0,591
1075,161; 1097,480;   -0,561;    1,500
1075,704; 1274,116;    0,258;    1,227
1076,246; 1058,207;    1,530;    0,682
1076,788;  978,389;   -1,015;    1,773
1077,330; 1029,843;   -2,106;    2,136
1077,872; 1035,753;   -1,924;    0,955
1078,414; 1266,207;    3,712;    0,773
1078,956; 1017,662;    0,167;   -0,227
1079,498; 1274,116;    0,439;    0,318
1080,040; 1003,571;    0,985;   -1,318
1080,581;  934,662;    0,621;   -0,318
1081,123;  855,843;   -0,106;   -0,773
1081,665;  883,571;    3,803;   -0,955
1082,206; 1196,934;    3,258;   -0,500
1082,748; 1069,389;    3,258;    2,045
1083,289;  931,389;    0,167;    1,318
1083,831;  865,389;    0,258;    0,227
1084,372;  922,207;    0,894;    0,591
1084,913;  926,116;    3,348;    0,864
1085,455;  864,843;    1,530;   -2,045
1085,996;  850,753;    0,530;    0,136
1086,537;  888,116;    0,985;    0,864
1087,078;  907,662;    0,439;   -2,136
1087,619;  965,662;   -1,652;    0,227
1088,160;  887,843;    1,439;    1,318
1088,701;  855,934;   -0,742;    0,682
1089,242;  805,389;   -0,561;   -2,227
1089,783;  909,843;   -0,561;    1,409
1090,324;  872,571;   -0,833;    0,682
1090,865;  762,025;   -1,924;   -0,409
1091,405;  725,207;   -0,561;    2,227
1091,946;  755,207;   -0,197;   -0,955
1092,487;  678,389;   -1,288;   -1,409
1093,027;  858,480;    1,803;   -1,500
1093,568;  722,753;    2,258;    1,227
1094,108;  810,934;    0,621;    1,773
1094,649;  749,934;   -0,470;    0,136
1095,189;  690,662;    1,167;   -0,682
1095,729;  663,298;    0,712;    0,955
1096,269;  652,298;    1,258;   -0,955
1096,810;  961,025;   -0,197;    0,500
1097,350;  810,025;   -0,561;   -0,773
1097,890;  702,116;    2,985;    1,227
1098,430;  964,389;    4,985;    2,864
1098,970;  848,753;    1,894;    1,682
1099,510;  691,843;   -0,833;   -2,318
1100,050;  627,753;    0,258;   -1,591
1100,589;  609,934;    0,076;   -0,318
1101,129;  728,298;    0,894;   -0,955
1101,669;  881,753;    2,803;    2,136
1102,209;  717,480;    1,530;    2,227
1102,748;  669,480;    3,439;    0,955
1103,288;  664,480;    0,712;   -1,227
1103,827;  683,389;    3,530;   -2,227
1104,367;  570,480;    1,712;   -2,409
1104,906;  538,480;   -1,015;   -1,136
1105,445;  620,207;    0,985;   -1,136
1105,985;  572,843;   -0,652;    1,500
1106,524;  610,843;    1,530;   -0,682
1107,063;  584,662;    1,167;    1,409
1107,602;  553,662;    1,894;   -1,500
1108,141;  489,116;    1,621;    1,500
1108,680;  597,298;    3,985;   -0,591
1109,219;  531,571;    0,167;   -0,500
1109,758;  538,753;    4,167;    0,682
1110,297;  501,480;   -1,106;   -0,682
1110,836;  459,298;    1,439;    0,955
1111,375;  604,934;    0,348;    0,409
1111,913;  616,389;    0,985;    0,773
1112,452;  557,025;    0,894;    0,136
1112,991;  458,571;    1,076;    1,955
1113,529;  427,025;    0,167;   -0,045
1114,068;  490,662;    0,439;    2,955
1114,606;  398,207;   -0,561;   -0,955
1115,144;  561,662;    1,530;    1,045
1115,683;  491,753;    1,985;    0,318
1116,221;  535,662;    2,076;   -0,864
1116,759;  448,207;    1,621;   -0,864
1117,297;  635,571;    1,621;    1,864
1117,836;  456,571;    1,985;   -1,227
1118,374;  461,753;    0,258;   -0,682
1118,912;  413,571;    0,439;    2,682
1119,450;  412,298;    0,985;    0,864
1119,988;  451,298;    3,348;    2,136
1120,525;  884,480;    7,258;    3,318
1121,063;  596,116;    0,530;    1,864
1121,601;  427,571;    1,076;   -1,227
1122,139;  386,025;    1,076;   -2,045
1122,676;  568,843;   -1,652;    2,773
1123,214;  501,025;    0,712;    4,409
1123,751;  346,298;    0,621;    2,227
1124,289;  452,025;    0,894;   -0,409
1124,826;  340,116;   -0,379;    0,227
1125,364;  270,389;    0,712;   -0,955
1125,901;  448,934;    6,258;    1,227
1126,438;  539,298;    3,530;    0,955
1126,975;  294,025;    2,985;   -0,773
1127,513;  346,207;    2,621;    2,136
1128,050;  275,934;   -0,561;   -0,682
1128,587;  361,571;    1,348;   -0,227
1129,124;  403,480;   -0,015;    1,318
1129,661;  287,934;   -1,924;    0,227
1130,198;  430,571;    2,439;    0,773
1130,734;  378,934;   -0,379;    1,409
1131,271;  255,298;   -1,197;    0,864
1131,808;  414,934;    1,621;    3,045
1132,345;  300,571;    4,530;    0,318
1132,881;  190,116;   -0,561;   -1,864
1133,418;  316,298;    0,348;   -1,136
1133,954;  260,207;    0,712;   -2,682
1134,491;  319,662;    1,712;   -0,773
1135,027;  235,662;    2,167;    0,864
1135,564;  314,571;    1,439;    2,955
1136,100;  301,025;   -0,742;    2,136
1136,636;  208,298;   -1,015;   -1,045
1137,172;  283,753;    0,894;   -1,045
1137,708;  215,480;   -1,561;   -1,045
1138,245;  218,389;    0,803;   -1,227
1138,781;  183,753;    1,803;   -3,318
1139,317;  245,207;    1,894;   -1,409
1139,852;  243,389;    3,076;    0,136
1140,388;  337,298;    2,076;   -0,409
1140,924;  223,207;    1,076;   -2,227
1141,460;  172,662;   -0,288;    0,136
1141,996;  118,934;   -0,652;    2,682
1142,531;  168,207;    1,076;    3,318
1143,067;  357,843;    1,167;    1,045
1143,602;  401,480;    3,439;   -0,318
1144,138;  265,207;    0,803;    1,045
1144,673;  146,843;    1,621;    1,409
1145,209;  213,480;    2,894;   -0,318
1145,744;  144,571;    0,803;    0,864
1146,279;  257,116;    1,530;   -0,136
1146,815;  183,843;    1,530;   -2,682
1147,350;  220,389;   -0,924;    0,045
1147,885;  150,571;   -1,924;   -1,318
1148,420;  150,934;    2,439;    0,773
1148,955;  136,662;   -1,470;    1,864
1149,490;  147,298;   -1,106;   -1,591
1150,025;  136,571;   -1,106;   -1,773
1150,560;  233,753;   -0,288;   -0,955
1151,094;  201,571;    0,258;   -0,591
1151,629;  210,753;   -3,742;    0,864
1152,164;  146,025;   -1,288;    1,318
1152,698;  116,753;    1,258;   -0,136
1153,233;   77,298;   -1,379;   -0,682
1153,767;  117,753;   -0,288;   -2,318
1154,302;  162,298;   -0,379;    1,773
1154,836;  160,025;    0,803;   -2,136
1155,371;  208,753;    2,258;    3,682
1155,905;  162,480;    1,985;    1,682
1156,439;  133,934;    0,530;   -0,500
1156,973;  159,389;    0,439;    0,318
1157,507;  107,116;   -1,742;    0,682
1158,042;  130,298;   -0,652;    1,045
1158,576;  169,753;   -0,561;    1,773
1159,110;  172,571;    0,076;    2,409
1159,643;  136,480;   -2,470;   -0,045
1160,177;   90,298;   -2,015;    1,500

