
Integration time [ms]:   0,050
Averaging Nr. [scans]: 11
Smoothing Nr. [pixels]: 0
Data measured with spectrometer [name]: 7318044SP
Wave   ;Sample   ;Dark     ;Reference
[nm]   ;[counts] ;[counts] ;[counts] 

186,757;  -20,780;   38,161;    1,318
187,357;    5,329;   26,706;    0,955
187,958;  -15,687;   17,252;   -1,591
188,558;   26,757;   12,979;   -1,227
189,159;    3,795;   10,070;   -4,500
189,759;  -19,241;    5,797;   -3,591
190,360;  -17,984;    6,797;   -2,136
190,960;    0,661;    5,706;   -4,136
191,560;    6,950;    2,614;   -6,591
192,161;  195,648;    5,885;   -3,500
192,761;   69,724;    5,520;   -3,227
193,361;   21,501;    3,065;   -3,773
193,962;   63,594;    1,612;   -2,682
194,562;    4,705;   -0,114;   -3,955
195,162;   16,469;   -0,567;   -2,227
195,762;  132,728;    2,433;   -0,045
196,362;   85,865;    1,706;   -2,500
196,963;   -4,037;    1,706;   -0,864
197,563;   43,579;    1,252;   -0,955
198,163;   -2,981;   -0,111;   -0,682
198,763;   12,530;   -0,020;   -0,500
199,363;   69,056;    3,616;   -0,500
199,963;   30,361;    2,162;    0,409
200,563;   23,625;    6,344;   -1,409
201,163;   13,627;    5,435;   -0,227
201,763;   47,063;    1,435;    0,318
202,363;   14,884;    0,980;    1,500
202,963;   47,736;    1,526;    1,045
203,563;  108,180;    0,344;    0,500
204,162;   31,013;    1,889;   -1,864
204,762;   31,089;    2,071;    0,591
205,362;   11,446;    0,708;    1,955
205,962;   43,896;    3,435;    1,955
206,562;   42,897;    1,889;    2,318
207,161;   25,918;    1,708;    0,318
207,761;  109,656;    4,435;    2,409
208,361;   36,021;    1,889;    1,409
208,960;   63,487;    2,889;    1,500
209,560;   70,828;    0,435;    1,591
210,160;   82,592;    5,071;    1,864
210,759;   62,948;    0,708;    1,227
211,359;   47,704;   -0,474;    1,045
211,958;  181,149;    3,526;    2,045
212,558;  205,489;    0,799;    1,864
213,157;  114,539;   -0,929;    1,500
213,757;  326,363;    5,617;   -0,227
214,356;  168,060;    1,708;   -0,409
214,956;  322,553;    3,526;    0,409
215,555;  140,110;    0,617;    2,136
216,154;  107,596;   -0,292;   -0,591
216,754;  104,770;    1,253;    0,773
217,353;  138,657;   -0,383;   -1,045
217,952;   51,159;    2,072;    0,318
218,552;  183,163;    0,254;   -0,773
219,151;  119,059;   -1,110;    0,955
219,750;  104,105;    0,890;   -0,227
220,349;  103,787;   -2,292;    1,045
220,948;  207,569;    1,163;    1,136
221,548;  135,322;    0,617;    1,227
222,147;  171,516;   -1,292;   -0,409
222,746;  327,103;    1,254;   -0,955
223,345;  215,486;   -1,019;    0,500
223,944;  218,926;    1,163;    0,773
224,543;  242,512;    4,072;   -1,409
225,142;  259,713;    1,345;    0,136
225,741;  232,012;    1,163;    1,045
226,340;  214,791;    1,254;   -0,955
226,939;  358,690;    2,708;   -0,136
227,538;  208,578;    1,163;   -0,773
228,137;  354,718;    0,435;    0,864
228,735;  295,715;    0,435;    1,227
229,334;  162,889;   -0,474;   -0,227
229,933;  377,141;    0,799;    0,591
230,532;  384,641;   -1,201;   -0,409
231,131;  445,368;    1,253;    0,318
231,729;  324,213;    1,163;   -2,318
232,328;  258,261;    0,435;   -1,500
232,927;  273,223;    4,526;   -0,500
233,525;  242,235;    0,981;    0,045
234,124;  296,791;    1,890;   -1,591
234,723;  215,458;    1,617;   -1,045
235,321;  211,488;    1,163;    0,136
235,920;  264,944;    2,526;   -1,227
236,518;  434,065;    1,072;    0,318
237,117;  278,112;    2,890;   -0,227
237,715;  299,225;    1,163;   -0,500
238,314;  362,379;    1,708;   -2,318
238,912;  528,320;    0,526;   -1,409
239,510;  407,214;    1,162;   -1,227
240,109;  554,405;   -0,474;    3,773
240,707;  521,848;   -0,474;    1,227
241,305;  391,543;   -0,383;    0,136
241,904;  534,452;   -0,292;   -2,045
242,502;  669,645;    3,253;   -0,227
243,100;  579,035;    3,344;   -0,955
243,698;  555,420;    2,799;    1,682
244,297;  630,529;   -0,656;    0,682
244,895;  663,208;   -0,474;   -2,318
245,493;  937,306;    2,981;   -0,591
246,091;  950,259;    5,163;   -1,318
246,689;  913,982;    2,163;    0,591
247,287;  906,765;   -0,019;   -1,136
247,885;  952,024;   -1,019;    1,227
248,483;  949,002;   -0,201;   -0,500
249,081; 1093,975;    0,981;    1,591
249,679; 1218,536;   -1,019;    1,682
250,277; 1163,361;   -2,292;    0,864
250,875; 1322,857;    0,617;   -1,045
251,473; 1283,421;   -0,019;    0,500
252,071; 1408,457;   -0,383;    1,045
252,669; 1429,199;   -1,565;    0,318
253,267; 1482,057;    1,618;    0,773
253,864; 1474,401;    0,617;    0,682
254,462; 1688,831;    1,526;    1,591
255,060; 1517,266;    0,072;    1,318
255,658; 1596,471;   -3,292;   -0,136
256,255; 1848,852;   -0,201;   -2,045
256,853; 1861,115;    2,345;    1,409
257,451; 1857,753;    1,981;    1,864
258,048; 2416,733;    2,072;    1,864
258,646; 2004,463;    0,436;   -1,045
259,243; 2173,751;    2,981;    2,227
259,841; 2142,898;    1,799;    0,318
260,438; 2045,633;    0,254;    0,864
261,036; 2352,383;    0,617;    1,409
261,633; 2371,025;    1,526;    2,227
262,231; 2303,764;   -0,110;   -0,045
262,828; 2391,537;   -0,383;    1,136
263,425; 2411,907;   -1,928;   -0,591
264,023; 2560,811;    1,436;    0,045
264,620; 2477,910;    1,526;   -0,318
265,217; 2685,748;    2,890;    3,136
265,815; 2616,331;    2,527;    2,136
266,412; 2691,028;    0,072;    0,136
267,009; 2709,112;    0,526;    0,773
267,606; 2815,827;    0,345;   -0,955
268,203; 2654,066;   -0,383;   -0,591
268,801; 2812,408;   -0,474;    0,591
269,398; 2913,794;   -0,564;    2,500
269,995; 2966,083;    0,890;    1,591
270,592; 2806,648;    0,799;   -0,500
271,189; 2908,462;    1,981;    0,409
271,786; 2995,216;    2,072;    1,227
272,383; 3084,572;   -0,383;    0,227
272,980; 3020,361;    1,617;    0,318
273,577; 3244,238;    2,162;    1,227
274,174; 2952,739;    1,435;    2,591
274,771; 2957,835;    1,890;   -0,773
275,367; 3316,143;    3,253;    1,409
275,964; 3234,707;   -0,565;   -0,500
276,561; 3223,938;   -2,474;   -1,045
277,158; 3261,809;    1,799;   -1,773
277,755; 3445,884;   -0,110;    0,409
278,351; 3043,096;    0,436;   -1,500
278,948; 3293,030;   -0,201;    0,045
279,545; 3255,197;    0,527;    2,318
280,141; 3813,919;    1,254;   -2,045
280,738; 3629,191;    2,435;   -0,136
281,334; 3651,613;   -0,383;    0,591
281,931; 3404,527;    2,890;   -1,318
282,528; 3591,903;    4,072;   -0,500
283,124; 4079,467;    3,345;   -0,500
283,721; 4002,329;    0,709;    1,409
284,317; 3918,048;    0,163;    2,500
284,913; 4380,487;   -0,110;    0,591
285,510; 4711,760;    2,890;   -0,318
286,106; 4707,769;    2,345;   -0,955
286,703; 4285,078;    0,072;    1,955
287,299; 4522,353;    1,254;   -0,591
287,895; 4782,032;    0,890;   -1,045
288,491; 5234,522;    0,163;    2,136
289,088; 5174,070;    0,163;    2,409
289,684; 5265,017;    2,890;    1,500
290,280; 5376,635;    1,890;    0,682
290,876; 5551,147;    0,163;    5,500
291,472; 5565,659;    2,163;    2,227
292,068; 5734,050;    1,254;    0,227
292,665; 5571,353;   -0,564;    0,773
293,261; 5479,197;   -1,292;    2,136
293,857; 5841,991;    4,072;    2,136
294,453; 5885,228;   -0,928;    0,955
295,049; 5926,443;    0,253;    1,955
295,644; 6056,428;   -1,292;    0,136
296,240; 6075,149;    0,162;   -0,136
296,836; 6261,883;   -0,747;    0,318
297,432; 6583,936;    2,980;   -0,500
298,028; 6746,817;    0,435;    0,773
298,624; 7096,985;    0,889;    1,864
299,220; 7365,010;    0,435;    0,591
299,815; 7130,119;    0,526;   -0,409
300,411; 7093,988;    0,435;    1,773
301,007; 7157,351;    1,889;    0,227
301,602; 7198,313;    2,071;   -2,318
302,198; 7408,585;    1,435;   -0,773
302,794; 7760,876;    1,526;   -0,500
303,389; 7894,342;    1,071;    1,045
303,985; 7947,958;    1,253;    1,409
304,580; 7975,144;    0,889;    1,591
305,176; 8000,048;    0,344;    0,136
305,771; 7950,205;   -0,929;   -1,227
306,367; 7915,382;    3,071;    0,136
306,962; 8169,950;    2,889;    1,500
307,558; 7885,159;    2,435;    0,136
308,153; 7844,233;   -0,383;   -1,136
308,748; 7966,088;    0,162;    1,682
309,344; 7983,686;    0,253;   -1,318
309,939; 8123,774;    2,071;   -1,318
310,534; 8250,730;   -2,020;   -1,682
311,130; 8123,973;   -0,656;   -2,500
311,725; 7863,186;    0,526;   -0,500
312,320; 8128,289;    1,253;    0,045
312,915; 8038,007;    2,890;   -1,045
313,510; 8036,585;    0,526;   -0,500
314,105; 8408,275;   -3,565;    1,409
314,700; 7799,397;   -1,656;   -1,045
315,295; 7524,781;   -0,020;    0,045
315,890; 7122,942;   -0,292;    0,864
316,485; 7330,739;    0,253;   -0,318
317,080; 7417,776;   -0,929;    1,591
317,675; 7817,930;    3,071;   -0,682
318,270; 7354,150;    6,889;    3,318
318,865; 7367,418;    2,435;    3,045
319,460; 7122,009;   -1,565;    0,591
320,055; 7331,625;   -2,565;   -1,227
320,650; 7018,301;   -1,838;   -0,591
321,244; 7029,371;    0,889;   -1,409
321,839; 7786,318;    0,980;   -0,227
322,434; 7667,108;   -0,111;   -1,591
323,029; 7410,655;   -0,474;    1,591
323,623; 7290,360;    0,798;    0,773
324,218; 7178,355;    2,707;    1,409
324,812; 7116,879;    0,889;    1,591
325,407; 6980,463;   -0,929;    2,045
326,002; 6961,258;    0,526;   -0,409
326,596; 7268,931;   -0,656;    1,318
327,191; 7455,966;   -0,383;   -1,045
327,785; 7174,204;   -0,747;   -0,227
328,379; 7492,725;   -0,383;    0,136
328,974; 7303,938;    1,798;   -3,955
329,568; 7615,551;    2,889;   -2,409
330,163; 7562,876;    2,435;    1,045
330,757; 7929,991;    0,253;    1,591
331,351; 7434,526;   -0,292;    0,682
331,945; 7776,508;   -0,383;    1,409
332,540; 7566,075;    1,617;   -0,591
333,134; 7751,331;    3,344;    0,773
333,728; 7992,226;    2,799;    0,318
334,322; 8403,294;    0,889;   -0,864
334,916; 7841,888;    0,344;    0,955
335,510; 8259,459;   -0,111;   -0,136
336,105; 8552,329;   -0,929;    1,591
336,699; 8323,632;   -1,292;    0,591
337,293; 8374,030;    1,071;    0,318
337,887; 8560,685;    0,071;    1,955
338,481; 8742,739;    2,980;    0,591
339,074; 9009,884;    2,071;    2,682
339,668; 8917,833;   -0,110;    1,227
340,262; 9255,003;    7,708;    3,227
340,856; 8861,713;    1,708;   -0,682
341,450; 8359,352;    0,708;    1,864
342,044; 9204,121;    1,799;    0,136
342,637; 9080,496;    1,162;   -2,136
343,231; 9000,907;   -1,474;    0,682
343,825; 9014,174;   -0,747;   -0,591
344,419; 9128,622;   -0,474;    0,500
345,012; 9019,437;    2,889;    4,045
345,606; 9038,473;   -0,656;    1,591
346,199; 8949,091;   -0,111;   -0,227
346,793; 8574,586;    2,525;    2,045
347,386; 8829,208;    0,889;   -1,136
347,980; 8825,480;   -0,838;   -0,045
348,573; 8680,659;   -1,748;    0,409
349,167; 8452,831;    6,161;    4,773
349,760; 8834,597;    2,252;    2,682
350,354; 8794,720;    1,616;    1,136
350,947; 8559,924;    2,798;    1,682
351,540; 8285,584;    0,616;   -1,409
352,134; 8237,902;   -1,111;    1,136
352,727; 8322,733;   -0,657;    1,136
353,320; 8151,134;    2,343;    0,591
353,913; 8004,553;   -1,929;    1,864
354,507; 8158,481;    0,434;   -1,227
355,100; 8201,458;    0,071;    0,864
355,693; 7486,133;    4,798;    2,409
356,286; 7497,171;    0,980;    2,773
356,879; 7852,878;   -0,475;    1,227
357,472; 7454,921;    0,980;    1,500
358,065; 7655,828;    3,161;    2,500
358,658; 7569,510;    0,798;    2,318
359,251; 7197,700;    0,252;   -0,591
359,844; 6697,543;    0,343;   -1,136
360,437; 6910,525;    0,252;    0,045
361,030; 7121,486;    0,525;   -0,682
361,623; 6741,232;    0,434;    0,318
362,215; 6719,029;    0,979;    2,045
362,808; 6598,234;   -2,293;   -1,682
363,401; 6713,169;    0,798;    0,136
363,994; 6512,285;    3,252;   -1,500
364,586; 6417,568;    0,888;   -1,500
365,179; 6555,166;   -0,203;   -1,136
365,772; 6066,670;   -0,930;    2,045
366,364; 6301,873;    1,524;   -3,227
366,957; 6508,877;    1,342;   -0,045
367,549; 6464,862;   -0,203;   -0,864
368,142; 6130,402;    0,978;   -1,500
368,734; 6288,241;    2,523;   -2,136
369,327; 6247,531;    2,341;   -0,500
369,919; 6159,099;   -1,659;    0,409
370,512; 5974,491;   -1,023;   -0,500
371,104; 5715,218;    2,704;    1,591
371,696; 5873,946;    1,703;   -0,955
372,289; 5943,035;    0,157;    1,136
372,881; 6051,657;    1,156;    1,318
373,473; 5959,025;    4,064;    1,136
374,066; 5765,808;    1,336;    0,500
374,658; 5654,200;    0,879;    1,136
375,250; 5931,543;   -1,668;   -1,409
375,842; 5772,683;   -0,124;   -0,045
376,434; 5635,993;   -2,762;   -0,409
377,026; 6140,784;   -1,855;   -2,500
377,618; 6024,557;    0,779;   -0,682
378,210; 5868,807;    3,141;   -1,955
378,802; 5715,434;    3,412;   -0,591
379,394; 5679,686;    3,411;    0,682
379,986; 6177,731;    1,138;   -0,955
380,578; 6251,045;    1,410;    0,773
381,170; 5660,815;    0,320;    0,045
381,762; 5610,496;   -0,224;    1,409
382,354; 5759,653;   -0,223;   -1,318
382,945; 5826,400;    0,870;    0,318
383,537; 5978,737;    1,144;   -1,955
384,129; 5978,908;    0,963;   -1,136
384,721; 6159,733;    0,418;    0,955
385,312; 6054,007;   -1,399;   -0,955
385,904; 6135,950;   -0,945;    1,591
386,496; 5548,273;    0,691;    1,045
387,087; 5693,765;    0,418;    2,500
387,679; 5697,471;   -0,401;    0,045
388,270; 5848,109;   -2,401;    2,045
388,862; 5908,930;   -0,401;   -0,318
389,453; 5749,437;    1,054;    1,045
390,045; 6027,133;    3,236;   -2,682
390,636; 5982,906;    0,144;   -0,591
391,227; 5838,855;    2,054;   -0,045
391,819; 5908,830;    0,781;    0,773
392,410; 6004,346;    0,600;    0,045
393,001; 5937,561;    1,600;   -1,591
393,593; 6151,378;    0,600;   -0,045
394,184; 6002,841;    0,873;   -0,409
394,775; 5875,968;    1,146;    2,136
395,366; 6147,524;    1,782;    0,773
395,957; 6100,203;   -2,400;    0,136
396,548; 6344,486;    1,054;    2,682
397,139; 6596,786;    2,236;    0,591
397,730; 6303,394;    0,873;    0,955
398,321; 6378,123;    0,509;    0,955
398,912; 6323,186;   -0,764;    0,136
399,503; 6531,937;   -1,945;   -1,409
400,094; 6037,848;   -1,582;    1,682
400,685; 5887,594;    3,600;    0,045
401,276; 5920,472;   -0,400;   -0,955
401,867; 6165,363;   -1,127;    0,773
402,458; 6241,251;    1,509;   -2,318
403,048; 6221,572;    0,146;    0,591
403,639; 5858,362;    1,509;    0,864
404,230; 6119,521;    0,691;    0,318
404,821; 6046,300;   -0,127;    0,045
405,411; 6107,765;   -0,763;   -2,591
406,002; 5709,521;    3,237;   -1,136
406,592; 5625,799;    2,691;    0,045
407,183; 5816,776;    0,328;   -1,500
407,774; 5684,513;    1,419;   -0,136
408,364; 5944,810;    2,600;    0,409
408,954; 5572,639;   -0,036;    1,227
409,545; 5553,082;    1,873;    1,045
410,135; 5089,554;   -1,581;    0,500
410,726; 5201,506;    0,783;    0,318
411,316; 5472,972;    2,237;    0,773
411,906; 5148,815;    0,146;   -0,409
412,497; 4695,522;   -0,490;   -0,045
413,087; 5116,502;    0,783;   -0,227
413,677; 5369,992;   -2,490;    3,864
414,267; 5168,581;   -1,035;    1,409
414,857; 5069,150;    0,419;    4,227
415,448; 5222,826;   -0,763;    0,500
416,038; 4945,150;   -2,945;   -0,591
416,628; 4797,253;    0,965;    0,409
417,218; 4425,367;   -1,762;    3,318
417,808; 4552,844;    0,965;   -0,409
418,398; 4743,789;   -1,035;    2,682
418,988; 4630,504;   -2,217;    0,591
419,578; 4703,165;    3,601;    1,409
420,168; 4882,278;    0,692;   -0,955
420,757; 4519,039;    0,964;   -1,500
421,347; 4167,771;    1,601;   -0,227
421,937; 4209,245;    3,329;    1,409
422,527; 4154,659;    2,602;   -0,773
423,116; 3972,726;    2,692;   -0,045
423,706; 4095,744;    2,965;    0,318
424,296; 3916,282;    1,601;    0,682
424,885; 4203,191;    1,510;   -3,045
425,475; 4272,613;    1,147;   -2,864
426,065; 4099,546;   -1,489;   -0,318
426,654; 3834,404;    0,329;   -0,318
427,244; 3974,842;    1,147;    1,409
427,833; 3545,633;    1,056;   -0,500
428,423; 3626,239;    0,147;    1,136
429,012; 4005,434;    2,420;   -1,136
429,601; 3683,338;    2,057;    0,136
430,191; 3679,269;    2,511;    4,318
430,780; 3309,851;   -1,671;   -0,409
431,369; 3413,160;    1,329;   -0,045
431,959; 3633,938;    1,693;    0,500
432,548; 3357,254;   -1,398;   -0,045
433,137; 3308,573;    0,329;   -1,318
433,726; 3563,265;    0,148;    0,500
434,315; 3200,905;    0,148;    2,409
434,905; 3236,091;    0,693;    1,409
435,494; 3204,500;    3,148;    0,955
436,083; 3203,980;    1,420;   -0,955
436,672; 3036,118;    1,148;    0,500
437,261; 2849,535;    0,512;   -1,955
437,850; 3043,919;   -1,125;    0,682
438,439; 2956,576;    2,239;    1,955
439,027; 2905,425;    3,421;    1,773
439,616; 2935,352;    2,239;    1,227
440,205; 2598,338;    0,057;   -2,136
440,794; 2407,553;   -0,306;   -0,045
441,383; 2347,618;    1,603;   -0,591
441,971; 2166,785;   -0,306;    0,591
442,560; 2042,454;    0,603;   -1,773
443,149; 1856,394;    3,060;   -1,318
443,737; 1923,234;    0,968;   -2,318
444,326; 1896,466;    0,331;    0,318
444,915; 1873,024;   -1,851;    0,864
445,503; 1903,618;    0,058;   -0,318
446,092; 1999,467;    7,876;    2,136
446,680; 2010,706;    1,876;    0,318
447,269; 1907,982;   -1,487;   -0,318
447,857; 1725,878;    2,240;   -1,773
448,445; 1668,664;    2,149;    1,318
449,034; 1638,672;    0,876;   -1,136
449,622; 1565,858;    1,240;    3,500
450,210; 1864,660;    3,149;    2,227
450,799; 1778,869;    2,604;   -0,591
451,387; 1545,932;    1,786;   -0,591
451,975; 1475,344;   -1,305;    0,864
452,563; 1619,243;    0,422;    2,318
453,151; 1295,264;   -1,032;   -1,227
453,739; 1314,572;   -1,577;    0,136
454,328; 1480,036;    0,604;   -2,136
454,916; 1284,129;    1,150;   -0,136
455,504; 1255,285;    3,513;    1,227
456,092; 1131,539;    2,150;   -1,591
456,679; 1014,519;    0,604;    0,682
457,267; 1677,687;    3,604;    1,045
457,855; 1154,065;    3,241;    1,409
458,443;  858,976;   -0,304;    1,682
459,031; 1185,918;    1,332;    2,409
459,619; 1114,927;   -3,577;    2,864
460,206;  921,539;   -0,759;    2,045
460,794;  933,261;   -0,668;   -0,227
461,382; 1012,136;    0,878;   -0,864
461,970;  916,528;    0,605;    1,864
462,557;  832,551;    0,878;   -0,682
463,145; 1039,114;   -0,304;   -1,682
463,732; 1363,783;    2,514;   -1,045
464,320;  997,543;    1,514;   -3,045
464,907; 1190,659;    0,423;   -0,773
465,495; 1033,904;    2,696;   -1,227
466,082;  884,109;    2,060;   -0,045
466,670;  850,852;    2,605;    1,227
467,257;  731,072;    0,060;    2,045
467,844;  896,593;    1,514;    0,045
468,432;  871,640;   -0,031;    3,500
469,019;  742,626;    1,606;   -1,773
469,606;  837,350;    0,969;    3,682
470,193;  868,003;    2,151;    0,227
470,780;  812,405;    0,333;    0,864
471,368;  687,779;   -1,212;   -0,773
471,955;  818,381;    1,060;   -0,682
472,542;  706,513;   -0,303;   -1,136
473,129;  506,372;   -0,485;    0,136
473,716;  493,495;    0,060;    0,591
474,303;  534,867;    1,333;   -0,864
474,890;  554,535;    2,333;   -0,500
475,477;  685,280;   -0,576;    0,409
476,064;  509,392;    0,697;   -1,591
476,650;  650,019;    2,152;    0,318
477,237;  525,565;    1,879;    0,955
477,824;  476,892;    3,879;    0,864
478,411;  310,150;    0,606;   -0,318
478,997;  298,966;    0,606;   -0,773
479,584;  200,323;   -0,666;   -0,409
480,171;  489,458;    1,243;   -0,773
480,757;  582,049;   -0,848;    0,773
481,344;  378,798;    0,334;    0,409
481,931;  211,352;   -0,393;    1,045
482,517;  418,675;    0,425;    0,318
483,104;  545,655;    1,334;    2,864
483,690;  351,848;    0,243;    0,045
484,276;  302,147;    0,698;    0,227
484,863;  617,278;    2,152;    1,136
485,449;  386,943;    0,152;    0,318
486,035;  309,536;   -0,666;   -0,136
486,622;  457,273;   -2,393;    0,045
487,208;  316,659;    1,334;    1,500
487,794;  195,219;    0,971;    0,318
488,380;  198,068;    0,698;   -1,409
488,967;  218,127;   -1,120;   -0,409
489,553;  233,279;   -1,029;   -1,409
490,139;  354,619;    0,971;    0,773
490,725;  217,002;    0,789;   -0,227
491,311;  294,587;    1,516;    3,045
491,897;  229,326;   -0,665;    1,500
492,483;  240,570;    0,426;    1,227
493,069;  917,946;    5,426;    0,864
493,655;  494,415;    1,789;    0,682
494,241;  318,182;    1,517;   -0,955
494,826;  375,821;    0,335;   -1,045
495,412;  478,670;    0,335;   -0,682
495,998;  360,049;    0,971;   -0,318
496,584;  482,212;    2,244;    1,045
497,169;  504,405;    2,335;   -0,682
497,755;  431,240;    1,244;    1,227
498,341;  755,583;    2,153;    0,318
498,926;  980,522;    2,881;    1,955
499,512;  636,314;   -0,028;    2,955
500,097;  662,819;   -0,574;   -0,318
500,683;  753,136;   -0,028;    2,136
501,268;  782,175;    1,881;   -0,955
501,854;  904,281;   -0,119;    1,227
502,439;  937,662;   -0,573;   -1,773
503,024; 1159,735;    1,608;    0,500
503,610; 1347,573;    1,335;   -0,682
504,195; 1330,556;    1,245;    1,955
504,780; 1644,555;    2,335;    1,227
505,366; 1951,531;    4,063;    2,864
505,951; 1984,363;   -1,119;    1,045
506,536; 2175,554;    1,427;   -3,682
507,121; 2414,630;    1,699;   -0,318
507,706; 2884,278;   -0,392;    1,045
508,291; 3226,640;   -2,937;    1,136
508,876; 3314,157;   -0,482;    2,591
509,461; 3475,712;    1,427;   -0,773
510,046; 4064,364;   -0,391;    0,318
510,631; 4519,753;   -0,119;   -0,773
511,216; 4732,958;   -0,664;   -0,500
511,801; 5460,806;   -0,755;    2,591
512,386; 5958,571;    0,972;    0,500
512,971; 6313,497;    0,427;    0,955
513,555; 6470,029;    1,154;   -1,500
514,140; 7476,905;    1,336;   -3,136
514,725; 7862,452;    1,791;   -1,136
515,309; 8348,247;    1,064;    0,318
515,894; 8374,848;   -0,300;   -2,227
516,479; 9128,159;    1,973;   -0,955
517,063; 9320,943;    0,882;    1,227
517,648; 9798,231;    0,155;   -1,136
518,232; 9754,815;   -1,300;   -1,409
518,817;10442,246;    1,337;    1,682
519,401;10956,464;    0,700;    0,591
519,985;10713,433;    2,700;    1,136
520,570;10883,989;   -0,118;   -1,955
521,154;11453,739;    0,064;    0,591
521,738;11867,665;    1,064;    2,409
522,323;12656,352;   -0,390;    1,682
522,907;12594,349;    2,428;   -0,136
523,491;12500,724;    1,155;    0,955
524,075;12679,973;    0,428;    0,591
524,659;12911,666;    0,973;    0,591
525,243;12518,804;    0,883;    0,409
525,827;12882,854;    0,883;   -0,045
526,411;13831,212;    1,155;   -0,136
526,995;14197,492;    0,337;    1,409
527,579;13879,089;    1,974;   -1,045
528,163;14259,819;    0,428;   -1,500
528,747;14271,618;    1,065;   -0,773
529,331;14669,539;    0,883;   -1,409
529,915;14942,494;    2,338;    0,955
530,499;15002,827;    0,247;    1,227
531,082;14704,809;    1,065;    1,591
531,666;14186,860;    0,520;    0,773
532,250;14928,957;    0,428;    2,682
532,833;15342,173;    0,610;    2,773
533,417;15276,394;    1,247;    0,864
534,001;15274,862;    0,429;   -0,318
534,584;16021,793;    1,974;    0,500
535,168;15881,604;    3,247;    1,409
535,751;15945,441;    4,520;    0,045
536,334;15432,567;    4,520;   -0,409
536,918;16080,041;    1,974;    1,591
537,501;16170,913;    1,520;    1,318
538,085;16171,577;    1,702;    1,045
538,668;16385,644;    0,883;    2,409
539,251;16731,711;    3,156;    3,773
539,834;16765,968;    0,156;    0,773
540,418;16684,290;    3,247;    4,318
541,001;16840,591;    2,702;    1,773
541,584;16857,377;    1,429;    2,227
542,167;16540,609;    0,702;    2,955
542,750;16722,221;    0,793;   -0,773
543,333;16303,499;    1,429;    2,136
543,916;17112,082;   -0,298;    2,500
544,499;17747,907;    2,520;    0,227
545,082;17729,433;    0,248;    3,591
545,665;17889,161;   -0,207;    1,500
546,248;18288,772;    0,520;   -0,318
546,830;17935,630;   -1,752;    1,955
547,413;18360,596;    0,157;   -0,773
547,996;18917,524;    0,157;    0,500
548,579;18687,467;   -0,843;    0,955
549,161;18499,993;    0,884;    2,682
549,744;18297,845;    0,612;    0,409
550,326;18829,762;    0,885;   -1,136
550,909;18576,875;    2,339;    0,591
551,492;18954,739;    0,521;    0,227
552,074;18785,392;   -0,024;   -1,318
552,657;19345,728;    2,430;    0,045
553,239;19116,202;   -3,024;   -0,773
553,821;19050,761;   -1,570;    1,045
554,404;18520,784;   -0,024;    1,136
554,986;18944,012;    2,248;    1,045
555,568;19547,849;    0,430;   -0,955
556,151;18698,644;    4,067;   -0,227
556,733;18931,992;   -1,388;   -0,864
557,315;19435,661;    4,703;    0,500
557,897;19239,433;    0,521;   -0,500
558,479;19345,017;    1,703;    1,318
559,061;19478,497;    1,067;   -0,864
559,643;19837,320;   -0,297;    0,045
560,225;20230,738;   -0,388;    2,864
560,807;20274,048;    0,340;    0,318
561,389;19763,494;   -1,206;    2,318
561,971;20470,731;   -0,660;    2,136
562,553;20274,351;    0,613;    1,591
563,135;20421,371;    1,249;    1,136
563,717;20040,062;    3,158;    1,136
564,298;20800,769;    3,976;   -0,045
564,880;20491,267;    0,340;   -1,409
565,462;20655,358;    1,977;    1,318
566,043;21838,535;   -0,933;    2,318
566,625;21353,986;    4,067;    1,227
567,207;21232,964;    0,704;    1,682
567,788;22375,802;   -0,114;    1,500
568,370;23207,685;   -1,841;   -0,500
568,951;22993,706;   -0,569;    0,227
569,533;23936,194;    0,977;   -0,500
570,114;24419,874;   -0,296;    0,682
570,695;24922,934;   -0,478;   -1,318
571,277;25463,435;   -0,205;   -1,682
571,858;26249,609;    2,704;   -1,136
572,439;27190,528;    0,795;   -1,045
573,021;27388,582;    0,432;   -2,773
573,602;27916,896;    1,795;    0,318
574,183;28803,187;   -0,114;    2,227
574,764;29032,598;    2,068;    0,409
575,345;29561,004;    0,250;   -0,136
575,926;30191,726;    2,704;    0,136
576,507;30216,801;    2,704;   -0,227
577,088;31328,860;    1,704;    1,682
577,669;31362,902;    1,704;    1,955
578,250;32095,823;   -0,750;   -1,045
578,831;32750,741;   -0,841;   -2,227
579,412;33079,151;   -1,205;    0,955
579,993;34001,404;    1,432;    0,227
580,573;34302,894;   -0,023;   -0,955
581,154;33301,846;    1,613;   -0,591
581,735;34175,412;    0,341;    0,773
582,315;33617,230;    0,523;    2,136
582,896;34013,689;   -1,750;    1,227
583,477;33477,600;    0,614;    1,227
584,057;33628,736;    1,159;    0,955
584,638;33906,949;   -2,750;    2,318
585,218;33896,728;    2,886;    2,682
585,799;34030,365;    1,977;   -0,227
586,379;34060,587;    1,250;    1,591
586,959;32802,068;    2,613;    0,318
587,540;32112,908;    0,432;    2,227
588,120;31590,502;   -1,113;   -0,045
588,700;30502,626;    2,977;    2,136
589,281;30867,921;    1,250;   -0,955
589,861;30770,249;   -0,296;   -1,682
590,441;30586,565;   -1,477;   -2,682
591,021;29544,581;    1,432;   -2,591
591,601;29798,046;    0,431;    0,500
592,181;29757,244;   -1,296;   -0,773
592,761;28985,472;    2,250;    1,409
593,341;28938,942;    1,522;    0,045
593,921;28931,738;   -0,569;    1,591
594,501;28767,918;    1,250;    1,318
595,081;28620,943;    0,522;   -0,318
595,661;29015,227;    1,068;    0,955
596,240;29523,351;   -1,023;    0,136
596,820;29100,582;    2,613;    1,955
597,400;29315,701;    1,977;    0,773
597,980;29588,624;   -0,750;    1,045
598,559;29619,326;    0,341;   -0,227
599,139;29299,986;   -0,750;   -1,227
599,718;29161,440;    0,795;   -0,409
600,298;29411,267;   -2,387;    0,682
600,877;29613,090;    4,795;    1,409
601,457;29954,412;    0,340;    1,136
602,036;29855,679;    1,795;    2,045
602,616;30036,893;    2,250;    1,682
603,195;30291,317;    0,431;    3,500
603,774;29799,491;   -0,296;    2,045
604,354;29808,194;    2,522;   -0,500
604,933;29260,126;    0,250;    1,864
605,512;29395,083;    2,340;    0,591
606,091;29363,986;    1,886;    3,773
606,671;30218,384;    0,249;    0,773
607,250;29259,210;    1,431;    3,136
607,829;29535,849;    1,158;    3,227
608,408;29377,492;    4,613;    2,591
608,987;28432,281;    2,704;    3,409
609,566;28730,685;    0,341;   -2,500
610,145;28855,720;    2,885;    0,682
610,723;29262,131;    1,613;    6,864
611,302;28465,338;    1,067;    1,682
611,881;27936,278;    5,158;   11,227
612,460;28763,167;    0,795;    3,955
613,039;29217,212;    1,703;    2,045
613,617;27929,169;    0,886;    4,773
614,196;28113,471;    1,613;    1,227
614,775;28399,627;    1,249;    2,409
615,353;28395,008;   -1,660;    0,864
615,932;28077,169;    0,249;    2,409
616,510;28692,260;    0,158;    0,591
617,089;28177,331;    8,794;   17,591
617,667;27910,446;    4,885;    6,136
618,246;27740,522;   -1,115;    1,318
618,824;27868,506;    1,612;   -0,955
619,402;27433,328;    0,431;   -1,773
619,981;27963,096;    1,067;   -1,045
620,559;27876,848;    0,794;    1,682
621,137;27369,839;    3,067;    1,864
621,715;27363,523;    3,703;   -0,682
622,293;27248,168;    1,885;   -0,773
622,871;27764,025;    0,340;    0,500
623,450;27294,754;    0,430;   -0,864
624,028;27207,876;   -0,388;   -0,955
624,606;26792,410;    2,339;    1,682
625,183;27201,506;   -0,661;   -1,136
625,761;26836,775;    1,885;    1,136
626,339;27147,671;    2,339;    2,591
626,917;27545,694;    0,339;   -0,045
627,495;27607,555;    2,794;    1,318
628,073;27016,438;    5,248;    2,864
628,650;26676,227;    3,067;    2,136
629,228;27124,589;    1,248;    4,409
629,806;26462,598;   -0,024;    1,136
630,383;26734,319;    0,066;   -0,318
630,961;26559,629;   -2,206;   -0,955
631,539;26248,007;   -2,479;    0,227
632,116;25434,266;   12,703;   15,409
632,694;26098,781;    4,885;    6,500
633,271;26412,871;    1,975;    2,682
633,848;26347,743;    1,430;    2,045
634,426;26408,982;    1,521;    1,773
635,003;25552,084;   -0,207;   -0,409
635,580;25799,796;    1,884;    3,682
636,158;26392,237;    3,793;    1,227
636,735;26391,630;    3,339;   -0,500
637,312;26513,731;    0,521;   -0,682
637,889;26642,295;    2,248;   -0,682
638,466;26091,319;    0,066;   -0,409
639,043;26064,329;    1,702;   -1,136
639,620;26371,203;    0,611;   -0,955
640,197;26690,638;    1,612;    1,682
640,774;26914,784;    1,430;    1,136
641,351;27259,020;    0,612;    1,136
641,928;26626,257;    2,794;    1,409
642,505;26270,130;    0,794;   -0,500
643,082;26406,912;    1,885;    1,227
643,658;25401,058;    1,157;    1,500
644,235;26133,658;   -2,479;    2,500
644,812;26433,441;    1,794;    0,773
645,388;26201,404;    1,612;    1,409
645,965;26263,550;    1,521;    1,682
646,542;26355,605;    3,430;   -0,227
647,118;26327,205;    3,703;   -0,955
647,695;26584,806;    0,339;    1,136
648,271;26505,770;   -2,115;    0,500
648,848;26794,643;    0,248;    2,227
649,424;26690,516;    0,976;    1,318
650,000;26465,025;   -0,388;   -1,045
650,577;26299,989;    0,158;   -0,955
651,153;26728,317;   -1,115;    0,955
651,729;27652,735;    0,521;    0,864
652,305;27849,699;    1,339;    2,773
652,881;32395,845;   -1,297;    1,136
653,458;39349,355;    0,249;    0,227
654,034;43290,137;    0,703;    1,591
654,610;44877,464;    0,339;    0,773
655,186;46229,065;    1,612;    3,045
655,762;46021,847;   -1,842;    0,409
656,338;46032,811;    0,703;    0,136
656,913;47067,320;   -0,297;    0,409
657,489;46392,102;    0,249;   -0,318
658,065;46339,612;    0,794;   -1,591
658,641;46947,848;    2,158;   -0,864
659,217;46273,994;    2,067;    0,409
659,792;45703,776;   -1,751;   -0,409
660,368;46034,740;   -0,388;   -0,682
660,944;45708,159;    1,794;    1,227
661,519;41072,759;    0,522;    0,409
662,095;34786,814;   -0,206;    0,591
662,670;29890,778;   -0,206;   -0,136
663,246;28705,106;   -0,660;   -0,409
663,821;27935,070;    0,431;    1,682
664,396;27475,943;    0,613;    1,864
664,972;27686,634;   -0,660;   -0,500
665,547;28063,325;    3,794;    0,136
666,122;28075,744;    1,340;    0,318
666,698;28310,798;    2,431;    0,318
667,273;27637,762;    0,885;    0,136
667,848;28437,090;    0,340;    1,500
668,423;28238,054;    1,795;    2,318
668,998;28871,563;    0,976;   -0,682
669,573;29343,618;    2,067;   -1,500
670,148;29184,673;    1,885;   -0,682
670,723;28990,001;   -0,024;    0,318
671,298;29457,510;   -1,296;    1,045
671,873;29559,020;   -0,296;   -0,136
672,448;29498,347;    1,704;    0,136
673,023;29868,038;    0,249;   -0,227
673,597;30155,366;    2,704;    2,318
674,172;29914,603;    2,431;    0,318
674,747;29433,476;   -0,205;   -1,045
675,321;29324,258;   -0,933;    3,318
675,896;28861,495;    2,158;    1,045
676,471;29839,640;    2,522;    1,591
677,045;29597,786;   -0,296;    0,682
677,620;29638,296;    2,158;    1,136
678,194;29935,169;    0,249;    1,136
678,769;29446,224;    0,886;   -0,318
679,343;29702,733;   -0,023;    1,773
679,917;29588,152;    0,340;    1,955
680,492;29714,661;    0,249;    3,227
681,066;29835,625;    0,613;    0,409
681,640;29809,043;    1,795;   -0,318
682,214;30579,644;    2,340;    0,500
682,788;30096,971;    0,613;   -0,773
683,363;30034,208;    1,977;    1,682
683,937;29774,354;    0,886;   -0,318
684,511;30562,045;   -1,023;   -0,591
685,085;30323,191;   -1,478;    0,318
685,659;30057,337;    1,431;    0,864
686,232;30231,755;    1,159;   -0,318
686,806;29995,174;    2,159;    0,409
687,380;30552,956;   -1,932;    0,591
687,954;30895,829;    2,432;    1,136
688,528;30567,338;    2,613;    1,955
689,101;31350,484;    0,432;    1,045
689,675;30898,175;    0,886;   -0,136
690,249;30211,048;    3,432;    0,409
690,822;30575,467;    1,159;    0,318
691,396;30714,794;    2,068;    1,227
691,969;30164,940;    2,523;    0,136
692,543;30637,268;   -0,568;   -1,955
693,116;30231,232;   -0,659;   -1,409
693,690;30075,287;   -0,296;    0,500
694,263;30621,523;    2,341;    2,955
694,836;30686,669;    2,795;    3,591
695,410;29313,633;    1,159;    1,773
695,983;29760,961;    1,614;    0,591
696,556;29677,925;   -0,750;   -1,045
697,129;30093,525;   -1,114;    1,409
697,703;29739,580;    1,341;    1,955
698,276;29806,089;    1,705;   -0,773
698,849;29564,326;   -1,023;    1,409
699,422;29975,199;    1,250;    0,591
699,995;29598,527;   -0,659;    0,136
700,568;30116,672;   -0,204;    3,045
701,140;30089,000;   -1,841;    1,682
701,713;29809,782;    0,341;    2,409
702,286;29566,383;    0,796;    0,864
702,859;29469,619;    0,614;   -0,591
703,432;28610,220;   -0,841;    0,682
704,004;29146,002;    1,978;    0,318
704,577;29020,329;    1,068;    0,136
705,150;29584,839;    0,887;    2,500
705,722;29390,712;    1,523;   -3,227
706,295;29153,221;    1,432;   -0,591
706,867;28913,640;    0,250;    1,955
707,440;29184,422;   -0,113;   -0,409
708,012;29436,295;   -0,022;    0,591
708,584;29307,259;    2,705;    0,227
709,157;29723,314;    1,160;   -0,591
709,729;29312,005;    1,069;    2,045
710,301;30169,969;   -1,204;    0,045
710,874;30173,933;    0,341;   -0,227
711,446;29046,624;   -0,295;    0,864
712,018;28959,497;   -3,022;    0,500
712,590;28670,188;   -0,204;    1,682
713,162;29210,516;   -0,477;    1,318
713,734;29407,480;    1,796;   -2,045
714,306;29328,989;    0,342;   -0,409
714,878;27960,135;   -0,295;    0,864
715,450;28830,645;   -0,113;    0,864
716,022;29111,609;    2,433;    1,318
716,593;29241,663;    0,978;    0,591
717,165;29153,355;    1,796;   -1,227
717,737;28876,773;    0,796;    0,409
718,309;28573,374;    1,160;   -0,045
718,880;28488,428;   -1,295;   -1,409
719,452;28736,029;    0,887;   -1,591
720,024;28293,265;    1,705;   -0,591
720,595;28837,775;    2,978;    0,955
721,167;28351,466;    1,160;   -2,045
721,738;27875,612;    2,069;   -1,045
722,309;27756,030;    1,251;   -1,227
722,881;27564,994;    2,705;    0,773
723,452;28212,231;    1,251;    2,864
724,023;28404,831;    1,524;    2,682
724,595;28200,886;    2,342;    0,682
725,166;27964,759;    1,524;   -0,409
725,737;27554,996;    1,887;    0,227
726,308;27678,142;    0,797;    0,318
726,879;28056,833;    1,069;    1,227
727,450;27938,797;   -2,022;   -0,045
728,021;27916,306;    1,069;    0,682
728,592;27762,270;    1,160;    0,500
729,163;28084,053;    1,433;   -0,136
729,734;28070,926;    2,160;   -0,227
730,305;28401,980;    0,615;    0,136
730,876;28693,035;    0,888;    2,955
731,447;28404,727;    0,797;    2,682
732,017;28516,872;   -0,840;    1,864
732,588;28053,382;   -0,021;    1,227
733,159;28222,709;    3,615;   -1,045
733,729;28066,401;    1,251;    0,409
734,300;27329,001;    0,160;    0,864
734,870;27749,056;   -1,385;    0,591
735,441;28289,474;    0,888;   -0,591
736,011;28004,075;    1,070;   -1,591
736,582;28011,675;    1,251;    0,045
737,152;27439,639;    0,979;   -2,045
737,722;27906,785;    1,070;   -0,682
738,293;27640,749;   -2,021;    1,318
738,863;27538,258;    1,797;    2,318
739,433;27342,495;    4,524;    0,318
740,003;27948,641;    1,524;   -0,682
740,573;27341,423;    2,252;   -1,591
741,143;27354,569;    3,615;    0,318
741,713;28106,805;    0,252;   -0,500
742,283;27800,406;    1,706;    1,591
742,853;27534,460;    0,524;    1,591
743,423;27001,152;    0,161;    0,045
743,993;27128,934;    1,070;    1,500
744,563;26458,352;    2,524;   -0,864
745,133;26374,680;   -0,112;   -0,864
745,702;27138,826;    2,797;    1,773
746,272;26288,335;    0,434;    0,591
746,842;26066,481;   -0,748;   -0,591
747,411;26506,990;   -0,839;   -0,318
747,981;26757,409;   -0,930;    0,500
748,551;26799,100;   -0,021;   -1,045
749,120;26616,973;   -0,112;   -0,227
749,690;27004,574;    2,161;    2,409
750,259;27345,537;    0,979;    2,955
750,828;27241,501;    4,070;   -1,955
751,398;27456,284;   -0,112;   -0,045
751,967;26935,520;    2,888;    0,409
752,536;27120,030;    1,161;   -0,227
753,105;27565,812;   -1,384;    0,227
753,675;27326,230;   -0,112;    1,773
754,244;27295,103;    0,888;    3,591
754,813;27358,431;    0,979;    1,227
755,382;27013,395;    0,798;    0,955
755,951;27496,086;   -0,112;    3,682
756,520;27020,414;    2,525;    1,864
757,089;27624,378;    1,888;    0,500
757,658;27727,160;    2,434;    1,227
758,227;27720,215;   -1,111;    0,318
758,795;28048,361;   -1,021;    1,136
759,364;28276,870;    0,525;   -0,591
759,933;27253,016;    1,343;   -0,045
760,501;26837,162;    0,252;   -1,318
761,070;27297,580;   -0,293;   -1,409
761,639;27954,726;    1,434;    1,318
762,207;27288,053;    0,889;   -0,955
762,776;27226,108;    2,889;    0,864
763,344;27159,072;    0,071;    0,591
763,913;26303,764;    1,616;    1,409
764,481;27066,273;    1,980;   -0,136
765,049;26844,601;    0,616;    1,409
765,618;26729,928;    1,434;    0,318
766,186;26828,710;    2,434;    0,136
766,754;26975,674;    1,798;    1,864
767,322;25973,366;    1,162;    0,409
767,890;25999,875;    0,525;   -1,773
768,459;26332,657;    2,616;   -0,318
769,027;26502,985;    2,525;    3,409
769,595;25539,130;    2,616;    2,591
770,163;25965,004;    3,344;    2,955
770,730;25644,968;    2,525;   -0,136
771,298;25582,386;    1,162;   -1,409
771,866;25649,895;    0,253;    4,955
772,434;25938,314;    1,162;   -1,864
773,002;26160,187;    2,616;    0,682
773,569;25743,606;    1,071;    1,682
774,137;25598,115;    0,889;   -0,045
774,705;26357,533;   -0,747;   -0,136
775,272;25859,497;    0,253;    0,682
775,840;25613,098;   -0,111;    2,682
776,407;25143,789;   -0,293;    1,955
776,975;24722,117;    1,162;    0,318
777,542;25781,535;    2,162;   -0,045
778,110;25598,590;    0,707;   -0,045
778,677;25290,736;    1,071;   -0,864
779,244;25017,609;   -1,020;    1,045
779,812;25166,391;    0,980;    0,864
780,379;24970,264;    2,435;    1,136
780,946;25180,773;    2,617;   -0,773
781,513;25530,737;   -0,565;    0,318
782,080;24851,701;    1,253;    2,864
782,647;25595,211;    1,708;    3,045
783,214;25237,084;   -0,201;    3,864
783,781;24779,957;    1,708;   -0,682
784,348;24673,194;    0,253;    1,500
784,915;25180,430;   -1,474;    0,318
785,482;24901,940;    2,708;    2,591
786,049;25346,449;    1,071;   -0,591
786,615;25424,322;    1,708;   -0,955
787,182;25229,650;   -3,201;   -0,682
787,749;24912,977;   -2,201;    1,409
788,315;24239,396;    0,253;   -0,409
788,882;24493,087;    0,981;   -1,227
789,448;25113,233;    1,435;   -0,955
790,015;25161,833;    1,799;    3,227
790,581;24750,615;    0,708;    0,227
791,148;24603,398;    1,344;    1,045
791,714;24851,543;   -1,019;    3,136
792,280;24567,053;    3,708;    1,591
792,847;24151,471;   -0,928;    2,500
793,413;24686,890;   -0,110;   -0,318
793,979;24194,763;    1,526;   -1,318
794,545;24245,181;    2,981;    2,682
795,111;23667,327;    2,435;    1,318
795,678;23832,109;    3,526;   -1,682
796,244;23499,528;    2,799;    0,136
796,810;24081,764;    0,799;    0,773
797,375;23777,638;   -0,292;   -2,136
797,941;23793,874;   -1,110;    0,591
798,507;23887,202;    0,254;   -0,955
799,073;23473,075;    2,708;    0,591
799,639;23544,675;    1,435;    3,136
800,205;23539,003;   -1,565;    2,682
800,770;23075,240;    1,345;    1,773
801,336;23119,749;    2,981;   -0,955
801,901;22834,167;    6,072;    3,136
802,467;23422,222;    0,526;    2,045
803,033;22779,732;   -0,019;    0,864
803,598;23020,696;    1,072;   -1,045
804,163;23042,023;    0,708;   -0,318
804,729;22963,715;   -0,110;    1,136
805,294;23336,951;    1,072;    2,227
805,859;23199,279;    0,890;   -0,409
806,425;22641,970;    3,890;    2,682
806,990;22306,207;    1,890;    4,318
807,555;22818,625;   -0,110;    2,591
808,120;22643,226;   -1,292;   -0,409
808,685;22750,553;    1,072;   -2,500
809,250;22219,790;    2,072;   -0,500
809,815;22588,936;   -0,201;    0,682
810,380;23077,900;    0,981;    1,591
810,945;23547,682;    2,890;    2,045
811,510;22803,373;   -0,200;    1,591
812,075;22456,155;    2,800;   -1,409
812,640;22511,937;    3,709;    1,409
813,204;22553,174;    2,163;   -0,227
813,769;23052,229;    0,254;   -0,045
814,334;22451,829;    0,527;    0,864
814,898;22451,884;    1,981;    0,591
815,463;22344,575;    0,981;   -0,773
816,027;22292,812;    1,345;   -2,318
816,592;22445,412;    2,163;   -2,045
817,156;21930,740;   -2,200;    1,136
817,721;21729,704;    0,982;    2,318
818,285;21717,304;    0,618;    1,500
818,849;22376,450;   -0,018;    1,682
819,414;22287,687;    0,073;    2,955
819,978;21831,742;   -0,291;    1,773
820,542;22414,887;    2,891;    0,500
821,106;22127,488;    2,800;    0,682
821,670;22176,179;    2,709;    2,591
822,234;21913,234;    1,073;    1,409
822,798;21330,743;   -0,836;    0,500
823,362;21292,071;    1,527;    4,227
823,926;20621,035;   -0,018;    1,136
824,490;20839,635;    3,527;   -0,682
825,054;21303,963;    2,527;   -1,136
825,618;20931,654;   -1,200;   -1,500
826,181;20859,073;    0,982;   -1,318
826,745;20737,491;   -0,745;   -1,045
827,309;21080,455;    2,255;    1,318
827,872;20469,328;    0,527;    0,955
828,436;21448,292;    1,982;   -0,773
828,999;21534,074;    2,436;    1,227
829,563;20396,765;   -0,654;    1,136
830,126;20198,820;   -0,018;   -0,591
830,690;20177,875;    0,709;    2,864
831,253;19675,112;   -0,473;    2,227
831,816;19837,167;   -0,018;    0,500
832,380;19760,222;    1,164;    0,864
832,943;19985,367;    3,073;   -0,500
833,506;19510,877;    0,255;   -1,227
834,069;20253,204;    2,164;   -0,955
834,632;20328,350;   -2,200;    1,318
835,195;20219,587;    1,346;    0,955
835,758;19422,005;    0,709;    1,955
836,321;19232,878;    1,073;   -1,045
836,884;19352,297;   -1,291;   -0,955
837,447;19422,715;    0,528;    1,773
838,010;19643,770;    1,800;    3,227
838,573;20013,098;    0,528;    0,773
839,135;19919,153;   -0,109;   -0,955
839,698;19356,389;    2,528;    0,409
840,261;18851,081;    0,255;   -0,227
840,823;18743,045;   -0,927;    0,864
841,386;19028,918;   -0,018;   -2,409
841,948;18887,518;    0,255;    1,773
842,511;18650,300;    0,255;    1,682
843,073;18775,991;    2,982;    0,227
843,636;18592,774;    0,619;   -0,227
844,198;18504,647;    1,255;    0,591
844,760;18625,338;    0,619;    1,955
845,322;18287,211;    0,164;    1,136
845,885;18711,357;   -0,290;    0,591
846,447;19147,775;    0,710;    0,227
847,009;18675,285;    3,983;   -0,682
847,571;19036,340;    1,346;   -2,045
848,133;19101,576;   -0,199;   -1,864
848,695;18914,722;    2,346;    1,409
849,257;18452,141;    1,346;   -1,682
849,819;18652,650;    2,983;   -0,409
850,381;18671,250;    1,801;   -0,864
850,942;19052,669;    1,892;   -0,591
851,504;18973,087;    0,983;    0,227
852,066;18999,597;    1,619;   -1,591
852,628;18553,561;    0,165;    1,955
853,189;18140,616;    0,256;    2,682
853,751;18274,125;   -0,654;    1,409
854,312;18086,544;    1,256;   -1,682
854,874;18559,144;   -0,108;   -0,773
855,435;19044,653;    0,528;   -1,682
855,997;19210,708;    3,983;   -0,136
856,558;18447,854;    0,801;    1,773
857,119;18619,636;   -0,744;    2,864
857,681;18285,418;   -0,108;    0,318
858,242;18282,382;    1,347;   -2,136
858,803;18757,346;    1,074;   -0,773
859,364;19357,492;    0,892;   -4,773
859,925;18655,547;   -0,290;   -0,955
860,486;18601,238;    0,529;   -0,955
861,047;18329,566;    0,165;   -1,227
861,608;18087,348;    0,165;   -0,773
862,169;18272,948;   -0,562;   -0,045
862,730;18050,276;   -0,290;    1,409
863,291;18295,240;    0,438;   -0,500
863,852;18596,385;   -0,926;    1,955
864,412;18068,259;   -1,835;   -0,864
864,973;16626,132;    1,892;    0,500
865,534;16466,641;    2,074;    0,227
866,094;17978,878;    2,620;    0,227
866,655;17633,114;    4,711;    3,318
867,215;17918,897;    0,074;    0,136
867,776;17789,679;   -1,199;   -0,136
868,336;17894,370;    1,529;    0,136
868,897;17307,334;    3,438;    1,682
869,457;17111,843;    3,256;    0,318
870,017;17380,535;    2,438;   -1,227
870,578;17889,680;    1,893;    0,773
871,138;17491,190;    2,620;   -0,955
871,698;17047,699;   -0,562;   -1,318
872,258;16913,754;    0,711;   -2,864
872,818;17294,627;    2,347;    0,045
873,378;17259,137;   -2,198;    1,045
873,938;16805,646;    4,984;    0,500
874,498;17116,064;    1,256;   -1,955
875,058;16988,301;    4,347;    1,773
875,618;16843,174;    1,438;   -2,682
876,177;16806,320;   -0,471;    0,136
876,737;16342,829;   -0,289;    1,955
877,297;16342,157;    2,711;    1,955
877,856;16395,030;    2,529;    0,318
878,416;16388,539;    2,438;   -0,136
878,976;16578,140;    3,438;    0,409
879,535;16791,377;    4,529;    3,136
880,095;16483,340;    1,347;    0,045
880,654;16610,304;    0,347;    1,318
881,213;16681,632;    2,347;    1,500
881,773;16336,960;    1,984;    2,682
882,332;16671,378;    6,075;    5,136
882,891;16561,978;    0,711;    2,136
883,451;17010,033;   -2,016;    1,682
884,010;16461,361;   -1,107;   -0,409
884,569;16521,507;   -2,289;   -0,045
885,128;16679,198;   -0,743;   -1,864
885,687;16724,889;   -0,743;    0,682
886,246;16416,126;    2,620;    2,136
886,805;16162,726;    1,620;    2,045
887,364;16522,236;    1,166;   -0,500
887,922;16852,927;   -0,016;    0,045
888,481;16353,527;    1,530;    0,591
889,040;16674,037;    3,711;    2,136
889,599;17301,546;    2,166;    1,409
890,157;17397,965;    2,166;    2,409
890,716;17078,929;    2,166;    0,227
891,274;16909,711;    0,075;   -1,136
891,833;17281,402;    1,166;    0,864
892,391;17169,002;    1,802;    0,500
892,950;17263,057;    0,166;   -0,773
893,508;17603,203;    0,984;   -0,409
894,067;16946,803;   -0,379;    0,136
894,625;16854,585;   -1,016;   -1,500
895,183;17071,277;   -0,198;   -0,682
895,741;17006,150;    2,257;   -1,773
896,299;16807,750;    1,621;   -2,409
896,858;17002,169;    1,530;   -1,591
897,416;17114,223;    0,166;   -1,318
897,974;16870,460;   -2,197;    0,318
898,532;17018,151;    6,530;    2,682
899,089;16878,297;    0,621;   -0,682
899,647;16967,716;    0,530;    1,318
900,205;16691,134;    0,257;    1,045
900,763;16934,007;    2,166;    0,227
901,321;16933,062;    3,530;   -1,409
901,878;16359,299;    3,257;   -0,773
902,436;16169,535;    0,257;    1,318
902,994;16566,954;    6,712;    3,682
903,551;16025,554;    1,439;    0,409
904,109;16434,700;    1,530;   -1,409
904,666;16053,846;    1,439;    1,045
905,224;15823,537;    3,894;   -0,409
905,781;15578,501;   -0,470;   -0,318
906,338;15669,465;    0,167;    1,045
906,895;15627,974;    1,894;    2,045
907,453;15515,484;    2,348;    1,136
908,010;15522,175;    3,348;    0,409
908,567;15165,048;   -0,561;    0,591
909,124;14715,649;    2,439;   -1,500
909,681;14798,976;   -1,288;    0,682
910,238;14952,122;   -0,106;   -1,318
910,795;15232,813;   -1,561;   -1,136
911,352;14854,086;   -0,379;   -2,682
911,909;14285,086;    2,803;   -0,864
912,466;14777,631;    1,985;    1,500
913,022;14331,813;   -0,924;    0,500
913,579;14674,904;   -0,470;    2,045
914,136;14372,813;   -2,561;    0,955
914,692;14733,359;    1,530;   -1,227
915,249;14293,995;    0,530;    0,409
915,806;14528,540;    1,803;    1,955
916,362;14242,722;    0,894;    1,864
916,918;13805,268;    2,439;    1,045
917,475;13795,813;    1,621;    0,955
918,031;13917,177;    0,076;   -0,045
918,587;13383,904;    0,621;   -0,318
919,144;13594,995;   -0,379;    0,227
919,700;13897,813;    0,167;    0,773
920,256;13455,631;    0,439;    0,045
920,812;13087,086;    1,439;   -1,045
921,368;13098,813;    1,348;   -1,045
921,924;12761,995;    0,439;   -0,136
922,480;12318,177;    0,076;    1,227
923,036;12900,904;   -0,652;    1,955
923,592;12888,540;    0,621;    0,318
924,148;12771,268;    1,894;   -0,955
924,704;12143,268;    0,258;   -0,409
925,259;12435,086;   -0,561;    0,591
925,815;12133,359;    3,803;    0,500
926,371;11668,540;    3,530;    1,409
926,926;11565,904;    1,621;    0,591
927,482;11188,540;    1,621;    0,773
928,037;11058,995;   -0,833;    2,045
928,593;11354,722;    0,258;    1,045
929,148;11203,449;    1,167;   -1,500
929,704;10743,722;    2,439;   -0,500
930,259;10928,631;    0,894;   -0,136
930,814; 9999,086;    1,803;    1,955
931,369; 9705,722;    0,258;   -0,773
931,925; 9595,722;   -1,924;    0,136
932,480; 9475,268;    3,076;   -2,591
933,035; 9335,631;    3,985;   -0,318
933,590; 9116,449;   -1,742;   -1,773
934,145; 8803,177;   -1,288;   -0,318
934,700; 9158,631;    0,348;   -0,591
935,255; 8946,449;    4,803;    0,045
935,809; 8235,904;    6,258;    0,864
936,364; 7363,904;    2,167;   -0,136
936,919; 7337,177;    2,348;   -1,773
937,474; 7244,631;    1,348;    0,136
938,028; 7022,540;    3,076;    1,136
938,583; 6460,631;    6,348;    4,682
939,138; 6780,449;    0,167;    2,136
939,692; 6248,995;   -1,015;   -1,136
940,247; 5909,359;    1,167;   -1,045
940,801; 5474,359;    0,621;    0,227
941,355; 5382,995;    0,439;    2,591
941,910; 5056,813;    0,712;   -2,136
942,464; 5130,177;    2,712;   -0,318
943,018; 4933,813;    3,258;   -0,227
943,572; 4876,722;    2,803;   -0,682
944,126; 4301,268;   -0,924;   -0,409
944,681; 4193,995;    0,712;    0,227
945,235; 4175,904;    2,167;   -0,591
945,789; 4111,449;    1,258;   -1,864
946,342; 4201,177;   -0,561;   -0,591
946,896; 4017,449;    0,348;    0,955
947,450; 3782,268;   -0,561;   -0,227
948,004; 3972,540;    1,076;   -0,045
948,558; 3994,449;    1,258;   -0,864
949,111; 3897,904;   -1,197;   -0,318
949,665; 3926,449;   -0,106;   -0,682
950,219; 3795,722;    0,621;   -1,045
950,772; 3874,177;    0,258;    1,864
951,326; 3788,904;   -1,106;   -0,955
951,879; 3892,722;    1,076;   -2,318
952,433; 3918,813;    1,348;    2,227
952,986; 3753,540;    0,348;    0,682
953,539; 3682,540;    1,530;    0,591
954,093; 3638,449;    0,985;   -1,318
954,646; 3775,086;   -0,288;    1,318
955,199; 3583,631;    1,258;   -0,500
955,752; 3464,904;    1,985;    1,773
956,305; 3422,086;    0,894;    2,955
956,858; 3588,995;    0,621;   -0,318
957,411; 3768,268;    3,621;    2,136
957,964; 3599,904;    2,076;    2,136
958,517; 3583,904;    0,985;    3,136
959,070; 3415,449;   -1,197;    1,955
959,623; 3480,995;    1,076;    1,500
960,176; 3265,268;    0,712;    2,045
960,728; 3228,177;    1,712;    0,773
961,281; 3291,449;    2,258;    0,500
961,834; 3324,540;   -0,833;    0,864
962,386; 3247,086;    1,258;    1,045
962,939; 3171,268;    3,439;   -0,318
963,491; 3328,722;    2,621;    1,136
964,043; 3198,722;    0,076;    2,409
964,596; 3324,359;    1,712;    2,227
965,148; 3145,904;   -0,379;    1,773
965,700; 3092,631;   -0,015;   -0,227
966,253; 3257,995;   -0,833;    0,318
966,805; 3073,904;    1,894;    0,773
967,357; 3115,904;    0,439;   -1,500
967,909; 3051,177;    1,167;   -1,227
968,461; 3169,904;    0,894;    3,136
969,013; 3093,449;   -1,561;   -0,864
969,565; 3183,449;    1,803;   -1,136
970,117; 3265,631;    3,803;    1,045
970,669; 3094,177;    3,258;   -0,136
971,220; 2956,268;    2,167;   -1,500
971,772; 2870,359;    1,348;   -0,318
972,324; 2986,086;   -1,197;   -0,500
972,876; 2948,268;    0,167;   -0,045
973,427; 3058,904;   -1,197;   -1,045
973,979; 3052,449;    0,076;   -2,500
974,530; 3073,449;    0,803;    1,318
975,082; 3074,449;    2,167;    1,682
975,633; 2973,904;    2,894;    1,682
976,184; 3139,722;    2,076;    0,773
976,736; 2938,631;    0,348;    0,227
977,287; 2723,268;    0,258;   -0,500
977,838; 2896,722;   -0,924;   -0,318
978,389; 2939,813;    0,803;   -0,500
978,940; 2832,177;    1,258;   -0,409
979,491; 2869,995;    2,258;   -0,500
980,042; 2807,086;   -0,652;    3,045
980,593; 2877,359;    1,894;    0,227
981,144; 2931,086;    3,530;   -0,500
981,695; 2900,086;   -0,470;    1,500
982,246; 2853,540;   -1,833;    1,045
982,797; 3007,268;   -0,561;    0,682
983,347; 3134,086;    2,167;    0,591
983,898; 3281,722;    4,167;    0,409
984,449; 3086,631;    2,530;    0,773
984,999; 3012,813;    1,894;   -1,136
985,550; 2781,449;    3,167;   -0,318
986,100; 2834,813;    0,712;   -0,318
986,651; 2860,904;    0,258;    0,045
987,201; 2848,177;    0,894;   -0,591
987,751; 2926,086;   -0,288;    2,864
988,302; 2902,813;   -0,379;    1,500
988,852; 2926,722;    1,985;   -1,136
989,402; 2981,995;    0,985;    0,682
989,952; 2880,268;    1,621;    0,864
990,502; 2975,995;    1,076;    0,682
991,052; 2949,540;   -0,106;    0,045
991,602; 2812,722;    1,167;    1,318
992,152; 2805,359;    2,803;    0,682
992,702; 2791,268;    1,167;   -0,045
993,252; 2729,813;    0,076;   -0,500
993,802; 2804,540;    1,167;    1,318
994,352; 3045,722;   -0,742;    1,136
994,901; 3119,268;    1,076;    3,227
995,451; 3040,359;   -1,197;    0,318
996,000; 3122,995;    1,076;    0,318
996,550; 2835,904;    2,894;    0,227
997,100; 2857,359;   -0,561;   -0,045
997,649; 3134,359;   -0,197;    0,955
998,198; 2784,904;   -0,288;   -1,500
998,748; 2947,722;    0,348;   -2,318
999,297; 2868,086;    0,985;   -0,409
999,846; 2952,268;    1,894;   -0,773
1000,395; 2979,540;    1,530;    0,500
1000,945; 2918,177;    1,076;   -0,773
1001,494; 3008,995;    0,167;    0,682
1002,043; 2990,268;    0,712;    0,864
1002,592; 2835,813;    3,439;    1,955
1003,141; 2985,086;    2,439;   -0,682
1003,690; 2822,995;    1,258;    0,500
1004,238; 2895,631;   -0,106;   -0,045
1004,787; 2526,086;   -1,288;    1,227
1005,336; 2779,904;    1,621;    0,682
1005,885; 2911,268;   -0,197;   -2,773
1006,433; 3070,268;   -0,470;    0,955
1006,982; 3137,722;    2,167;    1,682
1007,531; 3046,904;    2,712;   -0,227
1008,079; 2999,995;    0,258;    0,500
1008,627; 3151,086;    1,621;    0,409
1009,176; 2881,995;    0,076;   -1,955
1009,724; 2916,722;   -2,742;    0,864
1010,273; 2973,177;    1,076;    0,500
1010,821; 3101,995;    1,076;    1,409
1011,369; 2823,177;    0,076;    1,318
1011,917; 2813,631;   -0,833;   -0,591
1012,465; 3084,086;    2,530;   -1,591
1013,013; 3182,086;    0,439;   -1,682
1013,561; 3066,813;   -1,288;   -0,773
1014,109; 3125,359;   -0,833;    1,682
1014,657; 2963,904;    1,348;    0,591
1015,205; 3099,540;    0,894;   -0,955
1015,753; 3140,995;    0,258;   -1,409
1016,301; 3167,995;    2,621;    3,045
1016,848; 3202,177;    2,167;    0,409
1017,396; 3231,268;    1,621;    0,045
1017,944; 3335,722;    2,621;    1,864
1018,491; 3108,631;   -0,197;    1,409
1019,039; 3268,540;   -0,652;    0,591
1019,586; 3164,813;    0,076;    1,682
1020,134; 3278,904;    0,712;    1,500
1020,681; 3282,540;    2,894;   -1,136
1021,228; 3292,177;   -0,561;   -2,227
1021,776; 3145,177;   -0,833;   -1,136
1022,323; 3346,449;    0,803;    0,773
1022,870; 3279,177;   -0,470;   -0,045
1023,417; 3186,631;    2,076;    1,864
1023,964; 3346,995;    0,621;    1,227
1024,511; 3168,904;   -0,652;    0,773
1025,058; 2966,722;    0,439;   -0,045
1025,605; 3011,177;   -1,742;    3,136
1026,152; 3217,086;   -0,106;   -0,591
1026,699; 2961,631;    0,167;    1,318
1027,245; 3140,086;    2,439;    0,318
1027,792; 3364,268;    0,712;    1,409
1028,339; 3212,540;    4,076;   -0,045
1028,885; 3087,268;    3,621;   -0,227
1029,432; 3022,177;   -0,106;    0,227
1029,978; 3070,813;    1,348;   -1,591
1030,525; 2955,904;    1,621;    0,409
1031,071; 3227,722;    0,348;    1,136
1031,618; 3331,449;    1,258;    1,682
1032,164; 3111,904;    2,076;    3,045
1032,710; 3166,813;    0,076;   -1,500
1033,256; 3087,268;    0,712;   -0,136
1033,803; 3065,540;   -0,288;    1,500
1034,349; 2809,268;    1,803;    0,136
1034,895; 2948,359;    2,621;   -0,318
1035,441; 2927,813;    0,439;    0,318
1035,987; 2945,631;   -2,288;   -0,682
1036,533; 2942,631;   -0,197;   -0,955
1037,078; 3127,359;    4,712;    1,682
1037,624; 2964,449;    2,439;   -0,955
1038,170; 2991,904;    1,712;   -0,318
1038,716; 2890,449;    2,167;   -0,409
1039,261; 2797,086;    2,167;   -0,773
1039,807; 2743,995;   -0,015;    3,409
1040,352; 2795,086;   -1,288;   -0,318
1040,898; 2839,359;    0,167;   -0,682
1041,443; 2753,177;    0,803;   -2,591
1041,989; 2791,904;    3,621;    1,591
1042,534; 2671,722;    0,985;    2,591
1043,079; 2784,631;    1,985;    0,955
1043,625; 2557,086;    0,258;    0,500
1044,170; 2602,540;    2,439;    1,045
1044,715; 2873,359;    0,167;    0,955
1045,260; 2689,631;   -0,833;   -0,955
1045,805; 2749,995;    0,258;   -0,591
1046,350; 2708,359;    0,530;   -0,409
1046,895; 2652,268;    0,803;    1,591
1047,440; 2578,268;    1,530;    0,409
1047,985; 2496,995;   -1,197;   -0,955
1048,530; 2414,995;    1,348;    1,227
1049,074; 2475,995;    2,803;    0,318
1049,619; 2447,995;   -0,924;    1,955
1050,164; 2258,813;    1,076;    0,227
1050,708; 2310,449;    2,621;    0,045
1051,253; 2659,813;    3,258;   -2,227
1051,797; 2383,359;   -0,197;   -1,318
1052,342; 2392,086;    1,348;    1,045
1052,886; 2378,359;    1,803;   -1,409
1053,430; 2268,268;    2,167;    0,136
1053,975; 2286,722;    0,894;   -0,318
1054,519; 2261,540;    1,803;    3,227
1055,063; 2269,722;    3,621;    1,318
1055,607; 2152,086;    1,348;    0,227
1056,151; 2195,449;    0,530;    1,682
1056,695; 2114,995;   -1,833;   -1,136
1057,239; 2167,631;   -1,197;   -0,682
1057,783; 2176,813;    2,258;   -1,500
1058,327; 2142,268;    3,076;    1,409
1058,871; 2369,722;    3,985;    1,318
1059,415; 2070,086;   -0,561;   -0,045
1059,958; 2306,722;    2,985;    2,591
1060,502; 2039,540;    1,348;   -0,773
1061,046; 1960,449;    1,712;   -0,955
1061,589; 1938,177;    2,803;   -1,136
1062,133; 1815,995;    0,985;    1,864
1062,676; 1759,540;    1,439;    0,864
1063,220; 1763,631;    0,985;    0,500
1063,763; 1773,449;    2,985;    1,136
1064,306; 1865,359;    0,985;    1,864
1064,849; 1749,177;    2,076;    0,591
1065,393; 1754,086;    2,894;   -1,500
1065,936; 1871,631;    2,530;   -0,409
1066,479; 1759,268;    2,621;    1,318
1067,022; 1786,722;    1,894;   -0,227
1067,565; 1681,813;   -1,197;   -1,318
1068,108; 1715,268;    1,258;   -0,591
1068,651; 1669,722;   -2,470;    1,409
1069,194; 1603,631;   -1,106;   -1,682
1069,736; 1596,540;    3,803;    0,955
1070,279; 1595,359;   -1,652;   -0,500
1070,822; 1630,086;    1,530;   -0,318
1071,364; 1697,631;    0,530;    1,318
1071,907; 1535,995;    0,348;    3,227
1072,450; 1463,086;    0,258;   -0,045
1072,992; 1452,813;   -0,561;    3,136
1073,535; 1574,086;    0,167;    2,136
1074,077; 1370,631;    2,985;    2,045
1074,619; 1348,177;    0,985;    0,591
1075,161; 1367,268;   -0,561;    1,500
1075,704; 1548,904;    0,258;    1,227
1076,246; 1361,268;    1,530;    0,682
1076,788; 1285,177;   -1,015;    1,773
1077,330; 1367,995;   -2,106;    2,136
1077,872; 1330,177;   -1,924;    0,955
1078,414; 1552,995;    3,712;    0,773
1078,956; 1278,449;    0,167;   -0,227
1079,498; 1512,177;    0,439;    0,318
1080,040; 1223,904;    0,985;   -1,318
1080,581; 1186,449;    0,621;   -0,318
1081,123; 1133,449;   -0,106;   -0,773
1081,665; 1170,995;    3,803;   -0,955
1082,206; 1438,813;    3,258;   -0,500
1082,748; 1323,995;    3,258;    2,045
1083,289; 1203,086;    0,167;    1,318
1083,831; 1099,359;    0,258;    0,227
1084,372; 1137,268;    0,894;    0,591
1084,913; 1133,995;    3,348;    0,864
1085,455; 1119,268;    1,530;   -2,045
1085,996; 1078,904;    0,530;    0,136
1086,537; 1113,086;    0,985;    0,864
1087,078; 1135,086;    0,439;   -2,136
1087,619; 1166,722;   -1,652;    0,227
1088,160; 1091,904;    1,439;    1,318
1088,701; 1071,813;   -0,742;    0,682
1089,242; 1023,631;   -0,561;   -2,227
1089,783; 1112,086;   -0,561;    1,409
1090,324; 1093,722;   -0,833;    0,682
1090,865;  976,995;   -1,924;   -0,409
1091,405;  952,813;   -0,561;    2,227
1091,946;  984,177;   -0,197;   -0,955
1092,487;  900,904;   -1,288;   -1,409
1093,027; 1054,995;    1,803;   -1,500
1093,568;  918,268;    2,258;    1,227
1094,108;  990,540;    0,621;    1,773
1094,649;  942,995;   -0,470;    0,136
1095,189;  886,449;    1,167;   -0,682
1095,729;  827,995;    0,712;    0,955
1096,269;  850,177;    1,258;   -0,955
1096,810; 1144,540;   -0,197;    0,500
1097,350;  969,449;   -0,561;   -0,773
1097,890;  884,268;    2,985;    1,227
1098,430; 1123,995;    4,985;    2,864
1098,970; 1000,359;    1,894;    1,682
1099,510;  880,359;   -0,833;   -2,318
1100,050;  805,722;    0,258;   -1,591
1100,589;  764,086;    0,076;   -0,318
1101,129;  886,268;    0,894;   -0,955
1101,669; 1006,086;    2,803;    2,136
1102,209;  856,177;    1,530;    2,227
1102,748;  814,904;    3,439;    0,955
1103,288;  796,540;    0,712;   -1,227
1103,827;  819,086;    3,530;   -2,227
1104,367;  702,631;    1,712;   -2,409
1104,906;  676,904;   -1,015;   -1,136
1105,445;  741,813;    0,985;   -1,136
1105,985;  677,268;   -0,652;    1,500
1106,524;  729,722;    1,530;   -0,682
1107,063;  706,904;    1,167;    1,409
1107,602;  685,631;    1,894;   -1,500
1108,141;  600,813;    1,621;    1,500
1108,680;  701,722;    3,985;   -0,591
1109,219;  654,722;    0,167;   -0,500
1109,758;  658,359;    4,167;    0,682
1110,297;  634,722;   -1,106;   -0,682
1110,836;  581,540;    1,439;    0,955
1111,375;  736,995;    0,348;    0,409
1111,913;  737,086;    0,985;    0,773
1112,452;  681,540;    0,894;    0,136
1112,991;  572,722;    1,076;    1,955
1113,529;  518,359;    0,167;   -0,045
1114,068;  586,540;    0,439;    2,955
1114,606;  494,813;   -0,561;   -0,955
1115,144;  650,813;    1,530;    1,045
1115,683;  591,449;    1,985;    0,318
1116,221;  643,177;    2,076;   -0,864
1116,759;  559,904;    1,621;   -0,864
1117,297;  731,177;    1,621;    1,864
1117,836;  554,904;    1,985;   -1,227
1118,374;  551,631;    0,258;   -0,682
1118,912;  510,359;    0,439;    2,682
1119,450;  491,631;    0,985;    0,864
1119,988;  535,904;    3,348;    2,136
1120,525;  987,813;    7,258;    3,318
1121,063;  687,449;    0,530;    1,864
1121,601;  501,359;    1,076;   -1,227
1122,139;  461,631;    1,076;   -2,045
1122,676;  649,904;   -1,652;    2,773
1123,214;  587,631;    0,712;    4,409
1123,751;  406,904;    0,621;    2,227
1124,289;  528,722;    0,894;   -0,409
1124,826;  402,540;   -0,379;    0,227
1125,364;  336,904;    0,712;   -0,955
1125,901;  513,449;    6,258;    1,227
1126,438;  607,813;    3,530;    0,955
1126,975;  359,268;    2,985;   -0,773
1127,513;  416,268;    2,621;    2,136
1128,050;  338,904;   -0,561;   -0,682
1128,587;  425,540;    1,348;   -0,227
1129,124;  460,540;   -0,015;    1,318
1129,661;  343,722;   -1,924;    0,227
1130,198;  506,177;    2,439;    0,773
1130,734;  449,268;   -0,379;    1,409
1131,271;  316,086;   -1,197;    0,864
1131,808;  475,449;    1,621;    3,045
1132,345;  352,177;    4,530;    0,318
1132,881;  237,722;   -0,561;   -1,864
1133,418;  363,086;    0,348;   -1,136
1133,954;  312,631;    0,712;   -2,682
1134,491;  371,268;    1,712;   -0,773
1135,027;  283,268;    2,167;    0,864
1135,564;  348,904;    1,439;    2,955
1136,100;  343,449;   -0,742;    2,136
1136,636;  255,359;   -1,015;   -1,045
1137,172;  329,540;    0,894;   -1,045
1137,708;  253,449;   -1,561;   -1,045
1138,245;  257,631;    0,803;   -1,227
1138,781;  226,631;    1,803;   -3,318
1139,317;  281,540;    1,894;   -1,409
1139,852;  263,995;    3,076;    0,136
1140,388;  377,449;    2,076;   -0,409
1140,924;  270,268;    1,076;   -2,227
1141,460;  211,449;   -0,288;    0,136
1141,996;  157,086;   -0,652;    2,682
1142,531;  194,449;    1,076;    3,318
1143,067;  393,540;    1,167;    1,045
1143,602;  448,904;    3,439;   -0,318
1144,138;  310,631;    0,803;    1,045
1144,673;  182,813;    1,621;    1,409
1145,209;  240,086;    2,894;   -0,318
1145,744;  163,540;    0,803;    0,864
1146,279;  287,722;    1,530;   -0,136
1146,815;  213,359;    1,530;   -2,682
1147,350;  257,177;   -0,924;    0,045
1147,885;  168,813;   -1,924;   -1,318
1148,420;  171,359;    2,439;    0,773
1148,955;  159,813;   -1,470;    1,864
1149,490;  176,722;   -1,106;   -1,591
1150,025;  158,904;   -1,106;   -1,773
1150,560;  265,722;   -0,288;   -0,955
1151,094;  232,995;    0,258;   -0,591
1151,629;  235,086;   -3,742;    0,864
1152,164;  171,995;   -1,288;    1,318
1152,698;  129,995;    1,258;   -0,136
1153,233;   87,722;   -1,379;   -0,682
1153,767;  133,904;   -0,288;   -2,318
1154,302;  174,268;   -0,379;    1,773
1154,836;  183,813;    0,803;   -2,136
1155,371;  234,449;    2,258;    3,682
1155,905;  188,540;    1,985;    1,682
1156,439;  168,904;    0,530;   -0,500
1156,973;  191,722;    0,439;    0,318
1157,507;  132,449;   -1,742;    0,682
1158,042;  155,359;   -0,652;    1,045
1158,576;  189,813;   -0,561;    1,773
1159,110;  181,449;    0,076;    2,409
1159,643;  157,268;   -2,470;   -0,045
1160,177;  103,813;   -2,015;    1,500

