
Integration time [ms]:   0,040
Averaging Nr. [scans]: 11
Smoothing Nr. [pixels]: 0
Data measured with spectrometer [name]: 7318044SP
Wave   ;Sample   ;Dark     ;Reference
[nm]   ;[counts] ;[counts] ;[counts] 

186,757;   18,254;   38,161;    1,318
187,357;   56,758;   26,706;    0,955
187,958;   37,832;   17,252;   -1,591
188,558;   76,660;   12,979;   -1,227
189,159;   40,149;   10,070;   -4,500
189,759;   17,238;    5,797;   -3,591
190,360;   12,306;    6,797;   -2,136
190,960;   49,076;    5,706;   -4,136
191,560;   53,991;    2,614;   -6,591
192,161;  276,966;    5,885;   -3,500
192,761;  139,209;    5,520;   -3,227
193,361;   93,362;    3,065;   -3,773
193,962;  141,149;    1,612;   -2,682
194,562;   67,848;   -0,114;   -3,955
195,162;  100,616;   -0,567;   -2,227
195,762;  254,027;    2,433;   -0,045
196,362;  202,773;    1,706;   -2,500
196,963;   77,982;    1,706;   -0,864
197,563;  151,730;    1,252;   -0,955
198,163;   94,740;   -0,111;   -0,682
198,763;  111,214;   -0,020;   -0,500
199,363;  213,036;    3,616;   -0,500
199,963;  175,450;    2,162;    0,409
200,563;  148,199;    6,344;   -1,409
201,163;  124,520;    5,435;   -0,227
201,763;  215,898;    1,435;    0,318
202,363;  157,957;    0,980;    1,500
202,963;  251,756;    1,526;    1,045
203,563;  365,194;    0,344;    0,500
204,162;  217,291;    1,889;   -1,864
204,762;  200,745;    2,071;    0,591
205,362;  175,991;    0,708;    1,955
205,962;  278,905;    3,435;    1,955
206,562;  269,659;    1,889;    2,318
207,161;  228,217;    1,708;    0,318
207,761;  390,591;    4,435;    2,409
208,361;  266,704;    1,889;    1,409
208,960;  358,175;    2,889;    1,500
209,560;  422,682;    0,435;    1,591
210,160;  400,251;    5,071;    1,864
210,759;  356,940;    0,708;    1,227
211,359;  366,637;   -0,474;    1,045
211,958;  619,551;    3,526;    2,045
212,558;  695,860;    0,799;    1,864
213,157;  544,130;   -0,929;    1,500
213,757;  957,965;    5,617;   -0,227
214,356;  666,327;    1,708;   -0,409
214,956;  980,099;    3,526;    0,409
215,555;  624,950;    0,617;    2,136
216,154;  554,064;   -0,292;   -0,591
216,754;  563,197;    1,253;    0,773
217,353;  685,437;   -0,383;   -1,045
217,952;  546,664;    2,072;    0,318
218,552;  773,643;    0,254;   -0,773
219,151;  671,413;   -1,110;    0,955
219,750;  669,603;    0,890;   -0,227
220,349;  748,423;   -2,292;    1,045
220,948;  842,400;    1,163;    1,136
221,548;  830,679;    0,617;    1,227
222,147;  947,899;   -1,292;   -0,409
222,746; 1221,372;    1,254;   -0,955
223,345; 1087,176;   -1,019;    0,500
223,944; 1101,645;    1,163;    0,773
224,543; 1248,375;    4,072;   -1,409
225,142; 1362,548;    1,345;    0,136
225,741; 1259,656;    1,163;    1,045
226,340; 1288,210;    1,254;   -0,955
226,939; 1707,941;    2,708;   -0,136
227,538; 1614,015;    1,163;   -0,773
228,137; 1770,996;    0,435;    0,864
228,735; 1860,836;    0,435;    1,227
229,334; 1644,151;   -0,474;   -0,227
229,933; 2025,519;    0,799;    0,591
230,532; 2129,136;   -1,201;   -0,409
231,131; 2182,420;    1,253;    0,318
231,729; 2270,443;    1,163;   -2,318
232,328; 2353,846;    0,435;   -1,500
232,927; 2403,887;    4,526;   -0,500
233,525; 2499,749;    0,981;    0,045
234,124; 2692,204;    1,890;   -1,591
234,723; 2715,398;    1,617;   -1,045
235,321; 2833,400;    1,163;    0,136
235,920; 3052,058;    2,526;   -1,227
236,518; 3273,060;    1,072;    0,318
237,117; 3421,180;    2,890;   -0,227
237,715; 3580,106;    1,163;   -0,500
238,314; 3608,436;    1,708;   -2,318
238,912; 3708,914;    0,526;   -1,409
239,510; 3739,999;    1,162;   -1,227
240,109; 3913,807;   -0,474;    3,773
240,707; 3937,496;   -0,474;    1,227
241,305; 4239,553;   -0,383;    0,136
241,904; 4444,371;   -0,292;   -2,045
242,502; 4426,398;    3,253;   -0,227
243,100; 4379,512;    3,344;   -0,955
243,698; 4614,620;    2,799;    1,682
244,297; 4744,493;   -0,656;    0,682
244,895; 4610,715;   -0,474;   -2,318
245,493; 4913,299;    2,981;   -0,591
246,091; 4915,814;    5,163;   -1,318
246,689; 4873,745;    2,163;    0,591
247,287; 5024,015;   -0,019;   -1,136
247,885; 5293,138;   -1,019;    1,227
248,483; 5352,559;   -0,201;   -0,500
249,081; 5474,985;    0,981;    1,591
249,679; 5631,820;   -1,019;    1,682
250,277; 5873,104;   -2,292;    0,864
250,875; 5840,673;    0,617;   -1,045
251,473; 5857,910;   -0,019;    0,500
252,071; 6036,831;   -0,383;    1,045
252,669; 6148,554;   -1,565;    0,318
253,267; 6370,290;    1,618;    0,773
253,864; 6322,561;    0,617;    0,682
254,462; 6237,110;    1,526;    1,591
255,060; 6193,580;    0,072;    1,318
255,658; 6524,009;   -3,292;   -0,136
256,255; 6860,673;   -0,201;   -2,045
256,853; 6740,047;    2,345;    1,409
257,451; 6730,886;    1,981;    1,864
258,048; 7002,083;    2,072;    1,864
258,646; 6764,586;    0,436;   -1,045
259,243; 6958,774;    2,981;    2,227
259,841; 6991,055;    1,799;    0,318
260,438; 6873,457;    0,254;    0,864
261,036; 7528,677;    0,617;    1,409
261,633; 7450,876;    1,526;    2,227
262,231; 7202,550;   -0,110;   -0,045
262,828; 7265,734;   -0,383;    1,136
263,425; 7296,671;   -1,928;   -0,591
264,023; 7583,034;    1,436;    0,045
264,620; 7138,356;    1,526;   -0,318
265,217; 7477,351;    2,890;    3,136
265,815; 7571,937;    2,527;    2,136
266,412; 7369,582;    0,072;    0,136
267,009; 7409,544;    0,526;    0,773
267,606; 7341,041;    0,345;   -0,955
268,203; 7295,252;   -0,383;   -0,591
268,801; 7541,962;   -0,474;    0,591
269,398; 7837,461;   -0,564;    2,500
269,995; 7817,189;    0,890;    1,591
270,592; 7604,901;    0,799;   -0,500
271,189; 7753,121;    1,981;    0,409
271,786; 7911,127;    2,072;    1,227
272,383; 7767,362;   -0,383;    0,227
272,980; 7928,478;    1,617;    0,318
273,577; 8359,973;    2,162;    1,227
274,174; 7946,185;    1,435;    2,591
274,771; 7934,100;    1,890;   -0,773
275,367; 8064,904;    3,253;    1,409
275,964; 8028,333;   -0,565;   -0,500
276,561; 8120,036;   -2,474;   -1,045
277,158; 8315,639;    1,799;   -1,773
277,755; 8443,076;   -0,110;    0,409
278,351; 7844,516;    0,436;   -1,500
278,948; 8139,074;   -0,201;    0,045
279,545; 8162,624;    0,527;    2,318
280,141; 8747,244;    1,254;   -2,045
280,738; 8618,415;    2,435;   -0,136
281,334; 8802,370;   -0,383;    0,591
281,931; 8235,831;    2,890;   -1,318
282,528; 8335,960;    4,072;   -0,500
283,124; 8991,292;    3,345;   -0,500
283,721; 8890,734;    0,709;    1,409
284,317; 8697,038;    0,163;    2,500
284,913; 9231,668;   -0,110;    0,591
285,510; 9405,032;    2,890;   -0,318
286,106; 9422,738;    2,345;   -0,955
286,703; 9026,205;    0,072;    1,955
287,299; 9235,692;    1,254;   -0,591
287,895; 9431,015;    0,890;   -1,045
288,491; 9967,734;    0,163;    2,136
289,088; 9688,975;    0,163;    2,409
289,684; 9757,645;    2,890;    1,500
290,280; 9762,398;    1,890;    0,682
290,876; 9850,263;    0,163;    5,500
291,472; 9728,389;    2,163;    2,227
292,068; 9818,059;    1,254;    0,227
292,665; 9564,601;   -0,564;    0,773
293,261; 9222,260;   -1,292;    2,136
293,857; 9566,077;    4,072;    2,136
294,453; 9489,813;   -0,928;    0,955
295,049; 9375,477;    0,253;    1,955
295,644; 9392,771;   -1,292;    0,136
296,240; 9318,562;    0,162;   -0,136
296,836; 9386,391;   -0,747;    0,318
297,432; 9634,522;    2,980;   -0,500
298,028; 9652,387;    0,435;    0,773
298,624;10014,782;    0,889;    1,864
299,220;10268,131;    0,435;    0,591
299,815; 9900,469;    0,526;   -0,409
300,411; 9709,841;    0,435;    1,773
301,007; 9748,086;    1,889;    0,227
301,602; 9747,961;    2,071;   -2,318
302,198; 9926,298;    1,435;   -0,773
302,794;10230,534;    1,526;   -0,500
303,389;10333,653;    1,071;    1,045
303,985;10416,566;    1,253;    1,409
304,580;10392,465;    0,889;    1,591
305,176;10364,636;    0,344;    0,136
305,771;10336,469;   -0,929;   -1,227
306,367;10176,479;    3,071;    0,136
306,962;10470,507;    2,889;    1,500
307,558;10201,460;    2,435;    0,136
308,153;10165,705;   -0,383;   -1,136
308,748;10386,082;    0,162;    1,682
309,344;10351,502;    0,253;   -1,318
309,939;10459,170;    2,071;   -1,318
310,534;10724,655;   -2,020;   -1,682
311,130;10658,380;   -0,656;   -2,500
311,725;10371,483;    0,526;   -0,500
312,320;10688,896;    1,253;    0,045
312,915;10537,815;    2,890;   -1,045
313,510;10589,940;    0,526;   -0,500
314,105;11079,911;   -3,565;    1,409
314,700;10505,014;   -1,656;   -1,045
315,295;10174,101;   -0,020;    0,045
315,890; 9774,276;   -0,292;    0,864
316,485;10089,077;    0,253;   -0,318
317,080;10223,646;   -0,929;    1,591
317,675;10708,693;    3,071;   -0,682
318,270;10151,556;    6,889;    3,318
318,865;10175,577;    2,435;    3,045
319,460;10022,393;   -1,565;    0,591
320,055;10216,017;   -2,565;   -1,227
320,650; 9880,190;   -1,838;   -0,591
321,244; 9959,638;    0,889;   -1,409
321,839;10845,042;    0,980;   -0,227
322,434;10715,169;   -0,111;   -1,591
323,029;10407,291;   -0,474;    1,591
323,623;10275,718;    0,798;    0,773
324,218;10047,621;    2,707;    1,409
324,812; 9971,786;    0,889;    1,591
325,407; 9820,029;   -0,929;    2,045
326,002; 9733,327;    0,526;   -0,409
326,596;10034,260;   -0,656;    1,318
327,191;10204,797;   -0,383;   -1,045
327,785; 9826,987;   -0,747;   -0,227
328,379;10085,274;   -0,383;    0,136
328,974; 9846,298;    1,798;   -3,955
329,568;10057,788;    2,889;   -2,409
330,163; 9920,545;    2,435;    1,045
330,757;10247,809;    0,253;    1,591
331,351; 9634,610;   -0,292;    0,682
331,945; 9936,919;   -0,383;    1,409
332,540; 9548,862;    1,617;   -0,591
333,134; 9689,562;    3,344;    0,773
333,728; 9900,657;    2,799;    0,318
334,322;10184,794;    0,889;   -0,864
334,916; 9507,487;    0,344;    0,955
335,510; 9827,585;   -0,111;   -0,136
336,105;10075,433;   -0,929;    1,591
336,699; 9766,980;   -1,292;    0,591
337,293; 9718,597;    1,071;    0,318
337,887; 9856,919;    0,071;    1,955
338,481; 9926,997;    2,980;    0,591
339,074;10054,327;    2,071;    2,682
339,668; 9881,682;   -0,110;    1,227
340,262;10148,927;    7,708;    3,227
340,856; 9639,162;    1,708;   -0,682
341,450; 9061,584;    0,708;    1,864
342,044; 9869,506;    1,799;    0,136
342,637; 9630,261;    1,162;   -2,136
343,231; 9503,660;   -1,474;    0,682
343,825; 9470,001;   -0,747;   -0,591
344,419; 9468,883;   -0,474;    0,500
345,012; 9292,461;    2,889;    4,045
345,606; 9249,746;   -0,656;    1,591
346,199; 9132,953;   -0,111;   -0,227
346,793; 8734,854;    2,525;    2,045
347,386; 8912,057;    0,889;   -1,136
347,980; 8893,677;   -0,838;   -0,045
348,573; 8719,992;   -1,748;    0,409
349,167; 8426,986;    6,161;    4,773
349,760; 8755,512;    2,252;    2,682
350,354; 8756,348;    1,616;    1,136
350,947; 8500,200;    2,798;    1,682
351,540; 8212,447;    0,616;   -1,409
352,134; 8154,808;   -1,111;    1,136
352,727; 8226,055;   -0,657;    1,136
353,320; 8055,362;    2,343;    0,591
353,913; 7907,531;   -1,929;    1,864
354,507; 8079,789;    0,434;   -1,227
355,100; 8086,370;    0,071;    0,864
355,693; 7440,608;    4,798;    2,409
356,286; 7471,375;    0,980;    2,773
356,879; 7788,470;   -0,475;    1,227
357,472; 7434,248;    0,980;    1,500
358,065; 7644,927;    3,161;    2,500
358,658; 7578,218;    0,798;    2,318
359,251; 7278,994;    0,252;   -0,591
359,844; 6804,081;    0,343;   -1,136
360,437; 6962,396;    0,252;    0,045
361,030; 7224,425;    0,525;   -0,682
361,623; 6841,474;    0,434;    0,318
362,215; 6866,650;    0,979;    2,045
362,808; 6732,796;   -2,293;   -1,682
363,401; 6919,348;    0,798;    0,136
363,994; 6718,424;    3,252;   -1,500
364,586; 6646,151;    0,888;   -1,500
365,179; 6821,283;   -0,203;   -1,136
365,772; 6326,821;   -0,930;    2,045
366,364; 6605,185;    1,524;   -3,227
366,957; 6813,977;    1,342;   -0,045
367,549; 6821,981;   -0,203;   -0,864
368,142; 6491,328;    0,978;   -1,500
368,734; 6677,500;    2,523;   -2,136
369,327; 6640,629;    2,341;   -0,500
369,919; 6569,849;   -1,659;    0,409
370,512; 6386,888;   -1,023;   -0,500
371,104; 6179,593;    2,704;    1,591
371,696; 6315,229;    1,703;   -0,955
372,289; 6406,993;    0,157;    1,136
372,881; 6512,724;    1,156;    1,318
373,473; 6436,327;    4,064;    1,136
374,066; 6259,008;    1,336;    0,500
374,658; 6153,195;    0,879;    1,136
375,250; 6461,695;   -1,668;   -1,409
375,842; 6307,535;   -0,124;   -0,045
376,434; 6213,797;   -2,762;   -0,409
377,026; 6715,606;   -1,855;   -2,500
377,618; 6610,842;    0,779;   -0,682
378,210; 6459,737;    3,141;   -1,955
378,802; 6304,714;    3,412;   -0,591
379,394; 6290,236;    3,411;    0,682
379,986; 6828,013;    1,138;   -0,955
380,578; 6903,218;    1,410;    0,773
381,170; 6334,280;    0,320;    0,045
381,762; 6298,733;   -0,224;    1,409
382,354; 6452,792;   -0,223;   -1,318
382,945; 6543,447;    0,870;    0,318
383,537; 6671,474;    1,144;   -1,955
384,129; 6697,229;    0,963;   -1,136
384,721; 6840,909;    0,418;    0,955
385,312; 6764,471;   -1,399;   -0,955
385,904; 6890,992;   -0,945;    1,591
386,496; 6290,620;    0,691;    1,045
387,087; 6434,638;    0,418;    2,500
387,679; 6465,160;   -0,401;    0,045
388,270; 6585,556;   -2,401;    2,045
388,862; 6669,422;   -0,401;   -0,318
389,453; 6555,907;    1,054;    1,045
390,045; 6801,883;    3,236;   -2,682
390,636; 6759,340;    0,144;   -0,591
391,227; 6597,803;    2,054;   -0,045
391,819; 6718,171;    0,781;    0,773
392,410; 6757,367;    0,600;    0,045
393,001; 6718,161;    1,600;   -1,591
393,593; 6970,412;    0,600;   -0,045
394,184; 6797,391;    0,873;   -0,409
394,775; 6715,030;    1,146;    2,136
395,366; 6916,495;    1,782;    0,773
395,957; 6912,439;   -2,400;    0,136
396,548; 7175,434;    1,054;    2,682
397,139; 7459,553;    2,236;    0,591
397,730; 7195,151;    0,873;    0,955
398,321; 7259,189;    0,509;    0,955
398,912; 7266,134;   -0,764;    0,136
399,503; 7364,472;   -1,945;   -1,409
400,094; 6869,975;   -1,582;    1,682
400,685; 6735,569;    3,600;    0,045
401,276; 6803,920;   -0,400;   -0,955
401,867; 7068,973;   -1,127;    0,773
402,458; 7147,303;    1,509;   -2,318
403,048; 7118,007;    0,146;    0,591
403,639; 6758,481;    1,509;    0,864
404,230; 7019,624;    0,691;    0,318
404,821; 6966,472;   -0,127;    0,045
405,411; 7071,205;   -0,763;   -2,591
406,002; 6690,442;    3,237;   -1,136
406,592; 6580,004;    2,691;    0,045
407,183; 6845,057;    0,328;   -1,500
407,774; 6747,945;    1,419;   -0,136
408,364; 7064,294;    2,600;    0,409
408,954; 6740,220;   -0,036;    1,227
409,545; 6773,283;    1,873;    1,045
410,135; 6336,327;   -1,581;    0,500
410,726; 6485,020;    0,783;    0,318
411,316; 6826,213;    2,237;    0,773
411,906; 6499,043;    0,146;   -0,409
412,497; 6068,395;   -0,490;   -0,045
413,087; 6633,035;    0,783;   -0,227
413,677; 6951,316;   -2,490;    3,864
414,267; 6832,104;   -1,035;    1,409
414,857; 6811,796;    0,419;    4,227
415,448; 7070,862;   -0,763;    0,500
416,038; 6797,507;   -2,945;   -0,591
416,628; 6765,197;    0,965;    0,409
417,218; 6298,787;   -1,762;    3,318
417,808; 6540,660;    0,965;   -0,409
418,398; 6940,299;   -1,035;    2,682
418,988; 6951,897;   -2,217;    0,591
419,578; 7168,620;    3,601;    1,409
420,168; 7453,819;    0,692;   -0,955
420,757; 7099,794;    0,964;   -1,500
421,347; 6777,613;    1,601;   -0,227
421,937; 6938,427;    3,329;    1,409
422,527; 6904,425;    2,602;   -0,773
423,116; 6735,434;    2,692;   -0,045
423,706; 7046,227;    2,965;    0,318
424,296; 6992,542;    1,601;    0,682
424,885; 7378,723;    1,510;   -3,045
425,475; 7615,224;    1,147;   -2,864
426,065; 7534,381;   -1,489;   -0,318
426,654; 7195,560;    0,329;   -0,318
427,244; 7309,072;    1,147;    1,409
427,833; 6806,766;    1,056;   -0,500
428,423; 7208,224;    0,147;    1,136
429,012; 7914,380;    2,420;   -1,136
429,601; 7435,834;    2,057;    0,136
430,191; 7664,499;    2,511;    4,318
430,780; 7337,795;   -1,671;   -0,409
431,369; 7293,813;    1,329;   -0,045
431,959; 7851,731;    1,693;    0,500
432,548; 7630,691;   -1,398;   -0,045
433,137; 7761,982;    0,329;   -1,318
433,726; 8216,173;    0,148;    0,500
434,315; 7656,686;    0,148;    2,409
434,905; 7752,500;    0,693;    1,409
435,494; 7695,219;    3,148;    0,955
436,083; 8085,225;    1,420;   -0,955
436,672; 7944,517;    1,148;    0,500
437,261; 7572,937;    0,512;   -1,955
437,850; 7701,944;   -1,125;    0,682
438,439; 7662,138;    2,239;    1,955
439,027; 7508,878;    3,421;    1,773
439,616; 7807,842;    2,239;    1,227
440,205; 7706,493;    0,057;   -2,136
440,794; 7731,554;   -0,306;   -0,045
441,383; 7946,547;    1,603;   -0,591
441,971; 7834,087;   -0,306;    0,591
442,560; 7685,238;    0,603;   -1,773
443,149; 7445,751;    3,060;   -1,318
443,737; 7569,108;    0,968;   -2,318
444,326; 7821,811;    0,331;    0,318
444,915; 7854,577;   -1,851;    0,864
445,503; 8199,628;    0,058;   -0,318
446,092; 7565,367;    7,876;    2,136
446,680; 8059,414;    1,876;    0,318
447,269; 8199,655;   -1,487;   -0,318
447,857; 7995,595;    2,240;   -1,773
448,445; 8098,470;    2,149;    1,318
449,034; 8284,621;    0,876;   -1,136
449,622; 8406,508;    1,240;    3,500
450,210; 7742,235;    3,149;    2,227
450,799; 8232,178;    2,604;   -0,591
451,387; 8152,668;    1,786;   -0,591
451,975; 7860,537;   -1,305;    0,864
452,563; 7965,440;    0,422;    2,318
453,151; 7963,282;   -1,032;   -1,227
453,739; 7899,118;   -1,577;    0,136
454,328; 7760,915;    0,604;   -2,136
454,916; 7498,691;    1,150;   -0,136
455,504; 7682,214;    3,513;    1,227
456,092; 7852,148;    2,150;   -1,591
456,679; 7819,789;    0,604;    0,682
457,267; 7812,820;    3,604;    1,045
457,855; 7914,816;    3,241;    1,409
458,443; 7665,490;   -0,304;    1,682
459,031; 7792,807;    1,332;    2,409
459,619; 8194,332;   -3,577;    2,864
460,206; 8260,528;   -0,759;    2,045
460,794; 8364,073;   -0,668;   -0,227
461,382; 8606,644;    0,878;   -0,864
461,970; 8199,688;    0,605;    1,864
462,557; 8240,572;    0,878;   -0,682
463,145; 8410,872;   -0,304;   -1,682
463,732; 8515,377;    2,514;   -1,045
464,320; 8424,620;    1,514;   -3,045
464,907; 8140,242;    0,423;   -0,773
465,495; 8029,930;    2,696;   -1,227
466,082; 8162,434;    2,060;   -0,045
466,670; 8081,349;    2,605;    1,227
467,257; 8469,229;    0,060;    2,045
467,844; 8628,607;    1,514;    0,045
468,432; 8657,182;   -0,031;    3,500
469,019; 8201,294;    1,606;   -1,773
469,606; 8623,155;    0,969;    3,682
470,193; 8494,370;    2,151;    0,227
470,780; 8106,051;    0,333;    0,864
471,368; 8426,239;   -1,212;   -0,773
471,955; 8212,884;    1,060;   -0,682
472,542; 7875,630;   -0,303;   -1,136
473,129; 8089,552;   -0,485;    0,136
473,716; 7856,040;    0,060;    0,591
474,303; 8018,998;    1,333;   -0,864
474,890; 8291,391;    2,333;   -0,500
475,477; 8322,092;   -0,576;    0,409
476,064; 8212,388;    0,697;   -1,591
476,650; 8107,120;    2,152;    0,318
477,237; 7949,847;    1,879;    0,955
477,824; 8116,471;    3,879;    0,864
478,411; 8133,919;    0,606;   -0,318
478,997; 8310,160;    0,606;   -0,773
479,584; 8349,865;   -0,666;   -0,409
480,171; 8984,574;    1,243;   -0,773
480,757; 8652,299;   -0,848;    0,773
481,344; 8928,690;    0,334;    0,409
481,931; 8454,590;   -0,393;    1,045
482,517; 9343,763;    0,425;    0,318
483,104; 9797,206;    1,334;    2,864
483,690;10032,779;    0,243;    0,045
484,276;10287,427;    0,698;    0,227
484,863;10054,702;    2,152;    1,136
485,449;10591,319;    0,152;    0,318
486,035;10603,167;   -0,666;   -0,136
486,622;11000,429;   -2,393;    0,045
487,208;10935,019;    1,334;    1,500
487,794;10768,913;    0,971;    0,318
488,380;10889,835;    0,698;   -1,409
488,967;10961,828;   -1,120;   -0,409
489,553;10998,281;   -1,029;   -1,409
490,139;11206,579;    0,971;    0,773
490,725;10703,018;    0,789;   -0,227
491,311;10354,555;    1,516;    3,045
491,897; 9751,492;   -0,665;    1,500
492,483; 9616,619;    0,426;    1,227
493,069; 9461,293;    5,426;    0,864
493,655; 9421,369;    1,789;    0,682
494,241; 9365,633;    1,517;   -0,955
494,826; 9697,938;    0,335;   -1,045
495,412; 9164,416;    0,335;   -0,682
495,998; 9324,883;    0,971;   -0,318
496,584; 9414,817;    2,244;    1,045
497,169; 9381,379;    2,335;   -0,682
497,755; 9375,322;    1,244;    1,227
498,341; 9878,128;    2,153;    0,318
498,926; 9468,221;    2,881;    1,955
499,512; 9622,118;   -0,028;    2,955
500,097; 9691,837;   -0,574;   -0,318
500,683; 9657,000;   -0,028;    2,136
501,268; 9974,981;    1,881;   -0,955
501,854; 9752,704;   -0,119;    1,227
502,439; 9665,566;   -0,573;   -1,773
503,024; 9821,057;    1,608;    0,500
503,610; 9871,144;    1,335;   -0,682
504,195; 9893,389;    1,245;    1,955
504,780;10005,806;    2,335;    1,227
505,366; 9867,933;    4,063;    2,864
505,951; 9604,469;   -1,119;    1,045
506,536; 9610,619;    1,427;   -3,682
507,121; 9597,442;    1,699;   -0,318
507,706;10055,287;   -0,392;    1,045
508,291;10374,175;   -2,937;    1,136
508,876; 9895,580;   -0,482;    2,591
509,461; 9427,206;    1,427;   -0,773
510,046; 9796,587;   -0,391;    0,318
510,631;10019,128;   -0,119;   -0,773
511,216; 9727,082;   -0,664;   -0,500
511,801;10012,896;   -0,755;    2,591
512,386;10293,845;    0,972;    0,500
512,971;10255,434;    0,427;    0,955
513,555; 9853,540;    1,154;   -1,500
514,140;10546,688;    1,336;   -3,136
514,725;10509,261;    1,791;   -1,136
515,309;10634,660;    1,064;    0,318
515,894;10157,022;   -0,300;   -2,227
516,479;10541,810;    1,973;   -0,955
517,063;10392,546;    0,882;    1,227
517,648;10538,280;    0,155;   -1,136
518,232;10158,812;   -1,300;   -1,409
518,817;10511,019;    1,337;    1,682
519,401;10674,032;    0,700;    0,591
519,985;10207,201;    2,700;    1,136
520,570;10104,298;   -0,118;   -1,955
521,154;10379,888;    0,064;    0,591
521,738;10518,841;    1,064;    2,409
522,323;11013,560;   -0,390;    1,682
522,907;10753,427;    2,428;   -0,136
523,491;10492,000;    1,155;    0,955
524,075;10496,298;    0,428;    0,591
524,659;10581,590;    0,973;    0,591
525,243;10128,346;    0,883;    0,409
525,827;10316,435;    0,883;   -0,045
526,411;11046,408;    1,155;   -0,136
526,995;11266,900;    0,337;    1,409
527,579;10875,754;    1,974;   -1,045
528,163;11141,166;    0,428;   -1,500
528,747;11075,272;    1,065;   -0,773
529,331;11363,855;    0,883;   -1,409
529,915;11514,965;    2,338;    0,955
530,499;11440,851;    0,247;    1,227
531,082;11162,796;    1,065;    1,591
531,666;10678,912;    0,520;    0,773
532,250;11267,570;    0,428;    2,682
532,833;11530,449;    0,610;    2,773
533,417;11426,612;    1,247;    0,864
534,001;11363,597;    0,429;   -0,318
534,584;11979,176;    1,974;    0,500
535,168;11853,854;    3,247;    1,409
535,751;11886,187;    4,520;    0,045
536,334;11344,360;    4,520;   -0,409
536,918;11908,901;    1,974;    1,591
537,501;11989,241;    1,520;    1,318
538,085;11992,548;    1,702;    1,045
538,668;12098,664;    0,883;    2,409
539,251;12369,144;    3,156;    3,773
539,834;12375,592;    0,156;    0,773
540,418;12349,932;    3,247;    4,318
541,001;12412,078;    2,702;    1,773
541,584;12368,243;    1,429;    2,227
542,167;12083,326;    0,702;    2,955
542,750;12202,522;    0,793;   -0,773
543,333;11793,255;    1,429;    2,136
543,916;12530,471;   -0,298;    2,500
544,499;13069,418;    2,520;    0,227
545,082;13078,877;    0,248;    3,591
545,665;13159,797;   -0,207;    1,500
546,248;13439,528;    0,520;   -0,318
546,830;13121,247;   -1,752;    1,955
547,413;13485,101;    0,157;   -0,773
547,996;13978,621;    0,157;    0,500
548,579;13733,329;   -0,843;    0,955
549,161;13546,515;    0,884;    2,682
549,744;13326,405;    0,612;    0,409
550,326;13796,089;    0,885;   -1,136
550,909;13614,770;    2,339;    0,591
551,492;13949,853;    0,521;    0,227
552,074;13742,715;   -0,024;   -1,318
552,657;14240,489;    2,430;    0,045
553,239;14042,292;   -3,024;   -0,773
553,821;13954,715;   -1,570;    1,045
554,404;13463,396;   -0,024;    1,136
554,986;13831,142;    2,248;    1,045
555,568;14361,672;    0,430;   -0,955
556,151;13665,971;    4,067;   -0,227
556,733;13881,611;   -1,388;   -0,864
557,315;14253,025;    4,703;    0,500
557,897;14001,268;    0,521;   -0,500
558,479;14155,886;    1,703;    1,318
559,061;14260,433;    1,067;   -0,864
559,643;14548,615;   -0,297;    0,045
560,225;14845,768;   -0,388;    2,864
560,807;14861,069;    0,340;    0,318
561,389;14426,101;   -1,206;    2,318
561,971;15034,934;   -0,660;    2,136
562,553;14878,162;    0,613;    1,591
563,135;15020,704;    1,249;    1,136
563,717;14645,065;    3,158;    1,136
564,298;15245,968;    3,976;   -0,045
564,880;14938,853;    0,340;   -1,409
565,462;15098,217;    1,977;    1,318
566,043;16083,938;   -0,933;    2,318
566,625;15656,323;    4,067;    1,227
567,207;15471,942;    0,704;    1,682
567,788;16406,927;   -0,114;    1,500
568,370;17071,284;   -1,841;   -0,500
568,951;16849,665;   -0,569;    0,227
569,533;17624,624;    0,977;   -0,500
570,114;18007,771;   -0,296;    0,682
570,695;18386,310;   -0,478;   -1,318
571,277;18737,965;   -0,205;   -1,682
571,858;19359,290;    2,704;   -1,136
572,439;20147,724;    0,795;   -1,045
573,021;20221,899;    0,432;   -2,773
573,602;20599,901;    1,795;    0,318
574,183;21356,330;   -0,114;    2,227
574,764;21347,825;    2,068;    0,409
575,345;21791,229;    0,250;   -0,136
575,926;22315,576;    2,704;    0,136
576,507;22282,195;    2,704;   -0,227
577,088;23267,172;    1,704;    1,682
577,669;23194,656;    1,704;    1,955
578,250;23836,330;   -0,750;   -1,045
578,831;24317,679;   -0,841;   -2,227
579,412;24536,226;   -1,205;    0,955
579,993;25373,503;    1,432;    0,227
580,573;25636,324;   -0,023;   -0,955
581,154;24662,749;    1,613;   -0,591
581,735;25475,108;    0,341;    0,773
582,315;24987,472;    0,523;    2,136
582,896;25258,552;   -1,750;    1,227
583,477;24790,681;    0,614;    1,227
584,057;24957,116;    1,159;    0,955
584,638;25211,503;   -2,750;    2,318
585,218;25248,341;    2,886;    2,682
585,799;25388,533;    1,977;   -0,227
586,379;25374,808;    1,250;    1,591
586,959;24334,922;    2,613;    0,318
587,540;23802,763;    0,432;    2,227
588,120;23421,558;   -1,113;   -0,045
588,700;22604,068;    2,977;    2,136
589,281;22864,277;    1,250;   -0,955
589,861;22765,173;   -0,296;   -1,682
590,441;22661,417;   -1,477;   -2,682
591,021;21734,252;    1,432;   -2,591
591,601;21995,616;    0,431;    0,500
592,181;22051,542;   -1,296;   -0,773
592,761;21382,101;    2,250;    1,409
593,341;21381,829;    1,522;    0,045
593,921;21369,694;   -0,569;    1,591
594,501;21224,582;    1,250;    1,318
595,081;21050,578;    0,522;   -0,318
595,661;21416,958;    1,068;    0,955
596,240;21928,184;   -1,023;    0,136
596,820;21501,882;    2,613;    1,955
597,400;21573,590;    1,977;    0,773
597,980;21799,559;   -0,750;    1,045
598,559;21844,290;    0,341;   -0,227
599,139;21629,709;   -0,750;   -1,227
599,718;21504,527;    0,795;   -0,409
600,298;21748,313;   -2,387;    0,682
600,877;21958,586;    4,795;    1,409
601,457;22201,193;    0,340;    1,136
602,036;22148,546;    1,795;    2,045
602,616;22316,034;    2,250;    1,682
603,195;22609,123;    0,431;    3,500
603,774;22127,973;   -0,296;    2,045
604,354;22023,999;    2,522;   -0,500
604,933;21636,043;    0,250;    1,864
605,512;21722,639;    2,340;    0,591
606,091;21764,885;    1,886;    3,773
606,671;22502,876;    0,249;    0,773
607,250;21678,288;    1,431;    3,136
607,829;21897,320;    1,158;    3,227
608,408;21783,267;    4,613;    2,591
608,987;20925,196;    2,704;    3,409
609,566;21170,391;    0,341;   -2,500
610,145;21291,179;    2,885;    0,682
610,723;21709,663;    1,613;    6,864
611,302;20984,750;    1,067;    1,682
611,881;20518,944;    5,158;   11,227
612,460;21305,585;    0,795;    3,955
613,039;21669,031;    1,703;    2,045
613,617;20495,077;    0,886;    4,773
614,196;20669,790;    1,613;    1,227
614,775;20971,050;    1,249;    2,409
615,353;20944,078;   -1,660;    0,864
615,932;20714,991;    0,249;    2,409
616,510;21274,799;    0,158;    0,591
617,089;20861,359;    8,794;   17,591
617,667;20660,152;    4,885;    6,136
618,246;20543,247;   -1,115;    1,318
618,824;20652,321;    1,612;   -0,955
619,402;20244,936;    0,431;   -1,773
619,981;20718,575;    1,067;   -1,045
620,559;20534,924;    0,794;    1,682
621,137;20150,046;    3,067;    1,864
621,715;20164,440;    3,703;   -0,682
622,293;20066,044;    1,885;   -0,773
622,871;20541,389;    0,340;    0,500
623,450;20170,148;    0,430;   -0,864
624,028;20075,968;   -0,388;   -0,955
624,606;19742,679;    2,339;    1,682
625,183;20078,134;   -0,661;   -1,136
625,761;19762,427;    1,885;    1,136
626,339;20044,004;    2,339;    2,591
626,917;20341,872;    0,339;   -0,045
627,495;20438,922;    2,794;    1,318
628,073;19933,172;    5,248;    2,864
628,650;19607,005;    3,067;    2,136
629,228;20002,983;    1,248;    4,409
629,806;19472,871;   -0,024;    1,136
630,383;19700,208;    0,066;   -0,318
630,961;19571,349;   -2,206;   -0,955
631,539;19318,136;   -2,479;    0,227
632,116;18754,713;   12,703;   15,409
632,694;19271,256;    4,885;    6,500
633,271;19460,502;    1,975;    2,682
633,848;19427,479;    1,430;    2,045
634,426;19425,599;    1,521;    1,773
635,003;18718,520;   -0,207;   -0,409
635,580;18948,331;    1,884;    3,682
636,158;19438,080;    3,793;    1,227
636,735;19386,253;    3,339;   -0,500
637,312;19534,077;    0,521;   -0,682
637,889;19598,682;    2,248;   -0,682
638,466;19203,367;    0,066;   -0,409
639,043;19194,186;    1,702;   -1,136
639,620;19449,002;    0,611;   -0,955
640,197;19747,043;    1,612;    1,682
640,774;19880,308;    1,430;    1,136
641,351;20173,482;    0,612;    1,136
641,928;19697,838;    2,794;    1,409
642,505;19349,285;    0,794;   -0,500
643,082;19488,368;    1,885;    1,227
643,658;18619,088;    1,157;    1,500
644,235;19196,171;   -2,479;    2,500
644,812;19418,891;    1,794;    0,773
645,388;19231,065;    1,612;    1,409
645,965;19315,421;    1,521;    1,682
646,542;19406,686;    3,430;   -0,227
647,118;19393,497;    3,703;   -0,955
647,695;19647,671;    0,339;    1,136
648,271;19594,663;   -2,115;    0,500
648,848;19847,838;    0,248;    2,227
649,424;19694,557;    0,976;    1,318
650,000;19458,732;   -0,388;   -1,045
650,577;19288,269;    0,158;   -0,955
651,153;19664,807;   -1,115;    0,955
651,729;20554,345;    0,521;    0,864
652,305;20647,883;    1,339;    2,773
652,881;23977,330;   -1,297;    1,136
653,458;29375,504;    0,249;    0,227
654,034;32354,496;    0,703;    1,591
654,610;33489,125;    0,339;    0,773
655,186;34648,209;    1,612;    3,045
655,762;34367,746;   -1,842;    0,409
656,338;34427,921;    0,703;    0,136
656,913;35346,004;   -0,297;    0,409
657,489;34693,451;    0,249;   -0,318
658,065;34662,625;    0,794;   -1,591
658,641;35261,163;    2,158;   -0,864
659,217;34623,792;    2,067;    0,409
659,792;34129,420;   -1,751;   -0,409
660,368;34477,140;   -0,388;   -0,682
660,944;34375,951;    1,794;    1,227
661,519;30765,943;    0,522;    0,409
662,095;25961,299;   -0,206;    0,591
662,670;22193,201;   -0,206;   -0,136
663,246;21251,193;   -0,660;   -0,409
663,821;20738,276;    0,431;    1,682
664,396;20209,996;    0,613;    1,864
664,972;20453,897;   -0,660;   -0,500
665,547;20720,253;    3,794;    0,136
666,122;20755,973;    1,340;    0,318
666,698;21020,602;    2,431;    0,318
667,273;20347,321;    0,885;    0,136
667,848;21116,132;    0,340;    1,500
668,423;20859,124;    1,795;    2,318
668,998;21287,571;    0,976;   -0,682
669,573;21752,291;    2,067;   -1,500
670,148;21622,647;    1,885;   -0,682
670,723;21418,730;   -0,024;    0,318
671,298;21834,541;   -1,296;    1,045
671,873;21883,533;   -0,296;   -0,136
672,448;21778,253;    1,704;    0,136
673,023;22100,427;    0,249;   -0,227
673,597;22441,601;    2,704;    2,318
674,172;22232,321;    2,431;    0,318
674,747;21744,132;   -0,205;   -1,045
675,321;21532,033;   -0,933;    3,318
675,896;21185,753;    2,158;    1,045
676,471;22070,836;    2,522;    1,591
677,045;21787,010;   -0,296;    0,682
677,620;21840,730;    2,158;    1,136
678,194;22139,268;    0,249;    1,136
678,769;21808,806;    0,886;   -0,318
679,343;21990,707;   -0,023;    1,773
679,917;21886,881;    0,340;    1,955
680,492;21907,237;    0,249;    3,227
681,066;22031,321;    0,613;    0,409
681,640;22083,859;    1,795;   -0,318
682,214;22787,487;    2,340;    0,500
682,788;22333,480;    0,613;   -0,773
683,363;22259,290;    1,977;    1,682
683,937;21921,374;    0,886;   -0,318
684,511;22655,366;   -1,023;   -0,591
685,085;22418,449;   -1,478;    0,318
685,659;22091,351;    1,431;    0,864
686,232;22404,525;    1,159;   -0,318
686,806;22144,426;    2,159;    0,409
687,380;22683,783;   -1,932;    0,591
687,954;22898,502;    2,432;    1,136
688,528;22605,676;    2,613;    1,955
689,101;23326,396;    0,432;    1,045
689,675;22931,388;    0,886;   -0,136
690,249;22345,744;    3,432;    0,409
690,822;22709,737;    1,159;    0,318
691,396;22772,093;    2,068;    1,227
691,969;22304,085;    2,523;    0,136
692,543;22738,623;   -0,568;   -1,955
693,116;22426,979;   -0,659;   -1,409
693,690;22263,881;   -0,296;    0,500
694,263;22788,873;    2,341;    2,955
694,836;22740,593;    2,795;    3,591
695,410;21532,494;    1,159;    1,773
695,983;21948,668;    1,614;    0,591
696,556;21926,843;   -0,750;   -1,045
697,129;22278,744;   -1,114;    1,409
697,703;21938,555;    1,341;    1,955
698,276;21949,365;    1,705;   -0,773
698,849;21809,630;   -1,023;    1,409
699,422;22168,623;    1,250;    0,591
699,995;21920,979;   -0,659;    0,136
700,568;22356,517;   -0,204;    3,045
701,140;22338,873;   -1,841;    1,682
701,713;22079,229;    0,341;    2,409
702,286;21873,403;    0,796;    0,864
702,859;21772,668;    0,614;   -0,591
703,432;21063,479;   -0,841;    0,682
704,004;21481,653;    1,978;    0,318
704,577;21352,282;    1,068;    0,136
705,150;21863,819;    0,887;    2,500
705,722;21676,539;    1,523;   -3,227
706,295;21481,622;    1,432;   -0,591
706,867;21331,706;    0,250;    1,955
707,440;21562,971;   -0,113;   -0,409
708,012;21768,236;   -0,022;    0,591
708,584;21678,228;    2,705;    0,227
709,157;21954,675;    1,160;   -0,591
709,729;21672,940;    1,069;    2,045
710,301;22441,296;   -1,204;    0,045
710,874;22445,652;    0,341;   -0,227
711,446;21395,645;   -0,295;    0,864
712,018;21249,728;   -3,022;    0,500
712,590;21039,721;   -0,204;    1,682
713,162;21518,531;   -0,477;    1,318
713,734;21760,160;    1,796;   -2,045
714,306;21652,243;    0,342;   -0,409
714,878;20476,872;   -0,295;    0,864
715,450;21249,864;   -0,113;    0,864
716,022;21481,675;    2,433;    1,318
716,593;21642,667;    0,978;    0,591
717,165;21562,387;    1,796;   -1,227
717,737;21359,925;    0,796;    0,409
718,309;21067,463;    1,160;   -0,045
718,880;21000,910;   -1,295;   -1,409
719,452;21216,720;    0,887;   -1,591
720,024;20864,531;    1,705;   -0,591
720,595;21401,432;    2,978;    0,955
721,167;20995,334;    1,160;   -2,045
721,738;20557,508;    2,069;   -1,045
722,309;20568,682;    1,251;   -1,227
722,881;20306,765;    2,705;    0,773
723,452;20848,576;    1,251;    2,864
724,023;21052,477;    1,524;    2,682
724,595;20870,197;    2,342;    0,682
725,166;20626,190;    1,524;   -0,409
725,737;20262,818;    1,887;    0,227
726,308;20408,356;    0,797;    0,318
726,879;20779,712;    1,069;    1,227
727,450;20652,341;   -2,022;   -0,045
728,021;20623,061;    1,069;    0,682
728,592;20486,689;    1,160;    0,500
729,163;20753,864;    1,433;   -0,136
729,734;20717,129;    2,160;   -0,227
730,305;21042,939;    0,615;    0,136
730,876;21309,932;    0,888;    2,955
731,447;21073,015;    0,797;    2,682
732,017;21158,553;   -0,840;    1,864
732,588;20732,091;   -0,021;    1,227
733,159;20841,992;    3,615;   -1,045
733,729;20682,985;    1,251;    0,409
734,300;20047,977;    0,160;    0,864
734,870;20448,151;   -1,385;    0,591
735,441;20968,507;    0,888;   -0,591
736,011;20747,227;    1,070;   -1,591
736,582;20674,492;    1,251;    0,045
737,152;20168,575;    0,979;   -2,045
737,722;20635,022;    1,070;   -0,682
738,293;20396,469;   -2,021;    1,318
738,863;20284,643;    1,797;    2,318
739,433;20104,363;    4,524;    0,318
740,003;20690,901;    1,524;   -0,682
740,573;20167,711;    2,252;   -1,591
741,143;20147,340;    3,615;    0,318
741,713;20835,787;    0,252;   -0,500
742,283;20595,870;    1,706;    1,591
742,853;20373,499;    0,524;    1,591
743,423;19917,764;    0,161;    0,045
743,993;19992,757;    1,070;    1,500
744,563;19433,931;    2,524;   -0,864
745,133;19390,287;   -0,112;   -0,864
745,702;20013,734;    2,797;    1,773
746,272;19325,908;    0,434;    0,591
746,842;19113,082;   -0,748;   -0,591
747,411;19521,984;   -0,839;   -0,318
747,981;19635,976;   -0,930;    0,500
748,551;19686,514;   -0,021;   -1,045
749,120;19558,416;   -0,112;   -0,227
749,690;19884,135;    2,161;    2,409
750,259;20211,309;    0,979;    2,955
750,828;20139,302;    4,070;   -1,955
751,398;20379,112;   -0,112;   -0,045
751,967;19903,196;    2,888;    0,409
752,536;20056,824;    1,161;   -0,227
753,105;20512,271;   -1,384;    0,227
753,675;20279,900;   -0,112;    1,773
754,244;20215,347;    0,888;    3,591
754,813;20228,158;    0,979;    1,227
755,382;19870,514;    0,798;    0,955
755,951;20309,415;   -0,112;    3,682
756,520;19942,226;    2,525;    1,864
757,089;20419,673;    1,888;    0,500
757,658;20516,756;    2,434;    1,227
758,227;20537,839;   -1,111;    0,318
758,795;20784,650;   -1,021;    1,136
759,364;21053,006;    0,525;   -0,591
759,933;20152,998;    1,343;   -0,045
760,501;19726,082;    0,252;   -1,318
761,070;20147,438;   -0,293;   -1,409
761,639;20792,794;    1,434;    1,318
762,207;20150,059;    0,889;   -0,955
762,776;20078,778;    2,889;    0,864
763,344;20076,316;    0,071;    0,591
763,913;19222,763;    1,616;    1,409
764,481;19934,119;    1,980;   -0,136
765,049;19797,112;    0,616;    1,409
765,618;19681,195;    1,434;    0,318
766,186;19779,005;    2,434;    0,136
766,754;19946,089;    1,798;    1,864
767,322;19047,808;    1,162;    0,409
767,890;19057,346;    0,525;   -1,773
768,459;19443,793;    2,616;   -0,318
769,027;19589,967;    2,525;    3,409
769,595;18686,142;    2,616;    2,591
770,163;19055,498;    3,344;    2,955
770,730;18883,763;    2,525;   -0,136
771,298;18735,846;    1,162;   -1,409
771,866;18854,384;    0,253;    4,955
772,434;19115,558;    1,162;   -1,864
773,002;19263,732;    2,616;    0,682
773,569;18998,543;    1,071;    1,682
774,137;18798,444;    0,889;   -0,045
774,705;19470,891;   -0,747;   -0,136
775,272;19081,429;    0,253;    0,682
775,840;18938,149;   -0,111;    2,682
776,407;18461,869;   -0,293;    1,955
776,975;18083,588;    1,162;    0,318
777,542;19028,126;    2,162;   -0,045
778,110;18915,028;    0,707;   -0,045
778,677;18594,111;    1,071;   -0,864
779,244;18373,012;   -1,020;    1,045
779,812;18484,368;    0,980;    0,864
780,379;18338,997;    2,435;    1,136
780,946;18563,808;    2,617;   -0,773
781,513;18831,527;   -0,565;    0,318
782,080;18248,611;    1,253;    2,864
782,647;18917,058;    1,708;    3,045
783,214;18575,777;   -0,201;    3,864
783,781;18227,951;    1,708;   -0,682
784,348;18100,398;    0,253;    1,500
784,915;18540,573;   -1,474;    0,318
785,482;18347,929;    2,708;    2,591
786,049;18740,467;    1,071;   -0,591
786,615;18866,823;    1,708;   -0,955
787,182;18654,088;   -3,201;   -0,682
787,749;18315,807;   -2,201;    1,409
788,315;17701,527;    0,253;   -0,409
788,882;18012,156;    0,981;   -1,227
789,448;18636,057;    1,435;   -0,955
790,015;18666,322;    1,799;    3,227
790,581;18226,042;    0,708;    0,227
791,148;18122,762;    1,344;    1,045
791,714;18332,027;   -1,019;    3,136
792,280;18085,292;    3,708;    1,591
792,847;17754,375;   -0,928;    2,500
793,413;18167,459;   -0,110;   -0,318
793,979;17811,360;    1,526;   -1,318
794,545;17891,080;    2,981;    2,682
795,111;17384,163;    2,435;    1,318
795,678;17557,246;    3,526;   -1,682
796,244;17216,875;    2,799;    0,136
796,810;17728,595;    0,799;    0,773
797,375;17484,223;   -0,292;   -2,136
797,941;17479,761;   -1,110;    0,591
798,507;17585,208;    0,254;   -0,955
799,073;17219,473;    2,708;    0,591
799,639;17275,738;    1,435;    3,136
800,205;17322,913;   -1,565;    2,682
800,770;16973,178;    1,345;    1,773
801,336;16972,897;    2,981;   -0,955
801,901;16709,526;    6,072;    3,136
802,467;17254,700;    0,526;    2,045
803,033;16648,693;   -0,019;    0,864
803,598;16831,685;    1,072;   -1,045
804,163;16921,950;    0,708;   -0,318
804,729;16830,306;   -0,110;    1,136
805,294;17185,844;    1,072;    2,227
805,859;17004,564;    0,890;   -0,409
806,425;16570,738;    3,890;    2,682
806,990;16247,094;    1,890;    4,318
807,555;16602,541;   -0,110;    2,591
808,120;16580,352;   -1,292;   -0,409
808,685;16629,162;    1,072;   -2,500
809,250;16207,518;    2,072;   -0,500
809,815;16476,329;   -0,201;    0,682
810,380;16980,776;    0,981;    1,591
810,945;17430,586;    2,890;    2,045
811,510;16727,851;   -0,200;    1,591
812,075;16447,026;    2,800;   -1,409
812,640;16472,927;    3,709;    1,409
813,204;16539,374;    2,163;   -0,227
813,769;16977,276;    0,254;   -0,045
814,334;16476,904;    0,527;    0,864
814,898;16562,533;    1,981;    0,591
815,463;16355,616;    0,981;   -0,773
816,027;16329,700;    1,345;   -2,318
816,592;16471,783;    2,163;   -2,045
817,156;16034,412;   -2,200;    1,136
817,721;15973,041;    0,982;    2,318
818,285;15943,033;    0,618;    1,500
818,849;16472,934;   -0,018;    1,682
819,414;16336,472;    0,073;    2,955
819,978;16015,737;   -0,291;    1,773
820,542;16523,275;    2,891;    0,500
821,106;16327,268;    2,800;    0,682
821,670;16389,078;    2,709;    2,591
822,234;16139,889;    1,073;    1,409
822,798;15611,063;   -0,836;    0,500
823,362;15620,510;    1,527;    4,227
823,926;15042,502;   -0,018;    1,136
824,490;15222,767;    3,527;   -0,682
825,054;15613,760;    2,527;   -1,136
825,618;15320,752;   -1,200;   -1,500
826,181;15276,654;    0,982;   -1,318
826,745;15203,646;   -0,745;   -1,045
827,309;15547,366;    2,255;    1,318
827,872;15035,267;    0,527;    0,955
828,436;15892,169;    1,982;   -0,773
828,999;15983,343;    2,436;    1,227
829,563;14943,154;   -0,654;    1,136
830,126;14780,782;   -0,018;   -0,591
830,690;14827,684;    0,709;    2,864
831,253;14369,767;   -0,473;    2,227
831,816;14508,850;   -0,018;    0,500
832,380;14462,934;    1,164;    0,864
832,943;14692,108;    3,073;   -0,500
833,506;14187,100;    0,255;   -1,227
834,069;14871,184;    2,164;   -0,955
834,632;14976,540;   -2,200;    1,318
835,195;14915,714;    1,346;    0,955
835,758;14218,888;    0,709;    1,955
836,321;14067,971;    1,073;   -1,045
836,884;14151,600;   -1,291;   -0,955
837,447;14190,956;    0,528;    1,773
838,010;14433,403;    1,800;    3,227
838,573;14701,577;    0,528;    0,773
839,135;14691,842;   -0,109;   -0,955
839,698;14187,653;    2,528;    0,409
840,261;13764,373;    0,255;   -0,227
840,823;13664,001;   -0,927;    0,864
841,386;13930,448;   -0,018;   -2,409
841,948;13861,986;    0,255;    1,773
842,511;13616,888;    0,255;    1,682
843,073;13711,335;    2,982;    0,227
843,636;13552,236;    0,619;   -0,227
844,198;13496,956;    1,255;    0,591
844,760;13616,675;    0,619;    1,955
845,322;13278,850;    0,164;    1,136
845,885;13680,751;   -0,290;    0,591
846,447;14099,289;    0,710;    0,227
847,009;13687,190;    3,983;   -0,682
847,571;13947,637;    1,346;   -2,045
848,133;14044,266;   -0,199;   -1,864
848,695;13879,440;    2,346;    1,409
849,257;13527,342;    1,346;   -1,682
849,819;13677,334;    2,983;   -0,409
850,381;13707,872;    1,801;   -0,864
850,942;13978,501;    1,892;   -0,591
851,504;13909,039;    0,983;    0,227
852,066;13975,395;    1,619;   -1,591
852,628;13602,296;    0,165;    1,955
853,189;13172,925;    0,256;    2,682
853,751;13302,372;   -0,654;    1,409
854,312;13115,273;    1,256;   -1,682
854,874;13551,266;   -0,108;   -0,773
855,435;13942,804;    0,528;   -1,682
855,997;14121,432;    3,983;   -0,136
856,558;13478,152;    0,801;    1,773
857,119;13607,963;   -0,744;    2,864
857,681;13346,864;   -0,108;    0,318
858,242;13346,038;    1,347;   -2,136
858,803;13741,576;    1,074;   -0,773
859,364;14256,932;    0,892;   -4,773
859,925;13730,652;   -0,290;   -0,955
860,486;13608,553;    0,529;   -0,955
861,047;13351,909;    0,165;   -1,227
861,608;13201,720;    0,165;   -0,773
862,169;13408,440;   -0,562;   -0,045
862,730;13130,977;   -0,290;    1,409
863,291;13341,970;    0,438;   -0,500
863,852;13657,144;   -0,926;    1,955
864,412;13181,318;   -1,835;   -0,864
864,973;11982,038;    1,892;    0,500
865,534;11827,848;    2,074;    0,227
866,094;13159,477;    2,620;    0,227
866,655;12869,379;    4,711;    3,318
867,215;13163,098;    0,074;    0,136
867,776;13022,364;   -1,199;   -0,136
868,336;13073,083;    1,529;    0,136
868,897;12677,348;    3,438;    1,682
869,457;12451,523;    3,256;    0,318
870,017;12703,788;    2,438;   -1,227
870,578;13124,871;    1,893;    0,773
871,138;12800,863;    2,620;   -0,955
871,698;12395,947;   -0,562;   -1,318
872,258;12261,575;    0,711;   -2,864
872,818;12605,477;    2,347;    0,045
873,378;12611,197;   -2,198;    1,045
873,938;12209,371;    4,984;    0,500
874,498;12483,363;    1,256;   -1,955
875,058;12428,810;    4,347;    1,773
875,618;12275,530;    1,438;   -2,682
876,177;12209,340;   -0,471;    0,136
876,737;11863,605;   -0,289;    1,955
877,297;11915,780;    2,711;    1,955
877,856;11947,954;    2,529;    0,318
878,416;11920,219;    2,438;   -0,136
878,976;12071,939;    3,438;    0,409
879,535;12241,204;    4,529;    3,136
880,095;12067,923;    1,347;    0,045
880,654;12119,916;    0,347;    1,318
881,213;12195,908;    2,347;    1,500
881,773;11895,264;    1,984;    2,682
882,332;12277,711;    6,075;    5,136
882,891;12143,794;    0,711;    2,136
883,451;12504,332;   -2,016;    1,682
884,010;11985,052;   -1,107;   -0,409
884,569;12093,226;   -2,289;   -0,045
885,128;12178,219;   -0,743;   -1,864
885,687;12265,302;   -0,743;    0,682
886,246;12026,840;    2,620;    2,136
886,805;11755,650;    1,620;    2,045
887,364;11980,552;    1,166;   -0,500
887,922;12288,999;   -0,016;    0,045
888,481;11858,446;    1,530;    0,591
889,040;12141,893;    3,711;    2,136
889,599;12686,976;    2,166;    1,409
890,157;12764,605;    2,166;    2,409
890,716;12386,779;    2,166;    0,227
891,274;12195,408;    0,075;   -1,136
891,833;12603,127;    1,166;    0,864
892,391;12482,574;    1,802;    0,500
892,950;12556,112;    0,166;   -0,773
893,508;12870,741;    0,984;   -0,409
894,067;12307,915;   -0,379;    0,136
894,625;12191,271;   -1,016;   -1,500
895,183;12383,445;   -0,198;   -0,682
895,741;12359,347;    2,257;   -1,773
896,299;12185,521;    1,621;   -2,409
896,858;12346,968;    1,530;   -1,591
897,416;12486,233;    0,166;   -1,318
897,974;12267,680;   -2,197;    0,318
898,532;12407,581;    6,530;    2,682
899,089;12318,665;    0,621;   -0,682
899,647;12387,566;    0,530;    1,318
900,205;12156,104;    0,257;    1,045
900,763;12342,097;    2,166;    0,227
901,321;12378,725;    3,530;   -1,409
901,878;11861,627;    3,257;   -0,773
902,436;11784,074;    0,257;    1,318
902,994;12143,975;    6,712;    3,682
903,551;11656,058;    1,439;    0,409
904,109;12048,960;    1,530;   -1,409
904,666;11721,407;    1,439;    1,045
905,224;11543,217;    3,894;   -0,409
905,781;11320,574;   -0,470;   -0,318
906,338;11384,657;    0,167;    1,045
906,895;11343,831;    1,894;    2,045
907,453;11306,642;    2,348;    1,136
908,010;11342,452;    3,348;    0,409
908,567;11010,808;   -0,561;    0,591
909,124;10593,892;    2,439;   -1,500
909,681;10648,702;   -1,288;    0,682
910,238;10875,331;   -0,106;   -1,318
910,795;11166,141;   -1,561;   -1,136
911,352;10821,778;   -0,379;   -2,682
911,909;10310,687;    2,803;   -0,864
912,466;10793,414;    1,985;    1,500
913,022;10339,414;   -0,924;    0,500
913,579;10697,414;   -0,470;    2,045
914,136;10476,505;   -2,561;    0,955
914,692;10786,323;    1,530;   -1,227
915,249;10403,960;    0,530;    0,409
915,806;10609,232;    1,803;    1,955
916,362;10431,869;    0,894;    1,864
916,918;10019,141;    2,439;    1,045
917,475;10034,596;    1,621;    0,955
918,031;10096,232;    0,076;   -0,045
918,587; 9655,778;    0,621;   -0,318
919,144; 9895,687;   -0,379;    0,227
919,700;10130,869;    0,167;    0,773
920,256; 9764,323;    0,439;    0,045
920,812; 9502,141;    1,439;   -1,045
921,368; 9512,323;    1,348;   -1,045
921,924; 9209,232;    0,439;   -0,136
922,480; 8891,505;    0,076;    1,227
923,036; 9443,323;   -0,652;    1,955
923,592; 9402,141;    0,621;    0,318
924,148; 9311,414;    1,894;   -0,955
924,704; 8764,141;    0,258;   -0,409
925,259; 9086,687;   -0,561;    0,591
925,815; 8846,778;    3,803;    0,500
926,371; 8446,141;    3,530;    1,409
926,926; 8366,051;    1,621;    0,591
927,482; 8073,232;    1,621;    0,773
928,037; 7998,323;   -0,833;    2,045
928,593; 8317,414;    0,258;    1,045
929,148; 8161,323;    1,167;   -1,500
929,704; 7737,141;    2,439;   -0,500
930,259; 7927,505;    0,894;   -0,136
930,814; 7199,141;    1,803;    1,955
931,369; 6963,778;    0,258;   -0,773
931,925; 6887,596;   -1,924;    0,136
932,480; 6800,141;    3,076;   -2,591
933,035; 6785,960;    3,985;   -0,318
933,590; 6594,232;   -1,742;   -1,773
934,145; 6331,687;   -1,288;   -0,318
934,700; 6614,232;    0,348;   -0,591
935,255; 6492,323;    4,803;    0,045
935,809; 5968,687;    6,258;    0,864
936,364; 5261,051;    2,167;   -0,136
936,919; 5307,778;    2,348;   -1,773
937,474; 5230,505;    1,348;    0,136
938,028; 5048,051;    3,076;    1,136
938,583; 4719,141;    6,348;    4,682
939,138; 4921,232;    0,167;    2,136
939,692; 4462,323;   -1,015;   -1,136
940,247; 4237,596;    1,167;   -1,045
940,801; 3961,505;    0,621;    0,227
941,355; 3905,869;    0,439;    2,591
941,910; 3611,051;    0,712;   -2,136
942,464; 3714,232;    2,712;   -0,318
943,018; 3625,778;    3,258;   -0,227
943,572; 3554,687;    2,803;   -0,682
944,126; 3136,051;   -0,924;   -0,409
944,681; 3026,323;    0,712;    0,227
945,235; 3000,141;    2,167;   -0,591
945,789; 2956,141;    1,258;   -1,864
946,342; 3137,141;   -0,561;   -0,591
946,896; 2905,869;    0,348;    0,955
947,450; 2702,687;   -0,561;   -0,227
948,004; 2939,323;    1,076;   -0,045
948,558; 2892,323;    1,258;   -0,864
949,111; 2826,960;   -1,197;   -0,318
949,665; 2931,232;   -0,106;   -0,682
950,219; 2846,869;    0,621;   -1,045
950,772; 2857,505;    0,258;    1,864
951,326; 2794,323;   -1,106;   -0,955
951,879; 2838,323;    1,076;   -2,318
952,433; 2877,778;    1,348;    2,227
952,986; 2717,869;    0,348;    0,682
953,539; 2665,323;    1,530;    0,591
954,093; 2613,232;    0,985;   -1,318
954,646; 2755,687;   -0,288;    1,318
955,199; 2590,323;    1,258;   -0,500
955,752; 2577,414;    1,985;    1,773
956,305; 2504,414;    0,894;    2,955
956,858; 2619,687;    0,621;   -0,318
957,411; 2767,778;    3,621;    2,136
957,964; 2606,323;    2,076;    2,136
958,517; 2580,778;    0,985;    3,136
959,070; 2473,232;   -1,197;    1,955
959,623; 2631,323;    1,076;    1,500
960,176; 2431,414;    0,712;    2,045
960,728; 2408,596;    1,712;    0,773
961,281; 2447,323;    2,258;    0,500
961,834; 2458,960;   -0,833;    0,864
962,386; 2383,960;    1,258;    1,045
962,939; 2313,414;    3,439;   -0,318
963,491; 2440,232;    2,621;    1,136
964,043; 2320,323;    0,076;    2,409
964,596; 2465,323;    1,712;    2,227
965,148; 2312,232;   -0,379;    1,773
965,700; 2261,323;   -0,015;   -0,227
966,253; 2400,960;   -0,833;    0,318
966,805; 2277,960;    1,894;    0,773
967,357; 2270,505;    0,439;   -1,500
967,909; 2294,414;    1,167;   -1,227
968,461; 2328,505;    0,894;    3,136
969,013; 2270,687;   -1,561;   -0,864
969,565; 2334,414;    1,803;   -1,136
970,117; 2542,414;    3,803;    1,045
970,669; 2293,141;    3,258;   -0,136
971,220; 2127,869;    2,167;   -1,500
971,772; 2104,051;    1,348;   -0,318
972,324; 2241,596;   -1,197;   -0,500
972,876; 2151,869;    0,167;   -0,045
973,427; 2312,141;   -1,197;   -1,045
973,979; 2303,232;    0,076;   -2,500
974,530; 2237,323;    0,803;    1,318
975,082; 2260,960;    2,167;    1,682
975,633; 2191,141;    2,894;    1,682
976,184; 2331,323;    2,076;    0,773
976,736; 2193,141;    0,348;    0,227
977,287; 2052,141;    0,258;   -0,500
977,838; 2168,869;   -0,924;   -0,318
978,389; 2206,232;    0,803;   -0,500
978,940; 2047,414;    1,258;   -0,409
979,491; 2074,414;    2,258;   -0,500
980,042; 2089,596;   -0,652;    3,045
980,593; 2105,596;    1,894;    0,227
981,144; 2199,505;    3,530;   -0,500
981,695; 2217,778;   -0,470;    1,500
982,246; 2163,687;   -1,833;    1,045
982,797; 2221,323;   -0,561;    0,682
983,347; 2327,141;    2,167;    0,591
983,898; 2510,414;    4,167;    0,409
984,449; 2370,414;    2,530;    0,773
984,999; 2229,687;    1,894;   -1,136
985,550; 2068,596;    3,167;   -0,318
986,100; 2047,141;    0,712;   -0,318
986,651; 2060,232;    0,258;    0,045
987,201; 2067,414;    0,894;   -0,591
987,751; 2142,051;   -0,288;    2,864
988,302; 2142,414;   -0,379;    1,500
988,852; 2153,960;    1,985;   -1,136
989,402; 2233,505;    0,985;    0,682
989,952; 2167,141;    1,621;    0,864
990,502; 2200,596;    1,076;    0,682
991,052; 2130,869;   -0,106;    0,045
991,602; 2051,051;    1,167;    1,318
992,152; 2078,687;    2,803;    0,682
992,702; 2049,687;    1,167;   -0,045
993,252; 1999,141;    0,076;   -0,500
993,802; 2094,323;    1,167;    1,318
994,352; 2258,505;   -0,742;    1,136
994,901; 2284,778;    1,076;    3,227
995,451; 2221,141;   -1,197;    0,318
996,000; 2293,960;    1,076;    0,318
996,550; 2072,869;    2,894;    0,227
997,100; 2099,687;   -0,561;   -0,045
997,649; 2347,141;   -0,197;    0,955
998,198; 2036,960;   -0,288;   -1,500
998,748; 2223,051;    0,348;   -2,318
999,297; 2109,596;    0,985;   -0,409
999,846; 2216,323;    1,894;   -0,773
1000,395; 2204,141;    1,530;    0,500
1000,945; 2245,141;    1,076;   -0,773
1001,494; 2305,778;    0,167;    0,682
1002,043; 2262,505;    0,712;    0,864
1002,592; 2076,505;    3,439;    1,955
1003,141; 2202,414;    2,439;   -0,682
1003,690; 2134,323;    1,258;    0,500
1004,238; 2151,687;   -0,106;   -0,045
1004,787; 1861,141;   -1,288;    1,227
1005,336; 2121,960;    1,621;    0,682
1005,885; 2193,232;   -0,197;   -2,773
1006,433; 2252,505;   -0,470;    0,955
1006,982; 2420,323;    2,167;    1,682
1007,531; 2280,869;    2,712;   -0,227
1008,079; 2191,596;    0,258;    0,500
1008,627; 2285,051;    1,621;    0,409
1009,176; 2089,778;    0,076;   -1,955
1009,724; 2134,414;   -2,742;    0,864
1010,273; 2249,051;    1,076;    0,500
1010,821; 2266,687;    1,076;    1,409
1011,369; 2051,687;    0,076;    1,318
1011,917; 2061,232;   -0,833;   -0,591
1012,465; 2293,051;    2,530;   -1,591
1013,013; 2356,778;    0,439;   -1,682
1013,561; 2309,869;   -1,288;   -0,773
1014,109; 2375,869;   -0,833;    1,682
1014,657; 2257,414;    1,348;    0,591
1015,205; 2297,323;    0,894;   -0,955
1015,753; 2295,960;    0,258;   -1,409
1016,301; 2355,414;    2,621;    3,045
1016,848; 2364,687;    2,167;    0,409
1017,396; 2416,687;    1,621;    0,045
1017,944; 2486,323;    2,621;    1,864
1018,491; 2255,869;   -0,197;    1,409
1019,039; 2526,960;   -0,652;    0,591
1019,586; 2371,778;    0,076;    1,682
1020,134; 2429,414;    0,712;    1,500
1020,681; 2450,323;    2,894;   -1,136
1021,228; 2427,505;   -0,561;   -2,227
1021,776; 2287,141;   -0,833;   -1,136
1022,323; 2537,323;    0,803;    0,773
1022,870; 2460,051;   -0,470;   -0,045
1023,417; 2421,960;    2,076;    1,864
1023,964; 2460,596;    0,621;    1,227
1024,511; 2357,505;   -0,652;    0,773
1025,058; 2204,232;    0,439;   -0,045
1025,605; 2217,051;   -1,742;    3,136
1026,152; 2476,505;   -0,106;   -0,591
1026,699; 2208,869;    0,167;    1,318
1027,245; 2340,505;    2,439;    0,318
1027,792; 2480,232;    0,712;    1,409
1028,339; 2458,323;    4,076;   -0,045
1028,885; 2293,141;    3,621;   -0,227
1029,432; 2244,505;   -0,106;    0,227
1029,978; 2335,869;    1,348;   -1,591
1030,525; 2242,505;    1,621;    0,409
1031,071; 2380,051;    0,348;    1,136
1031,618; 2591,596;    1,258;    1,682
1032,164; 2359,232;    2,076;    3,045
1032,710; 2389,051;    0,076;   -1,500
1033,256; 2307,596;    0,712;   -0,136
1033,803; 2235,869;   -0,288;    1,500
1034,349; 2016,232;    1,803;    0,136
1034,895; 2150,869;    2,621;   -0,318
1035,441; 2148,323;    0,439;    0,318
1035,987; 2196,505;   -2,288;   -0,682
1036,533; 2220,414;   -0,197;   -0,955
1037,078; 2433,141;    4,712;    1,682
1037,624; 2239,960;    2,439;   -0,955
1038,170; 2207,232;    1,712;   -0,318
1038,716; 2195,960;    2,167;   -0,409
1039,261; 2069,596;    2,167;   -0,773
1039,807; 2029,323;   -0,015;    3,409
1040,352; 2110,505;   -1,288;   -0,318
1040,898; 2120,596;    0,167;   -0,682
1041,443; 2036,232;    0,803;   -2,591
1041,989; 2188,232;    3,621;    1,591
1042,534; 2001,869;    0,985;    2,591
1043,079; 2048,687;    1,985;    0,955
1043,625; 1924,778;    0,258;    0,500
1044,170; 1992,505;    2,439;    1,045
1044,715; 2249,323;    0,167;    0,955
1045,260; 2071,778;   -0,833;   -0,955
1045,805; 2048,960;    0,258;   -0,591
1046,350; 1991,051;    0,530;   -0,409
1046,895; 2043,141;    0,803;    1,591
1047,440; 2017,505;    1,530;    0,409
1047,985; 1891,141;   -1,197;   -0,955
1048,530; 1800,232;    1,348;    1,227
1049,074; 1897,232;    2,803;    0,318
1049,619; 1839,141;   -0,924;    1,955
1050,164; 1695,778;    1,076;    0,227
1050,708; 1751,960;    2,621;    0,045
1051,253; 2142,960;    3,258;   -2,227
1051,797; 1861,960;   -0,197;   -1,318
1052,342; 1784,778;    1,348;    1,045
1052,886; 1829,141;    1,803;   -1,409
1053,430; 1683,505;    2,167;    0,136
1053,975; 1721,505;    0,894;   -0,318
1054,519; 1725,323;    1,803;    3,227
1055,063; 1785,232;    3,621;    1,318
1055,607; 1700,323;    1,348;    0,227
1056,151; 1705,051;    0,530;    1,682
1056,695; 1595,505;   -1,833;   -1,136
1057,239; 1654,960;   -1,197;   -0,682
1057,783; 1682,687;    2,258;   -1,500
1058,327; 1677,414;    3,076;    1,409
1058,871; 1919,051;    3,985;    1,318
1059,415; 1639,141;   -0,561;   -0,045
1059,958; 1913,596;    2,985;    2,591
1060,502; 1620,414;    1,348;   -0,773
1061,046; 1500,051;    1,712;   -0,955
1061,589; 1458,869;    2,803;   -1,136
1062,133; 1388,687;    0,985;    1,864
1062,676; 1354,323;    1,439;    0,864
1063,220; 1381,141;    0,985;    0,500
1063,763; 1405,414;    2,985;    1,136
1064,306; 1479,505;    0,985;    1,864
1064,849; 1397,141;    2,076;    0,591
1065,393; 1397,141;    2,894;   -1,500
1065,936; 1474,778;    2,530;   -0,409
1066,479; 1346,596;    2,621;    1,318
1067,022; 1370,141;    1,894;   -0,227
1067,565; 1283,414;   -1,197;   -1,318
1068,108; 1301,323;    1,258;   -0,591
1068,651; 1263,323;   -2,470;    1,409
1069,194; 1215,687;   -1,106;   -1,682
1069,736; 1235,596;    3,803;    0,955
1070,279; 1198,232;   -1,652;   -0,500
1070,822; 1292,232;    1,530;   -0,318
1071,364; 1408,323;    0,530;    1,318
1071,907; 1212,414;    0,348;    3,227
1072,450; 1079,141;    0,258;   -0,045
1072,992; 1114,869;   -0,561;    3,136
1073,535; 1260,687;    0,167;    2,136
1074,077; 1060,778;    2,985;    2,045
1074,619; 1051,051;    0,985;    0,591
1075,161; 1070,051;   -0,561;    1,500
1075,704; 1269,232;    0,258;    1,227
1076,246; 1052,960;    1,530;    0,682
1076,788;  967,051;   -1,015;    1,773
1077,330; 1024,141;   -2,106;    2,136
1077,872; 1032,869;   -1,924;    0,955
1078,414; 1260,141;    3,712;    0,773
1078,956; 1022,141;    0,167;   -0,227
1079,498; 1278,323;    0,439;    0,318
1080,040; 1007,141;    0,985;   -1,318
1080,581;  940,960;    0,621;   -0,318
1081,123;  849,323;   -0,106;   -0,773
1081,665;  900,414;    3,803;   -0,955
1082,206; 1195,869;    3,258;   -0,500
1082,748; 1053,960;    3,258;    2,045
1083,289;  930,414;    0,167;    1,318
1083,831;  858,960;    0,258;    0,227
1084,372;  916,596;    0,894;    0,591
1084,913;  918,232;    3,348;    0,864
1085,455;  864,141;    1,530;   -2,045
1085,996;  851,141;    0,530;    0,136
1086,537;  897,960;    0,985;    0,864
1087,078;  908,505;    0,439;   -2,136
1087,619;  954,778;   -1,652;    0,227
1088,160;  878,687;    1,439;    1,318
1088,701;  857,414;   -0,742;    0,682
1089,242;  808,051;   -0,561;   -2,227
1089,783;  905,778;   -0,561;    1,409
1090,324;  879,960;   -0,833;    0,682
1090,865;  753,687;   -1,924;   -0,409
1091,405;  716,960;   -0,561;    2,227
1091,946;  754,414;   -0,197;   -0,955
1092,487;  676,687;   -1,288;   -1,409
1093,027;  856,778;    1,803;   -1,500
1093,568;  724,323;    2,258;    1,227
1094,108;  811,414;    0,621;    1,773
1094,649;  756,505;   -0,470;    0,136
1095,189;  686,232;    1,167;   -0,682
1095,729;  662,414;    0,712;    0,955
1096,269;  658,323;    1,258;   -0,955
1096,810;  961,414;   -0,197;    0,500
1097,350;  802,323;   -0,561;   -0,773
1097,890;  707,960;    2,985;    1,227
1098,430;  950,051;    4,985;    2,864
1098,970;  843,869;    1,894;    1,682
1099,510;  685,323;   -0,833;   -2,318
1100,050;  625,414;    0,258;   -1,591
1100,589;  604,414;    0,076;   -0,318
1101,129;  729,414;    0,894;   -0,955
1101,669;  874,596;    2,803;    2,136
1102,209;  706,505;    1,530;    2,227
1102,748;  665,869;    3,439;    0,955
1103,288;  663,869;    0,712;   -1,227
1103,827;  678,869;    3,530;   -2,227
1104,367;  563,687;    1,712;   -2,409
1104,906;  538,051;   -1,015;   -1,136
1105,445;  612,596;    0,985;   -1,136
1105,985;  566,414;   -0,652;    1,500
1106,524;  613,232;    1,530;   -0,682
1107,063;  584,323;    1,167;    1,409
1107,602;  564,960;    1,894;   -1,500
1108,141;  483,960;    1,621;    1,500
1108,680;  593,869;    3,985;   -0,591
1109,219;  525,778;    0,167;   -0,500
1109,758;  527,869;    4,167;    0,682
1110,297;  500,051;   -1,106;   -0,682
1110,836;  461,414;    1,439;    0,955
1111,375;  608,505;    0,348;    0,409
1111,913;  619,778;    0,985;    0,773
1112,452;  559,414;    0,894;    0,136
1112,991;  446,232;    1,076;    1,955
1113,529;  418,778;    0,167;   -0,045
1114,068;  489,232;    0,439;    2,955
1114,606;  398,778;   -0,561;   -0,955
1115,144;  550,323;    1,530;    1,045
1115,683;  485,414;    1,985;    0,318
1116,221;  532,323;    2,076;   -0,864
1116,759;  449,869;    1,621;   -0,864
1117,297;  639,232;    1,621;    1,864
1117,836;  461,141;    1,985;   -1,227
1118,374;  458,869;    0,258;   -0,682
1118,912;  419,778;    0,439;    2,682
1119,450;  418,960;    0,985;    0,864
1119,988;  443,141;    3,348;    2,136
1120,525;  880,232;    7,258;    3,318
1121,063;  602,414;    0,530;    1,864
1121,601;  417,141;    1,076;   -1,227
1122,139;  382,687;    1,076;   -2,045
1122,676;  572,960;   -1,652;    2,773
1123,214;  502,414;    0,712;    4,409
1123,751;  329,778;    0,621;    2,227
1124,289;  444,232;    0,894;   -0,409
1124,826;  338,414;   -0,379;    0,227
1125,364;  263,596;    0,712;   -0,955
1125,901;  438,778;    6,258;    1,227
1126,438;  532,414;    3,530;    0,955
1126,975;  282,869;    2,985;   -0,773
1127,513;  339,778;    2,621;    2,136
1128,050;  266,051;   -0,561;   -0,682
1128,587;  364,232;    1,348;   -0,227
1129,124;  412,960;   -0,015;    1,318
1129,661;  290,414;   -1,924;    0,227
1130,198;  439,687;    2,439;    0,773
1130,734;  382,960;   -0,379;    1,409
1131,271;  255,778;   -1,197;    0,864
1131,808;  410,414;    1,621;    3,045
1132,345;  295,232;    4,530;    0,318
1132,881;  186,596;   -0,561;   -1,864
1133,418;  316,323;    0,348;   -1,136
1133,954;  252,505;    0,712;   -2,682
1134,491;  319,778;    1,712;   -0,773
1135,027;  229,232;    2,167;    0,864
1135,564;  314,141;    1,439;    2,955
1136,100;  293,960;   -0,742;    2,136
1136,636;  207,869;   -1,015;   -1,045
1137,172;  287,323;    0,894;   -1,045
1137,708;  217,323;   -1,561;   -1,045
1138,245;  218,778;    0,803;   -1,227
1138,781;  181,505;    1,803;   -3,318
1139,317;  237,687;    1,894;   -1,409
1139,852;  232,960;    3,076;    0,136
1140,388;  332,596;    2,076;   -0,409
1140,924;  228,141;    1,076;   -2,227
1141,460;  170,596;   -0,288;    0,136
1141,996;  116,232;   -0,652;    2,682
1142,531;  165,323;    1,076;    3,318
1143,067;  349,323;    1,167;    1,045
1143,602;  404,232;    3,439;   -0,318
1144,138;  265,141;    0,803;    1,045
1144,673;  153,051;    1,621;    1,409
1145,209;  204,687;    2,894;   -0,318
1145,744;  138,869;    0,803;    0,864
1146,279;  253,414;    1,530;   -0,136
1146,815;  177,687;    1,530;   -2,682
1147,350;  217,323;   -0,924;    0,045
1147,885;  144,232;   -1,924;   -1,318
1148,420;  143,051;    2,439;    0,773
1148,955;  129,960;   -1,470;    1,864
1149,490;  149,596;   -1,106;   -1,591
1150,025;  140,687;   -1,106;   -1,773
1150,560;  236,960;   -0,288;   -0,955
1151,094;  203,687;    0,258;   -0,591
1151,629;  209,869;   -3,742;    0,864
1152,164;  137,505;   -1,288;    1,318
1152,698;  103,051;    1,258;   -0,136
1153,233;   77,505;   -1,379;   -0,682
1153,767;  123,505;   -0,288;   -2,318
1154,302;  159,414;   -0,379;    1,773
1154,836;  160,778;    0,803;   -2,136
1155,371;  203,323;    2,258;    3,682
1155,905;  160,232;    1,985;    1,682
1156,439;  136,414;    0,530;   -0,500
1156,973;  161,960;    0,439;    0,318
1157,507;  104,232;   -1,742;    0,682
1158,042;  127,505;   -0,652;    1,045
1158,576;  173,141;   -0,561;    1,773
1159,110;  160,323;    0,076;    2,409
1159,643;  142,869;   -2,470;   -0,045
1160,177;   87,414;   -2,015;    1,500

