
Integration time [ms]:   0,040
Averaging Nr. [scans]: 11
Smoothing Nr. [pixels]: 0
Data measured with spectrometer [name]: 7318044SP
Wave   ;Sample   ;Dark     ;Reference
[nm]   ;[counts] ;[counts] ;[counts] 

186,757;   30,084;   38,161;    1,318
187,357;   61,767;   26,706;    0,955
187,958;   38,659;   17,252;   -1,591
188,558;   69,035;   12,979;   -1,227
189,159;   38,794;   10,070;   -4,500
189,759;   22,429;    5,797;   -3,591
190,360;   13,493;    6,797;   -2,136
190,960;   54,623;    5,706;   -4,136
191,560;   63,256;    2,614;   -6,591
192,161;  284,486;    5,885;   -3,500
192,761;  137,804;    5,520;   -3,227
193,361;   93,045;    3,065;   -3,773
193,962;  147,115;    1,612;   -2,682
194,562;   70,745;   -0,114;   -3,955
195,162;  106,251;   -0,567;   -2,227
195,762;  260,032;    2,433;   -0,045
196,362;  210,143;    1,706;   -2,500
196,963;   91,262;    1,706;   -0,864
197,563;  148,923;    1,252;   -0,955
198,163;   94,391;   -0,111;   -0,682
198,763;  113,318;   -0,020;   -0,500
199,363;  217,322;    3,616;   -0,500
199,963;  180,557;    2,162;    0,409
200,563;  153,943;    6,344;   -1,409
201,163;  133,538;    5,435;   -0,227
201,763;  220,371;    1,435;    0,318
202,363;  158,703;    0,980;    1,500
202,963;  256,322;    1,526;    1,045
203,563;  360,850;    0,344;    0,500
204,162;  224,674;    1,889;   -1,864
204,762;  211,950;    2,071;    0,591
205,362;  175,467;    0,708;    1,955
205,962;  281,741;    3,435;    1,955
206,562;  274,498;    1,889;    2,318
207,161;  235,695;    1,708;    0,318
207,761;  393,431;    4,435;    2,409
208,361;  268,541;    1,889;    1,409
208,960;  361,195;    2,889;    1,500
209,560;  409,614;    0,435;    1,591
210,160;  402,000;    5,071;    1,864
210,759;  360,871;    0,708;    1,227
211,359;  362,026;   -0,474;    1,045
211,958;  621,483;    3,526;    2,045
212,558;  703,791;    0,799;    1,864
213,157;  545,790;   -0,929;    1,500
213,757;  948,718;    5,617;   -0,227
214,356;  668,532;    1,708;   -0,409
214,956;  981,211;    3,526;    0,409
215,555;  618,794;    0,617;    2,136
216,154;  568,363;   -0,292;   -0,591
216,754;  579,132;    1,253;    0,773
217,353;  691,551;   -0,383;   -1,045
217,952;  546,783;    2,072;    0,318
218,552;  773,944;    0,254;   -0,773
219,151;  667,623;   -1,110;    0,955
219,750;  669,360;    0,890;   -0,227
220,349;  758,179;   -2,292;    1,045
220,948;  856,066;    1,163;    1,136
221,548;  839,979;    0,617;    1,227
222,147;  944,380;   -1,292;   -0,409
222,746; 1225,674;    1,254;   -0,955
223,345; 1093,296;   -1,019;    0,500
223,944; 1093,128;    1,163;    0,773
224,543; 1246,492;    4,072;   -1,409
225,142; 1359,670;    1,345;    0,136
225,741; 1253,684;    1,163;    1,045
226,340; 1271,784;    1,254;   -0,955
226,939; 1698,514;    2,708;   -0,136
227,538; 1591,862;    1,163;   -0,773
228,137; 1762,386;    0,435;    0,864
228,735; 1870,225;    0,435;    1,227
229,334; 1649,540;   -0,474;   -0,227
229,933; 2026,908;    0,799;    0,591
230,532; 2111,888;   -1,201;   -0,409
231,131; 2181,626;    1,253;    0,318
231,729; 2277,923;    1,163;   -2,318
232,328; 2353,326;    0,435;   -1,500
232,927; 2420,729;    4,526;   -0,500
233,525; 2516,958;    0,981;    0,045
234,124; 2700,956;    1,890;   -1,591
234,723; 2711,878;    1,617;   -1,045
235,321; 2852,609;    1,163;    0,136
235,920; 3042,811;    2,526;   -1,227
236,518; 3285,996;    1,072;    0,318
237,117; 3436,480;    2,890;   -0,227
237,715; 3587,950;    1,163;   -0,500
238,314; 3623,461;    1,708;   -2,318
238,912; 3724,030;    0,526;   -1,409
239,510; 3741,660;    1,162;   -1,227
240,109; 3898,739;   -0,474;    3,773
240,707; 3918,701;   -0,474;    1,227
241,305; 4244,849;   -0,383;    0,136
241,904; 4429,031;   -0,292;   -2,045
242,502; 4414,514;    3,253;   -0,227
243,100; 4347,083;    3,344;   -0,955
243,698; 4553,281;    2,799;    1,682
244,297; 4729,883;   -0,656;    0,682
244,895; 4601,651;   -0,474;   -2,318
245,493; 4922,962;    2,981;   -0,591
246,091; 4930,660;    5,163;   -1,318
246,689; 4888,954;    2,163;    0,591
247,287; 5040,861;   -0,019;   -1,136
247,885; 5291,348;   -1,019;    1,227
248,483; 5377,131;   -0,201;   -0,500
249,081; 5452,016;    0,981;    1,591
249,679; 5624,305;   -1,019;    1,682
250,277; 5877,314;   -2,292;    0,864
250,875; 5840,153;    0,617;   -1,045
251,473; 5832,119;   -0,019;    0,500
252,071; 6029,767;   -0,383;    1,045
252,669; 6168,037;   -1,565;    0,318
253,267; 6402,139;    1,618;    0,773
253,864; 6342,042;    0,617;    0,682
254,462; 6238,593;    1,526;    1,591
255,060; 6200,608;    0,072;    1,318
255,658; 6484,855;   -3,292;   -0,136
256,255; 6866,063;   -0,201;   -2,045
256,853; 6738,712;    2,345;    1,409
257,451; 6734,459;    1,981;    1,864
258,048; 7026,383;    2,072;    1,864
258,646; 6757,160;    0,436;   -1,045
259,243; 6910,621;    2,981;    2,227
259,841; 6963,538;    1,799;    0,318
260,438; 6870,849;    0,254;    0,864
261,036; 7505,794;    0,617;    1,409
261,633; 7415,267;    1,526;    2,227
262,231; 7199,760;   -0,110;   -0,045
262,828; 7291,123;   -0,383;    1,136
263,425; 7325,243;   -1,928;   -0,591
264,023; 7575,699;    1,436;    0,045
264,620; 7137,566;    1,526;   -0,318
265,217; 7450,561;    2,890;    3,136
265,815; 7563,785;    2,527;    2,136
266,412; 7362,974;    0,072;    0,136
267,009; 7408,844;    0,526;    0,773
267,606; 7344,069;    0,345;   -0,955
268,203; 7325,460;   -0,383;   -0,591
268,801; 7570,899;   -0,474;    0,591
269,398; 7843,581;   -0,564;    2,500
269,995; 7811,305;    0,890;    1,591
270,592; 7625,109;    0,799;   -0,500
271,189; 7770,877;    1,981;    0,409
271,786; 7890,791;    2,072;    1,227
272,383; 7753,206;   -0,383;    0,227
272,980; 7933,142;    1,617;    0,318
273,577; 8390,089;    2,162;    1,227
274,174; 7941,755;    1,435;    2,591
274,771; 7920,764;    1,890;   -0,773
275,367; 8086,928;    3,253;    1,409
275,964; 8022,813;   -0,565;   -0,500
276,561; 8123,246;   -2,474;   -1,045
277,158; 8316,123;    1,799;   -1,773
277,755; 8426,288;   -0,110;    0,409
278,351; 7862,090;    0,436;   -1,500
278,948; 8149,832;   -0,201;    0,045
279,545; 8154,289;    0,527;    2,318
280,141; 8759,362;    1,254;   -2,045
280,738; 8606,533;    2,435;   -0,136
281,334; 8818,581;   -0,383;    0,591
281,931; 8228,590;    2,890;   -1,318
282,528; 8336,355;    4,072;   -0,500
283,124; 8997,593;    3,345;   -0,500
283,721; 8896,038;    0,709;    1,409
284,317; 8674,706;    0,163;    2,500
284,913; 9202,791;   -0,110;    0,591
285,510; 9400,336;    2,890;   -0,318
286,106; 9430,314;    2,345;   -0,955
286,703; 9042,690;    0,072;    1,955
287,299; 9237,992;    1,254;   -0,591
287,895; 9425,498;    0,890;   -1,045
288,491; 9940,581;    0,163;    2,136
289,088; 9694,550;    0,163;    2,409
289,684; 9778,673;    2,890;    1,500
290,280; 9750,061;    1,890;    0,682
290,876; 9798,291;    0,163;    5,500
291,472; 9716,601;    2,163;    2,227
292,068; 9826,454;    1,254;    0,227
292,665; 9570,629;   -0,564;    0,773
293,261; 9266,562;   -1,292;    2,136
293,857; 9609,376;    4,072;    2,136
294,453; 9528,657;   -0,928;    0,955
295,049; 9394,589;    0,253;    1,955
295,644; 9452,703;   -1,292;    0,136
296,240; 9362,402;    0,162;   -0,136
296,836; 9402,683;   -0,747;    0,318
297,432; 9634,540;    2,980;   -0,500
298,028; 9665,678;    0,435;    0,773
298,624;10035,984;    0,889;    1,864
299,220;10281,968;    0,435;    0,591
299,815; 9943,398;    0,526;   -0,409
300,411; 9729,407;    0,435;    1,773
301,007; 9762,377;    1,889;    0,227
301,602; 9783,618;    2,071;   -2,318
302,198; 9924,315;    1,435;   -0,773
302,794;10241,281;    1,526;   -0,500
303,389;10364,309;    1,071;    1,045
303,985;10438,040;    1,253;    1,409
304,580;10379,211;    0,889;    1,591
305,176;10347,657;    0,344;    0,136
305,771;10300,672;   -0,929;   -1,227
306,367;10184,229;    3,071;    0,136
306,962;10465,527;    2,889;    1,500
307,558;10226,662;    2,435;    0,136
308,153;10154,727;   -0,383;   -1,136
308,748;10384,284;    0,162;    1,682
309,344;10378,797;    0,253;   -1,318
309,939;10459,556;    2,071;   -1,318
310,534;10707,586;   -2,020;   -1,682
311,130;10638,673;   -0,656;   -2,500
311,725;10374,141;    0,526;   -0,500
312,320;10684,643;    1,253;    0,045
312,915;10552,928;    2,890;   -1,045
313,510;10619,143;    0,526;   -0,500
314,105;11118,748;   -3,565;    1,409
314,700;10572,579;   -1,656;   -1,045
315,295;10210,756;   -0,020;    0,045
315,890; 9790,387;   -0,292;    0,864
316,485;10118,917;    0,253;   -0,318
317,080;10220,576;   -0,929;    1,591
317,675;10719,259;    3,071;   -0,682
318,270;10170,301;    6,889;    3,318
318,865;10177,686;    2,435;    3,045
319,460;10024,413;   -1,565;    0,591
320,055;10219,943;   -2,565;   -1,227
320,650; 9907,116;   -1,838;   -0,591
321,244; 9959,383;    0,889;   -1,409
321,839;10849,152;    0,980;   -0,227
322,434;10748,552;   -0,111;   -1,591
323,029;10414,946;   -0,474;    1,591
323,623;10260,193;    0,798;    0,773
324,218;10072,003;    2,707;    1,409
324,812; 9995,896;    0,889;    1,591
325,407; 9825,776;   -0,929;    2,045
326,002; 9736,166;    0,526;   -0,409
326,596;10051,188;   -0,656;    1,318
327,191;10223,725;   -0,383;   -1,045
327,785; 9835,460;   -0,747;   -0,227
328,379;10084,294;   -0,383;    0,136
328,974; 9894,045;    1,798;   -3,955
329,568;10141,171;    2,889;   -2,409
330,163; 9954,291;    2,435;    1,045
330,757;10299,740;    0,253;    1,591
331,351; 9659,358;   -0,292;    0,682
331,945; 9928,484;   -0,383;    1,409
332,540; 9546,065;    1,617;   -0,591
333,134; 9665,674;    3,344;    0,773
333,728; 9911,132;    2,799;    0,318
334,322;10202,269;    0,889;   -0,864
334,916; 9525,874;    0,344;    0,955
335,510; 9842,515;   -0,111;   -0,136
336,105;10097,089;   -0,929;    1,591
336,699; 9776,365;   -1,292;    0,591
337,293; 9707,529;    1,071;    0,318
337,887; 9851,485;    0,071;    1,955
338,481; 9940,200;    2,980;    0,591
339,074;10068,259;    2,071;    2,682
339,668; 9894,068;   -0,110;    1,227
340,262;10138,222;    7,708;    3,227
340,856; 9651,731;    1,708;   -0,682
341,450; 9050,427;    0,708;    1,864
342,044; 9858,529;    1,799;    0,136
342,637; 9653,102;    1,162;   -2,136
343,231; 9511,778;   -1,474;    0,682
343,825; 9454,841;   -0,747;   -0,591
344,419; 9439,721;   -0,474;    0,500
345,012; 9257,843;    2,889;    4,045
345,606; 9301,764;   -0,656;    1,591
346,199; 9147,425;   -0,111;   -0,227
346,793; 8706,325;    2,525;    2,045
347,386; 8908,349;    0,889;   -1,136
347,980; 8881,965;   -0,838;   -0,045
348,573; 8712,642;   -1,748;    0,409
349,167; 8447,998;    6,161;    4,773
349,760; 8763,434;    2,252;    2,682
350,354; 8737,720;    1,616;    1,136
350,947; 8509,483;    2,798;    1,682
351,540; 8231,366;    0,616;   -1,409
352,134; 8171,185;   -1,111;    1,136
352,727; 8245,889;   -0,657;    1,136
353,320; 8067,193;    2,343;    0,591
353,913; 7920,454;   -1,929;    1,864
354,507; 8092,076;    0,434;   -1,227
355,100; 8095,930;    0,071;    0,864
355,693; 7422,254;    4,798;    2,409
356,286; 7460,933;    0,980;    2,773
356,879; 7796,574;   -0,475;    1,227
357,472; 7424,988;    0,980;    1,500
358,065; 7636,939;    3,161;    2,500
358,658; 7583,595;    0,798;    2,318
359,251; 7255,644;    0,252;   -0,591
359,844; 6802,820;    0,343;   -1,136
360,437; 6993,864;    0,252;    0,045
361,030; 7240,984;    0,525;   -0,682
361,623; 6875,758;    0,434;    0,318
362,215; 6889,116;    0,979;    2,045
362,808; 6728,262;   -2,293;   -1,682
363,401; 6941,630;    0,798;    0,136
363,994; 6716,342;    3,252;   -1,500
364,586; 6664,067;    0,888;   -1,500
365,179; 6842,379;   -0,203;   -1,136
365,772; 6348,468;   -0,930;    2,045
366,364; 6596,464;    1,524;   -3,227
366,957; 6818,251;    1,342;   -0,045
367,549; 6794,618;   -0,203;   -0,864
368,142; 6467,600;    0,978;   -1,500
368,734; 6659,222;    2,523;   -2,136
369,327; 6641,622;    2,341;   -0,500
369,919; 6590,476;   -1,659;    0,409
370,512; 6407,510;   -1,023;   -0,500
371,104; 6166,844;    2,704;    1,591
371,696; 6324,471;    1,703;   -0,955
372,289; 6404,684;    0,157;    1,136
372,881; 6514,950;    1,156;    1,318
373,473; 6455,182;    4,064;    1,136
374,066; 6271,120;    1,336;    0,500
374,658; 6136,469;    0,879;    1,136
375,250; 6483,949;   -1,668;   -1,409
375,842; 6315,859;   -0,124;   -0,045
376,434; 6189,104;   -2,762;   -0,409
377,026; 6748,799;   -1,855;   -2,500
377,618; 6641,922;    0,779;   -0,682
378,210; 6496,342;    3,141;   -1,955
378,802; 6340,850;    3,412;   -0,591
379,394; 6344,452;    3,411;    0,682
379,986; 6833,038;    1,138;   -0,955
380,578; 6930,787;    1,410;    0,773
381,170; 6349,676;    0,320;    0,045
381,762; 6302,140;   -0,224;    1,409
382,354; 6453,488;   -0,223;   -1,318
382,945; 6548,613;    0,870;    0,318
383,537; 6705,022;    1,144;   -1,955
384,129; 6697,882;    0,963;   -1,136
384,721; 6851,476;    0,418;    0,955
385,312; 6778,496;   -1,399;   -0,955
385,904; 6893,559;   -0,945;    1,591
386,496; 6312,185;    0,691;    1,045
387,087; 6433,561;    0,418;    2,500
387,679; 6463,353;   -0,401;    0,045
388,270; 6593,929;   -2,401;    2,045
388,862; 6695,888;   -0,401;   -0,318
389,453; 6566,280;    1,054;    1,045
390,045; 6813,984;    3,236;   -2,682
390,636; 6756,439;    0,144;   -0,591
391,227; 6628,723;    2,054;   -0,045
391,819; 6715,092;    0,781;    0,773
392,410; 6779,926;    0,600;    0,045
393,001; 6698,727;    1,600;   -1,591
393,593; 6939,979;    0,600;   -0,045
394,184; 6822,594;    0,873;   -0,409
394,775; 6730,050;    1,146;    2,136
395,366; 6941,604;    1,782;    0,773
395,957; 6892,180;   -2,400;    0,136
396,548; 7177,724;    1,054;    2,682
397,139; 7465,021;    2,236;    0,591
397,730; 7209,350;    0,873;    0,955
398,321; 7262,208;    0,509;    0,955
398,912; 7297,517;   -0,764;    0,136
399,503; 7376,037;   -1,945;   -1,409
400,094; 6877,632;   -1,582;    1,682
400,685; 6756,225;    3,600;    0,045
401,276; 6791,575;   -0,400;   -0,955
401,867; 7080,902;   -1,127;    0,773
402,458; 7185,685;    1,509;   -2,318
403,048; 7157,754;    0,146;    0,591
403,639; 6811,498;    1,509;    0,864
404,230; 7051,190;    0,691;    0,318
404,821; 6993,583;   -0,127;    0,045
405,411; 7108,227;   -0,763;   -2,591
406,002; 6703,917;    3,237;   -1,136
406,592; 6577,118;    2,691;    0,045
407,183; 6859,992;    0,328;   -1,500
407,774; 6787,606;    1,419;   -0,136
408,364; 7086,590;    2,600;    0,409
408,954; 6713,335;   -0,036;    1,227
409,545; 6743,671;    1,873;    1,045
410,135; 6336,354;   -1,581;    0,500
410,726; 6498,869;    0,783;    0,318
411,316; 6837,332;    2,237;    0,773
411,906; 6518,892;    0,146;   -0,409
412,497; 6087,694;   -0,490;   -0,045
413,087; 6631,063;    0,783;   -0,227
413,677; 6961,075;   -2,490;    3,864
414,267; 6829,772;   -1,035;    1,409
414,857; 6805,555;    0,419;    4,227
415,448; 7067,526;   -0,763;    0,500
416,038; 6799,898;   -2,945;   -0,591
416,628; 6744,411;    0,965;    0,409
417,218; 6292,820;   -1,762;    3,318
417,808; 6535,420;    0,965;   -0,409
418,398; 6914,059;   -1,035;    2,682
418,988; 6928,567;   -2,217;    0,591
419,578; 7174,379;    3,601;    1,409
420,168; 7485,759;    0,692;   -0,955
420,757; 7074,004;    0,964;   -1,500
421,347; 6774,285;    1,601;   -0,227
421,937; 6941,917;    3,329;    1,409
422,527; 6904,461;    2,602;   -0,773
423,116; 6723,103;    2,692;   -0,045
423,706; 7034,988;    2,965;    0,318
424,296; 7004,394;    1,601;    0,682
424,885; 7413,030;    1,510;   -3,045
425,475; 7651,078;    1,147;   -2,864
426,065; 7555,598;   -1,489;   -0,318
426,654; 7214,235;    0,329;   -0,318
427,244; 7331,017;    1,147;    1,409
427,833; 6813,528;    1,056;   -0,500
428,423; 7247,080;    0,147;    1,136
429,012; 7920,784;    2,420;   -1,136
429,601; 7429,603;    2,057;    0,136
430,191; 7671,356;    2,511;    4,318
430,780; 7323,378;   -1,671;   -0,409
431,369; 7282,764;    1,329;   -0,045
431,959; 7848,773;    1,693;    0,500
432,548; 7639,733;   -1,398;   -0,045
433,137; 7754,298;    0,329;   -1,318
433,726; 8221,124;    0,148;    0,500
434,315; 7626,275;    0,148;    2,409
434,905; 7750,092;    0,693;    1,409
435,494; 7654,264;    3,148;    0,955
436,083; 8067,541;    1,420;   -0,955
436,672; 7951,379;    1,148;    0,500
437,261; 7569,801;    0,512;   -1,955
437,850; 7690,898;   -1,125;    0,682
438,439; 7647,550;    2,239;    1,955
439,027; 7497,927;    3,421;    1,773
439,616; 7829,801;    2,239;    1,227
440,205; 7691,815;    0,057;   -2,136
440,794; 7755,514;   -0,306;   -0,045
441,383; 7978,146;    1,603;   -0,591
441,971; 7815,049;   -0,306;    0,591
442,560; 7671,203;    0,603;   -1,773
443,149; 7421,740;    3,060;   -1,318
443,737; 7578,079;    0,968;   -2,318
444,326; 7812,776;    0,331;    0,318
444,915; 7841,813;   -1,851;    0,864
445,503; 8224,591;    0,058;   -0,318
446,092; 7558,331;    7,876;    2,136
446,680; 8049,197;    1,876;    0,318
447,269; 8220,802;   -1,487;   -0,318
447,857; 8009,108;    2,240;   -1,773
448,445; 8115,257;    2,149;    1,318
449,034; 8315,134;    0,876;   -1,136
449,622; 8415,658;    1,240;    3,500
450,210; 7742,298;    3,149;    2,227
450,799; 8207,514;    2,604;   -0,591
451,387; 8134,369;    1,786;   -0,591
451,975; 7840,328;   -1,305;    0,864
452,563; 7951,502;    0,422;    2,318
453,151; 7979,436;   -1,032;   -1,227
453,739; 7917,640;   -1,577;    0,136
454,328; 7761,618;    0,604;   -2,136
454,916; 7510,486;    1,150;   -0,136
455,504; 7662,280;    3,513;    1,227
456,092; 7826,941;    2,150;   -1,591
456,679; 7816,218;    0,604;    0,682
457,267; 7792,797;    3,604;    1,045
457,855; 7898,248;    3,241;    1,409
458,443; 7657,378;   -0,304;    1,682
459,031; 7808,149;    1,332;    2,409
459,619; 8201,854;   -3,577;    2,864
460,206; 8290,324;   -0,759;    2,045
460,794; 8363,689;   -0,668;   -0,227
461,382; 8578,717;    0,878;   -0,864
461,970; 8154,579;    0,605;    1,864
462,557; 8216,190;    0,878;   -0,682
463,145; 8410,126;   -0,304;   -1,682
463,732; 8538,815;    2,514;   -1,045
464,320; 8442,151;    1,514;   -3,045
464,907; 8156,226;    0,423;   -0,773
465,495; 8055,010;    2,696;   -1,227
466,082; 8150,692;    2,060;   -0,045
466,670; 8046,153;    2,605;    1,227
467,257; 8478,306;    0,060;    2,045
467,844; 8626,413;    1,514;    0,045
468,432; 8652,352;   -0,031;    3,500
469,019; 8206,829;    1,606;   -1,773
469,606; 8638,143;    0,969;    3,682
470,193; 8461,816;    2,151;    0,227
470,780; 8078,404;    0,333;    0,864
471,368; 8392,775;   -1,212;   -0,773
471,955; 8198,601;    1,060;   -0,682
472,542; 7862,258;   -0,303;   -1,136
473,129; 8070,724;   -0,485;    0,136
473,716; 7846,030;    0,060;    0,591
474,303; 8011,715;    1,333;   -0,864
474,890; 8284,567;    2,333;   -0,500
475,477; 8315,088;   -0,576;    0,409
476,064; 8231,749;    0,697;   -1,591
476,650; 8107,297;    2,152;    0,318
477,237; 7970,843;    1,879;    0,955
477,824; 8120,739;    3,879;    0,864
478,411; 8124,824;    0,606;   -0,318
478,997; 8292,430;    0,606;   -0,773
479,584; 8363,684;   -0,666;   -0,409
480,171; 9007,300;    1,243;   -0,773
480,757; 8681,209;   -0,848;    0,773
481,344; 8911,508;    0,334;    0,409
481,931; 8450,596;   -0,393;    1,045
482,517; 9341,949;    0,425;    0,318
483,104; 9784,933;    1,334;    2,864
483,690;10013,052;    0,243;    0,045
484,276;10300,157;    0,698;    0,227
484,863;10078,613;    2,152;    1,136
485,449;10599,233;    0,152;    0,318
486,035;10579,990;   -0,666;   -0,136
486,622;10982,250;   -2,393;    0,045
487,208;10919,478;    1,334;    1,500
487,794;10782,919;    0,971;    0,318
488,380;10860,114;    0,698;   -1,409
488,967;10932,110;   -1,120;   -0,409
489,553;11001,016;   -1,029;   -1,409
490,139;11205,042;    0,971;    0,773
490,725;10708,027;    0,789;   -0,227
491,311;10336,564;    1,516;    3,045
491,897; 9725,228;   -0,665;    1,500
492,483; 9600,901;    0,426;    1,227
493,069; 9460,848;    5,426;    0,864
493,655; 9402,289;    1,789;    0,682
494,241; 9335,462;    1,517;   -0,955
494,826; 9694,492;    0,335;   -1,045
495,412; 9162,879;    0,335;   -0,682
495,998; 9311,077;    0,971;   -0,318
496,584; 9409,920;    2,244;    1,045
497,169; 9387,937;    2,335;   -0,682
497,755; 9339,156;    1,244;    1,227
498,341; 9887,231;    2,153;    0,318
498,926; 9471,144;    2,881;    1,955
499,512; 9648,139;   -0,028;    2,955
500,097; 9726,401;   -0,574;   -0,318
500,683; 9648,744;   -0,028;    2,136
501,268;10000,907;    1,881;   -0,955
501,854; 9765,995;   -0,119;    1,227
502,439; 9680,405;   -0,573;   -1,773
503,024; 9835,803;    1,608;    0,500
503,610; 9916,799;    1,335;   -0,682
504,195; 9886,408;    1,245;    1,955
504,780; 9993,641;    2,335;    1,227
505,366; 9851,040;    4,063;    2,864
505,951; 9620,946;   -1,119;    1,045
506,536; 9640,550;    1,427;   -3,682
507,121; 9602,281;    1,699;   -0,318
507,706;10078,127;   -0,392;    1,045
508,291;10380,380;   -2,937;    1,136
508,876; 9896,881;   -0,482;    2,591
509,461; 9393,505;    1,427;   -0,773
510,046; 9831,703;   -0,391;    0,318
510,631;10033,789;   -0,119;   -0,773
511,216; 9696,016;   -0,664;   -0,500
511,801;10076,100;   -0,755;    2,591
512,386;10290,870;    0,972;    0,500
512,971;10222,280;    0,427;    0,955
513,555; 9819,657;    1,154;   -1,500
514,140;10564,987;    1,336;   -3,136
514,725;10531,653;    1,791;   -1,136
515,309;10642,234;    1,064;    0,318
515,894;10162,323;   -0,300;   -2,227
516,479;10568,749;    1,973;   -0,955
517,063;10374,120;    0,882;    1,227
517,648;10525,490;    0,155;   -1,136
518,232;10122,118;   -1,300;   -1,409
518,817;10470,507;    1,337;    1,682
519,401;10688,246;    0,700;    0,591
519,985;10245,688;    2,700;    1,136
520,570;10099,877;   -0,118;   -1,955
521,154;10367,377;    0,064;    0,591
521,738;10519,696;    1,064;    2,409
522,323;11055,503;   -0,390;    1,682
522,907;10767,191;    2,428;   -0,136
523,491;10550,673;    1,155;    0,955
524,075;10517,880;    0,428;    0,591
524,659;10584,807;    0,973;    0,591
525,243;10136,110;    0,883;    0,409
525,827;10338,745;    0,883;   -0,045
526,411;11079,534;    1,155;   -0,136
526,995;11260,301;    0,337;    1,409
527,579;10876,066;    1,974;   -1,045
528,163;11152,116;    0,428;   -1,500
528,747;11088,585;    1,065;   -0,773
529,331;11371,623;    0,883;   -1,409
529,915;11518,552;    2,338;    0,955
530,499;11480,801;    0,247;    1,227
531,082;11195,654;    1,065;    1,591
531,666;10716,683;    0,520;    0,773
532,250;11286,793;    0,428;    2,682
532,833;11587,856;    0,610;    2,773
533,417;11474,655;    1,247;    0,864
534,001;11395,642;    0,429;   -0,318
534,584;12026,041;    1,974;    0,500
535,168;11855,174;    3,247;    1,409
535,751;11882,776;    4,520;    0,045
536,334;11384,950;    4,520;   -0,409
536,918;11934,036;    1,974;    1,591
537,501;11977,469;    1,520;    1,318
538,085;11986,503;    1,702;    1,045
538,668;12097,074;    0,883;    2,409
539,251;12377,827;    3,156;    3,773
539,834;12414,820;    0,156;    0,773
540,418;12337,072;    3,247;    4,318
541,001;12390,126;    2,702;    1,773
541,584;12386,113;    1,429;    2,227
542,167;12122,011;    0,702;    2,955
542,750;12229,572;    0,793;   -0,773
543,333;11858,944;    1,429;    2,136
543,916;12529,158;   -0,298;    2,500
544,499;13052,924;    2,520;    0,227
545,082;13076,929;    0,248;    3,591
545,665;13176,575;   -0,207;    1,500
546,248;13437,853;    0,520;   -0,318
546,830;13132,935;   -1,752;    1,955
547,413;13476,337;    0,157;   -0,773
547,996;13975,039;    0,157;    0,500
548,579;13754,022;   -0,843;    0,955
549,161;13559,299;    0,884;    2,682
549,744;13338,372;    0,612;    0,409
550,326;13831,603;    0,885;   -1,136
550,909;13638,557;    2,339;    0,591
551,492;13975,911;    0,521;    0,227
552,074;13805,866;   -0,024;   -1,318
552,657;14280,731;    2,430;    0,045
553,239;14096,080;   -3,024;   -0,773
553,821;13966,684;   -1,570;    1,045
554,404;13502,183;   -0,024;    1,136
554,986;13865,476;    2,248;    1,045
555,568;14378,825;    0,430;   -0,955
556,151;13706,851;    4,067;   -0,227
556,733;13857,309;   -1,388;   -0,864
557,315;14253,089;    4,703;    0,500
557,897;14024,332;    0,521;   -0,500
558,479;14112,859;    1,703;    1,318
559,061;14272,499;    1,067;   -0,864
559,643;14604,953;   -0,297;    0,045
560,225;14875,921;   -0,388;    2,864
560,807;14901,680;    0,340;    0,318
561,389;14454,621;   -1,206;    2,318
561,971;15043,457;   -0,660;    2,136
562,553;14889,683;    0,613;    1,591
563,135;15012,588;    1,249;    1,136
563,717;14602,859;    3,158;    1,136
564,298;15165,035;    3,976;   -0,045
564,880;14918,106;    0,340;   -1,409
565,462;15086,106;    1,977;    1,318
566,043;16109,733;   -0,933;    2,318
566,625;15688,027;    4,067;    1,227
567,207;15522,284;    0,704;    1,682
567,788;16406,452;   -0,114;    1,500
568,370;17131,265;   -1,841;   -0,500
568,951;16911,735;   -0,569;    0,227
569,533;17638,879;    0,977;   -0,500
570,114;18037,476;   -0,296;    0,682
570,695;18423,018;   -0,478;   -1,318
571,277;18729,856;   -0,205;   -1,682
571,858;19381,726;    2,704;   -1,136
572,439;20106,159;    0,795;   -1,045
573,021;20193,156;    0,432;   -2,773
573,602;20612,067;    1,795;    0,318
574,183;21390,042;   -0,114;    2,227
574,764;21408,173;    2,068;    0,409
575,345;21848,032;    0,250;   -0,136
575,926;22350,195;    2,704;    0,136
576,507;22327,997;    2,704;   -0,227
577,088;23328,428;    1,704;    1,682
577,669;23233,277;    1,704;    1,955
578,250;23867,951;   -0,750;   -1,045
578,831;24399,485;   -0,841;   -2,227
579,412;24554,576;   -1,205;    0,955
579,993;25364,944;    1,432;    0,227
580,573;25700,582;   -0,023;   -0,955
581,154;24712,552;    1,613;   -0,591
581,735;25532,911;    0,341;    0,773
582,315;24960,821;    0,523;    2,136
582,896;25255,900;   -1,750;    1,227
583,477;24820,849;    0,614;    1,227
584,057;24980,920;    1,159;    0,955
584,638;25218,762;   -2,750;    2,318
585,218;25249,508;    2,886;    2,682
585,799;25417,882;    1,977;   -0,227
586,379;25404,610;    1,250;    1,591
586,959;24347,362;    2,613;    0,318
587,540;23849,660;    0,432;    2,227
588,120;23481,457;   -1,113;   -0,045
588,700;22638,237;    2,977;    2,136
589,281;22960,536;    1,250;   -0,955
589,861;22837,433;   -0,296;   -1,682
590,441;22664,493;   -1,477;   -2,682
591,021;21772,419;    1,432;   -2,591
591,601;21996,872;    0,431;    0,500
592,181;22044,616;   -1,296;   -0,773
592,761;21421,544;    2,250;    1,409
593,341;21370,359;    1,522;    0,045
593,921;21354,132;   -0,569;    1,591
594,501;21271,567;    1,250;    1,318
595,081;21072,198;    0,522;   -0,318
595,661;21429,033;    1,068;    0,955
596,240;21925,077;   -1,023;    0,136
596,820;21553,864;    2,613;    1,955
597,400;21656,756;    1,977;    0,773
597,980;21854,996;   -0,750;    1,045
598,559;21869,274;    0,341;   -0,227
599,139;21649,602;   -0,750;   -1,227
599,718;21538,239;    0,795;   -0,409
600,298;21815,570;   -2,387;    0,682
600,877;22016,296;    4,795;    1,409
601,457;22214,538;    0,340;    1,136
602,036;22184,802;    1,795;    2,045
602,616;22301,017;    2,250;    1,682
603,195;22627,377;    0,431;    3,500
603,774;22138,955;   -0,296;    2,045
604,354;22018,162;    2,522;   -0,500
604,933;21628,480;    0,250;    1,864
605,512;21738,076;    2,340;    0,591
606,091;21763,229;    1,886;    3,773
606,671;22516,857;    0,249;    0,773
607,250;21739,906;    1,431;    3,136
607,829;21922,572;    1,158;    3,227
608,408;21775,702;    4,613;    2,591
608,987;20915,446;    2,704;    3,409
609,566;21179,103;    0,341;   -2,500
610,145;21327,429;    2,885;    0,682
610,723;21722,641;    1,613;    6,864
611,302;20997,999;    1,067;    1,682
611,881;20566,740;    5,158;   11,227
612,460;21287,926;    0,795;    3,955
613,039;21722,553;    1,703;    2,045
613,617;20542,693;    0,886;    4,773
614,196;20701,404;    1,613;    1,227
614,775;21049,935;    1,249;    2,409
615,353;20962,416;   -1,660;    0,864
615,932;20730,693;    0,249;    2,409
616,510;21273,502;    0,158;    0,591
617,089;20898,607;    8,794;   17,591
617,667;20700,490;    4,885;    6,136
618,246;20579,948;   -1,115;    1,318
618,824;20733,932;    1,612;   -0,955
619,402;20270,911;    0,431;   -1,773
619,981;20694,548;    1,067;   -1,045
620,559;20610,624;    0,794;    1,682
621,137;20218,201;    3,067;    1,864
621,715;20155,322;    3,703;   -0,682
622,293;20110,653;    1,885;   -0,773
622,871;20577,362;    0,340;    0,500
623,450;20207,392;    0,430;   -0,864
624,028;20118,304;   -0,388;   -0,955
624,606;19754,014;    2,339;    1,682
625,183;20077,831;   -0,661;   -1,136
625,761;19793,488;    1,885;    1,136
626,339;20046,067;    2,339;    2,591
626,917;20416,113;    0,339;   -0,045
627,495;20484,527;    2,794;    1,318
628,073;19931,866;    5,248;    2,864
628,650;19642,065;    3,067;    2,136
629,228;20023,681;    1,248;    4,409
629,806;19482,205;   -0,024;    1,136
630,383;19738,358;    0,066;   -0,318
630,961;19626,228;   -2,206;   -0,955
631,539;19331,013;   -2,479;    0,227
632,116;18745,955;   12,703;   15,409
632,694;19271,679;    4,885;    6,500
633,271;19505,104;    1,975;    2,682
633,848;19442,082;    1,430;    2,045
634,426;19456,655;    1,521;    1,773
635,003;18725,390;   -0,207;   -0,409
635,580;18982,838;    1,884;    3,682
636,158;19467,316;    3,793;    1,227
636,735;19465,218;    3,339;   -0,500
637,312;19563,135;    0,521;   -0,682
637,889;19615,646;    2,248;   -0,682
638,466;19219,146;    0,066;   -0,409
639,043;19161,780;    1,702;   -1,136
639,620;19460,051;    0,611;   -0,955
640,197;19734,736;    1,612;    1,682
640,774;19871,820;    1,430;    1,136
641,351;20209,539;    0,612;    1,136
641,928;19680,714;    2,794;    1,409
642,505;19338,525;    0,794;   -0,500
643,082;19485,245;    1,885;    1,227
643,658;18619,146;    1,157;    1,500
644,235;19253,684;   -2,479;    2,500
644,812;19492,677;    1,794;    0,773
645,388;19307,397;    1,612;    1,409
645,965;19388,753;    1,521;    1,682
646,542;19429,746;    3,430;   -0,227
647,118;19455,738;    3,703;   -0,955
647,695;19648,004;    0,339;    1,136
648,271;19613,724;   -2,115;    0,500
648,848;19815,443;    0,248;    2,227
649,424;19688,709;    0,976;    1,318
650,000;19466,338;   -0,388;   -1,045
650,577;19304,512;    0,158;   -0,955
651,153;19679,050;   -1,115;    0,955
651,729;20523,134;    0,521;    0,864
652,305;20596,763;    1,339;    2,773
652,881;23963,392;   -1,297;    1,136
653,458;29388,748;    0,249;    0,227
654,034;32386,013;    0,703;    1,591
654,610;33516,642;    0,339;    0,773
655,186;34710,362;    1,612;    3,045
655,762;34413,991;   -1,842;    0,409
656,338;34448,256;    0,703;    0,136
656,913;35388,522;   -0,297;    0,409
657,489;34794,878;    0,249;   -0,318
658,065;34750,689;    0,794;   -1,591
658,641;35311,227;    2,158;   -0,864
659,217;34703,220;    2,067;    0,409
659,792;34127,576;   -1,751;   -0,409
660,368;34487,387;   -0,388;   -0,682
660,944;34421,652;    1,794;    1,227
661,519;30787,645;    0,522;    0,409
662,095;25979,274;   -0,206;    0,591
662,670;22219,812;   -0,206;   -0,136
663,246;21257,077;   -0,660;   -0,409
663,821;20704,342;    0,431;    1,682
664,396;20239,699;    0,613;    1,864
664,972;20487,327;   -0,660;   -0,500
665,547;20751,684;    3,794;    0,136
666,122;20798,858;    1,340;    0,318
666,698;21010,851;    2,431;    0,318
667,273;20372,298;    0,885;    0,136
667,848;21098,836;    0,340;    1,500
668,423;20918,374;    1,795;    2,318
668,998;21318,548;    0,976;   -0,682
669,573;21766,814;    2,067;   -1,500
670,148;21634,988;    1,885;   -0,682
670,723;21436,981;   -0,024;    0,318
671,298;21837,973;   -1,296;    1,045
671,873;21840,875;   -0,296;   -0,136
672,448;21820,141;    1,704;    0,136
673,023;22106,133;    0,249;   -0,227
673,597;22438,398;    2,704;    2,318
674,172;22260,482;    2,431;    0,318
674,747;21757,929;   -0,205;   -1,045
675,321;21584,376;   -0,933;    3,318
675,896;21200,187;    2,158;    1,045
676,471;22087,725;    2,522;    1,591
677,045;21819,172;   -0,296;    0,682
677,620;21871,892;    2,158;    1,136
678,194;22195,248;    0,249;    1,136
678,769;21800,605;    0,886;   -0,318
679,343;22035,597;   -0,023;    1,773
679,917;21897,772;    0,340;    1,955
680,492;21909,037;    0,249;    3,227
681,066;22011,757;    0,613;    0,409
681,640;22082,841;    1,795;   -0,318
682,214;22799,106;    2,340;    0,500
682,788;22378,008;    0,613;   -0,773
683,363;22233,546;    1,977;    1,682
683,937;21989,356;    0,886;   -0,318
684,511;22642,985;   -1,023;   -0,591
685,085;22414,887;   -1,478;    0,318
685,659;22186,789;    1,431;    0,864
686,232;22402,236;    1,159;   -0,318
686,806;22201,047;    2,159;    0,409
687,380;22692,585;   -1,932;    0,591
687,954;22919,123;    2,432;    1,136
688,528;22634,570;    2,613;    1,955
689,101;23316,835;    0,432;    1,045
689,675;22950,283;    0,886;   -0,136
690,249;22362,548;    3,432;    0,409
690,822;22666,813;    1,159;    0,318
691,396;22817,988;    2,068;    1,227
691,969;22318,617;    2,523;    0,136
692,543;22710,700;   -0,568;   -1,955
693,116;22366,238;   -0,659;   -1,409
693,690;22287,049;   -0,296;    0,500
694,263;22776,860;    2,341;    2,955
694,836;22764,852;    2,795;    3,591
695,410;21548,663;    1,159;    1,773
695,983;21945,201;    1,614;    0,591
696,556;21968,376;   -0,750;   -1,045
697,129;22334,277;   -1,114;    1,409
697,703;22031,906;    1,341;    1,955
698,276;22007,354;    1,705;   -0,773
698,849;21816,801;   -1,023;    1,409
699,422;22188,884;    1,250;    0,591
699,995;21954,059;   -0,659;    0,136
700,568;22333,324;   -0,204;    3,045
701,140;22349,135;   -1,841;    1,682
701,713;22170,764;    0,341;    2,409
702,286;21930,756;    0,796;    0,864
702,859;21742,840;    0,614;   -0,591
703,432;21032,287;   -0,841;    0,682
704,004;21488,461;    1,978;    0,318
704,577;21354,181;    1,068;    0,136
705,150;21859,810;    0,887;    2,500
705,722;21672,167;    1,523;   -3,227
706,295;21499,523;    1,432;   -0,591
706,867;21375,425;    0,250;    1,955
707,440;21572,508;   -0,113;   -0,409
708,012;21810,137;   -0,022;    0,591
708,584;21673,130;    2,705;    0,227
709,157;21954,668;    1,160;   -0,591
709,729;21691,933;    1,069;    2,045
710,301;22482,653;   -1,204;    0,045
710,874;22453,736;    0,341;   -0,227
711,446;21383,547;   -0,295;    0,864
712,018;21304,176;   -3,022;    0,500
712,590;21077,623;   -0,204;    1,682
713,162;21585,434;   -0,477;    1,318
713,734;21813,609;    1,796;   -2,045
714,306;21708,783;    0,342;   -0,409
714,878;20530,048;   -0,295;    0,864
715,450;21324,586;   -0,113;    0,864
716,022;21526,761;    2,433;    1,318
716,593;21660,299;    0,978;    0,591
717,165;21589,928;    1,796;   -1,227
717,737;21366,466;    0,796;    0,409
718,309;21066,913;    1,160;   -0,045
718,880;21050,178;   -1,295;   -1,409
719,452;21233,171;    0,887;   -1,591
720,024;20887,164;    1,705;   -0,591
720,595;21417,247;    2,978;    0,955
721,167;21008,058;    1,160;   -2,045
721,738;20550,232;    2,069;   -1,045
722,309;20541,680;    1,251;   -1,227
722,881;20341,763;    2,705;    0,773
723,452;20958,938;    1,251;    2,864
724,023;21135,203;    1,524;    2,682
724,595;20900,196;    2,342;    0,682
725,166;20690,461;    1,524;   -0,409
725,737;20331,272;    1,887;    0,227
726,308;20430,901;    0,797;    0,318
726,879;20763,075;    1,069;    1,227
727,450;20601,704;   -2,022;   -0,045
728,021;20592,333;    1,069;    0,682
728,592;20438,507;    1,160;    0,500
729,163;20776,864;    1,433;   -0,136
729,734;20748,584;    2,160;   -0,227
730,305;21078,122;    0,615;    0,136
730,876;21364,387;    0,888;    2,955
731,447;21118,471;    0,797;    2,682
732,017;21182,827;   -0,840;    1,864
732,588;20787,728;   -0,021;    1,227
733,159;20899,539;    3,615;   -1,045
733,729;20723,623;    1,251;    0,409
734,300;20113,979;    0,160;    0,864
734,870;20486,063;   -1,385;    0,591
735,441;20970,237;    0,888;   -0,591
736,011;20773,230;    1,070;   -1,591
736,582;20742,313;    1,251;    0,045
737,152;20200,851;    0,979;   -2,045
737,722;20631,389;    1,070;   -0,682
738,293;20342,927;   -2,021;    1,318
738,863;20259,920;    1,797;    2,318
739,433;20139,094;    4,524;    0,318
740,003;20726,996;    1,524;   -0,682
740,573;20215,807;    2,252;   -1,591
741,143;20192,163;    3,615;    0,318
741,713;20833,428;    0,252;   -0,500
742,283;20567,148;    1,706;    1,591
742,853;20385,232;    0,524;    1,591
743,423;19899,406;    0,161;    0,045
743,993;20028,944;    1,070;    1,500
744,563;19492,573;    2,524;   -0,864
745,133;19423,111;   -0,112;   -0,864
745,702;20039,649;    2,797;    1,773
746,272;19338,188;    0,434;    0,591
746,842;19149,635;   -0,748;   -0,591
747,411;19543,355;   -0,839;   -0,318
747,981;19675,165;   -0,930;    0,500
748,551;19743,976;   -0,021;   -1,045
749,120;19586,332;   -0,112;   -0,227
749,690;19933,598;    2,161;    2,409
750,259;20228,681;    0,979;    2,955
750,828;20110,856;    4,070;   -1,955
751,398;20397,394;   -0,112;   -0,045
751,967;19926,386;    2,888;    0,409
752,536;20126,015;    1,161;   -0,227
753,105;20483,190;   -1,384;    0,227
753,675;20239,819;   -0,112;    1,773
754,244;20206,902;    0,888;    3,591
754,813;20242,622;    0,979;    1,227
755,382;19871,524;    0,798;    0,955
755,951;20293,789;   -0,112;    3,682
756,520;19969,418;    2,525;    1,864
757,089;20406,411;    1,888;    0,500
757,658;20518,949;    2,434;    1,227
758,227;20560,123;   -1,111;    0,318
758,795;20809,843;   -1,021;    1,136
759,364;21071,199;    0,525;   -0,591
759,933;20164,101;    1,343;   -0,045
760,501;19751,185;    0,252;   -1,318
761,070;20149,814;   -0,293;   -1,409
761,639;20836,261;    1,434;    1,318
762,207;20207,162;    0,889;   -0,955
762,776;20143,701;    2,889;    0,864
763,344;20132,057;    0,071;    0,591
763,913;19263,413;    1,616;    1,409
764,481;19951,951;    1,980;   -0,136
765,049;19817,853;    0,616;    1,409
765,618;19705,755;    1,434;    0,318
766,186;19820,383;    2,434;    0,136
766,754;19995,103;    1,798;    1,864
767,322;19090,732;    1,162;    0,409
767,890;19004,998;    0,525;   -1,773
768,459;19436,627;    2,616;   -0,318
769,027;19588,528;    2,525;    3,409
769,595;18684,885;    2,616;    2,591
770,163;19080,332;    3,344;    2,955
770,730;18883,143;    2,525;   -0,136
771,298;18799,681;    1,162;   -1,409
771,866;18881,491;    0,253;    4,955
772,434;19121,575;    1,162;   -1,864
773,002;19299,022;    2,616;    0,682
773,569;19020,560;    1,071;    1,682
774,137;18791,462;    0,889;   -0,045
774,705;19548,909;   -0,747;   -0,136
775,272;19084,993;    0,253;    0,682
775,840;18943,349;   -0,111;    2,682
776,407;18487,432;   -0,293;    1,955
776,975;18130,516;    1,162;    0,318
777,542;19079,690;    2,162;   -0,045
778,110;18905,956;    0,707;   -0,045
778,677;18582,494;    1,071;   -0,864
779,244;18418,032;   -1,020;    1,045
779,812;18464,570;    0,980;    0,864
780,379;18372,472;    2,435;    1,136
780,946;18602,191;    2,617;   -0,773
781,513;18851,366;   -0,565;    0,318
782,080;18240,722;    1,253;    2,864
782,647;18894,806;    1,708;    3,045
783,214;18596,616;   -0,201;    3,864
783,781;18249,245;    1,708;   -0,682
784,348;18183,602;    0,253;    1,500
784,915;18541,140;   -1,474;    0,318
785,482;18339,950;    2,708;    2,591
786,049;18734,489;    1,071;   -0,591
786,615;18865,208;    1,708;   -0,955
787,182;18632,383;   -3,201;   -0,682
787,749;18359,285;   -2,201;    1,409
788,315;17757,641;    0,253;   -0,409
788,882;18018,997;    0,981;   -1,227
789,448;18716,444;    1,435;   -0,955
790,015;18722,619;    1,799;    3,227
790,581;18276,884;    0,708;    0,227
791,148;18160,968;    1,344;    1,045
791,714;18344,233;   -1,019;    3,136
792,280;18084,316;    3,708;    1,591
792,847;17744,309;   -0,928;    2,500
793,413;18184,665;   -0,110;   -0,318
793,979;17831,203;    1,526;   -1,318
794,545;17922,287;    2,981;    2,682
795,111;17411,825;    2,435;    1,318
795,678;17545,090;    3,526;   -1,682
796,244;17204,901;    2,799;    0,136
796,810;17692,166;    0,799;    0,773
797,375;17480,432;   -0,292;   -2,136
797,941;17488,788;   -1,110;    0,591
798,507;17610,781;    0,254;   -0,955
799,073;17218,137;    2,708;    0,591
799,639;17324,857;    1,435;    3,136
800,205;17348,486;   -1,565;    2,682
800,770;16936,933;    1,345;    1,773
801,336;16971,380;    2,981;   -0,955
801,901;16732,009;    6,072;    3,136
802,467;17321,911;    0,526;    2,045
803,033;16660,994;   -0,019;    0,864
803,598;16841,169;    1,072;   -1,045
804,163;16887,707;    0,708;   -0,318
804,729;16849,517;   -0,110;    1,136
805,294;17172,692;    1,072;    2,227
805,859;17011,048;    0,890;   -0,409
806,425;16611,677;    3,890;    2,682
806,990;16315,124;    1,890;    4,318
807,555;16698,481;   -0,110;    2,591
808,120;16632,382;   -1,292;   -0,409
808,685;16731,739;    1,072;   -2,500
809,250;16275,549;    2,072;   -0,500
809,815;16514,451;   -0,201;    0,682
810,380;16968,535;    0,981;    1,591
810,945;17421,163;    2,890;    2,045
811,510;16730,883;   -0,200;    1,591
812,075;16479,149;    2,800;   -1,409
812,640;16461,596;    3,709;    1,409
813,204;16579,407;    2,163;   -0,227
813,769;17017,581;    0,254;   -0,045
814,334;16518,210;    0,527;    0,864
814,898;16510,112;    1,981;    0,591
815,463;16358,923;    0,981;   -0,773
816,027;16336,188;    1,345;   -2,318
816,592;16472,544;    2,163;   -2,045
817,156;16079,537;   -2,200;    1,136
817,721;15928,529;    0,982;    2,318
818,285;15942,613;    0,618;    1,500
818,849;16515,060;   -0,018;    1,682
819,414;16426,780;    0,073;    2,955
819,978;16055,227;   -0,291;    1,773
820,542;16546,674;    2,891;    0,500
821,106;16314,031;    2,800;    0,682
821,670;16392,659;    2,709;    2,591
822,234;16142,107;    1,073;    1,409
822,798;15643,917;   -0,836;    0,500
823,362;15651,092;    1,527;    4,227
823,926;15079,630;   -0,018;    1,136
824,490;15241,532;    3,527;   -0,682
825,054;15625,524;    2,527;   -1,136
825,618;15343,608;   -1,200;   -1,500
826,181;15300,055;    0,982;   -1,318
826,745;15208,502;   -0,745;   -1,045
827,309;15480,313;    2,255;    1,318
827,872;15027,487;    0,527;    0,955
828,436;15898,207;    1,982;   -0,773
828,999;16032,382;    2,436;    1,227
829,563;15007,556;   -0,654;    1,136
830,126;14825,276;   -0,018;   -0,591
830,690;14828,087;    0,709;    2,864
831,253;14399,079;   -0,473;    2,227
831,816;14489,981;   -0,018;    0,500
832,380;14470,792;    1,164;    0,864
832,943;14687,057;    3,073;   -0,500
833,506;14206,050;    0,255;   -1,227
834,069;14916,861;    2,164;   -0,955
834,632;14994,217;   -2,200;    1,318
835,195;14893,482;    1,346;    0,955
835,758;14212,748;    0,709;    1,955
836,321;14070,649;    1,073;   -1,045
836,884;14224,551;   -1,291;   -0,955
837,447;14206,998;    0,528;    1,773
838,010;14470,809;    1,800;    3,227
838,573;14712,892;    0,528;    0,773
839,135;14731,067;   -0,109;   -0,955
839,698;14224,696;    2,528;    0,409
840,261;13839,779;    0,255;   -0,227
840,823;13675,681;   -0,927;    0,864
841,386;13951,855;   -0,018;   -2,409
841,948;13881,030;    0,255;    1,773
842,511;13621,023;    0,255;    1,682
843,073;13755,470;    2,982;    0,227
843,636;13597,826;    0,619;   -0,227
844,198;13501,091;    1,255;    0,591
844,760;13621,538;    0,619;    1,955
845,322;13296,895;    0,164;    1,136
845,885;13658,705;   -0,290;    0,591
846,447;14068,334;    0,710;    0,227
847,009;13712,236;    3,983;   -0,682
847,571;13976,047;    1,346;   -2,045
848,133;14038,494;   -0,199;   -1,864
848,695;13917,305;    2,346;    1,409
849,257;13535,479;    1,346;   -1,682
849,819;13658,926;    2,983;   -0,409
850,381;13692,010;    1,801;   -0,864
850,942;14016,912;    1,892;   -0,591
851,504;13964,995;    0,983;    0,227
852,066;13963,079;    1,619;   -1,591
852,628;13598,980;    0,165;    1,955
853,189;13181,064;    0,256;    2,682
853,751;13291,420;   -0,654;    1,409
854,312;13134,140;    1,256;   -1,682
854,874;13575,678;   -0,108;   -0,773
855,435;14005,216;    0,528;   -1,682
855,997;14164,391;    3,983;   -0,136
856,558;13554,020;    0,801;    1,773
857,119;13642,012;   -0,744;    2,864
857,681;13351,005;   -0,108;    0,318
858,242;13403,816;    1,347;   -2,136
858,803;13798,445;    1,074;   -0,773
859,364;14317,619;    0,892;   -4,773
859,925;13709,612;   -0,290;   -0,955
860,486;13635,422;    0,529;   -0,955
861,047;13390,961;    0,165;   -1,227
861,608;13207,771;    0,165;   -0,773
862,169;13352,491;   -0,562;   -0,045
862,730;13141,211;   -0,290;    1,409
863,291;13389,749;    0,438;   -0,500
863,852;13649,469;   -0,926;    1,955
864,412;13229,371;   -1,835;   -0,864
864,973;11991,182;    1,892;    0,500
865,534;11872,901;    2,074;    0,227
866,094;13150,803;    2,620;    0,227
866,655;12858,614;    4,711;    3,318
867,215;13145,697;    0,074;    0,136
867,776;13034,326;   -1,199;   -0,136
868,336;13100,592;    1,529;    0,136
868,897;12679,312;    3,438;    1,682
869,457;12450,032;    3,256;    0,318
870,017;12679,661;    2,438;   -1,227
870,578;13143,926;    1,893;    0,773
871,138;12788,282;    2,620;   -0,955
871,698;12395,729;   -0,562;   -1,318
872,258;12279,449;    0,711;   -2,864
872,818;12658,442;    2,347;    0,045
873,378;12609,980;   -2,198;    1,045
873,938;12204,245;    4,984;    0,500
874,498;12529,147;    1,256;   -1,955
875,058;12419,594;    4,347;    1,773
875,618;12284,314;    1,438;   -2,682
876,177;12222,216;   -0,471;    0,136
876,737;11902,845;   -0,289;    1,955
877,297;11939,655;    2,711;    1,955
877,856;11948,739;    2,529;    0,318
878,416;11906,186;    2,438;   -0,136
878,976;12066,724;    3,438;    0,409
879,535;12277,353;    4,529;    3,136
880,095;12064,528;    1,347;    0,045
880,654;12135,520;    0,347;    1,318
881,213;12258,331;    2,347;    1,500
881,773;11904,869;    1,984;    2,682
882,332;12246,771;    6,075;    5,136
882,891;12119,763;    0,711;    2,136
883,451;12499,847;   -2,016;    1,682
884,010;11981,749;   -1,107;   -0,409
884,569;12089,559;   -2,289;   -0,045
885,128;12200,461;   -0,743;   -1,864
885,687;12268,999;   -0,743;    0,682
886,246;12021,901;    2,620;    2,136
886,805;11814,530;    1,620;    2,045
887,364;11996,522;    1,166;   -0,500
887,922;12329,242;   -0,016;    0,045
888,481;11856,780;    1,530;    0,591
889,040;12144,773;    3,711;    2,136
889,599;12674,311;    2,166;    1,409
890,157;12738,940;    2,166;    2,409
890,716;12382,114;    2,166;    0,227
891,274;12214,289;    0,075;   -1,136
891,833;12632,191;    1,166;    0,864
892,391;12519,001;    1,802;    0,500
892,950;12557,994;    0,166;   -0,773
893,508;12866,805;    0,984;   -0,409
894,067;12300,252;   -0,379;    0,136
894,625;12227,426;   -1,016;   -1,500
895,183;12428,601;   -0,198;   -0,682
895,741;12345,412;    2,257;   -1,773
896,299;12195,313;    1,621;   -2,409
896,858;12377,215;    1,530;   -1,591
897,416;12493,299;    0,166;   -1,318
897,974;12275,473;   -2,197;    0,318
898,532;12411,920;    6,530;    2,682
899,089;12349,276;    0,621;   -0,682
899,647;12424,451;    0,530;    1,318
900,205;12200,080;    0,257;    1,045
900,763;12366,981;    2,166;    0,227
901,321;12389,610;    3,530;   -1,409
901,878;11852,785;    3,257;   -0,773
902,436;11799,414;    0,257;    1,318
902,994;12221,316;    6,712;    3,682
903,551;11715,217;    1,439;    0,409
904,109;12089,937;    1,530;   -1,409
904,666;11715,384;    1,439;    1,045
905,224;11573,741;    3,894;   -0,409
905,781;11410,642;   -0,470;   -0,318
906,338;11401,908;    0,167;    1,045
906,895;11364,627;    1,894;    2,045
907,453;11299,347;    2,348;    1,136
908,010;11355,067;    3,348;    0,409
908,567;11048,878;   -0,561;    0,591
909,124;10604,871;    2,439;   -1,500
909,681;10688,591;   -1,288;    0,682
910,238;10884,583;   -0,106;   -1,318
910,795;11171,485;   -1,561;   -1,136
911,352;10848,212;   -0,379;   -2,682
911,909;10370,485;    2,803;   -0,864
912,466;10787,576;    1,985;    1,500
913,022;10391,394;   -0,924;    0,500
913,579;10737,030;   -0,470;    2,045
914,136;10498,030;   -2,561;    0,955
914,692;10796,121;    1,530;   -1,227
915,249;10421,758;    0,530;    0,409
915,806;10594,212;    1,803;    1,955
916,362;10446,030;    0,894;    1,864
916,918;10028,667;    2,439;    1,045
917,475;10055,848;    1,621;    0,955
918,031;10157,121;    0,076;   -0,045
918,587; 9696,303;    0,621;   -0,318
919,144; 9907,212;   -0,379;    0,227
919,700;10150,939;    0,167;    0,773
920,256; 9772,030;    0,439;    0,045
920,812; 9478,485;    1,439;   -1,045
921,368; 9545,394;    1,348;   -1,045
921,924; 9224,848;    0,439;   -0,136
922,480; 8901,030;    0,076;    1,227
923,036; 9445,394;   -0,652;    1,955
923,592; 9394,758;    0,621;    0,318
924,148; 9316,212;    1,894;   -0,955
924,704; 8774,212;    0,258;   -0,409
925,259; 9060,939;   -0,561;    0,591
925,815; 8853,667;    3,803;    0,500
926,371; 8467,758;    3,530;    1,409
926,926; 8387,121;    1,621;    0,591
927,482; 8096,121;    1,621;    0,773
928,037; 8014,758;   -0,833;    2,045
928,593; 8317,394;    0,258;    1,045
929,148; 8199,576;    1,167;   -1,500
929,704; 7778,667;    2,439;   -0,500
930,259; 7944,576;    0,894;   -0,136
930,814; 7207,212;    1,803;    1,955
931,369; 6976,848;    0,258;   -0,773
931,925; 6897,576;   -1,924;    0,136
932,480; 6808,939;    3,076;   -2,591
933,035; 6774,030;    3,985;   -0,318
933,590; 6619,667;   -1,742;   -1,773
934,145; 6350,121;   -1,288;   -0,318
934,700; 6628,394;    0,348;   -0,591
935,255; 6513,848;    4,803;    0,045
935,809; 5997,212;    6,258;    0,864
936,364; 5267,939;    2,167;   -0,136
936,919; 5303,848;    2,348;   -1,773
937,474; 5220,212;    1,348;    0,136
938,028; 5050,758;    3,076;    1,136
938,583; 4728,576;    6,348;    4,682
939,138; 4922,303;    0,167;    2,136
939,692; 4444,758;   -1,015;   -1,136
940,247; 4238,394;    1,167;   -1,045
940,801; 3977,939;    0,621;    0,227
941,355; 3905,030;    0,439;    2,591
941,910; 3606,030;    0,712;   -2,136
942,464; 3711,576;    2,712;   -0,318
943,018; 3633,667;    3,258;   -0,227
943,572; 3561,667;    2,803;   -0,682
944,126; 3138,303;   -0,924;   -0,409
944,681; 3027,030;    0,712;    0,227
945,235; 3020,212;    2,167;   -0,591
945,789; 2959,758;    1,258;   -1,864
946,342; 3141,030;   -0,561;   -0,591
946,896; 2918,939;    0,348;    0,955
947,450; 2715,576;   -0,561;   -0,227
948,004; 2934,121;    1,076;   -0,045
948,558; 2899,576;    1,258;   -0,864
949,111; 2839,848;   -1,197;   -0,318
949,665; 2955,667;   -0,106;   -0,682
950,219; 2850,212;    0,621;   -1,045
950,772; 2858,848;    0,258;    1,864
951,326; 2796,121;   -1,106;   -0,955
951,879; 2830,303;    1,076;   -2,318
952,433; 2890,758;    1,348;    2,227
952,986; 2720,030;    0,348;    0,682
953,539; 2672,030;    1,530;    0,591
954,093; 2636,030;    0,985;   -1,318
954,646; 2770,939;   -0,288;    1,318
955,199; 2591,030;    1,258;   -0,500
955,752; 2581,485;    1,985;    1,773
956,305; 2513,121;    0,894;    2,955
956,858; 2640,848;    0,621;   -0,318
957,411; 2783,758;    3,621;    2,136
957,964; 2620,848;    2,076;    2,136
958,517; 2594,939;    0,985;    3,136
959,070; 2468,848;   -1,197;    1,955
959,623; 2632,667;    1,076;    1,500
960,176; 2437,939;    0,712;    2,045
960,728; 2413,485;    1,712;    0,773
961,281; 2459,576;    2,258;    0,500
961,834; 2459,576;   -0,833;    0,864
962,386; 2400,121;    1,258;    1,045
962,939; 2322,394;    3,439;   -0,318
963,491; 2437,394;    2,621;    1,136
964,043; 2321,758;    0,076;    2,409
964,596; 2466,848;    1,712;    2,227
965,148; 2313,212;   -0,379;    1,773
965,700; 2233,485;   -0,015;   -0,227
966,253; 2392,121;   -0,833;    0,318
966,805; 2276,939;    1,894;    0,773
967,357; 2272,667;    0,439;   -1,500
967,909; 2288,576;    1,167;   -1,227
968,461; 2329,303;    0,894;    3,136
969,013; 2272,667;   -1,561;   -0,864
969,565; 2351,939;    1,803;   -1,136
970,117; 2545,030;    3,803;    1,045
970,669; 2300,848;    3,258;   -0,136
971,220; 2127,667;    2,167;   -1,500
971,772; 2101,939;    1,348;   -0,318
972,324; 2220,121;   -1,197;   -0,500
972,876; 2145,939;    0,167;   -0,045
973,427; 2301,939;   -1,197;   -1,045
973,979; 2309,121;    0,076;   -2,500
974,530; 2249,303;    0,803;    1,318
975,082; 2257,939;    2,167;    1,682
975,633; 2189,121;    2,894;    1,682
976,184; 2328,030;    2,076;    0,773
976,736; 2192,030;    0,348;    0,227
977,287; 2039,030;    0,258;   -0,500
977,838; 2154,576;   -0,924;   -0,318
978,389; 2202,121;    0,803;   -0,500
978,940; 2058,939;    1,258;   -0,409
979,491; 2070,848;    2,258;   -0,500
980,042; 2084,303;   -0,652;    3,045
980,593; 2111,030;    1,894;    0,227
981,144; 2196,121;    3,530;   -0,500
981,695; 2209,030;   -0,470;    1,500
982,246; 2149,030;   -1,833;    1,045
982,797; 2200,303;   -0,561;    0,682
983,347; 2326,576;    2,167;    0,591
983,898; 2527,667;    4,167;    0,409
984,449; 2390,121;    2,530;    0,773
984,999; 2236,394;    1,894;   -1,136
985,550; 2083,939;    3,167;   -0,318
986,100; 2042,576;    0,712;   -0,318
986,651; 2064,121;    0,258;    0,045
987,201; 2071,030;    0,894;   -0,591
987,751; 2132,212;   -0,288;    2,864
988,302; 2149,030;   -0,379;    1,500
988,852; 2162,485;    1,985;   -1,136
989,402; 2248,576;    0,985;    0,682
989,952; 2191,848;    1,621;    0,864
990,502; 2202,848;    1,076;    0,682
991,052; 2132,212;   -0,106;    0,045
991,602; 2049,394;    1,167;    1,318
992,152; 2073,303;    2,803;    0,682
992,702; 2057,121;    1,167;   -0,045
993,252; 1996,121;    0,076;   -0,500
993,802; 2107,939;    1,167;    1,318
994,352; 2262,848;   -0,742;    1,136
994,901; 2276,303;    1,076;    3,227
995,451; 2239,939;   -1,197;    0,318
996,000; 2285,030;    1,076;    0,318
996,550; 2078,758;    2,894;    0,227
997,100; 2097,485;   -0,561;   -0,045
997,649; 2367,939;   -0,197;    0,955
998,198; 2054,939;   -0,288;   -1,500
998,748; 2240,939;    0,348;   -2,318
999,297; 2117,576;    0,985;   -0,409
999,846; 2214,848;    1,894;   -0,773
1000,395; 2212,576;    1,530;    0,500
1000,945; 2223,758;    1,076;   -0,773
1001,494; 2302,212;    0,167;    0,682
1002,043; 2258,758;    0,712;    0,864
1002,592; 2090,394;    3,439;    1,955
1003,141; 2214,121;    2,439;   -0,682
1003,690; 2154,121;    1,258;    0,500
1004,238; 2148,848;   -0,106;   -0,045
1004,787; 1875,030;   -1,288;    1,227
1005,336; 2135,576;    1,621;    0,682
1005,885; 2201,485;   -0,197;   -2,773
1006,433; 2258,212;   -0,470;    0,955
1006,982; 2414,212;    2,167;    1,682
1007,531; 2287,212;    2,712;   -0,227
1008,079; 2195,212;    0,258;    0,500
1008,627; 2304,303;    1,621;    0,409
1009,176; 2103,848;    0,076;   -1,955
1009,724; 2139,848;   -2,742;    0,864
1010,273; 2249,212;    1,076;    0,500
1010,821; 2293,212;    1,076;    1,409
1011,369; 2060,939;    0,076;    1,318
1011,917; 2052,212;   -0,833;   -0,591
1012,465; 2295,667;    2,530;   -1,591
1013,013; 2367,576;    0,439;   -1,682
1013,561; 2318,212;   -1,288;   -0,773
1014,109; 2394,939;   -0,833;    1,682
1014,657; 2253,758;    1,348;    0,591
1015,205; 2310,030;    0,894;   -0,955
1015,753; 2305,212;    0,258;   -1,409
1016,301; 2349,667;    2,621;    3,045
1016,848; 2378,576;    2,167;    0,409
1017,396; 2422,939;    1,621;    0,045
1017,944; 2492,667;    2,621;    1,864
1018,491; 2275,485;   -0,197;    1,409
1019,039; 2547,121;   -0,652;    0,591
1019,586; 2365,394;    0,076;    1,682
1020,134; 2431,576;    0,712;    1,500
1020,681; 2465,667;    2,894;   -1,136
1021,228; 2419,212;   -0,561;   -2,227
1021,776; 2290,576;   -0,833;   -1,136
1022,323; 2544,576;    0,803;    0,773
1022,870; 2456,758;   -0,470;   -0,045
1023,417; 2406,848;    2,076;    1,864
1023,964; 2450,939;    0,621;    1,227
1024,511; 2358,394;   -0,652;    0,773
1025,058; 2207,030;    0,439;   -0,045
1025,605; 2244,758;   -1,742;    3,136
1026,152; 2485,303;   -0,106;   -0,591
1026,699; 2230,212;    0,167;    1,318
1027,245; 2335,939;    2,439;    0,318
1027,792; 2473,576;    0,712;    1,409
1028,339; 2458,848;    4,076;   -0,045
1028,885; 2306,303;    3,621;   -0,227
1029,432; 2240,576;   -0,106;    0,227
1029,978; 2334,394;    1,348;   -1,591
1030,525; 2247,939;    1,621;    0,409
1031,071; 2381,303;    0,348;    1,136
1031,618; 2588,848;    1,258;    1,682
1032,164; 2368,667;    2,076;    3,045
1032,710; 2402,485;    0,076;   -1,500
1033,256; 2312,485;    0,712;   -0,136
1033,803; 2255,758;   -0,288;    1,500
1034,349; 2021,212;    1,803;    0,136
1034,895; 2148,394;    2,621;   -0,318
1035,441; 2150,121;    0,439;    0,318
1035,987; 2178,758;   -2,288;   -0,682
1036,533; 2215,303;   -0,197;   -0,955
1037,078; 2426,939;    4,712;    1,682
1037,624; 2249,121;    2,439;   -0,955
1038,170; 2226,212;    1,712;   -0,318
1038,716; 2188,667;    2,167;   -0,409
1039,261; 2074,848;    2,167;   -0,773
1039,807; 2041,485;   -0,015;    3,409
1040,352; 2120,303;   -1,288;   -0,318
1040,898; 2142,576;    0,167;   -0,682
1041,443; 2045,394;    0,803;   -2,591
1041,989; 2190,030;    3,621;    1,591
1042,534; 2008,758;    0,985;    2,591
1043,079; 2050,030;    1,985;    0,955
1043,625; 1929,121;    0,258;    0,500
1044,170; 1985,939;    2,439;    1,045
1044,715; 2256,485;    0,167;    0,955
1045,260; 2079,030;   -0,833;   -0,955
1045,805; 2067,485;    0,258;   -0,591
1046,350; 1993,667;    0,530;   -0,409
1046,895; 2047,667;    0,803;    1,591
1047,440; 2030,848;    1,530;    0,409
1047,985; 1897,485;   -1,197;   -0,955
1048,530; 1809,667;    1,348;    1,227
1049,074; 1899,030;    2,803;    0,318
1049,619; 1854,667;   -0,924;    1,955
1050,164; 1700,939;    1,076;    0,227
1050,708; 1760,485;    2,621;    0,045
1051,253; 2148,939;    3,258;   -2,227
1051,797; 1844,758;   -0,197;   -1,318
1052,342; 1786,848;    1,348;    1,045
1052,886; 1820,485;    1,803;   -1,409
1053,430; 1700,212;    2,167;    0,136
1053,975; 1732,576;    0,894;   -0,318
1054,519; 1724,485;    1,803;    3,227
1055,063; 1788,848;    3,621;    1,318
1055,607; 1690,576;    1,348;    0,227
1056,151; 1710,030;    0,530;    1,682
1056,695; 1601,212;   -1,833;   -1,136
1057,239; 1658,303;   -1,197;   -0,682
1057,783; 1691,121;    2,258;   -1,500
1058,327; 1689,939;    3,076;    1,409
1058,871; 1920,303;    3,985;    1,318
1059,415; 1644,848;   -0,561;   -0,045
1059,958; 1918,303;    2,985;    2,591
1060,502; 1620,758;    1,348;   -0,773
1061,046; 1500,939;    1,712;   -0,955
1061,589; 1462,848;    2,803;   -1,136
1062,133; 1360,667;    0,985;    1,864
1062,676; 1343,667;    1,439;    0,864
1063,220; 1383,121;    0,985;    0,500
1063,763; 1412,121;    2,985;    1,136
1064,306; 1473,667;    0,985;    1,864
1064,849; 1393,758;    2,076;    0,591
1065,393; 1393,848;    2,894;   -1,500
1065,936; 1474,939;    2,530;   -0,409
1066,479; 1348,212;    2,621;    1,318
1067,022; 1382,576;    1,894;   -0,227
1067,565; 1304,576;   -1,197;   -1,318
1068,108; 1305,667;    1,258;   -0,591
1068,651; 1268,121;   -2,470;    1,409
1069,194; 1214,758;   -1,106;   -1,682
1069,736; 1238,576;    3,803;    0,955
1070,279; 1203,485;   -1,652;   -0,500
1070,822; 1297,030;    1,530;   -0,318
1071,364; 1421,758;    0,530;    1,318
1071,907; 1224,758;    0,348;    3,227
1072,450; 1082,576;    0,258;   -0,045
1072,992; 1107,939;   -0,561;    3,136
1073,535; 1268,394;    0,167;    2,136
1074,077; 1067,394;    2,985;    2,045
1074,619; 1042,848;    0,985;    0,591
1075,161; 1083,030;   -0,561;    1,500
1075,704; 1256,758;    0,258;    1,227
1076,246; 1047,303;    1,530;    0,682
1076,788;  964,576;   -1,015;    1,773
1077,330; 1027,939;   -2,106;    2,136
1077,872; 1020,939;   -1,924;    0,955
1078,414; 1257,758;    3,712;    0,773
1078,956; 1018,212;    0,167;   -0,227
1079,498; 1280,303;    0,439;    0,318
1080,040; 1007,303;    0,985;   -1,318
1080,581;  940,576;    0,621;   -0,318
1081,123;  850,485;   -0,106;   -0,773
1081,665;  891,576;    3,803;   -0,955
1082,206; 1192,212;    3,258;   -0,500
1082,748; 1059,939;    3,258;    2,045
1083,289;  931,121;    0,167;    1,318
1083,831;  856,030;    0,258;    0,227
1084,372;  915,394;    0,894;    0,591
1084,913;  919,758;    3,348;    0,864
1085,455;  863,303;    1,530;   -2,045
1085,996;  855,303;    0,530;    0,136
1086,537;  879,212;    0,985;    0,864
1087,078;  915,485;    0,439;   -2,136
1087,619;  960,576;   -1,652;    0,227
1088,160;  886,758;    1,439;    1,318
1088,701;  848,939;   -0,742;    0,682
1089,242;  809,758;   -0,561;   -2,227
1089,783;  899,212;   -0,561;    1,409
1090,324;  872,848;   -0,833;    0,682
1090,865;  769,848;   -1,924;   -0,409
1091,405;  718,303;   -0,561;    2,227
1091,946;  758,667;   -0,197;   -0,955
1092,487;  685,758;   -1,288;   -1,409
1093,027;  865,394;    1,803;   -1,500
1093,568;  723,758;    2,258;    1,227
1094,108;  820,939;    0,621;    1,773
1094,649;  753,030;   -0,470;    0,136
1095,189;  693,394;    1,167;   -0,682
1095,729;  658,848;    0,712;    0,955
1096,269;  661,939;    1,258;   -0,955
1096,810;  965,303;   -0,197;    0,500
1097,350;  803,667;   -0,561;   -0,773
1097,890;  698,030;    2,985;    1,227
1098,430;  956,848;    4,985;    2,864
1098,970;  842,212;    1,894;    1,682
1099,510;  692,303;   -0,833;   -2,318
1100,050;  635,939;    0,258;   -1,591
1100,589;  614,576;    0,076;   -0,318
1101,129;  729,394;    0,894;   -0,955
1101,669;  877,485;    2,803;    2,136
1102,209;  708,303;    1,530;    2,227
1102,748;  671,121;    3,439;    0,955
1103,288;  667,030;    0,712;   -1,227
1103,827;  680,758;    3,530;   -2,227
1104,367;  574,212;    1,712;   -2,409
1104,906;  542,939;   -1,015;   -1,136
1105,445;  618,030;    0,985;   -1,136
1105,985;  554,848;   -0,652;    1,500
1106,524;  609,485;    1,530;   -0,682
1107,063;  577,121;    1,167;    1,409
1107,602;  552,667;    1,894;   -1,500
1108,141;  495,212;    1,621;    1,500
1108,680;  598,212;    3,985;   -0,591
1109,219;  532,758;    0,167;   -0,500
1109,758;  534,485;    4,167;    0,682
1110,297;  515,485;   -1,106;   -0,682
1110,836;  454,121;    1,439;    0,955
1111,375;  609,758;    0,348;    0,409
1111,913;  620,939;    0,985;    0,773
1112,452;  564,303;    0,894;    0,136
1112,991;  451,394;    1,076;    1,955
1113,529;  427,939;    0,167;   -0,045
1114,068;  494,576;    0,439;    2,955
1114,606;  407,576;   -0,561;   -0,955
1115,144;  555,576;    1,530;    1,045
1115,683;  490,121;    1,985;    0,318
1116,221;  541,848;    2,076;   -0,864
1116,759;  450,303;    1,621;   -0,864
1117,297;  634,303;    1,621;    1,864
1117,836;  464,848;    1,985;   -1,227
1118,374;  466,030;    0,258;   -0,682
1118,912;  422,485;    0,439;    2,682
1119,450;  415,212;    0,985;    0,864
1119,988;  455,303;    3,348;    2,136
1120,525;  890,394;    7,258;    3,318
1121,063;  598,303;    0,530;    1,864
1121,601;  426,303;    1,076;   -1,227
1122,139;  388,303;    1,076;   -2,045
1122,676;  582,121;   -1,652;    2,773
1123,214;  513,394;    0,712;    4,409
1123,751;  344,121;    0,621;    2,227
1124,289;  449,667;    0,894;   -0,409
1124,826;  345,848;   -0,379;    0,227
1125,364;  268,939;    0,712;   -0,955
1125,901;  444,848;    6,258;    1,227
1126,438;  542,758;    3,530;    0,955
1126,975;  294,212;    2,985;   -0,773
1127,513;  354,667;    2,621;    2,136
1128,050;  273,394;   -0,561;   -0,682
1128,587;  370,303;    1,348;   -0,227
1129,124;  403,848;   -0,015;    1,318
1129,661;  287,394;   -1,924;    0,227
1130,198;  441,667;    2,439;    0,773
1130,734;  391,121;   -0,379;    1,409
1131,271;  266,758;   -1,197;    0,864
1131,808;  416,485;    1,621;    3,045
1132,345;  305,121;    4,530;    0,318
1132,881;  183,394;   -0,561;   -1,864
1133,418;  323,394;    0,348;   -1,136
1133,954;  259,667;    0,712;   -2,682
1134,491;  324,758;    1,712;   -0,773
1135,027;  236,758;    2,167;    0,864
1135,564;  318,303;    1,439;    2,955
1136,100;  299,576;   -0,742;    2,136
1136,636;  199,939;   -1,015;   -1,045
1137,172;  287,667;    0,894;   -1,045
1137,708;  224,667;   -1,561;   -1,045
1138,245;  227,758;    0,803;   -1,227
1138,781;  181,576;    1,803;   -3,318
1139,317;  245,758;    1,894;   -1,409
1139,852;  233,848;    3,076;    0,136
1140,388;  331,485;    2,076;   -0,409
1140,924;  226,667;    1,076;   -2,227
1141,460;  171,030;   -0,288;    0,136
1141,996;  124,394;   -0,652;    2,682
1142,531;  171,121;    1,076;    3,318
1143,067;  357,939;    1,167;    1,045
1143,602;  405,848;    3,439;   -0,318
1144,138;  271,485;    0,803;    1,045
1144,673;  154,848;    1,621;    1,409
1145,209;  206,485;    2,894;   -0,318
1145,744;  142,030;    0,803;    0,864
1146,279;  257,303;    1,530;   -0,136
1146,815;  186,212;    1,530;   -2,682
1147,350;  209,394;   -0,924;    0,045
1147,885;  138,758;   -1,924;   -1,318
1148,420;  142,303;    2,439;    0,773
1148,955;  131,394;   -1,470;    1,864
1149,490;  148,394;   -1,106;   -1,591
1150,025;  134,758;   -1,106;   -1,773
1150,560;  239,212;   -0,288;   -0,955
1151,094;  208,394;    0,258;   -0,591
1151,629;  209,939;   -3,742;    0,864
1152,164;  146,030;   -1,288;    1,318
1152,698;  115,576;    1,258;   -0,136
1153,233;   70,485;   -1,379;   -0,682
1153,767;  114,485;   -0,288;   -2,318
1154,302;  160,030;   -0,379;    1,773
1154,836;  158,758;    0,803;   -2,136
1155,371;  207,758;    2,258;    3,682
1155,905;  164,394;    1,985;    1,682
1156,439;  138,848;    0,530;   -0,500
1156,973;  161,758;    0,439;    0,318
1157,507;  106,030;   -1,742;    0,682
1158,042;  135,121;   -0,652;    1,045
1158,576;  176,303;   -0,561;    1,773
1159,110;  164,485;    0,076;    2,409
1159,643;  133,758;   -2,470;   -0,045
1160,177;   86,485;   -2,015;    1,500

