
Integration time [ms]:   0,040
Averaging Nr. [scans]: 11
Smoothing Nr. [pixels]: 0
Data measured with spectrometer [name]: 7318044SP
Wave   ;Sample   ;Dark     ;Reference
[nm]   ;[counts] ;[counts] ;[counts] 

186,757;   31,434;   38,161;    1,318
187,357;   55,208;   26,706;    0,955
187,958;   33,919;   17,252;   -1,591
188,558;   71,021;   12,979;   -1,227
189,159;   45,327;   10,070;   -4,500
189,759;   21,143;    5,797;   -3,591
190,360;   22,845;    6,797;   -2,136
190,960;   54,976;    5,706;   -4,136
191,560;   71,158;    2,614;   -6,591
192,161;  286,576;    5,885;   -3,500
192,761;  140,991;    5,520;   -3,227
193,361;   94,870;    3,065;   -3,773
193,962;  146,118;    1,612;   -2,682
194,562;   72,467;   -0,114;   -3,955
195,162;  102,878;   -0,567;   -2,227
195,762;  254,930;    2,433;   -0,045
196,362;  204,585;    1,706;   -2,500
196,963;   81,432;    1,706;   -0,864
197,563;  149,364;    1,252;   -0,955
198,163;   99,740;   -0,111;   -0,682
198,763;  117,940;   -0,020;   -0,500
199,363;  214,762;    3,616;   -0,500
199,963;  184,723;    2,162;    0,409
200,563;  156,745;    6,344;   -1,409
201,163;  130,795;    5,435;   -0,227
201,763;  210,445;    1,435;    0,318
202,363;  154,505;    0,980;    1,500
202,963;  256,305;    1,526;    1,045
203,563;  366,015;    0,344;    0,500
204,162;  224,930;    1,889;   -1,864
204,762;  211,114;    2,071;    0,591
205,362;  181,177;    0,708;    1,955
205,962;  275,907;    3,435;    1,955
206,562;  268,299;    1,889;    2,318
207,161;  237,677;    1,708;    0,318
207,761;  387,231;    4,435;    2,409
208,361;  259,797;    1,889;    1,409
208,960;  358,269;    2,889;    1,500
209,560;  419,324;    0,435;    1,591
210,160;  395,892;    5,071;    1,864
210,759;  367,490;    0,708;    1,227
211,359;  370,007;   -0,474;    1,045
211,958;  620,465;    3,526;    2,045
212,558;  694,682;    0,799;    1,864
213,157;  545,044;   -0,929;    1,500
213,757;  957,062;    5,617;   -0,227
214,356;  667,332;    1,708;   -0,409
214,956;  974,375;    3,526;    0,409
215,555;  611,957;    0,617;    2,136
216,154;  560,980;   -0,292;   -0,591
216,754;  565,568;    1,253;    0,773
217,353;  690,442;   -0,383;   -1,045
217,952;  543,854;    2,072;    0,318
218,552;  786,469;    0,254;   -0,773
219,151;  673,876;   -1,110;    0,955
219,750;  664,431;    0,890;   -0,227
220,349;  754,795;   -2,292;    1,045
220,948;  845,409;    1,163;    1,136
221,548;  826,778;    0,617;    1,227
222,147;  936,997;   -1,292;   -0,409
222,746; 1216,381;    1,254;   -0,955
223,345; 1092,548;   -1,019;    0,500
223,944; 1089,290;    1,163;    0,773
224,543; 1246,746;    4,072;   -1,409
225,142; 1364,649;    1,345;    0,136
225,741; 1260,664;    1,163;    1,045
226,340; 1284,855;    1,254;   -0,955
226,939; 1689,131;    2,708;   -0,136
227,538; 1590,751;    1,163;   -0,773
228,137; 1766,458;    0,435;    0,864
228,735; 1869,661;    0,435;    1,227
229,334; 1640,339;   -0,474;   -0,227
229,933; 2017,798;    0,799;    0,591
230,532; 2132,506;   -1,201;   -0,409
231,131; 2187,334;    1,253;    0,318
231,729; 2281,086;    1,163;   -2,318
232,328; 2331,035;    0,435;   -1,500
232,927; 2402,892;    4,526;   -0,500
233,525; 2505,575;    0,981;    0,045
234,124; 2709,119;    1,890;   -1,591
234,723; 2726,587;    1,617;   -1,045
235,321; 2849,044;    1,163;    0,136
235,920; 3048,155;    2,526;   -1,227
236,518; 3292,249;    1,072;    0,318
237,117; 3413,188;    2,890;   -0,227
237,715; 3586,568;    1,163;   -0,500
238,314; 3628,170;    1,708;   -2,318
238,912; 3749,102;    0,526;   -1,409
239,510; 3743,005;    1,162;   -1,227
240,109; 3913,993;   -0,474;    3,773
240,707; 3936,865;   -0,474;    1,227
241,305; 4245,922;   -0,383;    0,136
241,904; 4430,286;   -0,292;   -2,045
242,502; 4427,041;    3,253;   -0,227
243,100; 4359,701;    3,344;   -0,955
243,698; 4575,899;    2,799;    1,682
244,297; 4716,773;   -0,656;    0,682
244,895; 4573,995;   -0,474;   -2,318
245,493; 4890,761;    2,981;   -0,591
246,091; 4930,277;    5,163;   -1,318
246,689; 4886,480;    2,163;    0,591
247,287; 5034,477;   -0,019;   -1,136
247,885; 5294,692;   -1,019;    1,227
248,483; 5383,021;   -0,201;   -0,500
249,081; 5495,904;    0,981;    1,591
249,679; 5620,557;   -1,019;    1,682
250,277; 5875,749;   -2,292;    0,864
250,875; 5832,407;    0,617;   -1,045
251,473; 5848,917;   -0,019;    0,500
252,071; 6024,203;   -0,383;    1,045
252,669; 6182,926;   -1,565;    0,318
253,267; 6401,845;    1,618;    0,773
253,864; 6318,023;    0,617;    0,682
254,462; 6234,210;    1,526;    1,591
255,060; 6188,588;    0,072;    1,318
255,658; 6478,926;   -3,292;   -0,136
256,255; 6866,226;   -0,201;   -2,045
256,853; 6752,510;    2,345;    1,409
257,451; 6746,258;    1,981;    1,864
258,048; 7028,272;    2,072;    1,864
258,646; 6752,867;    0,436;   -1,045
259,243; 6915,783;    2,981;    2,227
259,841; 6946,791;    1,799;    0,318
260,438; 6877,466;    0,254;    0,864
261,036; 7520,048;    0,617;    1,409
261,633; 7443,884;    1,526;    2,227
262,231; 7222,831;   -0,110;   -0,045
262,828; 7293,923;   -0,383;    1,136
263,425; 7309,496;   -1,928;   -0,591
264,023; 7578,315;    1,436;    0,045
264,620; 7142,182;    1,526;   -0,318
265,217; 7456,541;    2,890;    3,136
265,815; 7576,946;    2,527;    2,136
266,412; 7375,045;    0,072;    0,136
267,009; 7415,006;    0,526;    0,773
267,606; 7352,322;    0,345;   -0,955
268,203; 7286,259;   -0,383;   -0,591
268,801; 7570,243;   -0,474;    0,591
269,398; 7848,652;   -0,564;    2,500
269,995; 7810,923;    0,890;    1,591
270,592; 7605,908;    0,799;   -0,500
271,189; 7794,766;    1,981;    0,409
271,786; 7891,317;    2,072;    1,227
272,383; 7758,006;   -0,383;    0,227
272,980; 7944,032;    1,617;    0,318
273,577; 8351,798;    2,162;    1,227
274,174; 7940,282;    1,435;    2,591
274,771; 7938,744;    1,890;   -0,773
275,367; 8110,546;    3,253;    1,409
275,964; 8064,794;   -0,565;   -0,500
276,561; 8146,954;   -2,474;   -1,045
277,158; 8292,194;    1,799;   -1,773
277,755; 8409,631;   -0,110;    0,409
278,351; 7855,070;    0,436;   -1,500
278,948; 8165,447;   -0,201;    0,045
279,545; 8162,633;    0,527;    2,318
280,141; 8777,524;    1,254;   -2,045
280,738; 8602,877;    2,435;   -0,136
281,334; 8789,106;   -0,383;    0,591
281,931; 8222,932;    2,890;   -1,318
282,528; 8342,606;    4,072;   -0,500
283,124; 9012,391;    3,345;   -0,500
283,721; 8910,926;    0,709;    1,409
284,317; 8723,867;    0,163;    2,500
284,913; 9221,588;   -0,110;    0,591
285,510; 9401,769;    2,890;   -0,318
286,106; 9431,839;    2,345;   -0,955
286,703; 9028,396;    0,072;    1,955
287,299; 9224,882;    1,254;   -0,591
287,895; 9412,024;    0,890;   -1,045
288,491; 9942,197;    0,163;    2,136
289,088; 9696,802;    0,163;    2,409
289,684; 9773,562;    2,890;    1,500
290,280; 9777,587;    1,890;    0,682
290,876; 9850,544;    0,163;    5,500
291,472; 9731,126;    2,163;    2,227
292,068; 9851,342;    1,254;    0,227
292,665; 9540,064;   -0,564;    0,773
293,261; 9193,451;   -1,292;    2,136
293,857; 9585,175;    4,072;    2,136
294,453; 9515,728;   -0,928;    0,955
295,049; 9367,117;    0,253;    1,955
295,644; 9433,958;   -1,292;    0,136
296,240; 9321,929;    0,162;   -0,136
296,836; 9398,666;   -0,747;    0,318
297,432; 9643,251;    2,980;   -0,500
298,028; 9691,298;    0,435;    0,773
298,624;10059,239;    0,889;    1,864
299,220;10273,133;    0,435;    0,591
299,815; 9922,109;    0,526;   -0,409
300,411; 9749,208;    0,435;    1,773
301,007; 9743,452;    1,889;    0,227
301,602; 9735,510;    2,071;   -2,318
302,198; 9922,754;    1,435;   -0,773
302,794;10244,537;    1,526;   -0,500
303,389;10349,928;    1,071;    1,045
303,985;10411,114;    1,253;    1,409
304,580;10392,740;    0,889;    1,591
305,176;10362,730;    0,344;    0,136
305,771;10304,291;   -0,929;   -1,227
306,367;10192,484;    3,071;    0,136
306,962;10504,965;    2,889;    1,500
307,558;10267,100;    2,435;    0,136
308,153;10147,255;   -0,383;   -1,136
308,748;10379,631;    0,162;    1,682
309,344;10356,871;    0,253;   -1,318
309,939;10462,084;    2,071;   -1,318
310,534;10700,023;   -2,020;   -1,682
311,130;10634,929;   -0,656;   -2,500
311,725;10369,669;    0,526;   -0,500
312,320;10702,535;    1,253;    0,045
312,915;10553,638;    2,890;   -1,045
313,510;10621,762;    0,526;   -0,500
314,105;11106,095;   -3,565;    1,409
314,700;10514,290;   -1,656;   -1,045
315,295;10179,831;   -0,020;    0,045
315,890; 9759,279;   -0,292;    0,864
316,485;10117,991;    0,253;   -0,318
317,080;10207,468;   -0,929;    1,591
317,675;10709,242;    3,071;   -0,682
318,270;10157,467;    6,889;    3,318
318,865;10163,397;    2,435;    3,045
319,460;10023,759;   -1,565;    0,591
320,055;10246,563;   -2,565;   -1,227
320,650; 9916,918;   -1,838;   -0,591
321,244; 9969,185;    0,889;   -1,409
321,839;10862,772;    0,980;   -0,227
322,434;10754,990;   -0,111;   -1,591
323,029;10406,112;   -0,474;    1,591
323,623;10243,358;    0,798;    0,773
324,218;10064,987;    2,707;    1,409
324,812;10012,061;    0,889;    1,591
325,407; 9839,669;   -0,929;    2,045
326,002; 9753,876;    0,526;   -0,409
326,596;10032,171;   -0,656;    1,318
327,191;10239,345;   -0,383;   -1,045
327,785; 9856,080;   -0,747;   -0,227
328,379;10081,368;   -0,383;    0,136
328,974; 9856,028;    1,798;   -3,955
329,568;10109,518;    2,889;   -2,409
330,163; 9939,002;    2,435;    1,045
330,757;10272,359;    0,253;    1,591
331,351; 9621,159;   -0,292;    0,682
331,945; 9909,194;   -0,383;    1,409
332,540; 9534,775;    1,617;   -0,591
333,134; 9697,293;    3,344;    0,773
333,728; 9889,388;    2,799;    0,318
334,322;10216,525;    0,889;   -0,864
334,916; 9521,492;    0,344;    0,955
335,510; 9834,952;   -0,111;   -0,136
336,105;10098,345;   -0,929;    1,591
336,699; 9798,802;   -1,292;    0,591
337,293; 9735,148;    1,071;    0,318
337,887; 9849,013;    0,071;    1,955
338,481; 9921,092;    2,980;    0,591
339,074;10059,604;    2,071;    2,682
339,668; 9878,868;   -0,110;    1,227
340,262;10122,568;    7,708;    3,227
340,856; 9649,531;    1,708;   -0,682
341,450; 9073,136;    0,708;    1,864
342,044; 9871,511;    1,799;    0,136
342,637; 9656,175;    1,162;   -2,136
343,231; 9498,486;   -1,474;    0,682
343,825; 9474,096;   -0,747;   -0,591
344,419; 9466,977;   -0,474;    0,500
345,012; 9277,008;    2,889;    4,045
345,606; 9273,748;   -0,656;    1,591
346,199; 9150,682;   -0,111;   -0,227
346,793; 8729,037;    2,525;    2,045
347,386; 8904,059;    0,889;   -1,136
347,980; 8903,222;   -0,838;   -0,045
348,573; 8711,628;   -1,748;    0,409
349,167; 8442,075;    6,161;    4,773
349,760; 8748,420;    2,252;    2,682
350,354; 8707,889;    1,616;    1,136
350,947; 8520,742;    2,798;    1,682
351,540; 8233,080;    0,616;   -1,409
352,134; 8175,716;   -1,111;    1,136
352,727; 8263,510;   -0,657;    1,136
353,320; 8087,361;    2,343;    0,591
353,913; 7918,076;   -1,929;    1,864
354,507; 8086,697;    0,434;   -1,227
355,100; 8109,460;    0,071;    0,864
355,693; 7434,696;    4,798;    2,409
356,286; 7485,100;    0,980;    2,773
356,879; 7828,105;   -0,475;    1,227
357,472; 7450,247;    0,980;    1,500
358,065; 7626,652;    3,161;    2,500
358,658; 7571,944;    0,798;    2,318
359,251; 7281,902;    0,252;   -0,591
359,844; 6808,079;    0,343;   -1,136
360,437; 6957,940;    0,252;    0,045
361,030; 7240,879;    0,525;   -0,682
361,623; 6880,562;    0,434;    0,318
362,215; 6882,920;    0,979;    2,045
362,808; 6757,248;   -2,293;   -1,682
363,401; 6925,253;    0,798;    0,136
363,994; 6714,784;    3,252;   -1,500
364,586; 6621,601;    0,888;   -1,500
365,179; 6785,004;   -0,203;   -1,136
365,772; 6333,818;   -0,930;    2,045
366,364; 6607,543;    1,524;   -3,227
366,957; 6805,423;    1,342;   -0,045
367,549; 6800,154;   -0,203;   -0,864
368,142; 6489,227;    0,978;   -1,500
368,734; 6662,941;    2,523;   -2,136
369,327; 6641,342;    2,341;   -0,500
369,919; 6581,015;   -1,659;    0,409
370,512; 6408,960;   -1,023;   -0,500
371,104; 6202,388;    2,704;    1,591
371,696; 6319,927;    1,703;   -0,955
372,289; 6371,596;    0,157;    1,136
372,881; 6523,503;    1,156;    1,318
373,473; 6453,465;    4,064;    1,136
374,066; 6274,772;    1,336;    0,500
374,658; 6163,310;    0,879;    1,136
375,250; 6479,797;   -1,668;   -1,409
375,842; 6322,715;   -0,124;   -0,045
376,434; 6201,785;   -2,762;   -0,409
377,026; 6712,488;   -1,855;   -2,500
377,618; 6601,073;    0,779;   -0,682
378,210; 6475,683;    3,141;   -1,955
378,802; 6350,287;    3,412;   -0,591
379,394; 6314,165;    3,411;    0,682
379,986; 6844,937;    1,138;   -0,955
380,578; 6914,231;    1,410;    0,773
381,170; 6321,663;    0,320;    0,045
381,762; 6284,577;   -0,224;    1,409
382,354; 6460,192;   -0,223;   -1,318
382,945; 6541,585;    0,870;    0,318
383,537; 6701,532;    1,144;   -1,955
384,129; 6706,751;    0,963;   -1,136
384,721; 6856,252;    0,418;    0,955
385,312; 6791,362;   -1,399;   -0,955
385,904; 6894,062;   -0,945;    1,591
386,496; 6297,961;    0,691;    1,045
387,087; 6430,794;    0,418;    2,500
387,679; 6458,588;   -0,401;    0,045
388,270; 6595,618;   -2,401;    2,045
388,862; 6678,758;   -0,401;   -0,318
389,453; 6570,969;    1,054;    1,045
390,045; 6799,673;    3,236;   -2,682
390,636; 6738,583;    0,144;   -0,591
391,227; 6597,503;    2,054;   -0,045
391,819; 6720,507;    0,781;    0,773
392,410; 6771,523;    0,600;    0,045
393,001; 6707,412;    1,600;   -1,591
393,593; 6956,574;    0,600;   -0,045
394,184; 6790,552;    0,873;   -0,409
394,775; 6705,918;    1,146;    2,136
395,366; 6917,472;    1,782;    0,773
395,957; 6909,413;   -2,400;    0,136
396,548; 7175,319;    1,054;    2,682
397,139; 7485,800;    2,236;    0,591
397,730; 7232,036;    0,873;    0,955
398,321; 7275,166;    0,509;    0,955
398,912; 7289,294;   -0,764;    0,136
399,503; 7364,814;   -1,945;   -1,409
400,094; 6840,590;   -1,582;    1,682
400,685; 6712,092;    3,600;    0,045
401,276; 6795,807;   -0,400;   -0,955
401,867; 7082,951;   -1,127;    0,773
402,458; 7159,189;    1,509;   -2,318
403,048; 7157,531;    0,146;    0,591
403,639; 6776,548;    1,509;    0,864
404,230; 7042,785;    0,691;    0,318
404,821; 6984,450;   -0,127;    0,045
405,411; 7091,548;   -0,763;   -2,591
406,002; 6720,512;    3,237;   -1,136
406,592; 6590,803;    2,691;    0,045
407,183; 6857,584;    0,328;   -1,500
407,774; 6775,381;    1,419;   -0,136
408,364; 7073,820;    2,600;    0,409
408,954; 6705,746;   -0,036;    1,227
409,545; 6754,355;    1,873;    1,045
410,135; 6337,037;   -1,581;    0,500
410,726; 6471,187;    0,783;    0,318
411,316; 6823,014;    2,237;    0,773
411,906; 6522,574;    0,146;   -0,409
412,497; 6096,468;   -0,490;   -0,045
413,087; 6625,109;    0,783;   -0,227
413,677; 6984,029;   -2,490;    3,864
414,267; 6843,635;   -1,035;    1,409
414,857; 6827,509;    0,419;    4,227
415,448; 7065,390;   -0,763;    0,500
416,038; 6798,308;   -2,945;   -0,591
416,628; 6741,274;    0,965;    0,409
417,218; 6303,137;   -1,762;    3,318
417,808; 6554,374;    0,965;   -0,409
418,398; 6947,649;   -1,035;    2,682
418,988; 6926,338;   -2,217;    0,591
419,578; 7171,242;    3,601;    1,409
420,168; 7451,259;    0,692;   -0,955
420,757; 7074,505;    0,964;   -1,500
421,347; 6774,965;    1,601;   -0,227
421,937; 6930,233;    3,329;    1,409
422,527; 6895,050;    2,602;   -0,773
423,116; 6730,966;    2,692;   -0,045
423,706; 7038,668;    2,965;    0,318
424,296; 6999,802;    1,601;    0,682
424,885; 7409,165;    1,510;   -3,045
425,475; 7636,485;    1,147;   -2,864
426,065; 7559,187;   -1,489;   -0,318
426,654; 7243,368;    0,329;   -0,318
427,244; 7351,242;    1,147;    1,409
427,833; 6826,026;    1,056;   -0,500
428,423; 7208,668;    0,147;    1,136
429,012; 7932,644;    2,420;   -1,136
429,601; 7451,917;    2,057;    0,136
430,191; 7662,489;    2,511;    4,318
430,780; 7319,421;   -1,671;   -0,409
431,369; 7254,623;    1,329;   -0,045
431,959; 7823,541;    1,693;    0,500
432,548; 7616,047;   -1,398;   -0,045
433,137; 7742,066;    0,329;   -1,318
433,726; 8224,892;    0,148;    0,500
434,315; 7672,043;    0,148;    2,409
434,905; 7741,040;    0,693;    1,409
435,494; 7671,031;    3,148;    0,955
436,083; 8072,582;    1,420;   -0,955
436,672; 7938,783;    1,148;    0,500
437,261; 7577,750;    0,512;   -1,955
437,850; 7679,302;   -1,125;    0,682
438,439; 7665,043;    2,239;    1,955
439,027; 7538,874;    3,421;    1,773
439,616; 7835,658;    2,239;    1,227
440,205; 7703,399;    0,057;   -2,136
440,794; 7694,007;   -0,306;   -0,045
441,383; 7941,910;    1,603;   -0,591
441,971; 7820,268;   -0,306;    0,591
442,560; 7687,694;    0,603;   -1,773
443,149; 7439,494;    3,060;   -1,318
443,737; 7587,113;    0,968;   -2,318
444,326; 7839,448;    0,331;    0,318
444,915; 7866,123;   -1,851;    0,864
445,503; 8229,537;    0,058;   -0,318
446,092; 7554,277;    7,876;    2,136
446,680; 8043,415;    1,876;    0,318
447,269; 8185,747;   -1,487;   -0,318
447,857; 7989,871;    2,240;   -1,773
448,445; 8130,746;    2,149;    1,318
449,034; 8314,260;    0,876;   -1,136
449,622; 8434,239;    1,240;    3,500
450,210; 7738,604;    3,149;    2,227
450,799; 8237,457;    2,604;   -0,591
451,387; 8161,220;    1,786;   -0,591
451,975; 7861,089;   -1,305;    0,864
452,563; 7943,627;    0,422;    2,318
453,151; 8002,833;   -1,032;   -1,227
453,739; 7910,399;   -1,577;    0,136
454,328; 7771,378;    0,604;   -2,136
454,916; 7506,609;    1,150;   -0,136
455,504; 7693,949;    3,513;    1,227
456,092; 7861,701;    2,150;   -1,591
456,679; 7832,523;    0,604;    0,682
457,267; 7807,374;    3,604;    1,045
457,855; 7918,007;    3,241;    1,409
458,443; 7661,682;   -0,304;    1,682
459,031; 7782,362;    1,332;    2,409
459,619; 8216,704;   -3,577;    2,864
460,206; 8276,810;   -0,759;    2,045
460,794; 8375,902;   -0,668;   -0,227
461,382; 8574,838;    0,878;   -0,864
461,970; 8211,246;    0,605;    1,864
462,557; 8249,947;    0,878;   -0,682
463,145; 8408,702;   -0,304;   -1,682
463,732; 8541,936;    2,514;   -1,045
464,320; 8471,998;    1,514;   -3,045
464,907; 8157,983;    0,423;   -0,773
465,495; 8045,219;    2,696;   -1,227
466,082; 8184,994;    2,060;   -0,045
466,670; 8070,546;    2,605;    1,227
467,257; 8492,335;    0,060;    2,045
467,844; 8633,441;    1,514;    0,045
468,432; 8666,198;   -0,031;    3,500
469,019; 8194,675;    1,606;   -1,773
469,606; 8657,716;    0,969;    3,682
470,193; 8488,388;    2,151;    0,227
470,780; 8106,613;    0,333;    0,864
471,368; 8393,529;   -1,212;   -0,773
471,955; 8202,174;    1,060;   -0,682
472,542; 7870,012;   -0,303;   -1,136
473,129; 8099,478;   -0,485;    0,136
473,716; 7869,784;    0,060;    0,591
474,303; 8026,197;    1,333;   -0,864
474,890; 8278,956;    2,333;   -0,500
475,477; 8313,385;   -0,576;    0,409
476,064; 8200,864;    0,697;   -1,591
476,650; 8128,322;    2,152;    0,318
477,237; 7987,049;    1,879;    0,955
477,824; 8133,492;    3,879;    0,864
478,411; 8147,667;    0,606;   -0,318
478,997; 8313,545;    0,606;   -0,773
479,584; 8365,707;   -0,666;   -0,409
480,171; 8986,051;    1,243;   -0,773
480,757; 8678,596;   -0,848;    0,773
481,344; 8922,804;    0,334;    0,409
481,931; 8479,254;   -0,393;    1,045
482,517; 9338,789;    0,425;    0,318
483,104; 9793,138;    1,334;    2,864
483,690;10009,893;    0,243;    0,045
484,276;10310,089;    0,698;    0,227
484,863;10071,999;    2,152;    1,136
485,449;10592,618;    0,152;    0,318
486,035;10599,830;   -0,666;   -0,136
486,622;11006,818;   -2,393;    0,045
487,208;10934,500;    1,334;    1,500
487,794;10803,577;    0,971;    0,318
488,380;10887,044;    0,698;   -1,409
488,967;10944,949;   -1,120;   -0,409
489,553;11001,309;   -1,029;   -1,409
490,139;11199,608;    0,971;    0,773
490,725;10701,502;    0,789;   -0,227
491,311;10337,039;    1,516;    3,045
491,897; 9761,703;   -0,665;    1,500
492,483; 9602,375;    0,426;    1,227
493,069; 9487,141;    5,426;    0,864
493,655; 9424,763;    1,789;    0,682
494,241; 9337,936;    1,517;   -0,955
494,826; 9668,876;    0,335;   -1,045
495,412; 9211,445;    0,335;   -0,682
495,998; 9343,005;    0,971;   -0,318
496,584; 9425,575;    2,244;    1,045
497,169; 9419,138;    2,335;   -0,682
497,755; 9373,628;    1,244;    1,227
498,341; 9889,887;    2,153;    0,318
498,926; 9461,435;    2,881;    1,955
499,512; 9634,428;   -0,028;    2,955
500,097; 9722,690;   -0,574;   -0,318
500,683; 9666,398;   -0,028;    2,136
501,268;10024,470;    1,881;   -0,955
501,854; 9779,648;   -0,119;    1,227
502,439; 9699,239;   -0,573;   -1,773
503,024; 9855,729;    1,608;    0,500
503,610; 9906,361;    1,335;   -0,682
504,195; 9901,698;    1,245;    1,955
504,780;10032,840;    2,335;    1,227
505,366; 9890,330;    4,063;    2,864
505,951; 9623,779;   -1,119;    1,045
506,536; 9628,384;    1,427;   -3,682
507,121; 9616,569;    1,699;   -0,318
507,706;10089,506;   -0,392;    1,045
508,291;10398,849;   -2,937;    1,136
508,876; 9906,894;   -0,482;    2,591
509,461; 9437,610;    1,427;   -0,773
510,046; 9841,808;   -0,391;    0,318
510,631;10046,985;   -0,119;   -0,773
511,216; 9709,757;   -0,664;   -0,500
511,801;10070,934;   -0,755;    2,591
512,386;10290,611;    0,972;    0,500
512,971;10245,839;    0,427;    0,955
513,555; 9848,216;    1,154;   -1,500
514,140;10534,637;    1,336;   -3,136
514,725;10499,666;    1,791;   -1,136
515,309;10620,066;    1,064;    0,318
515,894;10160,791;   -0,300;   -2,227
516,479;10565,852;    1,973;   -0,955
517,063;10388,860;    0,882;    1,227
517,648;10503,958;    0,155;   -1,136
518,232;10138,402;   -1,300;   -1,409
518,817;10482,973;    1,337;    1,682
519,401;10693,985;    0,700;    0,591
519,985;10235,063;    2,700;    1,136
520,570;10134,616;   -0,118;   -1,955
521,154;10382,024;    0,064;    0,591
521,738;10483,252;    1,064;    2,409
522,323;11043,878;   -0,390;    1,682
522,907;10775,201;    2,428;   -0,136
523,491;10507,501;    1,155;    0,955
524,075;10493,163;    0,428;    0,591
524,659;10591,454;    0,973;    0,591
525,243;10133,666;    0,883;    0,409
525,827;10330,846;    0,883;   -0,045
526,411;11057,909;    1,155;   -0,136
526,995;11264,947;    0,337;    1,409
527,579;10861,803;    1,974;   -1,045
528,163;11181,943;    0,428;   -1,500
528,747;11100,230;    1,065;   -0,773
529,331;11355,904;    0,883;   -1,409
529,915;11522,379;    2,338;    0,955
530,499;11450,446;    0,247;    1,227
531,082;11146,754;    1,065;    1,591
531,666;10715,690;    0,520;    0,773
532,250;11291,256;    0,428;    2,682
532,833;11574,682;    0,610;    2,773
533,417;11442,845;    1,247;    0,864
534,001;11391,922;    0,429;   -0,318
534,584;12043,047;    1,974;    0,500
535,168;11869,271;    3,247;    1,409
535,751;11911,965;    4,520;    0,045
536,334;11373,321;    4,520;   -0,409
536,918;11928,589;    1,974;    1,591
537,501;11998,476;    1,520;    1,318
538,085;11997,873;    1,702;    1,045
538,668;12087,899;    0,883;    2,409
539,251;12392,652;    3,156;    3,773
539,834;12432,736;    0,156;    0,773
540,418;12311,441;    3,247;    4,318
541,001;12387,587;    2,702;    1,773
541,584;12393,481;    1,429;    2,227
542,167;12088,289;    0,702;    2,955
542,750;12211,668;    0,793;   -0,773
543,333;11807,403;    1,429;    2,136
543,916;12516,345;   -0,298;    2,500
544,499;13027,929;    2,520;    0,227
545,082;13044,115;    0,248;    3,591
545,665;13169,853;   -0,207;    1,500
546,248;13408,403;    0,520;   -0,318
546,830;13098,667;   -1,752;    1,955
547,413;13446,522;    0,157;   -0,773
547,996;13944,316;    0,157;    0,500
548,579;13764,479;   -0,843;    0,955
549,161;13559,847;    0,884;    2,682
549,744;13341,920;    0,612;    0,409
550,326;13801,787;    0,885;   -1,136
550,909;13601,468;    2,339;    0,591
551,492;13959,731;    0,521;    0,227
552,074;13804,141;   -0,024;   -1,318
552,657;14265,005;    2,430;    0,045
553,239;14088,627;   -3,024;   -0,773
553,821;14007,231;   -1,570;    1,045
554,404;13508,185;   -0,024;    1,136
554,986;13851,386;    2,248;    1,045
555,568;14334,917;    0,430;   -0,955
556,151;13666,670;    4,067;   -0,227
556,733;13852,310;   -1,388;   -0,864
557,315;14241,271;    4,703;    0,500
557,897;13991,605;    0,521;   -0,500
558,479;14137,222;    1,703;    1,318
559,061;14277,044;    1,067;   -0,864
559,643;14558,862;   -0,297;    0,045
560,225;14863,376;   -0,388;    2,864
560,807;14884,589;    0,340;    0,318
561,389;14473,439;   -1,206;    2,318
561,971;15059,365;   -0,660;    2,136
562,553;14894,046;    0,613;    1,591
563,135;15038,042;    1,249;    1,136
563,717;14649,767;    3,158;    1,136
564,298;15224,307;    3,976;   -0,045
564,880;14943,103;    0,340;   -1,409
565,462;15090,558;    1,977;    1,318
566,043;16104,005;   -0,933;    2,318
566,625;15689,298;    4,067;    1,227
567,207;15484,282;    0,704;    1,682
567,788;16445,268;   -0,114;    1,500
568,370;17128,717;   -1,841;   -0,500
568,951;16851,824;   -0,569;    0,227
569,533;17591,240;    0,977;   -0,500
570,114;18048,111;   -0,296;    0,682
570,695;18465,379;   -0,478;   -1,318
571,277;18751,398;   -0,205;   -1,682
571,858;19374,542;    2,704;   -1,136
572,439;20109,429;    0,795;   -1,045
573,021;20203,334;    0,432;   -2,773
573,602;20594,518;    1,795;    0,318
574,183;21385,038;   -0,114;    2,227
574,764;21423,624;    2,068;    0,409
575,345;21845,664;    0,250;   -0,136
575,926;22326,737;    2,704;    0,136
576,507;22316,993;    2,704;   -0,227
577,088;23298,334;    1,704;    1,682
577,669;23271,455;    1,704;    1,955
578,250;23882,765;   -0,750;   -1,045
578,831;24343,025;   -0,841;   -2,227
579,412;24557,389;   -1,205;    0,955
579,993;25382,576;    1,432;    0,227
580,573;25681,032;   -0,023;   -0,955
581,154;24720,275;    1,613;   -0,591
581,735;25487,816;    0,341;    0,773
582,315;24964,453;    0,523;    2,136
582,896;25252,169;   -1,750;    1,227
583,477;24785,026;    0,614;    1,227
584,057;24953,461;    1,159;    0,955
584,638;25240,939;   -2,750;    2,318
585,218;25307,049;    2,886;    2,682
585,799;25417,423;    1,977;   -0,227
586,379;25424,970;    1,250;    1,591
586,959;24390,994;    2,613;    0,318
587,540;23836,655;    0,432;    2,227
588,120;23433,178;   -1,113;   -0,045
588,700;22620,505;    2,977;    2,136
589,281;22878,440;    1,250;   -0,955
589,861;22812,519;   -0,296;   -1,682
590,441;22680,671;   -1,477;   -2,682
591,021;21751,415;    1,432;   -2,591
591,601;21986,050;    0,431;    0,500
592,181;22039,430;   -1,296;   -0,773
592,761;21424,721;    2,250;    1,409
593,341;21394,901;    1,522;    0,045
593,921;21351,492;   -0,569;    1,591
594,501;21265,744;    1,250;    1,318
595,081;21070,376;    0,522;   -0,318
595,661;21424,848;    1,068;    0,955
596,240;21929,437;   -1,023;    0,136
596,820;21538,134;    2,613;    1,955
597,400;21606,298;    1,977;    0,773
597,980;21858,174;   -0,750;    1,045
598,559;21870,543;    0,341;   -0,227
599,139;21618,780;   -0,750;   -1,227
599,718;21526,416;    0,795;   -0,409
600,298;21805,748;   -2,387;    0,682
600,877;22029,293;    4,795;    1,409
601,457;22250,172;    0,340;    1,136
602,036;22156,162;    1,795;    2,045
602,616;22319,105;    2,250;    1,682
603,195;22647,556;    0,431;    3,500
603,774;22141,952;   -0,296;    2,045
604,354;22059,432;    2,522;   -0,500
604,933;21603,113;    0,250;    1,864
605,512;21722,709;    2,340;    0,591
606,091;21761,772;    1,886;    3,773
606,671;22529,218;    0,249;    0,773
607,250;21747,903;    1,431;    3,136
607,829;21893,116;    1,158;    3,227
608,408;21781,518;    4,613;    2,591
608,987;20924,717;    2,704;    3,409
609,566;21132,281;    0,341;   -2,500
610,145;21277,337;    2,885;    0,682
610,723;21686,276;    1,613;    6,864
611,302;21042,544;    1,067;    1,682
611,881;20566,284;    5,158;   11,227
612,460;21331,016;    0,795;    3,955
613,039;21715,552;    1,703;    2,045
613,617;20596,236;    0,886;    4,773
614,196;20750,130;    1,613;    1,227
614,775;21066,389;    1,249;    2,409
615,353;20983,779;   -1,660;    0,864
615,932;20770,784;    0,249;    2,409
616,510;21341,501;    0,158;    0,591
617,089;20878,243;    8,794;   17,591
617,667;20705,399;    4,885;    6,136
618,246;20565,948;   -1,115;    1,318
618,824;20718,659;    1,612;   -0,955
619,402;20280,365;    0,431;   -1,773
619,981;20707,730;    1,067;   -1,045
620,559;20567,806;    0,794;    1,682
621,137;20187,474;    3,067;    1,864
621,715;20136,777;    3,703;   -0,682
622,293;20045,472;    1,885;   -0,773
622,871;20575,089;    0,340;    0,500
623,450;20210,302;    0,430;   -0,864
624,028;20119,850;   -0,388;   -0,955
624,606;19732,742;    2,339;    1,682
625,183;20074,196;   -0,661;   -1,136
625,761;19761,944;    1,885;    1,136
626,339;19999,613;    2,339;    2,591
626,917;20376,933;    0,339;   -0,045
627,495;20389,711;    2,794;    1,318
628,073;19886,505;    5,248;    2,864
628,650;19631,066;    3,067;    2,136
629,228;20044,137;    1,248;    4,409
629,806;19488,842;   -0,024;    1,136
630,383;19685,632;    0,066;   -0,318
630,961;19569,411;   -2,206;   -0,955
631,539;19328,651;   -2,479;    0,227
632,116;18726,411;   12,703;   15,409
632,694;19244,772;    4,885;    6,500
633,271;19455,561;    1,975;    2,682
633,848;19441,720;    1,430;    2,045
634,426;19488,567;    1,521;    1,773
635,003;18736,122;   -0,207;   -0,409
635,580;18966,388;    1,884;    3,682
636,158;19440,319;    3,793;    1,227
636,735;19433,403;    3,339;   -0,500
637,312;19517,955;    0,521;   -0,682
637,889;19609,558;    2,248;   -0,682
638,466;19237,605;    0,066;   -0,409
639,043;19248,331;    1,702;   -1,136
639,620;19435,784;    0,611;   -0,955
640,197;19719,193;    1,612;    1,682
640,774;19889,368;    1,430;    1,136
641,351;20206,178;    0,612;    1,136
641,928;19692,716;    2,794;    1,409
642,505;19373,436;    0,794;   -0,500
643,082;19486,701;    1,885;    1,227
643,658;18656,967;    1,157;    1,500
644,235;19247,777;   -2,479;    2,500
644,812;19483,134;    1,794;    0,773
645,388;19251,944;    1,612;    1,409
645,965;19294,300;    1,521;    1,682
646,542;19385,475;    3,430;   -0,227
647,118;19402,649;    3,703;   -0,955
647,695;19667,369;    0,339;    1,136
648,271;19607,180;   -2,115;    0,500
648,848;19829,990;    0,248;    2,227
649,424;19667,619;    0,976;    1,318
650,000;19417,157;   -0,388;   -1,045
650,577;19255,877;    0,158;   -0,955
651,153;19648,779;   -1,115;    0,955
651,729;20511,498;    0,521;    0,864
652,305;20606,400;    1,339;    2,773
652,881;23964,574;   -1,297;    1,136
653,458;29361,294;    0,249;    0,227
654,034;32407,196;    0,703;    1,591
654,610;33458,279;    0,339;    0,773
655,186;34706,726;    1,612;    3,045
655,762;34418,628;   -1,842;    0,409
656,338;34421,802;    0,703;    0,136
656,913;35354,613;   -0,297;    0,409
657,489;34751,060;    0,249;   -0,318
658,065;34754,780;    0,794;   -1,591
658,641;35272,500;    2,158;   -0,864
659,217;34670,310;    2,067;    0,409
659,792;34072,848;   -1,751;   -0,409
660,368;34424,659;   -0,388;   -0,682
660,944;34418,834;    1,794;    1,227
661,519;30816,281;    0,522;    0,409
662,095;25987,273;   -0,206;    0,591
662,670;22159,538;   -0,206;   -0,136
663,246;21245,258;   -0,660;   -0,409
663,821;20700,796;    0,431;    1,682
664,396;20216,698;    0,613;    1,864
664,972;20452,145;   -0,660;   -0,500
665,547;20755,865;    3,794;    0,136
666,122;20802,312;    1,340;    0,318
666,698;21026,486;    2,431;    0,318
667,273;20372,115;    0,885;    0,136
667,848;21102,289;    0,340;    1,500
668,423;20888,646;    1,795;    2,318
668,998;21291,729;    0,976;   -0,682
669,573;21810,449;    2,067;   -1,500
670,148;21664,714;    1,885;   -0,682
670,723;21409,343;   -0,024;    0,318
671,298;21799,972;   -1,296;    1,045
671,873;21879,055;   -0,296;   -0,136
672,448;21806,593;    1,704;    0,136
673,023;22150,586;    0,249;   -0,227
673,597;22452,942;    2,704;    2,318
674,172;22242,207;    2,431;    0,318
674,747;21773,291;   -0,205;   -1,045
675,321;21581,283;   -0,933;    3,318
675,896;21209,639;    2,158;    1,045
676,471;22050,996;    2,522;    1,591
677,045;21846,352;   -0,296;    0,682
677,620;21800,799;    2,158;    1,136
678,194;22183,337;    0,249;    1,136
678,769;21825,148;    0,886;   -0,318
679,343;22024,049;   -0,023;    1,773
679,917;21894,769;    0,340;    1,955
680,492;21949,034;    0,249;    3,227
681,066;22020,118;    0,613;    0,409
681,640;22101,201;    1,795;   -0,318
682,214;22778,648;    2,340;    0,500
682,788;22342,277;    0,613;   -0,773
683,363;22254,724;    1,977;    1,682
683,937;21994,717;    0,886;   -0,318
684,511;22692,255;   -1,023;   -0,591
685,085;22406,247;   -1,478;    0,318
685,659;22187,512;    1,431;    0,864
686,232;22442,687;    1,159;   -0,318
686,806;22158,225;    2,159;    0,409
687,380;22748,308;   -1,932;    0,591
687,954;22933,392;    2,432;    1,136
688,528;22591,748;    2,613;    1,955
689,101;23343,286;    0,432;    1,045
689,675;22923,369;    0,886;   -0,136
690,249;22324,544;    3,432;    0,409
690,822;22671,627;    1,159;    0,318
691,396;22796,892;    2,068;    1,227
691,969;22264,339;    2,523;    0,136
692,543;22756,241;   -0,568;   -1,955
693,116;22390,052;   -0,659;   -1,409
693,690;22256,135;   -0,296;    0,500
694,263;22792,219;    2,341;    2,955
694,836;22765,666;    2,795;    3,591
695,410;21562,931;    1,159;    1,773
695,983;21957,560;    1,614;    0,591
696,556;21978,825;   -0,750;   -1,045
697,129;22340,909;   -1,114;    1,409
697,703;21970,719;    1,341;    1,955
698,276;22033,530;    1,705;   -0,773
698,849;21835,613;   -1,023;    1,409
699,422;22148,879;    1,250;    0,591
699,995;21940,598;   -0,659;    0,136
700,568;22350,136;   -0,204;    3,045
701,140;22321,402;   -1,841;    1,682
701,713;22103,303;    0,341;    2,409
702,286;21887,205;    0,796;    0,864
702,859;21735,925;    0,614;   -0,591
703,432;21067,917;   -0,841;    0,682
704,004;21464,364;    1,978;    0,318
704,577;21331,266;    1,068;    0,136
705,150;21849,713;    0,887;    2,500
705,722;21651,251;    1,523;   -3,227
706,295;21449,789;    1,432;   -0,591
706,867;21340,054;    0,250;    1,955
707,440;21553,501;   -0,113;   -0,409
708,012;21791,403;   -0,022;    0,591
708,584;21667,759;    2,705;    0,227
709,157;21975,843;    1,160;   -0,591
709,729;21690,017;    1,069;    2,045
710,301;22421,373;   -1,204;    0,045
710,874;22429,911;    0,341;   -0,227
711,446;21367,540;   -0,295;    0,864
712,018;21282,078;   -3,022;    0,500
712,590;21076,616;   -0,204;    1,682
713,162;21537,154;   -0,477;    1,318
713,734;21787,874;    1,796;   -2,045
714,306;21656,321;    0,342;   -0,409
714,878;20506,313;   -0,295;    0,864
715,450;21254,397;   -0,113;    0,864
716,022;21522,753;    2,433;    1,318
716,593;21676,836;    0,978;    0,591
717,165;21580,011;    1,796;   -1,227
717,737;21346,003;    0,796;    0,409
718,309;21084,087;    1,160;   -0,045
718,880;21045,170;   -1,295;   -1,409
719,452;21228,708;    0,887;   -1,591
720,024;20877,792;    1,705;   -0,591
720,595;21414,330;    2,978;    0,955
721,167;21008,322;    1,160;   -2,045
721,738;20552,315;    2,069;   -1,045
722,309;20543,216;    1,251;   -1,227
722,881;20355,118;    2,705;    0,773
723,452;20902,201;    1,251;    2,864
724,023;21109,467;    1,524;    2,682
724,595;20920,732;    2,342;    0,682
725,166;20645,270;    1,524;   -0,409
725,737;20284,990;    1,887;    0,227
726,308;20385,437;    0,797;    0,318
726,879;20770,520;    1,069;    1,227
727,450;20658,422;   -2,022;   -0,045
728,021;20638,778;    1,069;    0,682
728,592;20447,498;    1,160;    0,500
729,163;20826,672;    1,433;   -0,136
729,734;20753,847;    2,160;   -0,227
730,305;21077,475;    0,615;    0,136
730,876;21353,832;    0,888;    2,955
731,447;21102,642;    0,797;    2,682
732,017;21190,089;   -0,840;    1,864
732,588;20779,355;   -0,021;    1,227
733,159;20908,620;    3,615;   -1,045
733,729;20692,340;    1,251;    0,409
734,300;20064,332;    0,160;    0,864
734,870;20454,779;   -1,385;    0,591
735,441;21004,408;    0,888;   -0,591
736,011;20779,764;    1,070;   -1,591
736,582;20709,757;    1,251;    0,045
737,152;20195,749;    0,979;   -2,045
737,722;20626,287;    1,070;   -0,682
738,293;20396,644;   -2,021;    1,318
738,863;20274,273;    1,797;    2,318
739,433;20133,174;    4,524;    0,318
740,003;20698,439;    1,524;   -0,682
740,573;20180,705;    2,252;   -1,591
741,143;20166,697;    3,615;    0,318
741,713;20818,962;    0,252;   -0,500
742,283;20584,410;    1,706;    1,591
742,853;20377,402;    0,524;    1,591
743,423;19918,486;    0,161;    0,045
743,993;19969,114;    1,070;    1,500
744,563;19438,652;    2,524;   -0,864
745,133;19393,827;   -0,112;   -0,864
745,702;20051,456;    2,797;    1,773
746,272;19315,357;    0,434;    0,591
746,842;19142,895;   -0,748;   -0,591
747,411;19538,161;   -0,839;   -0,318
747,981;19646,880;   -0,930;    0,500
748,551;19749,146;   -0,021;   -1,045
749,120;19587,411;   -0,112;   -0,227
749,690;19903,494;    2,161;    2,409
750,259;20228,396;    0,979;    2,955
750,828;20105,843;    4,070;   -1,955
751,398;20335,290;   -0,112;   -0,045
751,967;19902,646;    2,888;    0,409
752,536;20147,911;    1,161;   -0,227
753,105;20523,904;   -1,384;    0,227
753,675;20309,806;   -0,112;    1,773
754,244;20239,980;    0,888;    3,591
754,813;20229,882;    0,979;    1,227
755,382;19846,692;    0,798;    0,955
755,951;20285,958;   -0,112;    3,682
756,520;19924,041;    2,525;    1,864
757,089;20408,670;    1,888;    0,500
757,658;20542,753;    2,434;    1,227
758,227;20537,928;   -1,111;    0,318
758,795;20809,193;   -1,021;    1,136
759,364;21090,640;    0,525;   -0,591
759,933;20140,996;    1,343;   -0,045
760,501;19753,625;    0,252;   -1,318
761,070;20117,436;   -0,293;   -1,409
761,639;20778,156;    1,434;    1,318
762,207;20170,239;    0,889;   -0,955
762,776;20092,959;    2,889;    0,864
763,344;20098,042;    0,071;    0,591
763,913;19242,671;    1,616;    1,409
764,481;19920,118;    1,980;   -0,136
765,049;19797,656;    0,616;    1,409
765,618;19673,194;    1,434;    0,318
766,186;19728,914;    2,434;    0,136
766,754;19881,634;    1,798;    1,864
767,322;19003,536;    1,162;    0,409
767,890;19068,983;    0,525;   -1,773
768,459;19476,884;    2,616;   -0,318
769,027;19573,059;    2,525;    3,409
769,595;18674,597;    2,616;    2,591
770,163;19062,135;    3,344;    2,955
770,730;18885,673;    2,525;   -0,136
771,298;18744,847;    1,162;   -1,409
771,866;18886,294;    0,253;    4,955
772,434;19150,468;    1,162;   -1,864
773,002;19332,188;    2,616;    0,682
773,569;18985,726;    1,071;    1,682
774,137;18811,900;    0,889;   -0,045
774,705;19551,711;   -0,747;   -0,136
775,272;19117,067;    0,253;    0,682
775,840;18943,969;   -0,111;    2,682
776,407;18507,961;   -0,293;    1,955
776,975;18114,863;    1,162;    0,318
777,542;19031,583;    2,162;   -0,045
778,110;18903,939;    0,707;   -0,045
778,677;18641,023;    1,071;   -0,864
779,244;18449,924;   -1,020;    1,045
779,812;18508,735;    0,980;    0,864
780,379;18361,364;    2,435;    1,136
780,946;18580,720;    2,617;   -0,773
781,513;18890,712;   -0,565;    0,318
782,080;18330,250;    1,253;    2,864
782,647;18935,152;    1,708;    3,045
783,214;18589,690;   -0,201;    3,864
783,781;18199,864;    1,708;   -0,682
784,348;18164,857;    0,253;    1,500
784,915;18547,213;   -1,474;    0,318
785,482;18336,478;    2,708;    2,591
786,049;18779,198;    1,071;   -0,591
786,615;18872,827;    1,708;   -0,955
787,182;18638,729;   -3,201;   -0,682
787,749;18362,539;   -2,201;    1,409
788,315;17737,532;    0,253;   -0,409
788,882;18009,524;    0,981;   -1,227
789,448;18609,790;    1,435;   -0,955
790,015;18645,510;    1,799;    3,227
790,581;18290,866;    0,708;    0,227
791,148;18163,313;    1,344;    1,045
791,714;18355,760;   -1,019;    3,136
792,280;18051,843;    3,708;    1,591
792,847;17725,381;   -0,928;    2,500
793,413;18165,283;   -0,110;   -0,318
793,979;17807,730;    1,526;   -1,318
794,545;17920,086;    2,981;    2,682
795,111;17407,897;    2,435;    1,318
795,678;17570,526;    3,526;   -1,682
796,244;17240,427;    2,799;    0,136
796,810;17722,147;    0,799;    0,773
797,375;17487,322;   -0,292;   -2,136
797,941;17486,769;   -1,110;    0,591
798,507;17623,307;    0,254;   -0,955
799,073;17222,845;    2,708;    0,591
799,639;17315,383;    1,435;    3,136
800,205;17375,375;   -1,565;    2,682
800,770;16960,640;    1,345;    1,773
801,336;16996,178;    2,981;   -0,955
801,901;16763,535;    6,072;    3,136
802,467;17255,527;    0,526;    2,045
803,033;16661,974;   -0,019;    0,864
803,598;16845,694;    1,072;   -1,045
804,163;16846,414;    0,708;   -0,318
804,729;16853,861;   -0,110;    1,136
805,294;17180,217;    1,072;    2,227
805,859;17011,664;    0,890;   -0,409
806,425;16579,111;    3,890;    2,682
806,990;16221,376;    1,890;    4,318
807,555;16651,005;   -0,110;    2,591
808,120;16623,907;   -1,292;   -0,409
808,685;16711,354;    1,072;   -2,500
809,250;16283,892;    2,072;   -0,500
809,815;16531,885;   -0,201;    0,682
810,380;16959,513;    0,981;    1,591
810,945;17428,779;    2,890;    2,045
811,510;16747,499;   -0,200;    1,591
812,075;16452,582;    2,800;   -1,409
812,640;16482,120;    3,709;    1,409
813,204;16613,658;    2,163;   -0,227
813,769;17033,741;    0,254;   -0,045
814,334;16546,552;    0,527;    0,864
814,898;16565,090;    1,981;    0,591
815,463;16369,083;    0,981;   -0,773
816,027;16337,711;    1,345;   -2,318
816,592;16501,068;    2,163;   -2,045
817,156;16103,697;   -2,200;    1,136
817,721;15947,871;    0,982;    2,318
818,285;15917,591;    0,618;    1,500
818,849;16434,947;   -0,018;    1,682
819,414;16423,212;    0,073;    2,955
819,978;16010,296;   -0,291;    1,773
820,542;16543,561;    2,891;    0,500
821,106;16347,553;    2,800;    0,682
821,670;16407,273;    2,709;    2,591
822,234;16127,357;    1,073;    1,409
822,798;15607,440;   -0,836;    0,500
823,362;15653,614;    1,527;    4,227
823,926;15086,698;   -0,018;    1,136
824,490;15264,145;    3,527;   -0,682
825,054;15667,956;    2,527;   -1,136
825,618;15364,857;   -1,200;   -1,500
826,181;15276,123;    0,982;   -1,318
826,745;15161,206;   -0,745;   -1,045
827,309;15528,926;    2,255;    1,318
827,872;15037,464;    0,527;    0,955
828,436;15883,911;    1,982;   -0,773
828,999;16008,085;    2,436;    1,227
829,563;14979,714;   -0,654;    1,136
830,126;14794,707;   -0,018;   -0,591
830,690;14858,790;    0,709;    2,864
831,253;14362,328;   -0,473;    2,227
831,816;14506,230;   -0,018;    0,500
832,380;14411,949;    1,164;    0,864
832,943;14684,306;    3,073;   -0,500
833,506;14226,662;    0,255;   -1,227
834,069;14954,745;    2,164;   -0,955
834,632;15033,465;   -2,200;    1,318
835,195;14925,549;    1,346;    0,955
835,758;14211,632;    0,709;    1,955
836,321;14070,170;    1,073;   -1,045
836,884;14178,344;   -1,291;   -0,955
837,447;14219,519;    0,528;    1,773
838,010;14438,329;    1,800;    3,227
838,573;14718,413;    0,528;    0,773
839,135;14722,951;   -0,109;   -0,955
839,698;14206,216;    2,528;    0,409
840,261;13782,390;    0,255;   -0,227
840,823;13674,474;   -0,927;    0,864
841,386;13919,921;   -0,018;   -2,409
841,948;13832,186;    0,255;    1,773
842,511;13634,542;    0,255;    1,682
843,073;13721,899;    2,982;    0,227
843,636;13557,618;    0,619;   -0,227
844,198;13478,974;    1,255;    0,591
844,760;13614,967;    0,619;    1,955
845,322;13318,232;    0,164;    1,136
845,885;13660,770;   -0,290;    0,591
846,447;14040,672;    0,710;    0,227
847,009;13705,028;    3,983;   -0,682
847,571;13970,384;    1,346;   -2,045
848,133;14073,831;   -0,199;   -1,864
848,695;13896,187;    2,346;    1,409
849,257;13507,089;    1,346;   -1,682
849,819;13672,082;    2,983;   -0,409
850,381;13690,256;    1,801;   -0,864
850,942;14018,339;    1,892;   -0,591
851,504;13941,241;    0,983;    0,227
852,066;13987,506;    1,619;   -1,591
852,628;13634,953;    0,165;    1,955
853,189;13173,764;    0,256;    2,682
853,751;13281,120;   -0,654;    1,409
854,312;13097,113;    1,256;   -1,682
854,874;13594,560;   -0,108;   -0,773
855,435;14025,552;    0,528;   -1,682
855,997;14136,545;    3,983;   -0,136
856,558;13499,356;    0,801;    1,773
857,119;13587,894;   -0,744;    2,864
857,681;13324,432;   -0,108;    0,318
858,242;13358,061;    1,347;   -2,136
858,803;13739,235;    1,074;   -0,773
859,364;14279,955;    0,892;   -4,773
859,925;13711,493;   -0,290;   -0,955
860,486;13607,212;    0,529;   -0,955
861,047;13353,750;    0,165;   -1,227
861,608;13185,470;    0,165;   -0,773
862,169;13367,008;   -0,562;   -0,045
862,730;13140,637;   -0,290;    1,409
863,291;13369,539;    0,438;   -0,500
863,852;13664,168;   -0,926;    1,955
864,412;13214,251;   -1,835;   -0,864
864,973;11998,335;    1,892;    0,500
865,534;11855,873;    2,074;    0,227
866,094;13155,320;    2,620;    0,227
866,655;12887,221;    4,711;    3,318
867,215;13139,032;    0,074;    0,136
867,776;13040,843;   -1,199;   -0,136
868,336;13105,653;    1,529;    0,136
868,897;12690,737;    3,438;    1,682
869,457;12464,093;    3,256;    0,318
870,017;12677,176;    2,438;   -1,227
870,578;13123,624;    1,893;    0,773
871,138;12779,889;    2,620;   -0,955
871,698;12365,518;   -0,562;   -1,318
872,258;12251,510;    0,711;   -2,864
872,818;12617,321;    2,347;    0,045
873,378;12648,859;   -2,198;    1,045
873,938;12242,306;    4,984;    0,500
874,498;12453,299;    1,256;   -1,955
875,058;12417,746;    4,347;    1,773
875,618;12301,011;    1,438;   -2,682
876,177;12227,822;   -0,471;    0,136
876,737;11880,450;   -0,289;    1,955
877,297;11911,898;    2,711;    1,955
877,856;11935,436;    2,529;    0,318
878,416;11903,519;    2,438;   -0,136
878,976;12088,875;    3,438;    0,409
879,535;12285,686;    4,529;    3,136
880,095;12053,587;    1,347;    0,045
880,654;12123,035;    0,347;    1,318
881,213;12231,482;    2,347;    1,500
881,773;11918,656;    1,984;    2,682
882,332;12265,649;    6,075;    5,136
882,891;12098,368;    0,711;    2,136
883,451;12482,361;   -2,016;    1,682
884,010;11979,717;   -1,107;   -0,409
884,569;12059,800;   -2,289;   -0,045
885,128;12179,793;   -0,743;   -1,864
885,687;12244,695;   -0,743;    0,682
886,246;12013,869;    2,620;    2,136
886,805;11799,771;    1,620;    2,045
887,364;12041,581;    1,166;   -0,500
887,922;12348,392;   -0,016;    0,045
888,481;11853,203;    1,530;    0,591
889,040;12131,468;    3,711;    2,136
889,599;12701,370;    2,166;    1,409
890,157;12759,908;    2,166;    2,409
890,716;12402,264;    2,166;    0,227
891,274;12237,256;    0,075;   -1,136
891,833;12595,522;    1,166;    0,864
892,391;12469,060;    1,802;    0,500
892,950;12563,870;    0,166;   -0,773
893,508;12875,863;    0,984;   -0,409
894,067;12279,128;   -0,379;    0,136
894,625;12220,302;   -1,016;   -1,500
895,183;12417,568;   -0,198;   -0,682
895,741;12361,560;    2,257;   -1,773
896,299;12182,735;    1,621;   -2,409
896,858;12376,363;    1,530;   -1,591
897,416;12506,629;    0,166;   -1,318
897,974;12280,076;   -2,197;    0,318
898,532;12424,159;    6,530;    2,682
899,089;12346,606;    0,621;   -0,682
899,647;12402,962;    0,530;    1,318
900,205;12219,410;    0,257;    1,045
900,763;12369,402;    2,166;    0,227
901,321;12392,304;    3,530;   -1,409
901,878;11885,205;    3,257;   -0,773
902,436;11773,743;    0,257;    1,318
902,994;12213,099;    6,712;    3,682
903,551;11701,547;    1,439;    0,409
904,109;12053,085;    1,530;   -1,409
904,666;11729,350;    1,439;    1,045
905,224;11566,342;    3,894;   -0,409
905,781;11363,335;   -0,470;   -0,318
906,338;11388,237;    0,167;    1,045
906,895;11373,047;    1,894;    2,045
907,453;11300,040;    2,348;    1,136
908,010;11331,941;    3,348;    0,409
908,567;11022,752;   -0,561;    0,591
909,124;10589,563;    2,439;   -1,500
909,681;10685,464;   -1,288;    0,682
910,238;10861,366;   -0,106;   -1,318
910,795;11179,813;   -1,561;   -1,136
911,352;10835,086;   -0,379;   -2,682
911,909;10349,359;    2,803;   -0,864
912,466;10787,540;    1,985;    1,500
913,022;10365,449;   -0,924;    0,500
913,579;10724,813;   -0,470;    2,045
914,136;10489,631;   -2,561;    0,955
914,692;10805,813;    1,530;   -1,227
915,249;10437,086;    0,530;    0,409
915,806;10597,268;    1,803;    1,955
916,362;10429,631;    0,894;    1,864
916,918;10069,995;    2,439;    1,045
917,475;10032,995;    1,621;    0,955
918,031;10124,995;    0,076;   -0,045
918,587; 9665,086;    0,621;   -0,318
919,144; 9917,631;   -0,379;    0,227
919,700;10137,995;    0,167;    0,773
920,256; 9803,268;    0,439;    0,045
920,812; 9522,631;    1,439;   -1,045
921,368; 9529,540;    1,348;   -1,045
921,924; 9232,177;    0,439;   -0,136
922,480; 8889,268;    0,076;    1,227
923,036; 9433,995;   -0,652;    1,955
923,592; 9391,268;    0,621;    0,318
924,148; 9322,631;    1,894;   -0,955
924,704; 8783,904;    0,258;   -0,409
925,259; 9074,177;   -0,561;    0,591
925,815; 8866,540;    3,803;    0,500
926,371; 8429,268;    3,530;    1,409
926,926; 8381,540;    1,621;    0,591
927,482; 8087,813;    1,621;    0,773
928,037; 8022,631;   -0,833;    2,045
928,593; 8312,268;    0,258;    1,045
929,148; 8149,268;    1,167;   -1,500
929,704; 7755,268;    2,439;   -0,500
930,259; 7933,449;    0,894;   -0,136
930,814; 7201,268;    1,803;    1,955
931,369; 6949,540;    0,258;   -0,773
931,925; 6903,904;   -1,924;    0,136
932,480; 6817,722;    3,076;   -2,591
933,035; 6796,086;    3,985;   -0,318
933,590; 6602,268;   -1,742;   -1,773
934,145; 6348,359;   -1,288;   -0,318
934,700; 6633,631;    0,348;   -0,591
935,255; 6492,631;    4,803;    0,045
935,809; 5979,722;    6,258;    0,864
936,364; 5267,904;    2,167;   -0,136
936,919; 5326,631;    2,348;   -1,773
937,474; 5222,631;    1,348;    0,136
938,028; 5056,268;    3,076;    1,136
938,583; 4704,995;    6,348;    4,682
939,138; 4925,722;    0,167;    2,136
939,692; 4479,722;   -1,015;   -1,136
940,247; 4247,268;    1,167;   -1,045
940,801; 3962,631;    0,621;    0,227
941,355; 3900,722;    0,439;    2,591
941,910; 3620,904;    0,712;   -2,136
942,464; 3741,359;    2,712;   -0,318
943,018; 3632,359;    3,258;   -0,227
943,572; 3559,359;    2,803;   -0,682
944,126; 3134,268;   -0,924;   -0,409
944,681; 3030,268;    0,712;    0,227
945,235; 2999,086;    2,167;   -0,591
945,789; 2958,631;    1,258;   -1,864
946,342; 3126,995;   -0,561;   -0,591
946,896; 2902,177;    0,348;    0,955
947,450; 2693,268;   -0,561;   -0,227
948,004; 2948,722;    1,076;   -0,045
948,558; 2900,631;    1,258;   -0,864
949,111; 2837,268;   -1,197;   -0,318
949,665; 2944,086;   -0,106;   -0,682
950,219; 2845,540;    0,621;   -1,045
950,772; 2847,086;    0,258;    1,864
951,326; 2794,449;   -1,106;   -0,955
951,879; 2839,995;    1,076;   -2,318
952,433; 2888,540;    1,348;    2,227
952,986; 2715,086;    0,348;    0,682
953,539; 2663,813;    1,530;    0,591
954,093; 2635,813;    0,985;   -1,318
954,646; 2761,359;   -0,288;    1,318
955,199; 2585,359;    1,258;   -0,500
955,752; 2571,086;    1,985;    1,773
956,305; 2502,631;    0,894;    2,955
956,858; 2641,540;    0,621;   -0,318
957,411; 2782,177;    3,621;    2,136
957,964; 2634,268;    2,076;    2,136
958,517; 2608,449;    0,985;    3,136
959,070; 2470,268;   -1,197;    1,955
959,623; 2642,540;    1,076;    1,500
960,176; 2440,359;    0,712;    2,045
960,728; 2420,359;    1,712;    0,773
961,281; 2459,086;    2,258;    0,500
961,834; 2450,268;   -0,833;    0,864
962,386; 2408,631;    1,258;    1,045
962,939; 2316,904;    3,439;   -0,318
963,491; 2436,631;    2,621;    1,136
964,043; 2332,813;    0,076;    2,409
964,596; 2466,449;    1,712;    2,227
965,148; 2321,449;   -0,379;    1,773
965,700; 2236,359;   -0,015;   -0,227
966,253; 2384,268;   -0,833;    0,318
966,805; 2275,995;    1,894;    0,773
967,357; 2276,540;    0,439;   -1,500
967,909; 2284,449;    1,167;   -1,227
968,461; 2316,359;    0,894;    3,136
969,013; 2271,631;   -1,561;   -0,864
969,565; 2348,449;    1,803;   -1,136
970,117; 2539,904;    3,803;    1,045
970,669; 2304,540;    3,258;   -0,136
971,220; 2126,177;    2,167;   -1,500
971,772; 2109,268;    1,348;   -0,318
972,324; 2233,722;   -1,197;   -0,500
972,876; 2145,540;    0,167;   -0,045
973,427; 2306,813;   -1,197;   -1,045
973,979; 2306,177;    0,076;   -2,500
974,530; 2242,722;    0,803;    1,318
975,082; 2252,631;    2,167;    1,682
975,633; 2176,995;    2,894;    1,682
976,184; 2318,359;    2,076;    0,773
976,736; 2175,631;    0,348;    0,227
977,287; 2032,631;    0,258;   -0,500
977,838; 2172,813;   -0,924;   -0,318
978,389; 2197,722;    0,803;   -0,500
978,940; 2063,359;    1,258;   -0,409
979,491; 2086,268;    2,258;   -0,500
980,042; 2089,086;   -0,652;    3,045
980,593; 2117,631;    1,894;    0,227
981,144; 2207,177;    3,530;   -0,500
981,695; 2216,813;   -0,470;    1,500
982,246; 2146,268;   -1,833;    1,045
982,797; 2206,540;   -0,561;    0,682
983,347; 2336,631;    2,167;    0,591
983,898; 2523,995;    4,167;    0,409
984,449; 2379,904;    2,530;    0,773
984,999; 2229,086;    1,894;   -1,136
985,550; 2081,540;    3,167;   -0,318
986,100; 2049,268;    0,712;   -0,318
986,651; 2073,086;    0,258;    0,045
987,201; 2087,359;    0,894;   -0,591
987,751; 2138,813;   -0,288;    2,864
988,302; 2151,268;   -0,379;    1,500
988,852; 2160,177;    1,985;   -1,136
989,402; 2236,813;    0,985;    0,682
989,952; 2168,268;    1,621;    0,864
990,502; 2198,359;    1,076;    0,682
991,052; 2127,177;   -0,106;    0,045
991,602; 2041,631;    1,167;    1,318
992,152; 2076,904;    2,803;    0,682
992,702; 2063,995;    1,167;   -0,045
993,252; 1979,177;    0,076;   -0,500
993,802; 2096,813;    1,167;    1,318
994,352; 2251,268;   -0,742;    1,136
994,901; 2294,631;    1,076;    3,227
995,451; 2232,449;   -1,197;    0,318
996,000; 2297,268;    1,076;    0,318
996,550; 2084,722;    2,894;    0,227
997,100; 2094,904;   -0,561;   -0,045
997,649; 2338,722;   -0,197;    0,955
998,198; 2037,722;   -0,288;   -1,500
998,748; 2229,995;    0,348;   -2,318
999,297; 2112,359;    0,985;   -0,409
999,846; 2218,540;    1,894;   -0,773
1000,395; 2213,631;    1,530;    0,500
1000,945; 2241,722;    1,076;   -0,773
1001,494; 2296,722;    0,167;    0,682
1002,043; 2276,813;    0,712;    0,864
1002,592; 2078,540;    3,439;    1,955
1003,141; 2192,540;    2,439;   -0,682
1003,690; 2135,722;    1,258;    0,500
1004,238; 2147,177;   -0,106;   -0,045
1004,787; 1865,995;   -1,288;    1,227
1005,336; 2135,904;    1,621;    0,682
1005,885; 2189,359;   -0,197;   -2,773
1006,433; 2259,631;   -0,470;    0,955
1006,982; 2415,904;    2,167;    1,682
1007,531; 2286,449;    2,712;   -0,227
1008,079; 2193,995;    0,258;    0,500
1008,627; 2300,177;    1,621;    0,409
1009,176; 2095,722;    0,076;   -1,955
1009,724; 2117,540;   -2,742;    0,864
1010,273; 2232,631;    1,076;    0,500
1010,821; 2275,995;    1,076;    1,409
1011,369; 2060,177;    0,076;    1,318
1011,917; 2074,904;   -0,833;   -0,591
1012,465; 2310,086;    2,530;   -1,591
1013,013; 2370,813;    0,439;   -1,682
1013,561; 2320,540;   -1,288;   -0,773
1014,109; 2404,631;   -0,833;    1,682
1014,657; 2260,813;    1,348;    0,591
1015,205; 2311,722;    0,894;   -0,955
1015,753; 2291,995;    0,258;   -1,409
1016,301; 2340,540;    2,621;    3,045
1016,848; 2361,995;    2,167;    0,409
1017,396; 2408,359;    1,621;    0,045
1017,944; 2498,540;    2,621;    1,864
1018,491; 2271,722;   -0,197;    1,409
1019,039; 2538,631;   -0,652;    0,591
1019,586; 2379,904;    0,076;    1,682
1020,134; 2421,086;    0,712;    1,500
1020,681; 2450,722;    2,894;   -1,136
1021,228; 2410,268;   -0,561;   -2,227
1021,776; 2295,540;   -0,833;   -1,136
1022,323; 2550,268;    0,803;    0,773
1022,870; 2452,904;   -0,470;   -0,045
1023,417; 2413,995;    2,076;    1,864
1023,964; 2469,086;    0,621;    1,227
1024,511; 2375,722;   -0,652;    0,773
1025,058; 2183,722;    0,439;   -0,045
1025,605; 2240,268;   -1,742;    3,136
1026,152; 2474,722;   -0,106;   -0,591
1026,699; 2216,813;    0,167;    1,318
1027,245; 2323,359;    2,439;    0,318
1027,792; 2466,995;    0,712;    1,409
1028,339; 2452,995;    4,076;   -0,045
1028,885; 2298,086;    3,621;   -0,227
1029,432; 2247,449;   -0,106;    0,227
1029,978; 2332,268;    1,348;   -1,591
1030,525; 2231,813;    1,621;    0,409
1031,071; 2384,540;    0,348;    1,136
1031,618; 2583,449;    1,258;    1,682
1032,164; 2352,359;    2,076;    3,045
1032,710; 2396,086;    0,076;   -1,500
1033,256; 2302,449;    0,712;   -0,136
1033,803; 2253,995;   -0,288;    1,500
1034,349; 2025,904;    1,803;    0,136
1034,895; 2165,995;    2,621;   -0,318
1035,441; 2156,995;    0,439;    0,318
1035,987; 2179,268;   -2,288;   -0,682
1036,533; 2206,995;   -0,197;   -0,955
1037,078; 2426,268;    4,712;    1,682
1037,624; 2248,086;    2,439;   -0,955
1038,170; 2226,086;    1,712;   -0,318
1038,716; 2181,722;    2,167;   -0,409
1039,261; 2051,359;    2,167;   -0,773
1039,807; 2033,631;   -0,015;    3,409
1040,352; 2115,540;   -1,288;   -0,318
1040,898; 2134,995;    0,167;   -0,682
1041,443; 2043,722;    0,803;   -2,591
1041,989; 2180,177;    3,621;    1,591
1042,534; 2006,540;    0,985;    2,591
1043,079; 2045,722;    1,985;    0,955
1043,625; 1926,631;    0,258;    0,500
1044,170; 1985,086;    2,439;    1,045
1044,715; 2253,359;    0,167;    0,955
1045,260; 2076,813;   -0,833;   -0,955
1045,805; 2061,995;    0,258;   -0,591
1046,350; 1996,813;    0,530;   -0,409
1046,895; 2057,540;    0,803;    1,591
1047,440; 2028,813;    1,530;    0,409
1047,985; 1883,722;   -1,197;   -0,955
1048,530; 1813,813;    1,348;    1,227
1049,074; 1902,086;    2,803;    0,318
1049,619; 1852,449;   -0,924;    1,955
1050,164; 1699,904;    1,076;    0,227
1050,708; 1750,177;    2,621;    0,045
1051,253; 2143,177;    3,258;   -2,227
1051,797; 1860,359;   -0,197;   -1,318
1052,342; 1776,359;    1,348;    1,045
1052,886; 1820,359;    1,803;   -1,409
1053,430; 1679,995;    2,167;    0,136
1053,975; 1710,086;    0,894;   -0,318
1054,519; 1724,904;    1,803;    3,227
1055,063; 1791,904;    3,621;    1,318
1055,607; 1699,177;    1,348;    0,227
1056,151; 1710,540;    0,530;    1,682
1056,695; 1584,086;   -1,833;   -1,136
1057,239; 1649,813;   -1,197;   -0,682
1057,783; 1683,540;    2,258;   -1,500
1058,327; 1671,904;    3,076;    1,409
1058,871; 1904,995;    3,985;    1,318
1059,415; 1642,268;   -0,561;   -0,045
1059,958; 1906,540;    2,985;    2,591
1060,502; 1611,359;    1,348;   -0,773
1061,046; 1488,904;    1,712;   -0,955
1061,589; 1470,722;    2,803;   -1,136
1062,133; 1367,904;    0,985;    1,864
1062,676; 1336,631;    1,439;    0,864
1063,220; 1375,540;    0,985;    0,500
1063,763; 1408,449;    2,985;    1,136
1064,306; 1482,904;    0,985;    1,864
1064,849; 1391,268;    2,076;    0,591
1065,393; 1386,631;    2,894;   -1,500
1065,936; 1457,268;    2,530;   -0,409
1066,479; 1342,813;    2,621;    1,318
1067,022; 1377,268;    1,894;   -0,227
1067,565; 1287,177;   -1,197;   -1,318
1068,108; 1299,359;    1,258;   -0,591
1068,651; 1259,268;   -2,470;    1,409
1069,194; 1207,631;   -1,106;   -1,682
1069,736; 1226,904;    3,803;    0,955
1070,279; 1199,268;   -1,652;   -0,500
1070,822; 1296,268;    1,530;   -0,318
1071,364; 1406,904;    0,530;    1,318
1071,907; 1213,540;    0,348;    3,227
1072,450; 1079,086;    0,258;   -0,045
1072,992; 1114,904;   -0,561;    3,136
1073,535; 1271,177;    0,167;    2,136
1074,077; 1069,631;    2,985;    2,045
1074,619; 1049,177;    0,985;    0,591
1075,161; 1088,722;   -0,561;    1,500
1075,704; 1267,359;    0,258;    1,227
1076,246; 1055,904;    1,530;    0,682
1076,788;  968,995;   -1,015;    1,773
1077,330; 1028,631;   -2,106;    2,136
1077,872; 1025,995;   -1,924;    0,955
1078,414; 1274,177;    3,712;    0,773
1078,956; 1015,177;    0,167;   -0,227
1079,498; 1270,631;    0,439;    0,318
1080,040;  996,540;    0,985;   -1,318
1080,581;  935,540;    0,621;   -0,318
1081,123;  855,813;   -0,106;   -0,773
1081,665;  890,086;    3,803;   -0,955
1082,206; 1210,177;    3,258;   -0,500
1082,748; 1064,722;    3,258;    2,045
1083,289;  925,540;    0,167;    1,318
1083,831;  861,813;    0,258;    0,227
1084,372;  915,722;    0,894;    0,591
1084,913;  916,449;    3,348;    0,864
1085,455;  867,813;    1,530;   -2,045
1085,996;  842,631;    0,530;    0,136
1086,537;  889,359;    0,985;    0,864
1087,078;  908,722;    0,439;   -2,136
1087,619;  961,086;   -1,652;    0,227
1088,160;  878,631;    1,439;    1,318
1088,701;  852,904;   -0,742;    0,682
1089,242;  807,177;   -0,561;   -2,227
1089,783;  903,086;   -0,561;    1,409
1090,324;  873,449;   -0,833;    0,682
1090,865;  757,359;   -1,924;   -0,409
1091,405;  712,813;   -0,561;    2,227
1091,946;  752,449;   -0,197;   -0,955
1092,487;  687,995;   -1,288;   -1,409
1093,027;  856,359;    1,803;   -1,500
1093,568;  723,631;    2,258;    1,227
1094,108;  812,904;    0,621;    1,773
1094,649;  752,722;   -0,470;    0,136
1095,189;  695,268;    1,167;   -0,682
1095,729;  661,631;    0,712;    0,955
1096,269;  655,904;    1,258;   -0,955
1096,810;  955,995;   -0,197;    0,500
1097,350;  797,540;   -0,561;   -0,773
1097,890;  696,813;    2,985;    1,227
1098,430;  949,540;    4,985;    2,864
1098,970;  843,177;    1,894;    1,682
1099,510;  686,268;   -0,833;   -2,318
1100,050;  627,722;    0,258;   -1,591
1100,589;  610,268;    0,076;   -0,318
1101,129;  738,449;    0,894;   -0,955
1101,669;  886,359;    2,803;    2,136
1102,209;  717,813;    1,530;    2,227
1102,748;  660,359;    3,439;    0,955
1103,288;  652,995;    0,712;   -1,227
1103,827;  671,904;    3,530;   -2,227
1104,367;  571,268;    1,712;   -2,409
1104,906;  546,268;   -1,015;   -1,136
1105,445;  614,722;    0,985;   -1,136
1105,985;  566,086;   -0,652;    1,500
1106,524;  613,995;    1,530;   -0,682
1107,063;  590,813;    1,167;    1,409
1107,602;  551,086;    1,894;   -1,500
1108,141;  491,995;    1,621;    1,500
1108,680;  601,904;    3,985;   -0,591
1109,219;  526,268;    0,167;   -0,500
1109,758;  529,268;    4,167;    0,682
1110,297;  514,177;   -1,106;   -0,682
1110,836;  453,631;    1,439;    0,955
1111,375;  598,631;    0,348;    0,409
1111,913;  618,631;    0,985;    0,773
1112,452;  563,268;    0,894;    0,136
1112,991;  452,904;    1,076;    1,955
1113,529;  422,268;    0,167;   -0,045
1114,068;  489,268;    0,439;    2,955
1114,606;  396,995;   -0,561;   -0,955
1115,144;  551,813;    1,530;    1,045
1115,683;  492,268;    1,985;    0,318
1116,221;  538,177;    2,076;   -0,864
1116,759;  439,995;    1,621;   -0,864
1117,297;  637,086;    1,621;    1,864
1117,836;  456,359;    1,985;   -1,227
1118,374;  464,177;    0,258;   -0,682
1118,912;  417,904;    0,439;    2,682
1119,450;  414,813;    0,985;    0,864
1119,988;  454,904;    3,348;    2,136
1120,525;  895,177;    7,258;    3,318
1121,063;  593,904;    0,530;    1,864
1121,601;  421,904;    1,076;   -1,227
1122,139;  382,177;    1,076;   -2,045
1122,676;  572,813;   -1,652;    2,773
1123,214;  502,995;    0,712;    4,409
1123,751;  334,631;    0,621;    2,227
1124,289;  448,540;    0,894;   -0,409
1124,826;  335,449;   -0,379;    0,227
1125,364;  266,540;    0,712;   -0,955
1125,901;  448,813;    6,258;    1,227
1126,438;  543,995;    3,530;    0,955
1126,975;  291,722;    2,985;   -0,773
1127,513;  351,631;    2,621;    2,136
1128,050;  273,268;   -0,561;   -0,682
1128,587;  364,995;    1,348;   -0,227
1129,124;  415,359;   -0,015;    1,318
1129,661;  288,268;   -1,924;    0,227
1130,198;  441,086;    2,439;    0,773
1130,734;  392,177;   -0,379;    1,409
1131,271;  257,449;   -1,197;    0,864
1131,808;  416,359;    1,621;    3,045
1132,345;  306,813;    4,530;    0,318
1132,881;  187,995;   -0,561;   -1,864
1133,418;  315,904;    0,348;   -1,136
1133,954;  258,722;    0,712;   -2,682
1134,491;  321,086;    1,712;   -0,773
1135,027;  235,086;    2,167;    0,864
1135,564;  313,177;    1,439;    2,955
1136,100;  293,359;   -0,742;    2,136
1136,636;  191,995;   -1,015;   -1,045
1137,172;  281,904;    0,894;   -1,045
1137,708;  217,086;   -1,561;   -1,045
1138,245;  219,540;    0,803;   -1,227
1138,781;  175,540;    1,803;   -3,318
1139,317;  242,359;    1,894;   -1,409
1139,852;  240,268;    3,076;    0,136
1140,388;  333,995;    2,076;   -0,409
1140,924;  230,268;    1,076;   -2,227
1141,460;  174,540;   -0,288;    0,136
1141,996;  131,086;   -0,652;    2,682
1142,531;  165,359;    1,076;    3,318
1143,067;  357,268;    1,167;    1,045
1143,602;  411,904;    3,439;   -0,318
1144,138;  267,359;    0,803;    1,045
1144,673;  154,268;    1,621;    1,409
1145,209;  202,722;    2,894;   -0,318
1145,744;  136,540;    0,803;    0,864
1146,279;  255,904;    1,530;   -0,136
1146,815;  183,359;    1,530;   -2,682
1147,350;  218,086;   -0,924;    0,045
1147,885;  143,268;   -1,924;   -1,318
1148,420;  141,540;    2,439;    0,773
1148,955;  128,086;   -1,470;    1,864
1149,490;  146,813;   -1,106;   -1,591
1150,025;  135,722;   -1,106;   -1,773
1150,560;  236,904;   -0,288;   -0,955
1151,094;  203,359;    0,258;   -0,591
1151,629;  208,268;   -3,742;    0,864
1152,164;  147,995;   -1,288;    1,318
1152,698;  113,449;    1,258;   -0,136
1153,233;   82,449;   -1,379;   -0,682
1153,767;  117,177;   -0,288;   -2,318
1154,302;  165,813;   -0,379;    1,773
1154,836;  163,995;    0,803;   -2,136
1155,371;  213,540;    2,258;    3,682
1155,905;  166,540;    1,985;    1,682
1156,439;  138,359;    0,530;   -0,500
1156,973;  162,995;    0,439;    0,318
1157,507;  109,540;   -1,742;    0,682
1158,042;  140,359;   -0,652;    1,045
1158,576;  176,904;   -0,561;    1,773
1159,110;  160,995;    0,076;    2,409
1159,643;  135,086;   -2,470;   -0,045
1160,177;   84,631;   -2,015;    1,500

