
Integration time [ms]:   0,050
Averaging Nr. [scans]: 11
Smoothing Nr. [pixels]: 0
Data measured with spectrometer [name]: 7318044SP
Wave   ;Sample   ;Dark     ;Reference
[nm]   ;[counts] ;[counts] ;[counts] 

186,757;  -37,140;   38,161;    1,318
187,357;   -2,662;   26,706;    0,955
187,958;  -20,406;   17,252;   -1,591
188,558;   12,671;   12,979;   -1,227
189,159;  -12,378;   10,070;   -4,500
189,759;  -36,050;    5,797;   -3,591
190,360;  -26,330;    6,797;   -2,136
190,960;   -1,676;    5,706;   -4,136
191,560;    2,905;    2,614;   -6,591
192,161;  171,735;    5,885;   -3,500
192,761;   52,486;    5,520;   -3,227
193,361;    9,811;    3,065;   -3,773
193,962;   44,155;    1,612;   -2,682
194,562;  -12,966;   -0,114;   -3,955
195,162;    0,953;   -0,567;   -2,227
195,762;  102,656;    2,433;   -0,045
196,362;   51,881;    1,706;   -2,500
196,963;  -13,297;    1,706;   -0,864
197,563;   34,493;    1,252;   -0,955
198,163;   -7,529;   -0,111;   -0,682
198,763;   -1,833;   -0,020;   -0,500
199,363;   28,692;    3,616;   -0,500
199,963;    6,537;    2,162;    0,409
200,563;   -0,566;    6,344;   -1,409
201,163;  -13,294;    5,435;   -0,227
201,763;   14,415;    1,435;    0,318
202,363;  -13,038;    0,980;    1,500
202,963;   24,720;    1,526;    1,045
203,563;   66,529;    0,344;    0,500
204,162;    7,726;    1,889;   -1,864
204,762;   -1,299;    2,071;    0,591
205,362;  -12,665;    0,708;    1,955
205,962;    9,157;    3,435;    1,955
206,562;   -2,030;    1,889;    2,318
207,161;  -12,926;    1,708;    0,318
207,761;   56,274;    4,435;    2,409
208,361;    0,097;    1,889;    1,409
208,960;   15,924;    2,889;    1,500
209,560;   12,440;    0,435;    1,591
210,160;   20,116;    5,071;    1,864
210,759;    7,020;    0,708;    1,227
211,359;   -4,596;   -0,474;    1,045
211,958;   77,672;    3,526;    2,045
212,558;   83,832;    0,799;    1,864
213,157;   31,334;   -0,929;    1,500
213,757;  145,335;    5,617;   -0,227
214,356;   48,853;    1,708;   -0,409
214,956;  122,352;    3,526;    0,409
215,555;   29,626;    0,617;    2,136
216,154;    0,839;   -0,292;   -0,591
216,754;   -1,532;    1,253;    0,773
217,353;   10,178;   -0,383;   -1,045
217,952;  -30,420;    2,072;    0,318
218,552;   18,402;    0,254;   -0,773
219,151;  -10,522;   -1,110;    0,955
219,750;   -6,935;    0,890;   -0,227
220,349;  -15,702;   -2,292;    1,045
220,948;   34,531;    1,163;    1,136
221,548;   -4,711;    0,617;    1,227
222,147;   -0,152;   -1,292;   -0,409
222,746;   64,248;    1,254;   -0,955
223,345;   25,357;   -1,019;    0,500
223,944;   21,710;    1,163;    0,773
224,543;   22,117;    4,072;   -1,409
225,142;    9,399;    1,345;    0,136
225,741;   17,977;    1,163;    1,045
226,340;    5,209;    1,254;   -0,955
226,939;   41,113;    2,708;   -0,136
227,538;   -6,184;    1,163;   -0,773
228,137;   52,962;    0,435;    0,864
228,735;   28,322;    0,435;    1,227
229,334;  -18,413;   -0,474;   -0,227
229,933;   50,930;    0,799;    0,591
230,532;   44,523;   -1,201;   -0,409
231,131;   81,888;    1,253;    0,318
231,729;   28,548;    1,163;   -2,318
232,328;   -1,676;    0,435;   -1,500
232,927;    8,380;    4,526;   -0,500
233,525;   11,929;    0,981;    0,045
234,124;   16,764;    1,890;   -1,591
234,723;   -2,752;    1,617;   -1,045
235,321;   -7,634;    1,163;    0,136
235,920;   -6,084;    2,526;   -1,227
236,518;   57,397;    1,072;    0,318
237,117;   -0,011;    2,890;   -0,227
237,715;   14,923;    1,163;   -0,500
238,314;   15,534;    1,708;   -2,318
238,912;   55,565;    0,526;   -1,409
239,510;   24,732;    1,162;   -1,227
240,109;   60,383;   -0,474;    3,773
240,707;   46,006;   -0,474;    1,227
241,305;   -6,301;   -0,383;    0,136
241,904;   14,336;   -0,292;   -2,045
242,502;   68,892;    3,253;   -0,227
243,100;   29,916;    3,344;   -0,955
243,698;   -6,332;    2,799;    1,682
244,297;   13,136;   -0,656;    0,682
244,895;    6,086;   -0,474;   -2,318
245,493;   65,273;    2,981;   -0,591
246,091;   80,135;    5,163;   -1,318
246,689;   38,404;    2,163;    0,591
247,287;   29,278;   -0,019;   -1,136
247,885;    8,988;   -1,019;    1,227
248,483;   -4,211;   -0,201;   -0,500
249,081;   27,117;    0,981;    1,591
249,679;   33,861;   -1,019;    1,682
250,277;    0,053;   -2,292;    0,864
250,875;   28,283;    0,617;   -1,045
251,473;   -1,431;   -0,019;    0,500
252,071;   40,880;   -0,383;    1,045
252,669;   12,256;   -1,565;    0,318
253,267;    5,108;    1,618;    0,773
253,864;   12,824;    0,617;    0,682
254,462;   45,432;    1,526;    1,591
255,060;   -4,132;    0,072;    1,318
255,658;   -5,563;   -3,292;   -0,136
256,255;    4,911;   -0,201;   -2,045
256,853;   25,806;    2,345;    1,409
257,451;    0,265;    1,981;    1,864
258,048;  151,883;    2,072;    1,864
258,646;   48,792;    0,436;   -1,045
259,243;   82,079;    2,981;    2,227
259,841;   35,773;    1,799;    0,318
260,438;   -2,676;    0,254;    0,864
261,036;   29,444;    0,617;    1,409
261,633;    6,718;    1,526;    2,227
262,231;   -7,633;   -0,110;   -0,045
262,828;  -16,036;   -0,383;    1,136
263,425;   -3,306;   -1,928;   -0,591
264,023;    1,050;    1,436;    0,045
264,620;   32,875;    1,526;   -0,318
265,217;   70,623;    2,890;    3,136
265,815;   12,746;    2,527;    2,136
266,412;   28,630;    0,072;    0,136
267,009;   34,262;    0,526;    0,773
267,606;   51,701;    0,345;   -0,955
268,203;    7,308;   -0,383;   -0,591
268,801;    8,556;   -0,474;    0,591
269,398;   -5,242;   -0,564;    2,500
269,995;   24,328;    0,890;    1,591
270,592;    7,891;    0,799;   -0,500
271,189;   -8,756;    1,981;    0,409
271,786;   -9,271;    2,072;    1,227
272,383;   34,179;   -0,383;    0,227
272,980;    8,601;    1,617;    0,318
273,577;   -2,244;    2,162;    1,227
274,174;   -4,652;    1,435;    2,591
274,771;   24,710;    1,890;   -0,773
275,367;  154,207;    3,253;    1,409
275,964;   63,223;   -0,565;   -0,500
276,561;    8,176;   -2,474;   -1,045
277,158;  -15,866;    1,799;   -1,773
277,755;   55,935;   -0,110;    0,409
278,351;   22,333;    0,436;   -1,500
278,948;   39,082;   -0,201;    0,045
279,545;   27,342;    0,527;    2,318
280,141;   54,978;    1,254;   -2,045
280,738;   56,612;    2,435;   -0,136
281,334;   10,212;   -0,383;    0,591
281,931;    5,211;    2,890;   -1,318
282,528;   40,860;    4,072;   -0,500
283,124;   55,159;    3,345;   -0,500
283,721;   52,014;    0,709;    1,409
284,317;   15,459;    0,163;    2,500
284,913;   50,627;   -0,110;    0,591
285,510;  105,172;    2,890;   -0,318
286,106;   61,184;    2,345;   -0,955
286,703;   28,312;    0,072;    1,955
287,299;    2,591;    1,254;   -0,591
287,895;   -4,366;    0,890;   -1,045
288,491;    2,940;    0,163;    2,136
289,088;   23,668;    0,163;    2,409
289,684;   20,347;    2,890;    1,500
290,280;   77,603;    1,890;    0,682
290,876;   55,749;    0,163;    5,500
291,472;   42,075;    2,163;    2,227
292,068;   38,282;    1,254;    0,227
292,665;   13,137;   -0,564;    0,773
293,261;   -3,567;   -1,292;    2,136
293,857;   36,687;    4,072;    2,136
294,453;   12,745;   -0,928;    0,955
295,049;   80,334;    0,253;    1,955
295,644;   40,041;   -1,292;    0,136
296,240;   -0,053;    0,162;   -0,136
296,836;   19,503;   -0,747;    0,318
297,432;   39,923;    2,980;   -0,500
298,028;   44,713;    0,435;    0,773
298,624;   23,059;    0,889;    1,864
299,220;   30,540;    0,435;    0,591
299,815;    9,011;    0,526;   -0,409
300,411;   31,334;    0,435;    1,773
301,007;   46,793;    1,889;    0,227
301,602;   10,933;    2,071;   -2,318
302,198;   60,666;    1,435;   -0,773
302,794;   21,680;    1,526;   -0,500
303,389;  -11,128;    1,071;    1,045
303,985;    9,761;    1,253;    1,409
304,580;   55,130;    0,889;    1,591
305,176;   16,120;    0,344;    0,136
305,771;  -29,270;   -0,929;   -1,227
306,367;  118,179;    3,071;    0,136
306,962;   42,297;    2,889;    1,500
307,558;   57,597;    2,435;    0,136
308,153;   34,669;   -0,383;   -1,136
308,748;   -9,839;    0,162;    1,682
309,344;   98,210;    0,253;   -1,318
309,939;   81,845;    2,071;   -1,318
310,534;    8,891;   -2,020;   -1,682
311,130;    4,682;   -0,656;   -2,500
311,725;   -0,197;    0,526;   -0,500
312,320;    4,273;    1,253;    0,045
312,915;   31,168;    2,890;   -1,045
313,510;  111,292;    0,526;   -0,500
314,105;   18,081;   -3,565;    1,409
314,700;  -11,890;   -1,656;   -1,045
315,295;    8,403;   -0,020;    0,045
315,890;   -3,165;   -0,292;    0,864
316,485;   28,355;    0,253;   -0,318
317,080;   -1,787;   -0,929;    1,591
317,675;   95,913;    3,071;   -0,682
318,270;  193,502;    6,889;    3,318
318,865;  120,499;    2,435;    3,045
319,460;   64,902;   -1,565;    0,591
320,055;    8,979;   -2,565;   -1,227
320,650;   10,384;   -1,838;   -0,591
321,244;    6,271;    0,889;   -1,409
321,839;    8,212;    0,980;   -0,227
322,434;   24,454;   -0,111;   -1,591
323,029;   -1,357;   -0,474;    1,591
323,623;   -7,657;    0,798;    0,773
324,218;   74,254;    2,707;    1,409
324,812;   43,592;    0,889;    1,591
325,407;   31,447;   -0,929;    2,045
326,002;   85,150;    0,526;   -0,409
326,596;   53,463;   -0,656;    1,318
327,191;    2,314;   -0,383;   -1,045
327,785;    5,190;   -0,747;   -0,227
328,379;   -3,382;   -0,383;    0,136
328,974;   11,104;    1,798;   -3,955
329,568;   23,809;    2,889;   -2,409
330,163;   58,591;    2,435;    1,045
330,757;   13,062;    0,253;    1,591
331,351;   -7,674;   -0,292;    0,682
331,945;  -13,506;   -0,383;    1,409
332,540;   21,966;    1,617;   -0,591
333,134;   26,129;    3,344;    0,773
333,728;   23,662;    2,799;    0,318
334,322;  -11,267;    0,889;   -0,864
334,916;   -7,680;    0,344;    0,955
335,510;   38,259;   -0,111;   -0,136
336,105;   28,859;   -0,929;    1,591
336,699;   -4,114;   -1,292;    0,591
337,293;   13,826;    1,071;    0,318
337,887;   -9,423;    0,071;    1,955
338,481;   26,812;    2,980;    0,591
339,074;   58,407;    2,071;    2,682
339,668;   57,630;   -0,110;    1,227
340,262;  285,891;    7,708;    3,227
340,856;  116,234;    1,708;   -0,682
341,450;   17,235;    0,708;    1,864
342,044;   31,190;    1,799;    0,136
342,637;   62,564;    1,162;   -2,136
343,231;   18,237;   -1,474;    0,682
343,825;   10,974;   -0,747;   -0,591
344,419;   17,789;   -0,474;    0,500
345,012;  235,515;    2,889;    4,045
345,606;  134,007;   -0,656;    1,591
346,199;   24,263;   -0,111;   -0,227
346,793;   60,668;    2,525;    2,045
347,386;    9,830;    0,889;   -1,136
347,980;  -16,163;   -0,838;   -0,045
348,573;    4,838;   -1,748;    0,409
349,167;  142,650;    6,161;    4,773
349,760;   63,325;    2,252;    2,682
350,354;   45,002;    1,616;    1,136
350,947;   61,020;    2,798;    1,682
351,540;   25,953;    0,616;   -1,409
352,134;  -11,007;   -1,111;    1,136
352,727;  -13,636;   -0,657;    1,136
353,320;   -9,321;    2,343;    0,591
353,913;  -25,540;   -1,929;    1,864
354,507;   45,114;    0,434;   -1,227
355,100;    3,729;    0,071;    0,864
355,693;  193,139;    4,798;    2,409
356,286;   78,535;    0,980;    2,773
356,879;   20,514;   -0,475;    1,227
357,472;   24,011;    0,980;    1,500
358,065;   26,375;    3,161;    2,500
358,658;  -13,853;    0,798;    2,318
359,251;  -20,391;    0,252;   -0,591
359,844;   33,092;    0,343;   -1,136
360,437;   61,977;    0,252;    0,045
361,030;    5,032;    0,525;   -0,682
361,623;    9,691;    0,434;    0,318
362,215;  107,032;    0,979;    2,045
362,808;   21,600;   -2,293;   -1,682
363,401;    8,994;    0,798;    0,136
363,994;  108,202;    3,252;   -1,500
364,586;   21,764;    0,888;   -1,500
365,179;    7,912;   -0,203;   -1,136
365,772;  -38,325;   -0,930;    2,045
366,364;    3,434;    1,524;   -3,227
366,957;   21,811;    1,342;   -0,045
367,549;    4,071;   -0,203;   -0,864
368,142;   15,071;    0,978;   -1,500
368,734;   -3,172;    2,523;   -2,136
369,327;  -27,787;    2,341;   -0,500
369,919;   -6,848;   -1,659;    0,409
370,512;    5,734;   -1,023;   -0,500
371,104;  150,206;    2,704;    1,591
371,696;  161,409;    1,703;   -0,955
372,289;   79,783;    0,157;    1,136
372,881;   50,974;    1,156;    1,318
373,473;  -14,912;    4,064;    1,136
374,066;   40,359;    1,336;    0,500
374,658;   20,888;    0,879;    1,136
375,250;  -22,453;   -1,668;   -1,409
375,842;    5,918;   -0,124;   -0,045
376,434;  -31,006;   -2,762;   -0,409
377,026;  -43,162;   -1,855;   -2,500
377,618;  -14,429;    0,779;   -0,682
378,210;  -60,589;    3,141;   -1,955
378,802;  -68,657;    3,412;   -0,591
379,394;  264,985;    3,411;    0,682
379,986;   46,776;    1,138;   -0,955
380,578;  -34,358;    1,410;    0,773
381,170;  185,302;    0,320;    0,045
381,762;  100,774;   -0,224;    1,409
382,354;   69,441;   -0,223;   -1,318
382,945;    3,060;    0,870;    0,318
383,537;  -30,280;    1,144;   -1,955
384,129;  -28,505;    0,963;   -1,136
384,721;   63,945;    0,418;    0,955
385,312;   22,393;   -1,399;   -0,955
385,904;   76,069;   -0,945;    1,591
386,496;   22,854;    0,691;    1,045
387,087;  133,721;    0,418;    2,500
387,679;   68,979;   -0,401;    0,045
388,270;   43,440;   -2,401;    2,045
388,862;   18,530;   -0,401;   -0,318
389,453;    6,221;    1,054;    1,045
390,045;   10,007;    3,236;   -2,682
390,636;  -68,487;    0,144;   -0,591
391,227;  -18,453;    2,054;   -0,045
391,819;  -38,391;    0,781;    0,773
392,410;  157,666;    0,600;    0,045
393,001;   12,139;    1,600;   -1,591
393,593;   50,135;    0,600;   -0,045
394,184;   81,874;    0,873;   -0,409
394,775;  -15,000;    1,146;    2,136
395,366;  -72,982;    1,782;    0,773
395,957;   67,250;   -2,400;    0,136
396,548;  -27,019;    1,054;    2,682
397,139;   66,653;    2,236;    0,591
397,730;   -1,839;    0,873;    0,955
398,321;   16,522;    0,509;    0,955
398,912;  -35,872;   -0,764;    0,136
399,503;  -36,302;   -1,945;   -1,409
400,094;    3,788;   -1,582;    1,682
400,685;  -10,825;    3,600;    0,045
401,276;  -50,400;   -0,400;   -0,955
401,867;  -53,603;   -1,127;    0,773
402,458;  -94,984;    1,509;   -2,318
403,048;   17,695;    0,146;    0,591
403,639;  -28,964;    1,509;    0,864
404,230;   66,189;    0,691;    0,318
404,821;  109,152;   -0,127;    0,045
405,411;   40,977;   -0,763;   -2,591
406,002;  -33,902;    3,237;   -1,136
406,592;  149,371;    2,691;    0,045
407,183;   41,978;    0,328;   -1,500
407,774;   18,536;    1,419;   -0,136
408,364;  -19,893;    2,600;    0,409
408,954;   78,389;   -0,036;    1,227
409,545;   70,742;    1,873;    1,045
410,135;   36,935;   -1,581;    0,500
410,726;   -1,487;    0,783;    0,318
411,316;  149,168;    2,237;    0,773
411,906;   22,735;    0,146;   -0,409
412,497;   27,904;   -0,490;   -0,045
413,087;  -23,117;    0,783;   -0,227
413,677;  -64,910;   -2,490;    3,864
414,267;  -70,138;   -1,035;    1,409
414,857;  -85,207;    0,419;    4,227
415,448;  -76,340;   -0,763;    0,500
416,038;  -56,108;   -2,945;   -0,591
416,628;  -25,102;    0,965;    0,409
417,218;   19,554;   -1,762;    3,318
417,808;  147,485;    0,965;   -0,409
418,398;   51,338;   -1,035;    2,682
418,988;  -44,948;   -2,217;    0,591
419,578;   33,444;    3,601;    1,409
420,168;  -21,985;    0,692;   -0,955
420,757;   85,601;    0,964;   -1,500
421,347;   -0,140;    1,601;   -0,227
421,937;  -20,392;    3,329;    1,409
422,527;   95,019;    2,602;   -0,773
423,116;  206,548;    2,692;   -0,045
423,706;  -23,345;    2,965;    0,318
424,296;  -64,989;    1,601;    0,682
424,885;   41,284;    1,510;   -3,045
425,475;   14,612;    1,147;   -2,864
426,065;  -67,091;   -1,489;   -0,318
426,654;  -75,878;    0,329;   -0,318
427,244;  142,749;    1,147;    1,409
427,833;  111,450;    1,056;   -0,500
428,423;   -1,859;    0,147;    1,136
429,012;    1,331;    2,420;   -1,136
429,601;  113,141;    2,057;    0,136
430,191;   18,895;    2,511;    4,318
430,780;  -64,065;   -1,671;   -0,409
431,369;   84,144;    1,329;   -0,045
431,959;   -0,715;    1,693;    0,500
432,548;  -54,672;   -1,398;   -0,045
433,137;  -93,446;    0,329;   -1,318
433,726;  -33,116;    0,148;    0,500
434,315;   -7,751;    0,148;    2,409
434,905;   77,427;    0,693;    1,409
435,494;   64,113;    3,148;    0,955
436,083;  -42,311;    1,420;   -0,955
436,672;   46,188;    1,148;    0,500
437,261;    2,328;    0,512;   -1,955
437,850;  182,896;   -1,125;    0,682
438,439;  224,727;    2,239;    1,955
439,027;  318,575;    3,421;    1,773
439,616;  258,498;    2,239;    1,227
440,205;   56,124;    0,057;   -2,136
440,794;   18,425;   -0,306;   -0,045
441,383;  -35,424;    1,603;   -0,591
441,971;  -54,075;   -0,306;    0,591
442,560;  -38,683;    0,603;   -1,773
443,149; -117,709;    3,060;   -1,318
443,737;  -88,555;    0,968;   -2,318
444,326;  -65,763;    0,331;    0,318
444,915;  -16,113;   -1,851;    0,864
445,503;  -13,972;    0,058;   -0,318
446,092;  218,149;    7,876;    2,136
446,680;  156,658;    1,876;    0,318
447,269;   60,569;   -1,487;   -0,318
447,857;   46,551;    2,240;   -1,773
448,445;   12,517;    2,149;    1,318
449,034;  -32,291;    0,876;   -1,136
449,622;  -33,197;    1,240;    3,500
450,210;  203,143;    3,149;    2,227
450,799;  132,714;    2,604;   -0,591
451,387;  100,593;    1,786;   -0,591
451,975;   84,552;   -1,305;    0,864
452,563;  151,728;    0,422;    2,318
453,151;   10,470;   -1,032;   -1,227
453,739;   45,044;   -1,577;    0,136
454,328;  127,510;    0,604;   -2,136
454,916;   68,600;    1,150;   -0,136
455,504;   83,031;    3,513;    1,227
456,092;   -3,440;    2,150;   -1,591
456,679;  -29,278;    0,604;    0,682
457,267;  340,977;    3,604;    1,045
457,855;   54,898;    3,241;    1,409
458,443;  -66,741;   -0,304;    1,682
459,031;   48,477;    1,332;    2,409
459,619;   19,852;   -3,577;    2,864
460,206;  -56,447;   -0,759;    2,045
460,794;  -46,182;   -0,668;   -0,227
461,382;   -7,586;    0,878;   -0,864
461,970;  -10,831;    0,605;    1,864
462,557;  -65,625;    0,878;   -0,682
463,145;   27,848;   -0,304;   -1,682
463,732;  240,966;    2,514;   -1,045
464,320;   41,631;    1,514;   -3,045
464,907;  163,112;    0,423;   -0,773
465,495;   81,983;    2,696;   -1,227
466,082;   11,560;    2,060;   -0,045
466,670;   40,484;    2,605;    1,227
467,257;  -42,752;    0,060;    2,045
467,844;   39,131;    1,514;    0,045
468,432;   13,086;   -0,031;    3,500
469,019;  -18,025;    1,606;   -1,773
469,606;   62,976;    0,969;    3,682
470,193;   73,167;    2,151;    0,227
470,780;   31,848;    0,333;    0,864
471,368;  -24,964;   -1,212;   -0,773
471,955;   59,185;    1,060;   -0,682
472,542;   36,857;   -0,303;   -1,136
473,129;  -58,279;   -0,485;    0,136
473,716;  -51,064;    0,060;    0,591
474,303;  -21,602;    1,333;   -0,864
474,890;  -17,671;    2,333;   -0,500
475,477;   75,800;   -0,576;    0,409
476,064;   -3,639;    0,697;   -1,591
476,650;   93,993;    2,152;    0,318
477,237;    6,720;    1,879;    0,955
477,824;   -9,045;    3,879;    0,864
478,411;  -68,059;    0,606;   -0,318
478,997;  -78,248;    0,606;   -0,773
479,584; -111,351;   -0,666;   -0,409
480,171;   28,150;    1,243;   -0,773
480,757;   74,735;   -0,848;    0,773
481,344;  -11,147;    0,334;    0,409
481,931;  -86,154;   -0,393;    1,045
482,517;   11,630;    0,425;    0,318
483,104;   92,072;    1,334;    2,864
483,690;  -23,917;    0,243;    0,045
484,276;  -34,896;    0,698;    0,227
484,863;  139,965;    2,152;    1,136
485,449;    9,170;    0,152;    0,318
486,035;  -33,966;   -0,666;   -0,136
486,622;   38,503;   -2,393;    0,045
487,208;  -26,841;    1,334;    1,500
487,794;  -82,922;    0,971;    0,318
488,380;  -81,802;    0,698;   -1,409
488,967;  -79,659;   -1,120;   -0,409
489,553;  -61,140;   -1,029;   -1,409
490,139;   -1,255;    0,971;    0,773
490,725;  -54,692;    0,789;   -0,227
491,311;  -20,196;    1,516;    3,045
491,897;  -45,731;   -0,665;    1,500
492,483;  -29,942;    0,426;    1,227
493,069;  360,889;    5,426;    0,864
493,655;  108,899;    1,789;    0,682
494,241;  -14,151;    1,517;   -0,955
494,826;  -14,144;    0,335;   -1,045
495,412;   47,160;    0,335;   -0,682
495,998;  -23,107;    0,971;   -0,318
496,584;   20,786;    2,244;    1,045
497,169;   33,249;    2,335;   -0,682
497,755;  -20,105;    1,244;    1,227
498,341;   88,700;    2,153;    0,318
498,926;  205,727;    2,881;    1,955
499,512;  -19,316;   -0,028;    2,955
500,097;  -31,531;   -0,574;   -0,318
500,683;   -0,666;   -0,028;    2,136
501,268;  -45,718;    1,881;   -0,955
501,854;  -25,433;   -0,119;    1,227
502,439;  -35,149;   -0,573;   -1,773
503,024;  -23,072;    1,608;    0,500
503,610;   -0,506;    1,335;   -0,682
504,195;  -43,161;    1,245;    1,955
504,780;   33,842;    2,335;    1,227
505,366;  108,365;    4,063;    2,864
505,951;   43,184;   -1,119;    1,045
506,536;  -18,443;    1,427;   -3,682
507,121;   25,999;    1,699;   -0,318
507,706;   -7,353;   -0,392;    1,045
508,291;  -46,449;   -2,937;    1,136
508,876;  -50,852;   -0,482;    2,591
509,461;  -26,111;    1,427;   -0,773
510,046;   11,997;   -0,391;    0,318
510,631;   23,480;   -0,119;   -0,773
511,216;  -42,682;   -0,664;   -0,500
511,801;   -8,372;   -0,755;    2,591
512,386;   12,569;    0,972;    0,500
512,971;   23,763;    0,427;    0,955
513,555;   51,207;    1,154;   -1,500
514,140;   15,719;    1,336;   -3,136
514,725;  107,713;    1,791;   -1,136
515,309;   41,237;    1,064;    0,318
515,894;  -19,435;   -0,300;   -2,227
516,479;   -3,853;    1,973;   -0,955
517,063;   -2,704;    0,882;    1,227
517,648;  -33,144;    0,155;   -1,136
518,232;  -54,114;   -1,300;   -1,409
518,817;   11,589;    1,337;    1,682
519,401;   81,626;    0,700;    0,591
519,985;   71,051;    2,700;    1,136
520,570;  -20,669;   -0,118;   -1,955
521,154;   44,532;    0,064;    0,591
521,738;  146,271;    1,064;    2,409
522,323;   43,328;   -0,390;    1,682
522,907;   46,956;    2,428;   -0,136
523,491;   11,240;    1,155;    0,955
524,075;   16,488;    0,428;    0,591
524,659;  168,912;    0,973;    0,591
525,243;  159,685;    0,883;    0,409
525,827;  144,915;    0,883;   -0,045
526,411;  184,003;    1,155;   -0,136
526,995;  347,917;    0,337;    1,409
527,579;  474,598;    1,974;   -1,045
528,163;  490,870;    0,428;   -1,500
528,747;  718,579;    1,065;   -0,773
529,331;  765,774;    0,883;   -1,409
529,915;  687,000;    2,338;    0,955
530,499;  967,605;    0,247;    1,227
531,082; 1257,682;    1,065;    1,591
531,666; 1474,724;    0,520;    0,773
532,250; 1663,918;    0,428;    2,682
532,833; 2066,674;    0,610;    2,773
533,417; 2150,259;    1,247;    0,864
534,001; 2457,905;    0,429;   -0,318
534,584; 2942,014;    1,974;    0,500
535,168; 3161,370;    3,247;    1,409
535,751; 3742,032;    4,520;    0,045
536,334; 3700,701;    4,520;   -0,409
536,918; 4456,086;    1,974;    1,591
537,501; 4853,319;    1,520;    1,318
538,085; 5301,890;    1,702;    1,045
538,668; 5687,229;    0,883;    2,409
539,251; 6387,932;    3,156;    3,773
539,834; 6845,736;    0,156;    0,773
540,418; 7227,324;    3,247;    4,318
541,001; 7654,900;    2,702;    1,773
541,584; 8020,495;    1,429;    2,227
542,167; 8131,825;    0,702;    2,955
542,750; 8529,799;    0,793;   -0,773
543,333; 8490,706;    1,429;    2,136
543,916; 9470,930;   -0,298;    2,500
544,499;10163,753;    2,520;    0,227
545,082;10485,824;    0,248;    3,591
545,665;10943,644;   -0,207;    1,500
546,248;11436,252;    0,520;   -0,318
546,830;11417,747;   -1,752;    1,955
547,413;12015,891;    0,157;   -0,773
547,996;12727,453;    0,157;    0,500
548,579;12707,938;   -0,843;    0,955
549,161;12770,463;    0,884;    2,682
549,744;12792,312;    0,612;    0,409
550,326;13403,774;    0,885;   -1,136
550,909;13372,066;    2,339;    0,591
551,492;13932,024;    0,521;    0,227
552,074;13909,854;   -0,024;   -1,318
552,657;14594,554;    2,430;    0,045
553,239;14557,117;   -3,024;   -0,773
553,821;14562,499;   -1,570;    1,045
554,404;14189,155;   -0,024;    1,136
554,986;14705,381;    2,248;    1,045
555,568;15392,217;    0,430;   -0,955
556,151;14747,466;    4,067;   -0,227
556,733;15042,453;   -1,388;   -0,864
557,315;15555,480;    4,703;    0,500
557,897;15431,524;    0,521;   -0,500
558,479;15666,381;    1,703;    1,318
559,061;15864,764;    1,067;   -0,864
559,643;16281,499;   -0,297;    0,045
560,225;16664,197;   -0,388;    2,864
560,807;16768,863;    0,340;    0,318
561,389;16366,581;   -1,206;    2,318
561,971;17080,629;   -0,660;    2,136
562,553;17033,436;    0,613;    1,591
563,135;17178,729;    1,249;    1,136
563,717;16835,966;    3,158;    1,136
564,298;17539,671;    3,976;   -0,045
564,880;17303,706;    0,340;   -1,409
565,462;17560,706;    1,977;    1,318
566,043;18710,526;   -0,933;    2,318
566,625;18288,613;    4,067;    1,227
567,207;18213,133;    0,704;    1,682
567,788;19317,152;   -0,114;    1,500
568,370;20159,485;   -1,841;   -0,500
568,951;19931,600;   -0,569;    0,227
569,533;20865,354;    0,977;   -0,500
570,114;21380,408;   -0,296;    0,682
570,695;21855,006;   -0,478;   -1,318
571,277;22354,686;   -0,205;   -1,682
571,858;23111,499;    2,704;   -1,136
572,439;23999,238;    0,795;   -1,045
573,021;24193,373;    0,432;   -2,773
573,602;24751,053;    1,795;    0,318
574,183;25641,160;   -0,114;    2,227
574,764;25808,754;    2,068;    0,409
575,345;26372,612;    0,250;   -0,136
575,926;27005,793;    2,704;    0,136
576,507;27016,958;    2,704;   -0,227
577,088;28129,654;    1,704;    1,682
577,669;28193,419;    1,704;    1,955
578,250;28895,796;   -0,750;   -1,045
578,831;29573,344;   -0,841;   -2,227
579,412;29852,486;   -1,205;    0,955
579,993;30838,102;    1,432;    0,227
580,573;31175,046;   -0,023;   -0,955
581,154;30202,000;    1,613;   -0,591
581,735;31165,384;    0,341;    0,773
582,315;30629,566;    0,523;    2,136
582,896;30986,935;   -1,750;    1,227
583,477;30483,114;    0,614;    1,227
584,057;30705,070;    1,159;    0,955
584,638;31002,102;   -2,750;    2,318
585,218;31113,245;    2,886;    2,682
585,799;31300,338;    1,977;   -0,227
586,379;31351,654;    1,250;    1,591
586,959;30182,495;    2,613;    0,318
587,540;29590,420;    0,432;    2,227
588,120;29160,099;   -1,113;   -0,045
588,700;28189,138;    2,977;    2,136
589,281;28526,801;    1,250;   -0,955
589,861;28470,855;   -0,296;   -1,682
590,441;28322,354;   -1,477;   -2,682
591,021;27305,098;    1,432;   -2,591
591,601;27630,569;    0,431;    0,500
592,181;27648,677;   -1,296;   -0,773
592,761;26985,163;    2,250;    1,409
593,341;26903,733;    1,522;    0,045
593,921;26930,986;   -0,569;    1,591
594,501;26786,527;    1,250;    1,318
595,081;26626,465;    0,522;   -0,318
595,661;27049,655;    1,068;    0,955
596,240;27597,055;   -1,023;    0,136
596,820;27209,835;    2,613;    1,955
597,400;27421,312;    1,977;    0,773
597,980;27656,239;   -0,750;    1,045
598,559;27748,665;    0,341;   -0,227
599,139;27471,414;   -0,750;   -1,227
599,718;27378,505;    0,795;   -0,409
600,298;27662,878;   -2,387;    0,682
600,877;27902,886;    4,795;    1,409
601,457;28201,575;    0,340;    1,136
602,036;28132,020;    1,795;    2,045
602,616;28329,053;    2,250;    1,682
603,195;28667,663;    0,431;    3,500
603,774;28180,380;   -0,296;    2,045
604,354;28092,902;    2,522;   -0,500
604,933;27642,649;    0,250;    1,864
605,512;27858,518;    2,340;    0,591
606,091;27927,878;    1,886;    3,773
606,671;28691,002;    0,249;    0,773
607,250;27749,100;    1,431;    3,136
607,829;28100,198;    1,158;    3,227
608,408;27972,748;    4,613;    2,591
608,987;27040,089;    2,704;    3,409
609,566;27315,477;    0,341;   -2,500
610,145;27417,345;    2,885;    0,682
610,723;27855,755;    1,613;    6,864
611,302;27064,966;    1,067;    1,682
611,881;26563,995;    5,158;   11,227
612,460;27413,702;    0,795;    3,955
613,039;27896,114;    1,703;    2,045
613,617;26647,971;    0,886;    4,773
614,196;26829,824;    1,613;    1,227
614,775;27150,621;    1,249;    2,409
615,353;27173,731;   -1,660;    0,864
615,932;26877,983;    0,249;    2,409
616,510;27476,890;    0,158;    0,591
617,089;26992,781;    8,794;   17,591
617,667;26757,896;    4,885;    6,136
618,246;26596,611;   -1,115;    1,318
618,824;26736,776;    1,612;   -0,955
619,402;26342,598;    0,431;   -1,773
619,981;26871,914;    1,067;   -1,045
620,559;26798,395;    0,794;    1,682
621,137;26354,203;    3,067;    1,864
621,715;26290,522;    3,703;   -0,682
622,293;26202,895;    1,885;   -0,773
622,871;26696,843;    0,340;    0,500
623,450;26299,032;    0,430;   -0,864
624,028;26227,604;   -0,388;   -0,955
624,606;25809,323;    2,339;    1,682
625,183;26248,604;   -0,661;   -1,136
625,761;25892,145;    1,885;    1,136
626,339;26219,764;    2,339;    2,591
626,917;26641,523;    0,339;   -0,045
627,495;26637,202;    2,794;    1,318
628,073;26102,542;    5,248;    2,864
628,650;25775,235;    3,067;    2,136
629,228;26245,412;    1,248;    4,409
629,806;25608,515;   -0,024;    1,136
630,383;25831,785;    0,066;   -0,318
630,961;25623,637;   -2,206;   -0,955
631,539;25413,564;   -2,479;    0,227
632,116;24657,365;   12,703;   15,409
632,694;25314,974;    4,885;    6,500
633,271;25610,797;    1,975;    2,682
633,848;25544,939;    1,430;    2,045
634,426;25587,911;    1,521;    1,773
635,003;24751,566;   -0,207;   -0,409
635,580;25040,460;    1,884;    3,682
636,158;25629,077;    3,793;    1,227
636,735;25651,011;    3,339;   -0,500
637,312;25776,653;    0,521;   -0,682
637,889;25838,043;    2,248;   -0,682
638,466;25351,165;    0,066;   -0,409
639,043;25342,181;    1,702;   -1,136
639,620;25651,419;    0,611;   -0,955
640,197;25992,108;    1,612;    1,682
640,774;26155,799;    1,430;    1,136
641,351;26538,762;    0,612;    1,136
641,928;25977,816;    2,794;    1,409
642,505;25671,416;    0,794;   -0,500
643,082;25789,107;    1,885;    1,227
643,658;24816,980;    1,157;    1,500
644,235;25525,852;   -2,479;    2,500
644,812;25803,816;    1,794;    0,773
645,388;25582,961;    1,612;    1,409
645,965;25605,652;    1,521;    1,682
646,542;25687,524;    3,430;   -0,227
647,118;25725,942;    3,703;   -0,955
647,695;26032,997;    0,339;    1,136
648,271;25935,233;   -2,115;    0,500
648,848;26226,014;    0,248;    2,227
649,424;26046,251;    0,976;    1,318
650,000;25806,669;   -0,388;   -1,045
650,577;25680,632;    0,158;   -0,955
651,153;26147,414;   -1,115;    0,955
651,729;27112,014;    0,521;    0,864
652,305;27320,704;    1,339;    2,773
652,881;31765,941;   -1,297;    1,136
653,458;38683,904;    0,249;    0,227
654,034;42610,140;    0,703;    1,591
654,610;44105,104;    0,339;    0,773
655,186;45480,613;    1,612;    3,045
655,762;45223,303;   -1,842;    0,409
656,338;45266,176;    0,703;    0,136
656,913;46351,594;   -0,297;    0,409
657,489;45685,103;    0,249;   -0,318
658,065;45637,612;    0,794;   -1,591
658,641;46191,393;    2,158;   -0,864
659,217;45549,630;    2,067;    0,409
659,792;44978,229;   -1,751;   -0,409
660,368;45310,284;   -0,388;   -0,682
660,944;45073,156;    1,794;    1,227
661,519;40470,665;    0,522;    0,409
662,095;34244,538;   -0,206;    0,591
662,670;29429,229;   -0,206;   -0,136
663,246;28260,374;   -0,660;   -0,409
663,821;27503,246;    0,431;    1,682
664,396;27015,574;    0,613;    1,864
664,972;27281,446;   -0,660;   -0,500
665,547;27574,773;    3,794;    0,136
666,122;27601,282;    1,340;    0,318
666,698;27905,427;    2,431;    0,318
667,273;27186,391;    0,885;    0,136
667,848;28052,809;    0,340;    1,500
668,423;27863,591;    1,795;    2,318
668,998;28428,736;    0,976;   -0,682
669,573;28996,881;    2,067;   -1,500
670,148;28824,754;    1,885;   -0,682
670,723;28626,626;   -0,024;    0,318
671,298;29046,499;   -1,296;    1,045
671,873;29138,189;   -0,296;   -0,136
672,448;29132,971;    1,704;    0,136
673,023;29471,026;    0,249;   -0,227
673,597;29785,807;    2,704;    2,318
674,172;29521,134;    2,431;    0,318
674,747;29039,098;   -0,205;   -1,045
675,321;28862,516;   -0,933;    3,318
675,896;28433,388;    2,158;    1,045
676,471;29452,625;    2,522;    1,591
677,045;29264,588;   -0,296;    0,682
677,620;29327,006;    2,158;    1,136
678,194;29590,969;    0,249;    1,136
678,769;29135,842;    0,886;   -0,318
679,343;29345,715;   -0,023;    1,773
679,917;29257,042;    0,340;    1,955
680,492;29306,005;    0,249;    3,227
681,066;29454,878;    0,613;    0,409
681,640;29535,932;    1,795;   -0,318
682,214;30250,077;    2,340;    0,500
682,788;29779,223;    0,613;   -0,773
683,363;29696,641;    1,977;    1,682
683,937;29439,241;    0,886;   -0,318
684,511;30261,840;   -1,023;   -0,591
685,085;29979,440;   -1,478;    0,318
685,659;29681,131;    1,431;    0,864
686,232;29898,822;    1,159;   -0,318
686,806;29705,058;    2,159;    0,409
687,380;30378,294;   -1,932;    0,591
687,954;30622,530;    2,432;    1,136
688,528;30275,130;    2,613;    1,955
689,101;31049,366;    0,432;    1,045
689,675;30629,512;    0,886;   -0,136
690,249;29984,657;    3,432;    0,409
690,822;30304,802;    1,159;    0,318
691,396;30442,947;    2,068;    1,227
691,969;29841,638;    2,523;    0,136
692,543;30284,783;   -0,568;   -1,955
693,116;29987,020;   -0,659;   -1,409
693,690;29737,256;   -0,296;    0,500
694,263;30318,765;    2,341;    2,955
694,836;30397,001;    2,795;    3,591
695,410;29034,146;    1,159;    1,773
695,983;29468,655;    1,614;    0,591
696,556;29448,073;   -0,750;   -1,045
697,129;29842,855;   -1,114;    1,409
697,703;29481,364;    1,341;    1,955
698,276;29517,691;    1,705;   -0,773
698,849;29297,291;   -1,023;    1,409
699,422;29682,163;    1,250;    0,591
699,995;29374,672;   -0,659;    0,136
700,568;29859,272;   -0,204;    3,045
701,140;29823,417;   -1,841;    1,682
701,713;29601,563;    0,341;    2,409
702,286;29360,617;    0,796;    0,864
702,859;29277,489;    0,614;   -0,591
703,432;28389,817;   -0,841;    0,682
704,004;28916,053;    1,978;    0,318
704,577;28802,198;    1,068;    0,136
705,150;29382,343;    0,887;    2,500
705,722;29089,580;    1,523;   -3,227
706,295;28863,361;    1,432;   -0,591
706,867;28722,052;    0,250;    1,955
707,440;28990,379;   -0,113;   -0,409
708,012;29204,979;   -0,022;    0,591
708,584;29115,215;    2,705;    0,227
709,157;29441,360;    1,160;   -0,591
709,729;29098,778;    1,069;    2,045
710,301;29963,378;   -1,204;    0,045
710,874;29977,069;    0,341;   -0,227
711,446;28885,305;   -0,295;    0,864
712,018;28719,269;   -3,022;    0,500
712,590;28467,050;   -0,204;    1,682
713,162;28971,014;   -0,477;    1,318
713,734;29223,341;    1,796;   -2,045
714,306;29095,577;    0,342;   -0,409
714,878;27794,268;   -0,295;    0,864
715,450;28613,413;   -0,113;    0,864
716,022;28853,013;    2,433;    1,318
716,593;29047,158;    0,978;    0,591
717,165;28981,667;    1,796;   -1,227
717,737;28656,176;    0,796;    0,409
718,309;28394,776;    1,160;   -0,045
718,880;28306,739;   -1,295;   -1,409
719,452;28537,248;    0,887;   -1,591
720,024;28072,848;    1,705;   -0,591
720,595;28653,902;    2,978;    0,955
721,167;28177,957;    1,160;   -2,045
721,738;27631,466;    2,069;   -1,045
722,309;27603,884;    1,251;   -1,227
722,881;27462,029;    2,705;    0,773
723,452;28122,265;    1,251;    2,864
724,023;28312,774;    1,524;    2,682
724,595;28048,283;    2,342;    0,682
725,166;27770,519;    1,524;   -0,409
725,737;27429,483;    1,887;    0,227
726,308;27556,719;    0,797;    0,318
726,879;27941,046;    1,069;    1,227
727,450;27787,555;   -2,022;   -0,045
728,021;27764,155;    1,069;    0,682
728,592;27639,482;    1,160;    0,500
729,163;27937,445;    1,433;   -0,136
729,734;27887,682;    2,160;   -0,227
730,305;28234,554;    0,615;    0,136
730,876;28626,972;    0,888;    2,955
731,447;28280,754;    0,797;    2,682
732,017;28416,626;   -0,840;    1,864
732,588;27967,953;   -0,021;    1,227
733,159;28088,826;    3,615;   -1,045
733,729;27908,880;    1,251;    0,409
734,300;27175,026;    0,160;    0,864
734,870;27577,625;   -1,385;    0,591
735,441;28175,862;    0,888;   -0,591
736,011;27896,916;    1,070;   -1,591
736,582;27827,879;    1,251;    0,045
737,152;27294,297;    0,979;   -2,045
737,722;27777,079;    1,070;   -0,682
738,293;27502,315;   -2,021;    1,318
738,863;27354,006;    1,797;    2,318
739,433;27168,970;    4,524;    0,318
740,003;27801,115;    1,524;   -0,682
740,573;27154,260;    2,252;   -1,591
741,143;27196,042;    3,615;    0,318
741,713;27945,823;    0,252;   -0,500
742,283;27620,332;    1,706;    1,591
742,853;27373,296;    0,524;    1,591
743,423;26899,805;    0,161;    0,045
743,993;27024,859;    1,070;    1,500
744,563;26344,913;    2,524;   -0,864
745,133;26321,150;   -0,112;   -0,864
745,702;27052,568;    2,797;    1,773
746,272;26191,986;    0,434;    0,591
746,842;25934,767;   -0,748;   -0,591
747,411;26411,549;   -0,839;   -0,318
747,981;26604,331;   -0,930;    0,500
748,551;26667,840;   -0,021;   -1,045
749,120;26501,439;   -0,112;   -0,227
749,690;26911,585;    2,161;    2,409
750,259;27282,003;    0,979;    2,955
750,828;27110,239;    4,070;   -1,955
751,398;27350,930;   -0,112;   -0,045
751,967;26824,620;    2,888;    0,409
752,536;27001,947;    1,161;   -0,227
753,105;27458,366;   -1,384;    0,227
753,675;27244,874;   -0,112;    1,773
754,244;27224,020;    0,888;    3,591
754,813;27265,983;    0,979;    1,227
755,382;26901,401;    0,798;    0,955
755,951;27394,274;   -0,112;    3,682
756,520;26909,237;    2,525;    1,864
757,089;27455,746;    1,888;    0,500
757,658;27602,073;    2,434;    1,227
758,227;27625,219;   -1,111;    0,318
758,795;27924,727;   -1,021;    1,136
759,364;28183,691;    0,525;   -0,591
759,933;27179,291;    1,343;   -0,045
760,501;26708,618;    0,252;   -1,318
761,070;27146,127;   -0,293;   -1,409
761,639;27892,363;    1,434;    1,318
762,207;27172,508;    0,889;   -0,955
762,776;27137,654;    2,889;    0,864
763,344;27075,253;    0,071;    0,591
763,913;26149,762;    1,616;    1,409
764,481;26922,908;    1,980;   -0,136
765,049;26744,780;    0,616;    1,409
765,618;26635,835;    1,434;    0,318
766,186;26712,434;    2,434;    0,136
766,754;26899,216;    1,798;    1,864
767,322;25871,907;    1,162;    0,409
767,890;25891,870;    0,525;   -1,773
768,459;26328,834;    2,616;   -0,318
769,027;26485,706;    2,525;    3,409
769,595;25443,124;    2,616;    2,591
770,163;25842,270;    3,344;    2,955
770,730;25606,506;    2,525;   -0,136
771,298;25499,742;    1,162;   -1,409
771,866;25590,433;    0,253;    4,955
772,434;25937,760;    1,162;   -1,864
773,002;26087,541;    2,616;    0,682
773,569;25680,050;    1,071;    1,682
774,137;25531,923;    0,889;   -0,045
774,705;26351,614;   -0,747;   -0,136
775,272;25817,395;    0,253;    0,682
775,840;25604,631;   -0,111;    2,682
776,407;25075,595;   -0,293;    1,955
776,975;24635,195;    1,162;    0,318
777,542;25740,340;    2,162;   -0,045
778,110;25576,213;    0,707;   -0,045
778,677;25211,903;    1,071;   -0,864
779,244;24937,049;   -1,020;    1,045
779,812;25098,376;    0,980;    0,864
780,379;24899,339;    2,435;    1,136
780,946;25186,303;    2,617;   -0,773
781,513;25488,448;   -0,565;    0,318
782,080;24809,411;    1,253;    2,864
782,647;25560,102;    1,708;    3,045
783,214;25147,338;   -0,201;    3,864
783,781;24742,756;    1,708;   -0,682
784,348;24669,811;    0,253;    1,500
784,915;25109,411;   -1,474;    0,318
785,482;24883,010;    2,708;    2,591
786,049;25373,156;    1,071;   -0,591
786,615;25453,392;    1,708;   -0,955
787,182;25230,537;   -3,201;   -0,682
787,749;24901,773;   -2,201;    1,409
788,315;24172,010;    0,253;   -0,409
788,882;24457,518;    0,981;   -1,227
789,448;25147,573;    1,435;   -0,955
790,015;25176,173;    1,799;    3,227
790,581;24707,773;    0,708;    0,227
791,148;24636,191;    1,344;    1,045
791,714;24885,699;   -1,019;    3,136
792,280;24597,481;    3,708;    1,591
792,847;24165,445;   -0,928;    2,500
793,413;24699,317;   -0,110;   -0,318
793,979;24232,008;    1,526;   -1,318
794,545;24247,608;    2,981;    2,682
795,111;23659,208;    2,435;    1,318
795,678;23818,807;    3,526;   -1,682
796,244;23477,044;    2,799;    0,136
796,810;24051,552;    0,799;    0,773
797,375;23776,789;   -0,292;   -2,136
797,941;23825,025;   -1,110;    0,591
798,507;23936,170;    0,254;   -0,955
799,073;23500,952;    2,708;    0,591
799,639;23557,643;    1,435;    3,136
800,205;23549,333;   -1,565;    2,682
800,770;23077,206;    1,345;    1,773
801,336;23097,078;    2,981;   -0,955
801,901;22836,315;    6,072;    3,136
802,467;23400,551;    0,526;    2,045
803,033;22728,605;   -0,019;    0,864
803,598;22911,569;    1,072;   -1,045
804,163;22979,168;    0,708;   -0,318
804,729;22945,496;   -0,110;    1,136
805,294;23317,823;    1,072;    2,227
805,859;23154,513;    0,890;   -0,409
806,425;22595,386;    3,890;    2,682
806,990;22256,804;    1,890;    4,318
807,555;22778,858;   -0,110;    2,591
808,120;22597,095;   -1,292;   -0,409
808,685;22701,149;    1,072;   -2,500
809,250;22241,840;    2,072;   -0,500
809,815;22551,712;   -0,201;    0,682
810,380;23079,312;    0,981;    1,591
810,945;23548,821;    2,890;    2,045
811,510;22774,148;   -0,200;    1,591
812,075;22450,021;    2,800;   -1,409
812,640;22501,893;    3,709;    1,409
813,204;22569,584;    2,163;   -0,227
813,769;23064,184;    0,254;   -0,045
814,334;22422,420;    0,527;    0,864
814,898;22502,565;    1,981;    0,591
815,463;22365,620;    0,981;   -0,773
816,027;22328,947;    1,345;   -2,318
816,592;22448,365;    2,163;   -2,045
817,156;21935,510;   -2,200;    1,136
817,721;21698,292;    0,982;    2,318
818,285;21676,255;    0,618;    1,500
818,849;22371,491;   -0,018;    1,682
819,414;22248,728;    0,073;    2,955
819,978;21811,509;   -0,291;    1,773
820,542;22438,927;    2,891;    0,500
821,106;22192,891;    2,800;    0,682
821,670;22254,127;    2,709;    2,591
822,234;21929,363;    1,073;    1,409
822,798;21374,690;   -0,836;    0,500
823,362;21311,108;    1,527;    4,227
823,926;20616,072;   -0,018;    1,136
824,490;20794,944;    3,527;   -0,682
825,054;21270,635;    2,527;   -1,136
825,618;20847,417;   -1,200;   -1,500
826,181;20818,289;    0,982;   -1,318
826,745;20696,889;   -0,745;   -1,045
827,309;21070,307;    2,255;    1,318
827,872;20472,907;    0,527;    0,955
828,436;21476,779;    1,982;   -0,773
828,999;21583,652;    2,436;    1,227
829,563;20385,979;   -0,654;    1,136
830,126;20197,579;   -0,018;   -0,591
830,690;20152,270;    0,709;    2,864
831,253;19708,051;   -0,473;    2,227
831,816;19833,924;   -0,018;    0,500
832,380;19750,069;    1,164;    0,864
832,943;19942,487;    3,073;   -0,500
833,506;19482,542;    0,255;   -1,227
834,069;20289,414;    2,164;   -0,955
834,632;20302,741;   -2,200;    1,318
835,195;20181,886;    1,346;    0,955
835,758;19458,214;    0,709;    1,955
836,321;19276,177;    1,073;   -1,045
836,884;19353,231;   -1,291;   -0,955
837,447;19369,922;    0,528;    1,773
838,010;19604,977;    1,800;    3,227
838,573;19971,940;    0,528;    0,773
839,135;19860,085;   -0,109;   -0,955
839,698;19310,776;    2,528;    0,409
840,261;18808,103;    0,255;   -0,227
840,823;18717,612;   -0,927;    0,864
841,386;19021,303;   -0,018;   -2,409
841,948;18896,630;    0,255;    1,773
842,511;18599,957;    0,255;    1,682
843,073;18751,193;    2,982;    0,227
843,636;18581,520;    0,619;   -0,227
844,198;18487,120;    1,255;    0,591
844,760;18636,356;    0,619;    1,955
845,322;18249,138;    0,164;    1,136
845,885;18668,192;   -0,290;    0,591
846,447;19108,792;    0,710;    0,227
847,009;18638,937;    3,983;   -0,682
847,571;19040,265;    1,346;   -2,045
848,133;19111,410;   -0,199;   -1,864
848,695;18929,737;    2,346;    1,409
849,257;18493,882;    1,346;   -1,682
849,819;18661,755;    2,983;   -0,409
850,381;18673,718;    1,801;   -0,864
850,942;19026,136;    1,892;   -0,591
851,504;18933,827;    0,983;    0,227
852,066;18988,972;    1,619;   -1,591
852,628;18550,481;    0,165;    1,955
853,189;18124,626;    0,256;    2,682
853,751;18267,226;   -0,654;    1,409
854,312;18054,190;    1,256;   -1,682
854,874;18605,517;   -0,108;   -0,773
855,435;19079,299;    0,528;   -1,682
855,997;19220,262;    3,983;   -0,136
856,558;18466,680;    0,801;    1,773
857,119;18594,007;   -0,744;    2,864
857,681;18276,062;   -0,108;    0,318
858,242;18344,025;    1,347;   -2,136
858,803;18812,443;    1,074;   -0,773
859,364;19346,679;    0,892;   -4,773
859,925;18685,734;   -0,290;   -0,955
860,486;18580,424;    0,529;   -0,955
861,047;18288,024;    0,165;   -1,227
861,608;18093,624;    0,165;   -0,773
862,169;18273,769;   -0,562;   -0,045
862,730;18035,278;   -0,290;    1,409
863,291;18265,060;    0,438;   -0,500
863,852;18573,841;   -0,926;    1,955
864,412;18060,259;   -1,835;   -0,864
864,973;16626,132;    1,892;    0,500
865,534;16464,732;    2,074;    0,227
866,094;17956,514;    2,620;    0,227
866,655;17603,113;    4,711;    3,318
867,215;17912,622;    0,074;    0,136
867,776;17763,495;   -1,199;   -0,136
868,336;17857,004;    1,529;    0,136
868,897;17320,513;    3,438;    1,682
869,457;17089,567;    3,256;    0,318
870,017;17332,894;    2,438;   -1,227
870,578;17852,949;    1,893;    0,773
871,138;17487,912;    2,620;   -0,955
871,698;17064,875;   -0,562;   -1,318
872,258;16906,930;    0,711;   -2,864
872,818;17286,802;    2,347;    0,045
873,378;17246,857;   -2,198;    1,045
873,938;16822,729;    4,984;    0,500
874,498;17157,238;    1,256;   -1,955
875,058;17005,656;    4,347;    1,773
875,618;16882,983;    1,438;   -2,682
876,177;16827,947;   -0,471;    0,136
876,737;16377,365;   -0,289;    1,955
877,297;16397,692;    2,711;    1,955
877,856;16415,474;    2,529;    0,318
878,416;16364,528;    2,438;   -0,136
878,976;16570,764;    3,438;    0,409
879,535;16755,000;    4,529;    3,136
880,095;16499,418;    1,347;    0,045
880,654;16612,200;    0,347;    1,318
881,213;16710,800;    2,347;    1,500
881,773;16350,309;    1,984;    2,682
882,332;16703,636;    6,075;    5,136
882,891;16533,781;    0,711;    2,136
883,451;16996,745;   -2,016;    1,682
884,010;16504,344;   -1,107;   -0,409
884,569;16557,035;   -2,289;   -0,045
885,128;16689,544;   -0,743;   -1,864
885,687;16741,053;   -0,743;    0,682
886,246;16457,017;    2,620;    2,136
886,805;16201,253;    1,620;    2,045
887,364;16560,125;    1,166;   -0,500
887,922;16897,180;   -0,016;    0,045
888,481;16343,143;    1,530;    0,591
889,040;16700,016;    3,711;    2,136
889,599;17335,343;    2,166;    1,409
890,157;17409,306;    2,166;    2,409
890,716;17080,633;    2,166;    0,227
891,274;16843,688;    0,075;   -1,136
891,833;17312,924;    1,166;    0,864
892,391;17159,251;    1,802;    0,500
892,950;17268,487;    0,166;   -0,773
893,508;17607,178;    0,984;   -0,409
894,067;16945,687;   -0,379;    0,136
894,625;16854,014;   -1,016;   -1,500
895,183;17076,341;   -0,198;   -0,682
895,741;16973,032;    2,257;   -1,773
896,299;16805,268;    1,621;   -2,409
896,858;17021,050;    1,530;   -1,591
897,416;17120,922;    0,166;   -1,318
897,974;16879,795;   -2,197;    0,318
898,532;17015,304;    6,530;    2,682
899,089;16913,267;    0,621;   -0,682
899,647;16959,049;    0,530;    1,318
900,205;16715,558;    0,257;    1,045
900,763;16911,521;    2,166;    0,227
901,321;16932,303;    3,530;   -1,409
901,878;16356,357;    3,257;   -0,773
902,436;16225,230;    0,257;    1,318
902,994;16605,648;    6,712;    3,682
903,551;16026,702;    1,439;    0,409
904,109;16423,938;    1,530;   -1,409
904,666;16063,538;    1,439;    1,045
905,224;15869,774;    3,894;   -0,409
905,781;15605,283;   -0,470;   -0,318
906,338;15656,883;    0,167;    1,045
906,895;15619,210;    1,894;    2,045
907,453;15537,265;    2,348;    1,136
908,010;15542,046;    3,348;    0,409
908,567;15151,737;   -0,561;    0,591
909,124;14712,882;    2,439;   -1,500
909,681;14777,664;   -1,288;    0,682
910,238;14926,537;   -0,106;   -1,318
910,795;15266,682;   -1,561;   -1,136
911,352;14938,773;   -0,379;   -2,682
911,909;14334,500;    2,803;   -0,864
912,466;14840,773;    1,985;    1,500
913,022;14332,045;   -0,924;    0,500
913,579;14680,045;   -0,470;    2,045
914,136;14391,045;   -2,561;    0,955
914,692;14777,500;    1,530;   -1,227
915,249;14340,864;    0,530;    0,409
915,806;14504,773;    1,803;    1,955
916,362;14262,955;    0,894;    1,864
916,918;13804,409;    2,439;    1,045
917,475;13801,864;    1,621;    0,955
918,031;13936,864;    0,076;   -0,045
918,587;13329,682;    0,621;   -0,318
919,144;13568,409;   -0,379;    0,227
919,700;13864,864;    0,167;    0,773
920,256;13486,318;    0,439;    0,045
920,812;13119,227;    1,439;   -1,045
921,368;13107,318;    1,348;   -1,045
921,924;12722,136;    0,439;   -0,136
922,480;12292,045;    0,076;    1,227
923,036;12922,773;   -0,652;    1,955
923,592;12880,955;    0,621;    0,318
924,148;12818,136;    1,894;   -0,955
924,704;12150,955;    0,258;   -0,409
925,259;12406,864;   -0,561;    0,591
925,815;12147,045;    3,803;    0,500
926,371;11695,682;    3,530;    1,409
926,926;11572,409;    1,621;    0,591
927,482;11200,227;    1,621;    0,773
928,037;11082,227;   -0,833;    2,045
928,593;11412,409;    0,258;    1,045
929,148;11223,773;    1,167;   -1,500
929,704;10721,227;    2,439;   -0,500
930,259;10886,409;    0,894;   -0,136
930,814;10000,409;    1,803;    1,955
931,369; 9681,500;    0,258;   -0,773
931,925; 9583,227;   -1,924;    0,136
932,480; 9498,409;    3,076;   -2,591
933,035; 9358,409;    3,985;   -0,318
933,590; 9133,318;   -1,742;   -1,773
934,145; 8791,864;   -1,288;   -0,318
934,700; 9161,591;    0,348;   -0,591
935,255; 8929,682;    4,803;    0,045
935,809; 8213,318;    6,258;    0,864
936,364; 7376,864;    2,167;   -0,136
936,919; 7355,773;    2,348;   -1,773
937,474; 7244,591;    1,348;    0,136
938,028; 7018,136;    3,076;    1,136
938,583; 6461,591;    6,348;    4,682
939,138; 6781,045;    0,167;    2,136
939,692; 6264,500;   -1,015;   -1,136
940,247; 5916,955;    1,167;   -1,045
940,801; 5461,500;    0,621;    0,227
941,355; 5383,045;    0,439;    2,591
941,910; 5038,045;    0,712;   -2,136
942,464; 5127,409;    2,712;   -0,318
943,018; 4929,318;    3,258;   -0,227
943,572; 4886,409;    2,803;   -0,682
944,126; 4297,773;   -0,924;   -0,409
944,681; 4172,955;    0,712;    0,227
945,235; 4163,318;    2,167;   -0,591
945,789; 4100,227;    1,258;   -1,864
946,342; 4199,591;   -0,561;   -0,591
946,896; 4023,045;    0,348;    0,955
947,450; 3764,682;   -0,561;   -0,227
948,004; 3951,409;    1,076;   -0,045
948,558; 3992,045;    1,258;   -0,864
949,111; 3910,864;   -1,197;   -0,318
949,665; 3953,318;   -0,106;   -0,682
950,219; 3815,318;    0,621;   -1,045
950,772; 3880,500;    0,258;    1,864
951,326; 3793,409;   -1,106;   -0,955
951,879; 3913,045;    1,076;   -2,318
952,433; 3920,409;    1,348;    2,227
952,986; 3753,682;    0,348;    0,682
953,539; 3688,136;    1,530;    0,591
954,093; 3635,773;    0,985;   -1,318
954,646; 3765,591;   -0,288;    1,318
955,199; 3594,955;    1,258;   -0,500
955,752; 3463,136;    1,985;    1,773
956,305; 3423,500;    0,894;    2,955
956,858; 3593,136;    0,621;   -0,318
957,411; 3775,773;    3,621;    2,136
957,964; 3580,045;    2,076;    2,136
958,517; 3581,591;    0,985;    3,136
959,070; 3421,045;   -1,197;    1,955
959,623; 3478,955;    1,076;    1,500
960,176; 3256,591;    0,712;    2,045
960,728; 3238,773;    1,712;    0,773
961,281; 3291,682;    2,258;    0,500
961,834; 3327,955;   -0,833;    0,864
962,386; 3247,045;    1,258;    1,045
962,939; 3176,045;    3,439;   -0,318
963,491; 3319,318;    2,621;    1,136
964,043; 3188,591;    0,076;    2,409
964,596; 3318,409;    1,712;    2,227
965,148; 3152,318;   -0,379;    1,773
965,700; 3086,136;   -0,015;   -0,227
966,253; 3240,136;   -0,833;    0,318
966,805; 3061,955;    1,894;    0,773
967,357; 3120,682;    0,439;   -1,500
967,909; 3059,318;    1,167;   -1,227
968,461; 3194,591;    0,894;    3,136
969,013; 3104,864;   -1,561;   -0,864
969,565; 3174,136;    1,803;   -1,136
970,117; 3249,045;    3,803;    1,045
970,669; 3074,409;    3,258;   -0,136
971,220; 2968,136;    2,167;   -1,500
971,772; 2883,136;    1,348;   -0,318
972,324; 3002,591;   -1,197;   -0,500
972,876; 2958,136;    0,167;   -0,045
973,427; 3080,045;   -1,197;   -1,045
973,979; 3068,773;    0,076;   -2,500
974,530; 3095,318;    0,803;    1,318
975,082; 3095,227;    2,167;    1,682
975,633; 2981,136;    2,894;    1,682
976,184; 3140,864;    2,076;    0,773
976,736; 2927,409;    0,348;    0,227
977,287; 2716,500;    0,258;   -0,500
977,838; 2894,682;   -0,924;   -0,318
978,389; 2964,136;    0,803;   -0,500
978,940; 2831,045;    1,258;   -0,409
979,491; 2850,136;    2,258;   -0,500
980,042; 2806,409;   -0,652;    3,045
980,593; 2890,591;    1,894;    0,227
981,144; 2938,318;    3,530;   -0,500
981,695; 2898,227;   -0,470;    1,500
982,246; 2855,773;   -1,833;    1,045
982,797; 3006,409;   -0,561;    0,682
983,347; 3128,227;    2,167;    0,591
983,898; 3271,864;    4,167;    0,409
984,449; 3082,045;    2,530;    0,773
984,999; 3016,682;    1,894;   -1,136
985,550; 2789,500;    3,167;   -0,318
986,100; 2824,045;    0,712;   -0,318
986,651; 2862,773;    0,258;    0,045
987,201; 2841,136;    0,894;   -0,591
987,751; 2922,864;   -0,288;    2,864
988,302; 2913,045;   -0,379;    1,500
988,852; 2917,682;    1,985;   -1,136
989,402; 2960,045;    0,985;    0,682
989,952; 2884,136;    1,621;    0,864
990,502; 2983,409;    1,076;    0,682
991,052; 2937,500;   -0,106;    0,045
991,602; 2804,773;    1,167;    1,318
992,152; 2793,955;    2,803;    0,682
992,702; 2794,773;    1,167;   -0,045
993,252; 2714,591;    0,076;   -0,500
993,802; 2781,591;    1,167;    1,318
994,352; 3044,409;   -0,742;    1,136
994,901; 3146,227;    1,076;    3,227
995,451; 3068,045;   -1,197;    0,318
996,000; 3154,318;    1,076;    0,318
996,550; 2832,682;    2,894;    0,227
997,100; 2859,591;   -0,561;   -0,045
997,649; 3138,955;   -0,197;    0,955
998,198; 2777,409;   -0,288;   -1,500
998,748; 2958,864;    0,348;   -2,318
999,297; 2862,500;    0,985;   -0,409
999,846; 2953,682;    1,894;   -0,773
1000,395; 2986,955;    1,530;    0,500
1000,945; 2944,409;    1,076;   -0,773
1001,494; 3001,682;    0,167;    0,682
1002,043; 2994,045;    0,712;    0,864
1002,592; 2849,864;    3,439;    1,955
1003,141; 2985,409;    2,439;   -0,682
1003,690; 2832,318;    1,258;    0,500
1004,238; 2906,136;   -0,106;   -0,045
1004,787; 2528,682;   -1,288;    1,227
1005,336; 2771,409;    1,621;    0,682
1005,885; 2926,318;   -0,197;   -2,773
1006,433; 3069,591;   -0,470;    0,955
1006,982; 3131,955;    2,167;    1,682
1007,531; 3047,318;    2,712;   -0,227
1008,079; 3004,682;    0,258;    0,500
1008,627; 3147,500;    1,621;    0,409
1009,176; 2887,773;    0,076;   -1,955
1009,724; 2932,682;   -2,742;    0,864
1010,273; 2977,318;    1,076;    0,500
1010,821; 3088,773;    1,076;    1,409
1011,369; 2826,500;    0,076;    1,318
1011,917; 2798,318;   -0,833;   -0,591
1012,465; 3077,591;    2,530;   -1,591
1013,013; 3206,227;    0,439;   -1,682
1013,561; 3060,409;   -1,288;   -0,773
1014,109; 3122,591;   -0,833;    1,682
1014,657; 2994,682;    1,348;    0,591
1015,205; 3111,682;    0,894;   -0,955
1015,753; 3150,591;    0,258;   -1,409
1016,301; 3194,318;    2,621;    3,045
1016,848; 3204,318;    2,167;    0,409
1017,396; 3232,682;    1,621;    0,045
1017,944; 3358,864;    2,621;    1,864
1018,491; 3107,136;   -0,197;    1,409
1019,039; 3274,409;   -0,652;    0,591
1019,586; 3182,318;    0,076;    1,682
1020,134; 3264,955;    0,712;    1,500
1020,681; 3275,591;    2,894;   -1,136
1021,228; 3293,045;   -0,561;   -2,227
1021,776; 3145,591;   -0,833;   -1,136
1022,323; 3349,318;    0,803;    0,773
1022,870; 3286,136;   -0,470;   -0,045
1023,417; 3176,227;    2,076;    1,864
1023,964; 3329,227;    0,621;    1,227
1024,511; 3159,045;   -0,652;    0,773
1025,058; 2972,682;    0,439;   -0,045
1025,605; 3017,773;   -1,742;    3,136
1026,152; 3229,864;   -0,106;   -0,591
1026,699; 2955,045;    0,167;    1,318
1027,245; 3130,682;    2,439;    0,318
1027,792; 3361,318;    0,712;    1,409
1028,339; 3241,409;    4,076;   -0,045
1028,885; 3093,773;    3,621;   -0,227
1029,432; 3033,045;   -0,106;    0,227
1029,978; 3078,773;    1,348;   -1,591
1030,525; 2968,955;    1,621;    0,409
1031,071; 3217,227;    0,348;    1,136
1031,618; 3331,409;    1,258;    1,682
1032,164; 3119,318;    2,076;    3,045
1032,710; 3162,773;    0,076;   -1,500
1033,256; 3082,682;    0,712;   -0,136
1033,803; 3056,409;   -0,288;    1,500
1034,349; 2791,136;    1,803;    0,136
1034,895; 2965,773;    2,621;   -0,318
1035,441; 2934,045;    0,439;    0,318
1035,987; 2942,682;   -2,288;   -0,682
1036,533; 2938,955;   -0,197;   -0,955
1037,078; 3126,864;    4,712;    1,682
1037,624; 2973,409;    2,439;   -0,955
1038,170; 2984,773;    1,712;   -0,318
1038,716; 2870,136;    2,167;   -0,409
1039,261; 2798,409;    2,167;   -0,773
1039,807; 2751,318;   -0,015;    3,409
1040,352; 2800,045;   -1,288;   -0,318
1040,898; 2849,864;    0,167;   -0,682
1041,443; 2745,409;    0,803;   -2,591
1041,989; 2783,227;    3,621;    1,591
1042,534; 2668,864;    0,985;    2,591
1043,079; 2786,045;    1,985;    0,955
1043,625; 2574,773;    0,258;    0,500
1044,170; 2615,591;    2,439;    1,045
1044,715; 2889,318;    0,167;    0,955
1045,260; 2689,136;   -0,833;   -0,955
1045,805; 2741,773;    0,258;   -0,591
1046,350; 2682,864;    0,530;   -0,409
1046,895; 2641,955;    0,803;    1,591
1047,440; 2592,500;    1,530;    0,409
1047,985; 2508,136;   -1,197;   -0,955
1048,530; 2398,591;    1,348;    1,227
1049,074; 2472,136;    2,803;    0,318
1049,619; 2440,318;   -0,924;    1,955
1050,164; 2246,955;    1,076;    0,227
1050,708; 2310,409;    2,621;    0,045
1051,253; 2667,682;    3,258;   -2,227
1051,797; 2385,682;   -0,197;   -1,318
1052,342; 2400,591;    1,348;    1,045
1052,886; 2376,864;    1,803;   -1,409
1053,430; 2263,591;    2,167;    0,136
1053,975; 2282,682;    0,894;   -0,318
1054,519; 2260,318;    1,803;    3,227
1055,063; 2277,045;    3,621;    1,318
1055,607; 2176,227;    1,348;    0,227
1056,151; 2210,136;    0,530;    1,682
1056,695; 2116,500;   -1,833;   -1,136
1057,239; 2186,955;   -1,197;   -0,682
1057,783; 2178,682;    2,258;   -1,500
1058,327; 2126,136;    3,076;    1,409
1058,871; 2355,955;    3,985;    1,318
1059,415; 2060,045;   -0,561;   -0,045
1059,958; 2307,773;    2,985;    2,591
1060,502; 2048,227;    1,348;   -0,773
1061,046; 1957,864;    1,712;   -0,955
1061,589; 1936,318;    2,803;   -1,136
1062,133; 1820,591;    0,985;    1,864
1062,676; 1751,136;    1,439;    0,864
1063,220; 1759,227;    0,985;    0,500
1063,763; 1784,045;    2,985;    1,136
1064,306; 1846,318;    0,985;    1,864
1064,849; 1735,227;    2,076;    0,591
1065,393; 1758,227;    2,894;   -1,500
1065,936; 1865,864;    2,530;   -0,409
1066,479; 1758,500;    2,621;    1,318
1067,022; 1778,591;    1,894;   -0,227
1067,565; 1675,500;   -1,197;   -1,318
1068,108; 1716,955;    1,258;   -0,591
1068,651; 1679,227;   -2,470;    1,409
1069,194; 1601,500;   -1,106;   -1,682
1069,736; 1604,318;    3,803;    0,955
1070,279; 1586,955;   -1,652;   -0,500
1070,822; 1643,045;    1,530;   -0,318
1071,364; 1711,500;    0,530;    1,318
1071,907; 1542,591;    0,348;    3,227
1072,450; 1450,591;    0,258;   -0,045
1072,992; 1457,591;   -0,561;    3,136
1073,535; 1572,591;    0,167;    2,136
1074,077; 1375,409;    2,985;    2,045
1074,619; 1351,318;    0,985;    0,591
1075,161; 1372,136;   -0,561;    1,500
1075,704; 1551,227;    0,258;    1,227
1076,246; 1360,500;    1,530;    0,682
1076,788; 1274,864;   -1,015;    1,773
1077,330; 1364,682;   -2,106;    2,136
1077,872; 1323,500;   -1,924;    0,955
1078,414; 1550,227;    3,712;    0,773
1078,956; 1287,318;    0,167;   -0,227
1079,498; 1525,773;    0,439;    0,318
1080,040; 1232,318;    0,985;   -1,318
1080,581; 1190,136;    0,621;   -0,318
1081,123; 1132,682;   -0,106;   -0,773
1081,665; 1173,864;    3,803;   -0,955
1082,206; 1438,409;    3,258;   -0,500
1082,748; 1317,318;    3,258;    2,045
1083,289; 1206,318;    0,167;    1,318
1083,831; 1116,682;    0,258;    0,227
1084,372; 1140,409;    0,894;    0,591
1084,913; 1135,682;    3,348;    0,864
1085,455; 1116,136;    1,530;   -2,045
1085,996; 1083,318;    0,530;    0,136
1086,537; 1096,955;    0,985;    0,864
1087,078; 1135,682;    0,439;   -2,136
1087,619; 1169,409;   -1,652;    0,227
1088,160; 1085,136;    1,439;    1,318
1088,701; 1075,682;   -0,742;    0,682
1089,242; 1010,318;   -0,561;   -2,227
1089,783; 1111,045;   -0,561;    1,409
1090,324; 1092,227;   -0,833;    0,682
1090,865;  970,500;   -1,924;   -0,409
1091,405;  948,500;   -0,561;    2,227
1091,946;  972,500;   -0,197;   -0,955
1092,487;  900,318;   -1,288;   -1,409
1093,027; 1054,682;    1,803;   -1,500
1093,568;  908,591;    2,258;    1,227
1094,108;  984,864;    0,621;    1,773
1094,649;  943,318;   -0,470;    0,136
1095,189;  884,955;    1,167;   -0,682
1095,729;  833,227;    0,712;    0,955
1096,269;  851,045;    1,258;   -0,955
1096,810; 1129,864;   -0,197;    0,500
1097,350;  969,227;   -0,561;   -0,773
1097,890;  878,318;    2,985;    1,227
1098,430; 1119,136;    4,985;    2,864
1098,970;  998,500;    1,894;    1,682
1099,510;  874,227;   -0,833;   -2,318
1100,050;  797,955;    0,258;   -1,591
1100,589;  764,409;    0,076;   -0,318
1101,129;  871,045;    0,894;   -0,955
1101,669; 1008,682;    2,803;    2,136
1102,209;  849,591;    1,530;    2,227
1102,748;  809,136;    3,439;    0,955
1103,288;  790,045;    0,712;   -1,227
1103,827;  824,136;    3,530;   -2,227
1104,367;  701,864;    1,712;   -2,409
1104,906;  680,591;   -1,015;   -1,136
1105,445;  756,045;    0,985;   -1,136
1105,985;  694,318;   -0,652;    1,500
1106,524;  733,045;    1,530;   -0,682
1107,063;  709,318;    1,167;    1,409
1107,602;  692,318;    1,894;   -1,500
1108,141;  613,773;    1,621;    1,500
1108,680;  703,500;    3,985;   -0,591
1109,219;  657,864;    0,167;   -0,500
1109,758;  665,682;    4,167;    0,682
1110,297;  626,227;   -1,106;   -0,682
1110,836;  572,318;    1,439;    0,955
1111,375;  715,318;    0,348;    0,409
1111,913;  725,591;    0,985;    0,773
1112,452;  688,500;    0,894;    0,136
1112,991;  580,591;    1,076;    1,955
1113,529;  515,591;    0,167;   -0,045
1114,068;  584,591;    0,439;    2,955
1114,606;  487,136;   -0,561;   -0,955
1115,144;  647,409;    1,530;    1,045
1115,683;  583,227;    1,985;    0,318
1116,221;  633,318;    2,076;   -0,864
1116,759;  544,591;    1,621;   -0,864
1117,297;  717,955;    1,621;    1,864
1117,836;  544,682;    1,985;   -1,227
1118,374;  551,864;    0,258;   -0,682
1118,912;  501,864;    0,439;    2,682
1119,450;  498,136;    0,985;    0,864
1119,988;  538,682;    3,348;    2,136
1120,525;  987,409;    7,258;    3,318
1121,063;  685,773;    0,530;    1,864
1121,601;  495,136;    1,076;   -1,227
1122,139;  454,227;    1,076;   -2,045
1122,676;  644,773;   -1,652;    2,773
1123,214;  581,864;    0,712;    4,409
1123,751;  398,318;    0,621;    2,227
1124,289;  524,500;    0,894;   -0,409
1124,826;  408,318;   -0,379;    0,227
1125,364;  347,500;    0,712;   -0,955
1125,901;  515,500;    6,258;    1,227
1126,438;  608,864;    3,530;    0,955
1126,975;  360,045;    2,985;   -0,773
1127,513;  410,318;    2,621;    2,136
1128,050;  339,318;   -0,561;   -0,682
1128,587;  425,227;    1,348;   -0,227
1129,124;  464,591;   -0,015;    1,318
1129,661;  349,591;   -1,924;    0,227
1130,198;  494,955;    2,439;    0,773
1130,734;  433,955;   -0,379;    1,409
1131,271;  307,682;   -1,197;    0,864
1131,808;  474,773;    1,621;    3,045
1132,345;  348,591;    4,530;    0,318
1132,881;  236,955;   -0,561;   -1,864
1133,418;  369,955;    0,348;   -1,136
1133,954;  310,864;    0,712;   -2,682
1134,491;  365,500;    1,712;   -0,773
1135,027;  285,864;    2,167;    0,864
1135,564;  359,591;    1,439;    2,955
1136,100;  352,409;   -0,742;    2,136
1136,636;  249,591;   -1,015;   -1,045
1137,172;  319,591;    0,894;   -1,045
1137,708;  255,682;   -1,561;   -1,045
1138,245;  258,500;    0,803;   -1,227
1138,781;  220,045;    1,803;   -3,318
1139,317;  284,136;    1,894;   -1,409
1139,852;  269,773;    3,076;    0,136
1140,388;  377,318;    2,076;   -0,409
1140,924;  259,045;    1,076;   -2,227
1141,460;  212,318;   -0,288;    0,136
1141,996;  156,045;   -0,652;    2,682
1142,531;  193,864;    1,076;    3,318
1143,067;  390,864;    1,167;    1,045
1143,602;  444,136;    3,439;   -0,318
1144,138;  300,864;    0,803;    1,045
1144,673;  183,500;    1,621;    1,409
1145,209;  249,500;    2,894;   -0,318
1145,744;  165,591;    0,803;    0,864
1146,279;  291,409;    1,530;   -0,136
1146,815;  207,591;    1,530;   -2,682
1147,350;  241,227;   -0,924;    0,045
1147,885;  167,136;   -1,924;   -1,318
1148,420;  169,591;    2,439;    0,773
1148,955;  150,136;   -1,470;    1,864
1149,490;  177,955;   -1,106;   -1,591
1150,025;  161,682;   -1,106;   -1,773
1150,560;  262,227;   -0,288;   -0,955
1151,094;  239,045;    0,258;   -0,591
1151,629;  235,682;   -3,742;    0,864
1152,164;  170,500;   -1,288;    1,318
1152,698;  135,500;    1,258;   -0,136
1153,233;   94,773;   -1,379;   -0,682
1153,767;  135,864;   -0,288;   -2,318
1154,302;  184,682;   -0,379;    1,773
1154,836;  186,227;    0,803;   -2,136
1155,371;  226,864;    2,258;    3,682
1155,905;  184,136;    1,985;    1,682
1156,439;  162,227;    0,530;   -0,500
1156,973;  186,409;    0,439;    0,318
1157,507;  128,500;   -1,742;    0,682
1158,042;  155,227;   -0,652;    1,045
1158,576;  191,773;   -0,561;    1,773
1159,110;  186,773;    0,076;    2,409
1159,643;  156,955;   -2,470;   -0,045
1160,177;  100,682;   -2,015;    1,500

