
Integration time [ms]:   0,040
Averaging Nr. [scans]: 11
Smoothing Nr. [pixels]: 0
Data measured with spectrometer [name]: 7318044SP
Wave   ;Sample   ;Dark     ;Reference
[nm]   ;[counts] ;[counts] ;[counts] 

186,757;   34,624;   38,161;    1,318
187,357;   58,307;   26,706;    0,955
187,958;   37,017;   17,252;   -1,591
188,558;   79,302;   12,979;   -1,227
189,159;   51,334;   10,070;   -4,500
189,759;   19,423;    5,797;   -3,591
190,360;   22,578;    6,797;   -2,136
190,960;   55,162;    5,706;   -4,136
191,560;   67,340;    2,614;   -6,591
192,161;  285,205;    5,885;   -3,500
192,761;  142,066;    5,520;   -3,227
193,361;  101,762;    3,065;   -3,773
193,962;  150,651;    1,612;   -2,682
194,562;   75,192;   -0,114;   -3,955
195,162;  111,790;   -0,567;   -2,227
195,762;  256,844;    2,433;   -0,045
196,362;  207,046;    1,706;   -2,500
196,963;   84,166;    1,706;   -0,864
197,563;  156,008;    1,252;   -0,955
198,163;  101,658;   -0,111;   -0,682
198,763;  119,312;   -0,020;   -0,500
199,363;  218,499;    3,616;   -0,500
199,963;  183,279;    2,162;    0,409
200,563;  152,574;    6,344;   -1,409
201,163;  132,352;    5,435;   -0,227
201,763;  215,911;    1,435;    0,318
202,363;  161,153;    0,980;    1,500
202,963;  259,681;    1,526;    1,045
203,563;  360,663;    0,344;    0,500
204,162;  217,306;    1,889;   -1,864
204,762;  216,310;    2,071;    0,591
205,362;  176,735;    0,708;    1,955
205,962;  275,645;    3,435;    1,955
206,562;  268,221;    1,889;    2,318
207,161;  234,782;    1,708;    0,318
207,761;  382,790;    4,435;    2,409
208,361;  267,900;    1,889;    1,409
208,960;  364,827;    2,889;    1,500
209,560;  426,610;    0,435;    1,591
210,160;  406,723;    5,071;    1,864
210,759;  375,503;    0,708;    1,227
211,359;  373,385;   -0,474;    1,045
211,958;  619,842;    3,526;    2,045
212,558;  704,423;    0,799;    1,864
213,157;  552,422;   -0,929;    1,500
213,757;  966,441;    5,617;   -0,227
214,356;  666,801;    1,708;   -0,409
214,956;  980,570;    3,526;    0,409
215,555;  613,972;    0,617;    2,136
216,154;  567,995;   -0,292;   -0,591
216,754;  565,946;    1,253;    0,773
217,353;  696,092;   -0,383;   -1,045
217,952;  556,779;    2,072;    0,318
218,552;  780,940;    0,254;   -0,773
219,151;  668,710;   -1,110;    0,955
219,750;  666,084;    0,890;   -0,227
220,349;  762,266;   -2,292;    1,045
220,948;  850,062;    1,163;    1,136
221,548;  841,793;    0,617;    1,227
222,147;  939,013;   -1,292;   -0,409
222,746; 1217,307;    1,254;   -0,955
223,345; 1087,474;   -1,019;    0,500
223,944; 1095,942;    1,163;    0,773
224,543; 1238,670;    4,072;   -1,409
225,142; 1350,212;    1,345;    0,136
225,741; 1257,589;    1,163;    1,045
226,340; 1282,235;    1,254;   -0,955
226,939; 1687,600;    2,708;   -0,136
227,538; 1605,585;    1,163;   -0,773
228,137; 1775,018;    0,435;    0,864
228,735; 1866,676;    0,435;    1,227
229,334; 1655,991;   -0,474;   -0,227
229,933; 2023,450;    0,799;    0,591
230,532; 2134,975;   -1,201;   -0,409
231,131; 2196,349;    1,253;    0,318
231,729; 2279,737;    1,163;   -2,318
232,328; 2354,686;    0,435;   -1,500
232,927; 2420,815;    4,526;   -0,500
233,525; 2515,863;    0,981;    0,045
234,124; 2707,952;    1,890;   -1,591
234,723; 2721,874;    1,617;   -1,045
235,321; 2839,878;    1,163;    0,136
235,920; 3036,261;    2,526;   -1,227
236,518; 3295,083;    1,072;    0,318
237,117; 3431,840;    2,890;   -0,227
237,715; 3578,219;    1,163;   -0,500
238,314; 3625,912;    1,708;   -2,318
238,912; 3749,753;    0,526;   -1,409
239,510; 3759,383;    1,162;   -1,227
240,109; 3923,916;   -0,474;    3,773
240,707; 3944,878;   -0,474;    1,227
241,305; 4239,845;   -0,383;    0,136
241,904; 4446,118;   -0,292;   -2,045
242,502; 4411,509;    3,253;   -0,227
243,100; 4351,897;    3,344;   -0,955
243,698; 4569,277;    2,799;    1,682
244,297; 4737,515;   -0,656;    0,682
244,895; 4594,011;   -0,474;   -2,318
245,493; 4889,777;    2,981;   -0,591
246,091; 4906,474;    5,163;   -1,318
246,689; 4877,859;    2,163;    0,591
247,287; 5025,220;   -0,019;   -1,136
247,885; 5294,072;   -1,019;    1,227
248,483; 5388,491;   -0,201;   -0,500
249,081; 5482,285;    0,981;    1,591
249,679; 5617,938;   -1,019;    1,682
250,277; 5849,946;   -2,292;    0,864
250,875; 5840,604;    0,617;   -1,045
251,473; 5840,297;   -0,019;    0,500
252,071; 6035,127;   -0,383;    1,045
252,669; 6170,124;   -1,565;    0,318
253,267; 6382,044;    1,618;    0,773
253,864; 6337,857;    0,617;    0,682
254,462; 6260,408;    1,526;    1,591
255,060; 6200,877;    0,072;    1,318
255,658; 6495,487;   -3,292;   -0,136
256,255; 6863,787;   -0,201;   -2,045
256,853; 6731,163;    2,345;    1,409
257,451; 6750,273;    1,981;    1,864
258,048; 7003,742;    2,072;    1,864
258,646; 6753,974;    0,436;   -1,045
259,243; 6931,708;    2,981;    2,227
259,841; 6943,989;    1,799;    0,318
260,438; 6862,846;    0,254;    0,864
261,036; 7545,154;    0,617;    1,409
261,633; 7463,354;    1,526;    2,227
262,231; 7210,483;   -0,110;   -0,045
262,828; 7288,210;   -0,383;    1,136
263,425; 7340,875;   -1,928;   -0,591
264,023; 7585,240;    1,436;    0,045
264,620; 7135,107;    1,526;   -0,318
265,217; 7467,466;    2,890;    3,136
265,815; 7589,963;    2,527;    2,136
266,412; 7379,788;    0,072;    0,136
267,009; 7423,385;    0,526;    0,773
267,606; 7323,792;    0,345;   -0,955
268,203; 7292,002;   -0,383;   -0,591
268,801; 7581,077;   -0,474;    0,591
269,398; 7861,577;   -0,564;    2,500
269,995; 7817,210;    0,890;    1,591
270,592; 7633,741;    0,799;   -0,500
271,189; 7785,146;    1,981;    0,409
271,786; 7881,514;    2,072;    1,227
272,383; 7780,930;   -0,383;    0,227
272,980; 7919,138;    1,617;    0,318
273,577; 8340,994;    2,162;    1,227
274,174; 7982,297;    1,435;    2,591
274,771; 7943,033;    1,890;   -0,773
275,367; 8063,379;    3,253;    1,409
275,964; 8022,354;   -0,565;   -0,500
276,561; 8141,152;   -2,474;   -1,045
277,158; 8302,483;    1,799;   -1,773
277,755; 8463,376;   -0,110;    0,409
278,351; 7867,541;    0,436;   -1,500
278,948; 8152,646;   -0,201;    0,045
279,545; 8178,558;    0,527;    2,318
280,141; 8767,721;    1,254;   -2,045
280,738; 8628,075;    2,435;   -0,136
281,334; 8793,395;   -0,383;    0,591
281,931; 8231,768;    2,890;   -1,318
282,528; 8333,715;    4,072;   -0,500
283,124; 8979,044;    3,345;   -0,500
283,721; 8906,671;    0,709;    1,409
284,317; 8731,339;    0,163;    2,500
284,913; 9253,878;   -0,110;    0,591
285,510; 9394,423;    2,890;   -0,318
286,106; 9427,219;    2,345;   -0,955
286,703; 9020,504;    0,072;    1,955
287,299; 9221,716;    1,254;   -0,591
287,895; 9416,494;    0,890;   -1,045
288,491; 9985,032;    0,163;    2,136
289,088; 9717,546;    0,163;    2,409
289,684; 9749,215;    2,890;    1,500
290,280; 9721,784;    1,890;    0,682
290,876; 9823,105;    0,163;    5,500
291,472; 9750,415;    2,163;    2,227
292,068; 9837,086;    1,254;    0,227
292,665; 9530,443;   -0,564;    0,773
293,261; 9212,195;   -1,292;    2,136
293,857; 9573,281;    4,072;    2,136
294,453; 9520,380;   -0,928;    0,955
295,049; 9425,403;    0,253;    1,955
295,644; 9440,063;   -1,292;    0,136
296,240; 9327,943;    0,162;   -0,136
296,836; 9392,042;   -0,747;    0,318
297,432; 9656,081;    2,980;   -0,500
298,028; 9658,673;    0,435;    0,773
298,624;10041,616;    0,889;    1,864
299,220;10270,054;    0,435;    0,591
299,815; 9930,121;    0,526;   -0,409
300,411; 9732,403;    0,435;    1,773
301,007; 9743,645;    1,889;    0,227
301,602; 9788,704;    2,071;   -2,318
302,198; 9926,856;    1,435;   -0,773
302,794;10270,458;    1,526;   -0,500
303,389;10382,940;    1,071;    1,045
303,985;10402,672;    1,253;    1,409
304,580;10395,843;    0,889;    1,591
305,176;10367,107;    0,344;    0,136
305,771;10304,940;   -0,929;   -1,227
306,367;10149,315;    3,071;    0,136
306,962;10470,613;    2,889;    1,500
307,558;10232,658;    2,435;    0,136
308,153;10127,995;   -0,383;   -1,136
308,748;10388,643;    0,162;    1,682
309,344;10367,520;    0,253;   -1,318
309,939;10440,824;    2,071;   -1,318
310,534;10709,490;   -2,020;   -1,682
311,130;10643,305;   -0,656;   -2,500
311,725;10354,591;    0,526;   -0,500
312,320;10692,730;    1,253;    0,045
312,915;10580,560;    2,890;   -1,045
313,510;10600,775;    0,526;   -0,500
314,105;11076,834;   -3,565;    1,409
314,700;10523,756;   -1,656;   -1,045
315,295;10183,843;   -0,020;    0,045
315,890; 9758,201;   -0,292;    0,864
316,485;10083,640;    0,253;   -0,318
317,080;10237,480;   -0,929;    1,591
317,675;10719,618;    3,071;   -0,682
318,270;10137,932;    6,889;    3,318
318,865;10155,226;    2,435;    3,045
319,460;10003,408;   -1,565;    0,591
320,055;10256,574;   -2,565;   -1,227
320,650; 9932,565;   -1,838;   -0,591
321,244; 9967,833;    0,889;   -1,409
321,839;10859,693;    0,980;   -0,227
322,434;10740,730;   -0,111;   -1,591
323,029;10390,578;   -0,474;    1,591
323,623;10268,371;    0,798;    0,773
324,218;10066,089;    2,707;    1,409
324,812; 9990,255;    0,889;    1,591
325,407; 9806,045;   -0,929;    2,045
326,002; 9745,525;    0,526;   -0,409
326,596;10066,910;   -0,656;    1,318
327,191;10242,266;   -0,383;   -1,045
327,785; 9851,001;   -0,747;   -0,227
328,379;10079,380;   -0,383;    0,136
328,974; 9854,313;    1,798;   -3,955
329,568;10094,166;    2,889;   -2,409
330,163; 9928,922;    2,435;    1,045
330,757;10281,463;    0,253;    1,591
331,351; 9644,263;   -0,292;    0,682
331,945; 9935,843;   -0,383;    1,409
332,540; 9540,424;    1,617;   -0,591
333,134; 9676,034;    3,344;    0,773
333,728; 9894,764;    2,799;    0,318
334,322;10227,628;    0,889;   -0,864
334,916; 9552,324;    0,344;    0,955
335,510; 9836,965;   -0,111;   -0,136
336,105;10070,539;   -0,929;    1,591
336,699; 9774,088;   -1,292;    0,591
337,293; 9727,797;    1,071;    0,318
337,887; 9852,935;    0,071;    1,955
338,481; 9946,923;    2,980;    0,591
339,074;10075,345;    2,071;    2,682
339,668; 9893,245;   -0,110;    1,227
340,262;10135,490;    7,708;    3,227
340,856; 9681,545;    1,708;   -0,682
341,450; 9072,877;    0,708;    1,864
342,044; 9869,070;    1,799;    0,136
342,637; 9658,189;    1,162;   -2,136
343,231; 9499,502;   -1,474;    0,682
343,825; 9474,291;   -0,747;   -0,591
344,419; 9435,989;   -0,474;    0,500
345,012; 9292,838;    2,889;    4,045
345,606; 9290,578;   -0,656;    1,591
346,199; 9109,238;   -0,111;   -0,227
346,793; 8728,411;    2,525;    2,045
347,386; 8914,617;    0,889;   -1,136
347,980; 8910,051;   -0,838;   -0,045
348,573; 8740,092;   -1,748;    0,409
349,167; 8435,811;    6,161;    4,773
349,760; 8777,065;    2,252;    2,682
350,354; 8758,351;    1,616;    1,136
350,947; 8485,114;    2,798;    1,682
351,540; 8215,452;    0,616;   -1,409
352,134; 8184,361;   -1,111;    1,136
352,727; 8263,793;   -0,657;    1,136
353,320; 8071,461;    2,343;    0,591
353,913; 7928,631;   -1,929;    1,864
354,507; 8097,253;    0,434;   -1,227
355,100; 8141,379;    0,071;    0,864
355,693; 7441,704;    4,798;    2,409
356,286; 7484,019;    0,980;    2,773
356,879; 7811,932;   -0,475;    1,227
357,472; 7441,438;    0,980;    1,500
358,065; 7650,570;    3,161;    2,500
358,658; 7597,317;    0,798;    2,318
359,251; 7266,002;    0,252;   -0,591
359,844; 6803,087;    0,343;   -1,136
360,437; 6964,586;    0,252;    0,045
361,030; 7225,160;    0,525;   -0,682
361,623; 6866,298;    0,434;    0,318
362,215; 6885,292;    0,979;    2,045
362,808; 6736,802;   -2,293;   -1,682
363,401; 6953,716;    0,798;    0,136
363,994; 6730,337;    3,252;   -1,500
364,586; 6647,789;    0,888;   -1,500
365,179; 6835,646;   -0,203;   -1,136
365,772; 6349,827;   -0,930;    2,045
366,364; 6612,186;    1,524;   -3,227
366,957; 6794,427;    1,342;   -0,045
367,549; 6786,157;   -0,203;   -0,864
368,142; 6490,139;    0,978;   -1,500
368,734; 6685,487;    2,523;   -2,136
369,327; 6658,615;    2,341;   -0,500
369,919; 6583,377;   -1,659;    0,409
370,512; 6404,321;   -1,023;   -0,500
371,104; 6168,472;    2,704;    1,591
371,696; 6321,189;    1,703;   -0,955
372,289; 6371,038;    0,157;    1,136
372,881; 6515,939;    1,156;    1,318
373,473; 6432,898;    4,064;    1,136
374,066; 6285,198;    1,336;    0,500
374,658; 6149,272;    0,879;    1,136
375,250; 6475,388;   -1,668;   -1,409
375,842; 6321,932;   -0,124;   -0,045
376,434; 6191,539;   -2,762;   -0,409
377,026; 6725,777;   -1,855;   -2,500
377,618; 6625,261;    0,779;   -0,682
378,210; 6480,589;    3,141;   -1,955
378,802; 6338,551;    3,412;   -0,591
379,394; 6329,242;    3,411;    0,682
379,986; 6857,373;    1,138;   -0,955
380,578; 6922,758;    1,410;    0,773
381,170; 6345,920;    0,320;    0,045
381,762; 6320,658;   -0,224;    1,409
382,354; 6467,098;   -0,223;   -1,318
382,945; 6552,862;    0,870;    0,318
383,537; 6712,818;    1,144;   -1,955
384,129; 6723,042;    0,963;   -1,136
384,721; 6874,273;    0,418;    0,955
385,312; 6811,748;   -1,399;   -0,955
385,904; 6907,447;   -0,945;    1,591
386,496; 6308,800;    0,691;    1,045
387,087; 6450,357;    0,418;    2,500
387,679; 6450,241;   -0,401;    0,045
388,270; 6590,543;   -2,401;    2,045
388,862; 6693,502;   -0,401;   -0,318
389,453; 6568,531;    1,054;    1,045
390,045; 6798,508;    3,236;   -2,682
390,636; 6740,689;    0,144;   -0,591
391,227; 6596,155;    2,054;   -0,045
391,819; 6710,524;    0,781;    0,773
392,410; 6750,450;    0,600;    0,045
393,001; 6696,160;    1,600;   -1,591
393,593; 6950,868;    0,600;   -0,045
394,184; 6814,118;    0,873;   -0,409
394,775; 6742,484;    1,146;    2,136
395,366; 6942,219;    1,782;    0,773
395,957; 6871,159;   -2,400;    0,136
396,548; 7152,884;    1,054;    2,682
397,139; 7459,544;    2,236;    0,591
397,730; 7228,238;    0,873;    0,955
398,321; 7250,369;    0,509;    0,955
398,912; 7295,405;   -0,764;    0,136
399,503; 7378,925;   -1,945;   -1,409
400,094; 6861,884;   -1,582;    1,682
400,685; 6741,203;    3,600;    0,045
401,276; 6818,917;   -0,400;   -0,955
401,867; 7093,335;   -1,127;    0,773
402,458; 7168,118;    1,509;   -2,318
403,048; 7172,097;    0,146;    0,591
403,639; 6796,386;    1,509;    0,864
404,230; 7062,169;    0,691;    0,318
404,821; 6998,289;   -0,127;    0,045
405,411; 7074,115;   -0,763;   -2,591
406,002; 6705,442;    3,237;   -1,136
406,592; 6575,824;    2,691;    0,045
407,183; 6819,153;    0,328;   -1,500
407,774; 6754,949;    1,419;   -0,136
408,364; 7053,479;    2,600;    0,409
408,954; 6716,133;   -0,036;    1,227
409,545; 6766,650;    1,873;    1,045
410,135; 6321,697;   -1,581;    0,500
410,726; 6474,304;    0,783;    0,318
411,316; 6842,130;    2,237;    0,773
411,906; 6530,417;    0,146;   -0,409
412,497; 6088,128;   -0,490;   -0,045
413,087; 6609,315;    0,783;   -0,227
413,677; 6984,509;   -2,490;    3,864
414,267; 6844,752;   -1,035;    1,409
414,857; 6765,535;    0,419;    4,227
415,448; 7076,233;   -0,763;    0,500
416,038; 6799,333;   -2,945;   -0,591
416,628; 6744,209;    0,965;    0,409
417,218; 6323,981;   -1,762;    3,318
417,808; 6543,400;    0,965;   -0,409
418,398; 6938,312;   -1,035;    2,682
418,988; 6934,911;   -2,217;    0,591
419,578; 7177,268;    3,601;    1,409
420,168; 7499,648;    0,692;   -0,955
420,757; 7095,529;    0,964;   -1,500
421,347; 6777,356;    1,601;   -0,227
421,937; 6937,897;    3,329;    1,409
422,527; 6917,624;    2,602;   -0,773
423,116; 6701,447;    2,692;   -0,045
423,706; 7035,059;    2,965;    0,318
424,296; 6987,828;    1,601;    0,682
424,885; 7396,919;    1,510;   -3,045
425,475; 7664,149;    1,147;   -2,864
426,065; 7556,578;   -1,489;   -0,318
426,654; 7220,670;    0,329;   -0,318
427,244; 7329,088;    1,147;    1,409
427,833; 6826,599;    1,056;   -0,500
428,423; 7251,879;    0,147;    1,136
429,012; 7905,492;    2,420;   -1,136
429,601; 7461,402;    2,057;    0,136
430,191; 7700,064;    2,511;    4,318
430,780; 7328,359;   -1,671;   -0,409
431,369; 7282,472;    1,329;   -0,045
431,959; 7859,935;    1,693;    0,500
432,548; 7624,532;   -1,398;   -0,045
433,137; 7731,916;    0,329;   -1,318
433,726; 8219,923;    0,148;    0,500
434,315; 7654,074;    0,148;    2,409
434,905; 7773,437;    0,693;    1,409
435,494; 7673,518;    3,148;    0,955
436,083; 8090,977;    1,420;   -0,955
436,672; 7954,269;    1,148;    0,500
437,261; 7579,237;    0,512;   -1,955
437,850; 7672,515;   -1,125;    0,682
438,439; 7655,895;    2,239;    1,955
439,027; 7533,726;    3,421;    1,773
439,616; 7853,328;    2,239;    1,227
440,205; 7695,887;    0,057;   -2,136
440,794; 7736,769;   -0,306;   -0,045
441,383; 7931,128;    1,603;   -0,591
441,971; 7826,030;   -0,306;    0,591
442,560; 7714,548;    0,603;   -1,773
443,149; 7442,451;    3,060;   -1,318
443,737; 7609,335;    0,968;   -2,318
444,326; 7816,485;    0,331;    0,318
444,915; 7844,614;   -1,851;    0,864
445,503; 8210,573;    0,058;   -0,318
446,092; 7576,222;    7,876;    2,136
446,680; 8048,816;    1,876;    0,318
447,269; 8205,512;   -1,487;   -0,318
447,857; 7999,091;    2,240;   -1,773
448,445; 8093,694;    2,149;    1,318
449,034; 8300,116;    0,876;   -1,136
449,622; 8403,004;    1,240;    3,500
450,210; 7740,735;    3,149;    2,227
450,799; 8255,860;    2,604;   -0,591
451,387; 8154,261;    1,786;   -0,591
451,975; 7843,038;   -1,305;    0,864
452,563; 7950,121;    0,422;    2,318
453,151; 7960,601;   -1,032;   -1,227
453,739; 7892,987;   -1,577;    0,136
454,328; 7747,965;    0,604;   -2,136
454,916; 7497,287;    1,150;   -0,136
455,504; 7659,899;    3,513;    1,227
456,092; 7864,742;    2,150;   -1,591
456,679; 7815,564;    0,604;    0,682
457,267; 7802,416;    3,604;    1,045
457,855; 7880,231;    3,241;    1,409
458,443; 7641,998;   -0,304;    1,682
459,031; 7806,496;    1,332;    2,409
459,619; 8211,383;   -3,577;    2,864
460,206; 8304,853;   -0,759;    2,045
460,794; 8365,218;   -0,668;   -0,227
461,382; 8558,882;    0,878;   -0,864
461,970; 8194,381;    0,605;    1,864
462,557; 8248,174;    0,878;   -0,682
463,145; 8387,291;   -0,304;   -1,682
463,732; 8503,435;    2,514;   -1,045
464,320; 8438,226;    1,514;   -3,045
464,907; 8164,938;    0,423;   -0,773
465,495; 8035,176;    2,696;   -1,227
466,082; 8158,494;    2,060;   -0,045
466,670; 8062,228;    2,605;    1,227
467,257; 8482,018;    0,060;    2,045
467,844; 8635,215;    1,514;    0,045
468,432; 8673,881;   -0,031;    3,500
469,019; 8212,268;    1,606;   -1,773
469,606; 8625,400;    0,969;    3,682
470,193; 8439,619;    2,151;    0,227
470,780; 8081,933;    0,333;    0,864
471,368; 8403,850;   -1,212;   -0,773
471,955; 8217,040;    1,060;   -0,682
472,542; 7856,334;   -0,303;   -1,136
473,129; 8107,799;   -0,485;    0,136
473,716; 7872,196;    0,060;    0,591
474,303; 8019,427;    1,333;   -0,864
474,890; 8283,370;    2,333;   -0,500
475,477; 8316,982;   -0,576;    0,409
476,064; 8198,280;    0,697;   -1,591
476,650; 8135,464;    2,152;    0,318
477,237; 7979,100;    1,879;    0,955
477,824; 8119,724;    3,879;    0,864
478,411; 8128,718;    0,606;   -0,318
478,997; 8322,233;    0,606;   -0,773
479,584; 8389,397;   -0,666;   -0,409
480,171; 9000,467;    1,243;   -0,773
480,757; 8681,649;   -0,848;    0,773
481,344; 8930,311;    0,334;    0,409
481,931; 8458,946;   -0,393;    1,045
482,517; 9324,025;    0,425;    0,318
483,104; 9788,919;    1,334;    2,864
483,690;10017,765;    0,243;    0,045
484,276;10303,234;    0,698;    0,227
484,863;10049,780;    2,152;    1,136
485,449;10591,673;    0,152;    0,318
486,035;10579,794;   -0,666;   -0,136
486,622;10989,690;   -2,393;    0,045
487,208;10939,918;    1,334;    1,500
487,794;10816,177;    0,971;    0,318
488,380;10856,645;    0,698;   -1,409
488,967;10942,642;   -1,120;   -0,409
489,553;10975,548;   -1,029;   -1,409
490,139;11171,755;    0,971;    0,773
490,725;10704,468;    0,789;   -0,227
491,311;10357,277;    1,516;    3,045
491,897; 9735,487;   -0,665;    1,500
492,483; 9593,705;    0,426;    1,227
493,069; 9460,925;    5,426;    0,864
493,655; 9401,366;    1,789;    0,682
494,241; 9339,266;    1,517;   -0,955
494,826; 9677,751;    0,335;   -1,045
495,412; 9161,683;    0,335;   -0,682
495,998; 9310,518;    0,971;   -0,318
496,584; 9434,997;    2,244;    1,045
497,169; 9405,106;    2,335;   -0,682
497,755; 9354,961;    1,244;    1,227
498,341; 9852,945;    2,153;    0,318
498,926; 9477,767;    2,881;    1,955
499,512; 9635,854;   -0,028;    2,955
500,097; 9700,479;   -0,574;   -0,318
500,683; 9663,004;   -0,028;    2,136
501,268;10015,076;    1,881;   -0,955
501,854; 9745,618;   -0,119;    1,227
502,439; 9670,301;   -0,573;   -1,773
503,024; 9840,063;    1,608;    0,500
503,610; 9920,240;    1,335;   -0,682
504,195; 9935,305;    1,245;    1,955
504,780;10016,992;    2,335;    1,227
505,366; 9856,300;    4,063;    2,864
505,951; 9603,570;   -1,119;    1,045
506,536; 9637,538;    1,427;   -3,682
507,121; 9591,995;    1,699;   -0,318
507,706;10082,841;   -0,392;    1,045
508,291;10424,185;   -2,937;    1,136
508,876; 9916,687;   -0,482;    2,591
509,461; 9417,765;    1,427;   -0,773
510,046; 9801,691;   -0,391;    0,318
510,631;10027,958;   -0,119;   -0,773
511,216; 9720,640;   -0,664;   -0,500
511,801;10089,724;   -0,755;    2,591
512,386;10303,493;    0,972;    0,500
512,971;10220,267;    0,427;    0,955
513,555; 9844,553;    1,154;   -1,500
514,140;10545,066;    1,336;   -3,136
514,725;10497,823;    1,791;   -1,136
515,309;10647,586;    1,064;    0,318
515,894;10164,493;   -0,300;   -2,227
516,479;10560,100;    1,973;   -0,955
517,063;10381,017;    0,882;    1,227
517,648;10563,024;    0,155;   -1,136
518,232;10174,197;   -1,300;   -1,409
518,817;10494,041;    1,337;    1,682
519,401;10685,871;    0,700;    0,591
519,985;10217,585;    2,700;    1,136
520,570;10112,865;   -0,118;   -1,955
521,154;10386,729;    0,064;    0,591
521,738;10513,230;    1,064;    2,409
522,323;11043,128;   -0,390;    1,682
522,907;10803,634;    2,428;   -0,136
523,491;10556,389;    1,155;    0,955
524,075;10511,505;    0,428;    0,591
524,659;10599,523;    0,973;    0,591
525,243;10135,826;    0,883;    0,409
525,827;10330,279;    0,883;   -0,045
526,411;11069,159;    1,155;   -0,136
526,995;11252,016;    0,337;    1,409
527,579;10893,783;    1,974;   -1,045
528,163;11184,105;    0,428;   -1,500
528,747;11103,483;    1,065;   -0,773
529,331;11331,248;    0,883;   -1,409
529,915;11514,177;    2,338;    0,955
530,499;11469,063;    0,247;    1,227
531,082;11207,825;    1,065;    1,591
531,666;10688,854;    0,520;    0,773
532,250;11311,054;    0,428;    2,682
532,833;11586,936;    0,610;    2,773
533,417;11451,281;    1,247;    0,864
534,001;11396,995;    0,429;   -0,318
534,584;12032,394;    1,974;    0,500
535,168;11854,800;    3,247;    1,409
535,751;11893,311;    4,520;    0,045
536,334;11349,121;    4,520;   -0,409
536,918;11905,571;    1,974;    1,591
537,501;12001,731;    1,520;    1,318
538,085;12017,674;    1,702;    1,045
538,668;12109,609;    0,883;    2,409
539,251;12424,816;    3,156;    3,773
539,834;12428,901;    0,156;    0,773
540,418;12338,152;    3,247;    4,318
541,001;12417,207;    2,702;    1,773
541,584;12403,739;    1,429;    2,227
542,167;12093,455;    0,702;    2,955
542,750;12222,471;    0,793;   -0,773
543,333;11843,480;    1,429;    2,136
543,916;12532,239;   -0,298;    2,500
544,499;13061,823;    2,520;    0,227
545,082;13033,101;    0,248;    3,591
545,665;13181,656;   -0,207;    1,500
546,248;13478,116;    0,520;   -0,318
546,830;13131,835;   -1,752;    1,955
547,413;13492,327;    0,157;   -0,773
547,996;13985,484;    0,157;    0,500
548,579;13785,830;   -0,843;    0,955
549,161;13569,835;    0,884;    2,682
549,744;13375,544;    0,612;    0,409
550,326;13791,957;    0,885;   -1,136
550,909;13595,002;    2,339;    0,591
551,492;13967,810;    0,521;    0,227
552,074;13743,130;   -0,024;   -1,318
552,657;14225,540;    2,430;    0,045
553,239;14083,617;   -3,024;   -0,773
553,821;14001,674;   -1,570;    1,045
554,404;13537,356;   -0,024;    1,136
554,986;13848,013;    2,248;    1,045
555,568;14358,362;    0,430;   -0,955
556,151;13681,115;    4,067;   -0,227
556,733;13873,481;   -1,388;   -0,864
557,315;14287,898;    4,703;    0,500
557,897;14045,141;    0,521;   -0,500
558,479;14112,668;    1,703;    1,318
559,061;14230,400;    1,067;   -0,864
559,643;14547,035;   -0,297;    0,045
560,225;14830,366;   -0,388;    2,864
560,807;14839,580;    0,340;    0,318
561,389;14461,249;   -1,206;    2,318
561,971;15060,358;   -0,660;    2,136
562,553;14906,402;    0,613;    1,591
563,135;14996,579;    1,249;    1,136
563,717;14613,304;    3,158;    1,136
564,298;15198,663;    3,976;   -0,045
564,880;14925,461;    0,340;   -1,409
565,462;15056,370;    1,977;    1,318
566,043;16110,270;   -0,933;    2,318
566,625;15692,109;    4,067;    1,227
567,207;15527,367;    0,704;    1,682
567,788;16441,352;   -0,114;    1,500
568,370;17160,712;   -1,841;   -0,500
568,951;16921,363;   -0,569;    0,227
569,533;17636,144;    0,977;   -0,500
570,114;18006,286;   -0,296;    0,682
570,695;18409,919;   -0,478;   -1,318
571,277;18756,121;   -0,205;   -1,682
571,858;19361,627;    2,704;   -1,136
572,439;20094,514;    0,795;   -1,045
573,021;20187,240;    0,432;   -2,773
573,602;20583,695;    1,795;    0,318
574,183;21371,216;   -0,114;    2,227
574,764;21433,438;    2,068;    0,409
575,345;21844,206;    0,250;   -0,136
575,926;22349,824;    2,704;    0,136
576,507;22300,898;    2,704;   -0,227
577,088;23247,784;    1,704;    1,682
577,669;23255,360;    1,704;    1,955
578,250;23892,034;   -0,750;   -1,045
578,831;24384,113;   -0,841;   -2,227
579,412;24548,204;   -1,205;    0,955
579,993;25401,118;    1,432;    0,227
580,573;25713,484;   -0,023;   -0,955
581,154;24721,272;    1,613;   -0,591
581,735;25479,176;    0,341;    0,773
582,315;25008,176;    0,523;    2,136
582,896;25261,347;   -1,750;    1,227
583,477;24799,387;    0,614;    1,227
584,057;24971,367;    1,159;    0,955
584,638;25217,754;   -2,750;    2,318
585,218;25244,227;    2,886;    2,682
585,799;25415,692;    1,977;   -0,227
586,379;25430,420;    1,250;    1,591
586,959;24386,172;    2,613;    0,318
587,540;23811,107;    0,432;    2,227
588,120;23472,813;   -1,113;   -0,045
588,700;22617,957;    2,977;    2,136
589,281;22898,528;    1,250;   -0,955
589,861;22845,243;   -0,296;   -1,682
590,441;22645,940;   -1,477;   -2,682
591,021;21759,321;    1,432;   -2,591
591,601;22011,136;    0,431;    0,500
592,181;22058,335;   -1,296;   -0,773
592,761;21405,537;    2,250;    1,409
593,341;21368,806;    1,522;    0,045
593,921;21369,851;   -0,569;    1,591
594,501;21220,650;    1,250;    1,318
595,081;21098,190;    0,522;   -0,318
595,661;21479,207;    1,068;    0,955
596,240;21904,978;   -1,023;    0,136
596,820;21520,038;    2,613;    1,955
597,400;21626,476;    1,977;    0,773
597,980;21815,351;   -0,750;    1,045
598,559;21927,539;    0,341;   -0,227
599,139;21699,958;   -0,750;   -1,227
599,718;21583,685;    0,795;   -0,409
600,298;21839,380;   -2,387;    0,682
600,877;22023,652;    4,795;    1,409
601,457;22252,075;    0,340;    1,136
602,036;22164,703;    1,795;    2,045
602,616;22320,100;    2,250;    1,682
603,195;22622,369;    0,431;    3,500
603,774;22163,947;   -0,296;    2,045
604,354;22065,881;    2,522;   -0,500
604,933;21647,927;    0,250;    1,864
605,512;21729,704;    2,340;    0,591
606,091;21789,675;    1,886;    3,773
606,671;22520,122;    0,249;    0,773
607,250;21722,898;    1,431;    3,136
607,829;21987,382;    1,158;    3,227
608,408;21814,694;    4,613;    2,591
608,987;20940,438;    2,704;    3,409
609,566;21181,732;    0,341;   -2,500
610,145;21296,875;    2,885;    0,682
610,723;21674,633;    1,613;    6,864
611,302;21015,809;    1,067;    1,682
611,881;20584,822;    5,158;   11,227
612,460;21351,372;    0,795;    3,955
613,039;21716,453;    1,703;    2,045
613,617;20524,503;    0,886;    4,773
614,196;20668,577;    1,613;    1,227
614,775;21005,926;    1,249;    2,409
615,353;20962,135;   -1,660;    0,864
615,932;20775,048;    0,249;    2,409
616,510;21291,947;    0,158;    0,591
617,089;20873,235;    8,794;   17,591
617,667;20691,845;    4,885;    6,136
618,246;20555,485;   -1,115;    1,318
618,824;20721,014;    1,612;   -0,955
619,402;20317,266;    0,431;   -1,773
619,981;20753,448;    1,067;   -1,045
620,559;20617,433;    0,794;    1,682
621,137;20238,465;    3,067;    1,864
621,715;20201,040;    3,703;   -0,682
622,293;20124,190;    1,885;   -0,773
622,871;20576,717;    0,340;    0,500
623,450;20196,383;    0,430;   -0,864
624,028;20120,295;   -0,388;   -0,955
624,606;19727,278;    2,339;    1,682
625,183;20060,913;   -0,661;   -1,136
625,761;19744,479;    1,885;    1,136
626,339;20051,785;    2,339;    2,591
626,917;20397,376;    0,339;   -0,045
627,495;20446,518;    2,794;    1,318
628,073;19945,039;    5,248;    2,864
628,650;19623,419;    3,067;    2,136
629,228;20048,218;    1,248;    4,409
629,806;19481,832;   -0,024;    1,136
630,383;19723,621;    0,066;   -0,318
630,961;19578,491;   -2,206;   -0,955
631,539;19343,003;   -2,479;    0,227
632,116;18720,946;   12,703;   15,409
632,694;19247,579;    4,885;    6,500
633,271;19484,640;    1,975;    2,682
633,848;19446,890;    1,430;    2,045
634,426;19456,736;    1,521;    1,773
635,003;18731,471;   -0,207;   -0,409
635,580;18954,191;    1,884;    3,682
636,158;19475,942;    3,793;    1,227
636,735;19435,117;    3,339;   -0,500
637,312;19586,398;    0,521;   -0,682
637,889;19661,454;    2,248;   -0,682
638,466;19212,863;    0,066;   -0,409
639,043;19194,770;    1,702;   -1,136
639,620;19442,404;    0,611;   -0,955
640,197;19771,272;    1,612;    1,682
640,774;19909,537;    1,430;    1,136
641,351;20179,712;    0,612;    1,136
641,928;19706,977;    2,794;    1,409
642,505;19360,333;    0,794;   -0,500
643,082;19508,781;    1,885;    1,227
643,658;18648,864;    1,157;    1,500
644,235;19304,130;   -2,479;    2,500
644,812;19553,668;    1,794;    0,773
645,388;19277,478;    1,612;    1,409
645,965;19330,107;    1,521;    1,682
646,542;19418,646;    3,430;   -0,227
647,118;19416,638;    3,703;   -0,955
647,695;19665,176;    0,339;    1,136
648,271;19629,351;   -2,115;    0,500
648,848;19817,071;    0,248;    2,227
649,424;19700,518;    0,976;    1,318
650,000;19474,874;   -0,388;   -1,045
650,577;19335,048;    0,158;   -0,955
651,153;19673,314;   -1,115;    0,955
651,729;20526,488;    0,521;    0,864
652,305;20648,390;    1,339;    2,773
652,881;24029,292;   -1,297;    1,136
653,458;29407,284;    0,249;    0,227
654,034;32429,095;    0,703;    1,591
654,610;33581,815;    0,339;    0,773
655,186;34748,808;    1,612;    3,045
655,762;34441,619;   -1,842;    0,409
656,338;34484,429;    0,703;    0,136
656,913;35365,331;   -0,297;    0,409
657,489;34814,051;    0,249;   -0,318
658,065;34758,589;    0,794;   -1,591
658,641;35252,309;    2,158;   -0,864
659,217;34641,393;    2,067;    0,409
659,792;34172,112;   -1,751;   -0,409
660,368;34525,378;   -0,388;   -0,682
660,944;34443,461;    1,794;    1,227
661,519;30837,272;    0,522;    0,409
662,095;26039,083;   -0,206;    0,591
662,670;22205,076;   -0,206;   -0,136
663,246;21305,341;   -0,660;   -0,409
663,821;20737,243;    0,431;    1,682
664,396;20202,872;    0,613;    1,864
664,972;20423,410;   -0,660;   -0,500
665,547;20736,493;    3,794;    0,136
666,122;20762,486;    1,340;    0,318
666,698;21002,297;    2,431;    0,318
667,273;20376,562;    0,885;    0,136
667,848;21078,191;    0,340;    1,500
668,423;20908,366;    1,795;    2,318
668,998;21305,904;    0,976;   -0,682
669,573;21788,169;    2,067;   -1,500
670,148;21651,253;    1,885;   -0,682
670,723;21427,427;   -0,024;    0,318
671,298;21810,783;   -1,296;    1,045
671,873;21856,412;   -0,296;   -0,136
672,448;21836,223;    1,704;    0,136
673,023;22103,670;    0,249;   -0,227
673,597;22421,663;    2,704;    2,318
674,172;22255,746;    2,431;    0,318
674,747;21799,648;   -0,205;   -1,045
675,321;21581,004;   -0,933;    3,318
675,896;21228,361;    2,158;    1,045
676,471;22077,444;    2,522;    1,591
677,045;21863,528;   -0,296;    0,682
677,620;21861,793;    2,158;    1,136
678,194;22188,240;    0,249;    1,136
678,769;21828,687;    0,886;   -0,318
679,343;22045,135;   -0,023;    1,773
679,917;21857,945;    0,340;    1,955
680,492;21930,120;    0,249;    3,227
681,066;22032,931;    0,613;    0,409
681,640;22091,832;    1,795;   -0,318
682,214;22807,189;    2,340;    0,500
682,788;22348,909;    0,613;   -0,773
683,363;22230,538;    1,977;    1,682
683,937;22013,348;    0,886;   -0,318
684,511;22671,705;   -1,023;   -0,591
685,085;22421,879;   -1,478;    0,318
685,659;22164,781;    1,431;    0,864
686,232;22418,228;    1,159;   -0,318
686,806;22156,493;    2,159;    0,409
687,380;22759,395;   -1,932;    0,591
687,954;22971,570;    2,432;    1,136
688,528;22639,380;    2,613;    1,955
689,101;23356,646;    0,432;    1,045
689,675;22967,457;    0,886;   -0,136
690,249;22374,995;    3,432;    0,409
690,822;22719,260;    1,159;    0,318
691,396;22790,344;    2,068;    1,227
691,969;22284,063;    2,523;    0,136
692,543;22748,147;   -0,568;   -1,955
693,116;22431,685;   -0,659;   -1,409
693,690;22310,678;   -0,296;    0,500
694,263;22811,489;    2,341;    2,955
694,836;22798,299;    2,795;    3,591
695,410;21566,474;    1,159;    1,773
695,983;21971,739;    1,614;    0,591
696,556;22021,005;   -0,750;   -1,045
697,129;22325,088;   -1,114;    1,409
697,703;21963,353;    1,341;    1,955
698,276;21997,073;    1,705;   -0,773
698,849;21835,339;   -1,023;    1,409
699,422;22148,331;    1,250;    0,591
699,995;21946,688;   -0,659;    0,136
700,568;22328,680;   -0,204;    3,045
701,140;22333,673;   -1,841;    1,682
701,713;22151,756;    0,341;    2,409
702,286;21911,294;    0,796;    0,864
702,859;21799,378;    0,614;   -0,591
703,432;21113,189;   -0,841;    0,682
704,004;21471,000;    1,978;    0,318
704,577;21374,720;    1,068;    0,136
705,150;21880,258;    0,887;    2,500
705,722;21659,705;    1,523;   -3,227
706,295;21510,334;    1,432;   -0,591
706,867;21375,145;    0,250;    1,955
707,440;21582,410;   -0,113;   -0,409
708,012;21785,403;   -0,022;    0,591
708,584;21676,850;    2,705;    0,227
709,157;21973,933;    1,160;   -0,591
709,729;21736,835;    1,069;    2,045
710,301;22479,919;   -1,204;    0,045
710,874;22434,093;    0,341;   -0,227
711,446;21402,449;   -0,295;    0,864
712,018;21298,715;   -3,022;    0,500
712,590;21066,253;   -0,204;    1,682
713,162;21530,882;   -0,477;    1,318
713,734;21757,874;    1,796;   -2,045
714,306;21698,685;    0,342;   -0,409
714,878;20506,405;   -0,295;    0,864
715,450;21295,489;   -0,113;    0,864
716,022;21511,481;    2,433;    1,318
716,593;21670,201;    0,978;    0,591
717,165;21627,739;    1,796;   -1,227
717,737;21367,732;    0,796;    0,409
718,309;21052,179;    1,160;   -0,045
718,880;21004,899;   -1,295;   -1,409
719,452;21238,710;    0,887;   -1,591
720,024;20899,702;    1,705;   -0,591
720,595;21416,059;    2,978;    0,955
721,167;21011,233;    1,160;   -2,045
721,738;20544,317;    2,069;   -1,045
722,309;20567,037;    1,251;   -1,227
722,881;20366,302;    2,705;    0,773
723,452;20911,658;    1,251;    2,864
724,023;21080,287;    1,524;    2,682
724,595;20899,734;    2,342;    0,682
725,166;20651,818;    1,524;   -0,409
725,737;20317,265;    1,887;    0,227
726,308;20419,621;    0,797;    0,318
726,879;20829,250;    1,069;    1,227
727,450;20665,425;   -2,022;   -0,045
728,021;20660,963;    1,069;    0,682
728,592;20496,137;    1,160;    0,500
729,163;20791,221;    1,433;   -0,136
729,734;20791,395;    2,160;   -0,227
730,305;21098,933;    0,615;    0,136
730,876;21390,290;    0,888;    2,955
731,447;21091,828;    0,797;    2,682
732,017;21182,184;   -0,840;    1,864
732,588;20764,631;   -0,021;    1,227
733,159;20910,624;    3,615;   -1,045
733,729;20718,798;    1,251;    0,409
734,300;20092,973;    0,160;    0,864
734,870;20505,693;   -1,385;    0,591
735,441;20965,413;    0,888;   -0,591
736,011;20756,405;    1,070;   -1,591
736,582;20699,580;    1,251;    0,045
737,152;20239,027;    0,979;   -2,045
737,722;20667,929;    1,070;   -0,682
738,293;20381,194;   -2,021;    1,318
738,863;20256,641;    1,797;    2,318
739,433;20157,997;    4,524;    0,318
740,003;20706,263;    1,524;   -0,682
740,573;20165,255;    2,252;   -1,591
741,143;20188,884;    3,615;    0,318
741,713;20826,695;    0,252;   -0,500
742,283;20600,688;    1,706;    1,591
742,853;20420,680;    0,524;    1,591
743,423;19978,128;    0,161;    0,045
743,993;19992,484;    1,070;    1,500
744,563;19497,022;    2,524;   -0,864
745,133;19425,106;   -0,112;   -0,864
745,702;20050,007;    2,797;    1,773
746,272;19351,636;    0,434;    0,591
746,842;19167,447;   -0,748;   -0,591
747,411;19547,258;   -0,839;   -0,318
747,981;19691,705;   -0,930;    0,500
748,551;19766,607;   -0,021;   -1,045
749,120;19625,054;   -0,112;   -0,227
749,690;19972,410;    2,161;    2,409
750,259;20229,585;    0,979;    2,955
750,828;20122,941;    4,070;   -1,955
751,398;20405,206;   -0,112;   -0,045
751,967;19931,926;    2,888;    0,409
752,536;20081,737;    1,161;   -0,227
753,105;20533,639;   -1,384;    0,227
753,675;20263,177;   -0,112;    1,773
754,244;20213,351;    0,888;    3,591
754,813;20226,344;    0,979;    1,227
755,382;19840,882;    0,798;    0,955
755,951;20279,784;   -0,112;    3,682
756,520;19903,867;    2,525;    1,864
757,089;20446,769;    1,888;    0,500
757,658;20555,125;    2,434;    1,227
758,227;20561,482;   -1,111;    0,318
758,795;20806,838;   -1,021;    1,136
759,364;21088,740;    0,525;   -0,591
759,933;20145,459;    1,343;   -0,045
760,501;19732,543;    0,252;   -1,318
761,070;20152,626;   -0,293;   -1,409
761,639;20774,528;    1,434;    1,318
762,207;20158,794;    0,889;   -0,955
762,776;20116,059;    2,889;    0,864
763,344;20096,324;    0,071;    0,591
763,913;19241,499;    1,616;    1,409
764,481;19939,037;    1,980;   -0,136
765,049;19840,029;    0,616;    1,409
765,618;19701,568;    1,434;    0,318
766,186;19775,106;    2,434;    0,136
766,754;19934,462;    1,798;    1,864
767,322;19043,545;    1,162;    0,409
767,890;19004,902;    0,525;   -1,773
768,459;19450,076;    2,616;   -0,318
769,027;19569,887;    2,525;    3,409
769,595;18730,425;    2,616;    2,591
770,163;19098,145;    3,344;    2,955
770,730;18903,592;    2,525;   -0,136
771,298;18780,676;    1,162;   -1,409
771,866;18875,123;    0,253;    4,955
772,434;19159,388;    1,162;   -1,864
773,002;19286,745;    2,616;    0,682
773,569;18964,919;    1,071;    1,682
774,137;18856,275;    0,889;   -0,045
774,705;19557,268;   -0,747;   -0,136
775,272;19127,897;    0,253;    0,682
775,840;18972,435;   -0,111;    2,682
776,407;18518,518;   -0,293;    1,955
776,975;18149,602;    1,162;    0,318
777,542;19083,049;    2,162;   -0,045
778,110;18928,587;    0,707;   -0,045
778,677;18630,671;    1,071;   -0,864
779,244;18368,300;   -1,020;    1,045
779,812;18488,111;    0,980;    0,864
780,379;18355,740;    2,435;    1,136
780,946;18579,369;    2,617;   -0,773
781,513;18861,634;   -0,565;    0,318
782,080;18320,718;    1,253;    2,864
782,647;18936,801;    1,708;    3,045
783,214;18609,248;   -0,201;    3,864
783,781;18219,059;    1,708;   -0,682
784,348;18140,415;    0,253;    1,500
784,915;18530,499;   -1,474;    0,318
785,482;18367,582;    2,708;    2,591
786,049;18795,939;    1,071;   -0,591
786,615;18899,022;    1,708;   -0,955
787,182;18634,106;   -3,201;   -0,682
787,749;18358,007;   -2,201;    1,409
788,315;17770,818;    0,253;   -0,409
788,882;18068,265;    0,981;   -1,227
789,448;18675,531;    1,435;   -0,955
790,015;18674,342;    1,799;    3,227
790,581;18298,425;    0,708;    0,227
791,148;18161,600;    1,344;    1,045
791,714;18396,501;   -1,019;    3,136
792,280;18156,949;    3,708;    1,591
792,847;17731,759;   -0,928;    2,500
793,413;18149,934;   -0,110;   -0,318
793,979;17811,381;    1,526;   -1,318
794,545;17891,101;    2,981;    2,682
795,111;17393,366;    2,435;    1,318
795,678;17533,450;    3,526;   -1,682
796,244;17212,352;    2,799;    0,136
796,810;17708,344;    0,799;    0,773
797,375;17463,791;   -0,292;   -2,136
797,941;17482,875;   -1,110;    0,591
798,507;17585,231;    0,254;   -0,955
799,073;17207,860;    2,708;    0,591
799,639;17277,035;    1,435;    3,136
800,205;17321,300;   -1,565;    2,682
800,770;16970,747;    1,345;    1,773
801,336;17001,376;    2,981;   -0,955
801,901;16757,187;    6,072;    3,136
802,467;17278,998;    0,526;    2,045
803,033;16634,718;   -0,019;    0,864
803,598;16818,347;    1,072;   -1,045
804,163;16898,248;    0,708;   -0,318
804,729;16897,423;   -0,110;    1,136
805,294;17166,052;    1,072;    2,227
805,859;17003,590;    0,890;   -0,409
806,425;16582,219;    3,890;    2,682
806,990;16267,757;    1,890;    4,318
807,555;16686,841;   -0,110;    2,591
808,120;16603,470;   -1,292;   -0,409
808,685;16683,826;    1,072;   -2,500
809,250;16243,546;    2,072;   -0,500
809,815;16528,720;   -0,201;    0,682
810,380;16972,167;    0,981;    1,591
810,945;17419,796;    2,890;    2,045
811,510;16722,334;   -0,200;    1,591
812,075;16468,509;    2,800;   -1,409
812,640;16468,320;    3,709;    1,409
813,204;16593,494;    2,163;   -0,227
813,769;17049,759;    0,254;   -0,045
814,334;16535,388;    0,527;    0,864
814,898;16567,563;    1,981;    0,591
815,463;16384,919;    0,981;   -0,773
816,027;16393,821;    1,345;   -2,318
816,592;16521,541;    2,163;   -2,045
817,156;16098,533;   -2,200;    1,136
817,721;15978,799;    0,982;    2,318
818,285;15945,791;    0,618;    1,500
818,849;16487,148;   -0,018;    1,682
819,414;16372,322;    0,073;    2,955
819,978;16031,588;   -0,291;    1,773
820,542;16541,580;    2,891;    0,500
821,106;16350,936;    2,800;    0,682
821,670;16403,293;    2,709;    2,591
822,234;16156,194;    1,073;    1,409
822,798;15671,278;   -0,836;    0,500
823,362;15641,907;    1,527;    4,227
823,926;15056,445;   -0,018;    1,136
824,490;15243,074;    3,527;   -0,682
825,054;15659,612;    2,527;   -1,136
825,618;15381,696;   -1,200;   -1,500
826,181;15322,143;    0,982;   -1,318
826,745;15209,226;   -0,745;   -1,045
827,309;15527,037;    2,255;    1,318
827,872;15050,757;    0,527;    0,955
828,436;15918,659;    1,982;   -0,773
828,999;16010,197;    2,436;    1,227
829,563;14986,735;   -0,654;    1,136
830,126;14804,637;   -0,018;   -0,591
830,690;14832,629;    0,709;    2,864
831,253;14398,077;   -0,473;    2,227
831,816;14498,069;   -0,018;    0,500
832,380;14425,971;    1,164;    0,864
832,943;14674,782;    3,073;   -0,500
833,506;14242,411;    0,255;   -1,227
834,069;14947,676;    2,164;   -0,955
834,632;15049,669;   -2,200;    1,318
835,195;14932,752;    1,346;    0,955
835,758;14232,836;    0,709;    1,955
836,321;14087,101;    1,073;   -1,045
836,884;14179,003;   -1,291;   -0,955
837,447;14223,995;    0,528;    1,773
838,010;14464,170;    1,800;    3,227
838,573;14739,526;    0,528;    0,773
839,135;14741,701;   -0,109;   -0,955
839,698;14202,693;    2,528;    0,409
840,261;13808,050;    0,255;   -0,227
840,823;13701,860;   -0,927;    0,864
841,386;13950,853;   -0,018;   -2,409
841,948;13874,118;    0,255;    1,773
842,511;13619,384;    0,255;    1,682
843,073;13747,376;    2,982;    0,227
843,636;13587,096;    0,619;   -0,227
844,198;13473,725;    1,255;    0,591
844,760;13624,263;    0,619;    1,955
845,322;13288,256;    0,164;    1,136
845,885;13672,976;   -0,290;    0,591
846,447;14111,332;    0,710;    0,227
847,009;13744,507;    3,983;   -0,682
847,571;13988,317;    1,346;   -2,045
848,133;14053,037;   -0,199;   -1,864
848,695;13895,303;    2,346;    1,409
849,257;13542,204;    1,346;   -1,682
849,819;13710,470;    2,983;   -0,409
850,381;13738,371;    1,801;   -0,864
850,942;14004,455;    1,892;   -0,591
851,504;13920,629;    0,983;    0,227
852,066;13981,258;    1,619;   -1,591
852,628;13621,251;    0,165;    1,955
853,189;13176,880;    0,256;    2,682
853,751;13311,964;   -0,654;    1,409
854,312;13146,865;    1,256;   -1,682
854,874;13610,403;   -0,108;   -0,773
855,435;14043,123;    0,528;   -1,682
855,997;14160,389;    3,983;   -0,136
856,558;13488,381;    0,801;    1,773
857,119;13601,283;   -0,744;    2,864
857,681;13361,548;   -0,108;    0,318
858,242;13367,359;    1,347;   -2,136
858,803;13809,352;    1,074;   -0,773
859,364;14310,890;    0,892;   -4,773
859,925;13763,883;   -0,290;   -0,955
860,486;13619,602;    0,529;   -0,955
861,047;13358,686;    0,165;   -1,227
861,608;13206,224;    0,165;   -0,773
862,169;13398,671;   -0,562;   -0,045
862,730;13170,846;   -0,290;    1,409
863,291;13397,202;    0,438;   -0,500
863,852;13660,831;   -0,926;    1,955
864,412;13211,187;   -1,835;   -0,864
864,973;12005,634;    1,892;    0,500
865,534;11919,263;    2,074;    0,227
866,094;13185,711;    2,620;    0,227
866,655;12854,340;    4,711;    3,318
867,215;13192,150;    0,074;    0,136
867,776;13068,234;   -1,199;   -0,136
868,336;13080,045;    1,529;    0,136
868,897;12682,492;    3,438;    1,682
869,457;12465,757;    3,256;    0,318
870,017;12683,659;    2,438;   -1,227
870,578;13131,288;    1,893;    0,773
871,138;12791,826;    2,620;   -0,955
871,698;12414,910;   -0,562;   -1,318
872,258;12304,811;    0,711;   -2,864
872,818;12638,986;    2,347;    0,045
873,378;12629,069;   -2,198;    1,045
873,938;12234,607;    4,984;    0,500
874,498;12490,782;    1,256;   -1,955
875,058;12428,320;    4,347;    1,773
875,618;12283,767;    1,438;   -2,682
876,177;12210,123;   -0,471;    0,136
876,737;11844,843;   -0,289;    1,955
877,297;11899,836;    2,711;    1,955
877,856;11958,101;    2,529;    0,318
878,416;11888,003;    2,438;   -0,136
878,976;12081,814;    3,438;    0,409
879,535;12287,443;    4,529;    3,136
880,095;12061,708;    1,347;    0,045
880,654;12138,792;    0,347;    1,318
881,213;12249,875;    2,347;    1,500
881,773;11924,595;    1,984;    2,682
882,332;12261,679;    6,075;    5,136
882,891;12148,217;    0,711;    2,136
883,451;12498,573;   -2,016;    1,682
884,010;11980,293;   -1,107;   -0,409
884,569;12087,104;   -2,289;   -0,045
885,128;12214,824;   -0,743;   -1,864
885,687;12275,453;   -0,743;    0,682
886,246;12049,354;    2,620;    2,136
886,805;11818,256;    1,620;    2,045
887,364;12066,794;    1,166;   -0,500
887,922;12354,878;   -0,016;    0,045
888,481;11872,143;    1,530;    0,591
889,040;12166,499;    3,711;    2,136
889,599;12717,765;    2,166;    1,409
890,157;12727,939;    2,166;    2,409
890,716;12390,841;    2,166;    0,227
891,274;12257,288;    0,075;   -1,136
891,833;12628,463;    1,166;    0,864
892,391;12512,273;    1,802;    0,500
892,950;12555,448;    0,166;   -0,773
893,508;12866,986;    0,984;   -0,409
894,067;12312,342;   -0,379;    0,136
894,625;12251,153;   -1,016;   -1,500
895,183;12444,055;   -0,198;   -0,682
895,741;12353,138;    2,257;   -1,773
896,299;12177,495;    1,621;   -2,409
896,858;12350,214;    1,530;   -1,591
897,416;12465,116;    0,166;   -1,318
897,974;12296,927;   -2,197;    0,318
898,532;12416,465;    6,530;    2,682
899,089;12312,549;    0,621;   -0,682
899,647;12407,541;    0,530;    1,318
900,205;12209,261;    0,257;    1,045
900,763;12371,345;    2,166;    0,227
901,321;12388,974;    3,530;   -1,409
901,878;11907,512;    3,257;   -0,773
902,436;11809,595;    0,257;    1,318
902,994;12211,315;    6,712;    3,682
903,551;11695,581;    1,439;    0,409
904,109;12046,028;    1,530;   -1,409
904,666;11714,475;    1,439;    1,045
905,224;11572,922;    3,894;   -0,409
905,781;11369,278;   -0,470;   -0,318
906,338;11401,453;    0,167;    1,045
906,895;11367,718;    1,894;    2,045
907,453;11313,620;    2,348;    1,136
908,010;11321,067;    3,348;    0,409
908,567;11038,969;   -0,561;    0,591
909,124;10593,052;    2,439;   -1,500
909,681;10656,954;   -1,288;    0,682
910,238;10855,947;   -0,106;   -1,318
910,795;11172,939;   -1,561;   -1,136
911,352;10854,303;   -0,379;   -2,682
911,909;10338,394;    2,803;   -0,864
912,466;10820,939;    1,985;    1,500
913,022;10384,485;   -0,924;    0,500
913,579;10724,394;   -0,470;    2,045
914,136;10490,485;   -2,561;    0,955
914,692;10807,758;    1,530;   -1,227
915,249;10396,939;    0,530;    0,409
915,806;10631,667;    1,803;    1,955
916,362;10479,303;    0,894;    1,864
916,918;10061,667;    2,439;    1,045
917,475;10050,848;    1,621;    0,955
918,031;10115,394;    0,076;   -0,045
918,587; 9675,848;    0,621;   -0,318
919,144; 9913,121;   -0,379;    0,227
919,700;10165,485;    0,167;    0,773
920,256; 9781,667;    0,439;    0,045
920,812; 9502,758;    1,439;   -1,045
921,368; 9558,212;    1,348;   -1,045
921,924; 9211,303;    0,439;   -0,136
922,480; 8869,848;    0,076;    1,227
923,036; 9458,394;   -0,652;    1,955
923,592; 9410,394;    0,621;    0,318
924,148; 9343,030;    1,894;   -0,955
924,704; 8777,030;    0,258;   -0,409
925,259; 9091,939;   -0,561;    0,591
925,815; 8869,667;    3,803;    0,500
926,371; 8409,485;    3,530;    1,409
926,926; 8390,939;    1,621;    0,591
927,482; 8119,848;    1,621;    0,773
928,037; 8027,576;   -0,833;    2,045
928,593; 8316,576;    0,258;    1,045
929,148; 8172,030;    1,167;   -1,500
929,704; 7745,212;    2,439;   -0,500
930,259; 7934,848;    0,894;   -0,136
930,814; 7183,667;    1,803;    1,955
931,369; 6954,485;    0,258;   -0,773
931,925; 6926,212;   -1,924;    0,136
932,480; 6832,303;    3,076;   -2,591
933,035; 6796,394;    3,985;   -0,318
933,590; 6621,394;   -1,742;   -1,773
934,145; 6315,576;   -1,288;   -0,318
934,700; 6622,303;    0,348;   -0,591
935,255; 6470,758;    4,803;    0,045
935,809; 5982,212;    6,258;    0,864
936,364; 5285,848;    2,167;   -0,136
936,919; 5324,848;    2,348;   -1,773
937,474; 5243,848;    1,348;    0,136
938,028; 5051,485;    3,076;    1,136
938,583; 4703,030;    6,348;    4,682
939,138; 4918,667;    0,167;    2,136
939,692; 4468,212;   -1,015;   -1,136
940,247; 4267,576;    1,167;   -1,045
940,801; 3954,394;    0,621;    0,227
941,355; 3894,576;    0,439;    2,591
941,910; 3602,939;    0,712;   -2,136
942,464; 3713,030;    2,712;   -0,318
943,018; 3624,848;    3,258;   -0,227
943,572; 3576,394;    2,803;   -0,682
944,126; 3142,485;   -0,924;   -0,409
944,681; 3048,121;    0,712;    0,227
945,235; 3015,030;    2,167;   -0,591
945,789; 2968,030;    1,258;   -1,864
946,342; 3145,485;   -0,561;   -0,591
946,896; 2898,394;    0,348;    0,955
947,450; 2711,394;   -0,561;   -0,227
948,004; 2971,030;    1,076;   -0,045
948,558; 2908,121;    1,258;   -0,864
949,111; 2838,394;   -1,197;   -0,318
949,665; 2954,212;   -0,106;   -0,682
950,219; 2845,576;    0,621;   -1,045
950,772; 2878,485;    0,258;    1,864
951,326; 2802,121;   -1,106;   -0,955
951,879; 2839,030;    1,076;   -2,318
952,433; 2900,667;    1,348;    2,227
952,986; 2730,303;    0,348;    0,682
953,539; 2670,485;    1,530;    0,591
954,093; 2638,758;    0,985;   -1,318
954,646; 2765,212;   -0,288;    1,318
955,199; 2582,758;    1,258;   -0,500
955,752; 2580,758;    1,985;    1,773
956,305; 2501,758;    0,894;    2,955
956,858; 2635,485;    0,621;   -0,318
957,411; 2793,212;    3,621;    2,136
957,964; 2608,303;    2,076;    2,136
958,517; 2588,576;    0,985;    3,136
959,070; 2469,848;   -1,197;    1,955
959,623; 2638,121;    1,076;    1,500
960,176; 2448,303;    0,712;    2,045
960,728; 2413,576;    1,712;    0,773
961,281; 2445,030;    2,258;    0,500
961,834; 2448,667;   -0,833;    0,864
962,386; 2397,121;    1,258;    1,045
962,939; 2333,939;    3,439;   -0,318
963,491; 2437,212;    2,621;    1,136
964,043; 2326,303;    0,076;    2,409
964,596; 2447,394;    1,712;    2,227
965,148; 2315,303;   -0,379;    1,773
965,700; 2234,030;   -0,015;   -0,227
966,253; 2387,212;   -0,833;    0,318
966,805; 2288,303;    1,894;    0,773
967,357; 2293,758;    0,439;   -1,500
967,909; 2301,667;    1,167;   -1,227
968,461; 2323,212;    0,894;    3,136
969,013; 2250,303;   -1,561;   -0,864
969,565; 2353,394;    1,803;   -1,136
970,117; 2551,667;    3,803;    1,045
970,669; 2299,485;    3,258;   -0,136
971,220; 2135,030;    2,167;   -1,500
971,772; 2089,576;    1,348;   -0,318
972,324; 2225,121;   -1,197;   -0,500
972,876; 2152,303;    0,167;   -0,045
973,427; 2326,848;   -1,197;   -1,045
973,979; 2302,303;    0,076;   -2,500
974,530; 2249,576;    0,803;    1,318
975,082; 2275,939;    2,167;    1,682
975,633; 2192,576;    2,894;    1,682
976,184; 2331,939;    2,076;    0,773
976,736; 2193,848;    0,348;    0,227
977,287; 2039,121;    0,258;   -0,500
977,838; 2154,212;   -0,924;   -0,318
978,389; 2193,121;    0,803;   -0,500
978,940; 2061,121;    1,258;   -0,409
979,491; 2079,121;    2,258;   -0,500
980,042; 2089,939;   -0,652;    3,045
980,593; 2106,212;    1,894;    0,227
981,144; 2190,485;    3,530;   -0,500
981,695; 2210,939;   -0,470;    1,500
982,246; 2151,848;   -1,833;    1,045
982,797; 2204,576;   -0,561;    0,682
983,347; 2319,303;    2,167;    0,591
983,898; 2514,758;    4,167;    0,409
984,449; 2387,667;    2,530;    0,773
984,999; 2227,394;    1,894;   -1,136
985,550; 2086,303;    3,167;   -0,318
986,100; 2065,303;    0,712;   -0,318
986,651; 2085,212;    0,258;    0,045
987,201; 2078,121;    0,894;   -0,591
987,751; 2135,030;   -0,288;    2,864
988,302; 2149,576;   -0,379;    1,500
988,852; 2166,758;    1,985;   -1,136
989,402; 2228,576;    0,985;    0,682
989,952; 2171,576;    1,621;    0,864
990,502; 2197,667;    1,076;    0,682
991,052; 2139,939;   -0,106;    0,045
991,602; 2047,030;    1,167;    1,318
992,152; 2071,212;    2,803;    0,682
992,702; 2063,758;    1,167;   -0,045
993,252; 1993,485;    0,076;   -0,500
993,802; 2099,121;    1,167;    1,318
994,352; 2259,758;   -0,742;    1,136
994,901; 2285,758;    1,076;    3,227
995,451; 2226,121;   -1,197;    0,318
996,000; 2297,848;    1,076;    0,318
996,550; 2098,212;    2,894;    0,227
997,100; 2089,212;   -0,561;   -0,045
997,649; 2342,121;   -0,197;    0,955
998,198; 2051,030;   -0,288;   -1,500
998,748; 2243,212;    0,348;   -2,318
999,297; 2133,303;    0,985;   -0,409
999,846; 2220,030;    1,894;   -0,773
1000,395; 2228,485;    1,530;    0,500
1000,945; 2250,394;    1,076;   -0,773
1001,494; 2294,303;    0,167;    0,682
1002,043; 2274,121;    0,712;    0,864
1002,592; 2089,576;    3,439;    1,955
1003,141; 2219,485;    2,439;   -0,682
1003,690; 2144,939;    1,258;    0,500
1004,238; 2151,485;   -0,106;   -0,045
1004,787; 1861,030;   -1,288;    1,227
1005,336; 2136,121;    1,621;    0,682
1005,885; 2176,485;   -0,197;   -2,773
1006,433; 2257,121;   -0,470;    0,955
1006,982; 2413,848;    2,167;    1,682
1007,531; 2266,758;    2,712;   -0,227
1008,079; 2188,485;    0,258;    0,500
1008,627; 2301,667;    1,621;    0,409
1009,176; 2115,758;    0,076;   -1,955
1009,724; 2118,848;   -2,742;    0,864
1010,273; 2230,848;    1,076;    0,500
1010,821; 2289,030;    1,076;    1,409
1011,369; 2065,576;    0,076;    1,318
1011,917; 2053,485;   -0,833;   -0,591
1012,465; 2300,667;    2,530;   -1,591
1013,013; 2356,030;    0,439;   -1,682
1013,561; 2318,303;   -1,288;   -0,773
1014,109; 2400,303;   -0,833;    1,682
1014,657; 2251,212;    1,348;    0,591
1015,205; 2312,212;    0,894;   -0,955
1015,753; 2300,394;    0,258;   -1,409
1016,301; 2343,848;    2,621;    3,045
1016,848; 2370,576;    2,167;    0,409
1017,396; 2409,485;    1,621;    0,045
1017,944; 2491,939;    2,621;    1,864
1018,491; 2268,394;   -0,197;    1,409
1019,039; 2531,212;   -0,652;    0,591
1019,586; 2363,576;    0,076;    1,682
1020,134; 2417,939;    0,712;    1,500
1020,681; 2462,394;    2,894;   -1,136
1021,228; 2427,121;   -0,561;   -2,227
1021,776; 2307,485;   -0,833;   -1,136
1022,323; 2559,030;    0,803;    0,773
1022,870; 2477,121;   -0,470;   -0,045
1023,417; 2421,485;    2,076;    1,864
1023,964; 2466,848;    0,621;    1,227
1024,511; 2362,939;   -0,652;    0,773
1025,058; 2198,394;    0,439;   -0,045
1025,605; 2233,576;   -1,742;    3,136
1026,152; 2467,303;   -0,106;   -0,591
1026,699; 2209,485;    0,167;    1,318
1027,245; 2322,939;    2,439;    0,318
1027,792; 2469,394;    0,712;    1,409
1028,339; 2462,576;    4,076;   -0,045
1028,885; 2312,485;    3,621;   -0,227
1029,432; 2233,848;   -0,106;    0,227
1029,978; 2324,576;    1,348;   -1,591
1030,525; 2233,394;    1,621;    0,409
1031,071; 2379,212;    0,348;    1,136
1031,618; 2572,485;    1,258;    1,682
1032,164; 2346,303;    2,076;    3,045
1032,710; 2388,485;    0,076;   -1,500
1033,256; 2305,394;    0,712;   -0,136
1033,803; 2243,848;   -0,288;    1,500
1034,349; 2034,394;    1,803;    0,136
1034,895; 2167,121;    2,621;   -0,318
1035,441; 2162,030;    0,439;    0,318
1035,987; 2198,848;   -2,288;   -0,682
1036,533; 2229,576;   -0,197;   -0,955
1037,078; 2434,848;    4,712;    1,682
1037,624; 2243,758;    2,439;   -0,955
1038,170; 2212,212;    1,712;   -0,318
1038,716; 2187,667;    2,167;   -0,409
1039,261; 2074,030;    2,167;   -0,773
1039,807; 2045,212;   -0,015;    3,409
1040,352; 2123,121;   -1,288;   -0,318
1040,898; 2124,576;    0,167;   -0,682
1041,443; 2036,394;    0,803;   -2,591
1041,989; 2193,394;    3,621;    1,591
1042,534; 2008,030;    0,985;    2,591
1043,079; 2029,667;    1,985;    0,955
1043,625; 1922,121;    0,258;    0,500
1044,170; 1994,758;    2,439;    1,045
1044,715; 2247,485;    0,167;    0,955
1045,260; 2086,394;   -0,833;   -0,955
1045,805; 2079,303;    0,258;   -0,591
1046,350; 2002,121;    0,530;   -0,409
1046,895; 2050,758;    0,803;    1,591
1047,440; 2028,394;    1,530;    0,409
1047,985; 1880,848;   -1,197;   -0,955
1048,530; 1806,212;    1,348;    1,227
1049,074; 1899,394;    2,803;    0,318
1049,619; 1844,303;   -0,924;    1,955
1050,164; 1701,121;    1,076;    0,227
1050,708; 1757,758;    2,621;    0,045
1051,253; 2144,485;    3,258;   -2,227
1051,797; 1853,758;   -0,197;   -1,318
1052,342; 1790,758;    1,348;    1,045
1052,886; 1818,848;    1,803;   -1,409
1053,430; 1687,576;    2,167;    0,136
1053,975; 1727,303;    0,894;   -0,318
1054,519; 1724,667;    1,803;    3,227
1055,063; 1794,121;    3,621;    1,318
1055,607; 1693,030;    1,348;    0,227
1056,151; 1709,485;    0,530;    1,682
1056,695; 1592,303;   -1,833;   -1,136
1057,239; 1657,030;   -1,197;   -0,682
1057,783; 1682,576;    2,258;   -1,500
1058,327; 1684,576;    3,076;    1,409
1058,871; 1904,848;    3,985;    1,318
1059,415; 1633,848;   -0,561;   -0,045
1059,958; 1917,848;    2,985;    2,591
1060,502; 1624,485;    1,348;   -0,773
1061,046; 1507,667;    1,712;   -0,955
1061,589; 1471,303;    2,803;   -1,136
1062,133; 1371,758;    0,985;    1,864
1062,676; 1352,121;    1,439;    0,864
1063,220; 1383,939;    0,985;    0,500
1063,763; 1412,030;    2,985;    1,136
1064,306; 1474,576;    0,985;    1,864
1064,849; 1394,576;    2,076;    0,591
1065,393; 1406,758;    2,894;   -1,500
1065,936; 1477,030;    2,530;   -0,409
1066,479; 1347,212;    2,621;    1,318
1067,022; 1367,576;    1,894;   -0,227
1067,565; 1299,121;   -1,197;   -1,318
1068,108; 1299,030;    1,258;   -0,591
1068,651; 1262,030;   -2,470;    1,409
1069,194; 1222,939;   -1,106;   -1,682
1069,736; 1235,212;    3,803;    0,955
1070,279; 1205,485;   -1,652;   -0,500
1070,822; 1302,121;    1,530;   -0,318
1071,364; 1400,394;    0,530;    1,318
1071,907; 1208,030;    0,348;    3,227
1072,450; 1084,848;    0,258;   -0,045
1072,992; 1107,030;   -0,561;    3,136
1073,535; 1264,939;    0,167;    2,136
1074,077; 1065,667;    2,985;    2,045
1074,619; 1045,939;    0,985;    0,591
1075,161; 1086,030;   -0,561;    1,500
1075,704; 1276,576;    0,258;    1,227
1076,246; 1052,121;    1,530;    0,682
1076,788;  968,667;   -1,015;    1,773
1077,330; 1025,939;   -2,106;    2,136
1077,872; 1041,303;   -1,924;    0,955
1078,414; 1278,758;    3,712;    0,773
1078,956; 1020,667;    0,167;   -0,227
1079,498; 1273,485;    0,439;    0,318
1080,040;  993,030;    0,985;   -1,318
1080,581;  929,303;    0,621;   -0,318
1081,123;  847,848;   -0,106;   -0,773
1081,665;  896,576;    3,803;   -0,955
1082,206; 1205,030;    3,258;   -0,500
1082,748; 1065,030;    3,258;    2,045
1083,289;  922,212;    0,167;    1,318
1083,831;  866,394;    0,258;    0,227
1084,372;  916,303;    0,894;    0,591
1084,913;  916,212;    3,348;    0,864
1085,455;  864,212;    1,530;   -2,045
1085,996;  861,303;    0,530;    0,136
1086,537;  893,576;    0,985;    0,864
1087,078;  915,667;    0,439;   -2,136
1087,619;  952,394;   -1,652;    0,227
1088,160;  880,303;    1,439;    1,318
1088,701;  861,848;   -0,742;    0,682
1089,242;  812,848;   -0,561;   -2,227
1089,783;  910,303;   -0,561;    1,409
1090,324;  874,667;   -0,833;    0,682
1090,865;  751,030;   -1,924;   -0,409
1091,405;  716,121;   -0,561;    2,227
1091,946;  760,212;   -0,197;   -0,955
1092,487;  676,667;   -1,288;   -1,409
1093,027;  863,758;    1,803;   -1,500
1093,568;  723,121;    2,258;    1,227
1094,108;  813,576;    0,621;    1,773
1094,649;  758,576;   -0,470;    0,136
1095,189;  690,667;    1,167;   -0,682
1095,729;  658,576;    0,712;    0,955
1096,269;  646,848;    1,258;   -0,955
1096,810;  949,121;   -0,197;    0,500
1097,350;  792,667;   -0,561;   -0,773
1097,890;  708,667;    2,985;    1,227
1098,430;  969,121;    4,985;    2,864
1098,970;  844,758;    1,894;    1,682
1099,510;  693,030;   -0,833;   -2,318
1100,050;  642,212;    0,258;   -1,591
1100,589;  620,212;    0,076;   -0,318
1101,129;  738,939;    0,894;   -0,955
1101,669;  881,212;    2,803;    2,136
1102,209;  715,121;    1,530;    2,227
1102,748;  661,848;    3,439;    0,955
1103,288;  665,485;    0,712;   -1,227
1103,827;  687,576;    3,530;   -2,227
1104,367;  567,394;    1,712;   -2,409
1104,906;  536,848;   -1,015;   -1,136
1105,445;  622,121;    0,985;   -1,136
1105,985;  572,485;   -0,652;    1,500
1106,524;  624,667;    1,530;   -0,682
1107,063;  590,667;    1,167;    1,409
1107,602;  559,303;    1,894;   -1,500
1108,141;  498,030;    1,621;    1,500
1108,680;  599,121;    3,985;   -0,591
1109,219;  536,939;    0,167;   -0,500
1109,758;  526,758;    4,167;    0,682
1110,297;  506,303;   -1,106;   -0,682
1110,836;  462,848;    1,439;    0,955
1111,375;  602,485;    0,348;    0,409
1111,913;  617,848;    0,985;    0,773
1112,452;  560,303;    0,894;    0,136
1112,991;  452,758;    1,076;    1,955
1113,529;  420,394;    0,167;   -0,045
1114,068;  482,485;    0,439;    2,955
1114,606;  388,485;   -0,561;   -0,955
1115,144;  543,576;    1,530;    1,045
1115,683;  483,030;    1,985;    0,318
1116,221;  537,848;    2,076;   -0,864
1116,759;  448,939;    1,621;   -0,864
1117,297;  631,212;    1,621;    1,864
1117,836;  449,667;    1,985;   -1,227
1118,374;  467,030;    0,258;   -0,682
1118,912;  428,576;    0,439;    2,682
1119,450;  416,576;    0,985;    0,864
1119,988;  456,576;    3,348;    2,136
1120,525;  887,667;    7,258;    3,318
1121,063;  596,848;    0,530;    1,864
1121,601;  429,394;    1,076;   -1,227
1122,139;  378,758;    1,076;   -2,045
1122,676;  571,667;   -1,652;    2,773
1123,214;  513,303;    0,712;    4,409
1123,751;  344,121;    0,621;    2,227
1124,289;  455,667;    0,894;   -0,409
1124,826;  337,758;   -0,379;    0,227
1125,364;  270,667;    0,712;   -0,955
1125,901;  442,212;    6,258;    1,227
1126,438;  540,212;    3,530;    0,955
1126,975;  287,303;    2,985;   -0,773
1127,513;  349,758;    2,621;    2,136
1128,050;  275,667;   -0,561;   -0,682
1128,587;  371,030;    1,348;   -0,227
1129,124;  406,121;   -0,015;    1,318
1129,661;  287,758;   -1,924;    0,227
1130,198;  443,030;    2,439;    0,773
1130,734;  384,485;   -0,379;    1,409
1131,271;  252,576;   -1,197;    0,864
1131,808;  415,394;    1,621;    3,045
1132,345;  302,394;    4,530;    0,318
1132,881;  189,939;   -0,561;   -1,864
1133,418;  317,939;    0,348;   -1,136
1133,954;  255,848;    0,712;   -2,682
1134,491;  325,212;    1,712;   -0,773
1135,027;  238,030;    2,167;    0,864
1135,564;  322,576;    1,439;    2,955
1136,100;  297,667;   -0,742;    2,136
1136,636;  201,576;   -1,015;   -1,045
1137,172;  279,212;    0,894;   -1,045
1137,708;  221,121;   -1,561;   -1,045
1138,245;  224,212;    0,803;   -1,227
1138,781;  177,121;    1,803;   -3,318
1139,317;  239,758;    1,894;   -1,409
1139,852;  234,485;    3,076;    0,136
1140,388;  332,212;    2,076;   -0,409
1140,924;  238,485;    1,076;   -2,227
1141,460;  178,939;   -0,288;    0,136
1141,996;  122,848;   -0,652;    2,682
1142,531;  166,667;    1,076;    3,318
1143,067;  350,030;    1,167;    1,045
1143,602;  405,394;    3,439;   -0,318
1144,138;  260,303;    0,803;    1,045
1144,673;  148,212;    1,621;    1,409
1145,209;  205,030;    2,894;   -0,318
1145,744;  138,848;    0,803;    0,864
1146,279;  259,758;    1,530;   -0,136
1146,815;  188,667;    1,530;   -2,682
1147,350;  222,030;   -0,924;    0,045
1147,885;  142,121;   -1,924;   -1,318
1148,420;  153,758;    2,439;    0,773
1148,955;  141,848;   -1,470;    1,864
1149,490;  157,121;   -1,106;   -1,591
1150,025;  135,576;   -1,106;   -1,773
1150,560;  232,030;   -0,288;   -0,955
1151,094;  213,485;    0,258;   -0,591
1151,629;  211,667;   -3,742;    0,864
1152,164;  149,667;   -1,288;    1,318
1152,698;  115,212;    1,258;   -0,136
1153,233;   76,758;   -1,379;   -0,682
1153,767;  118,394;   -0,288;   -2,318
1154,302;  162,576;   -0,379;    1,773
1154,836;  154,121;    0,803;   -2,136
1155,371;  206,667;    2,258;    3,682
1155,905;  167,121;    1,985;    1,682
1156,439;  136,394;    0,530;   -0,500
1156,973;  161,576;    0,439;    0,318
1157,507;  109,303;   -1,742;    0,682
1158,042;  133,939;   -0,652;    1,045
1158,576;  178,485;   -0,561;    1,773
1159,110;  162,667;    0,076;    2,409
1159,643;  135,576;   -2,470;   -0,045
1160,177;   93,121;   -2,015;    1,500

