
Integration time [ms]:   0,040
Averaging Nr. [scans]: 11
Smoothing Nr. [pixels]: 0
Data measured with spectrometer [name]: 7318044SP
Wave   ;Sample   ;Dark     ;Reference
[nm]   ;[counts] ;[counts] ;[counts] 

186,757;   33,267;   38,161;    1,318
187,357;   59,770;   26,706;    0,955
187,958;   39,207;   17,252;   -1,591
188,558;   76,128;   12,979;   -1,227
189,159;   43,888;   10,070;   -4,500
189,759;   17,341;    5,797;   -3,591
190,360;   25,861;    6,797;   -2,136
190,960;   59,811;    5,706;   -4,136
191,560;   69,357;    2,614;   -6,591
192,161;  284,413;    5,885;   -3,500
192,761;  135,648;    5,520;   -3,227
193,361;   96,708;    3,065;   -3,773
193,962;  153,410;    1,612;   -2,682
194,562;   86,757;   -0,114;   -3,955
195,162;  110,259;   -0,567;   -2,227
195,762;  257,037;    2,433;   -0,045
196,362;  201,329;    1,706;   -2,500
196,963;   86,357;    1,706;   -0,864
197,563;  154,743;    1,252;   -0,955
198,163;  100,846;   -0,111;   -0,682
198,763;  125,046;   -0,020;   -0,500
199,363;  220,323;    3,616;   -0,500
199,963;  179,920;    2,162;    0,409
200,563;  156,306;    6,344;   -1,409
201,163;  130,446;    5,435;   -0,227
201,763;  218,642;    1,435;    0,318
202,363;  162,611;    0,980;    1,500
202,963;  259,956;    1,526;    1,045
203,563;  376,484;    0,344;    0,500
204,162;  228,127;    1,889;   -1,864
204,762;  215,583;    2,071;    0,591
205,362;  177,464;    0,708;    1,955
205,962;  269,558;    3,435;    1,955
206,562;  266,586;    1,889;    2,318
207,161;  236,419;    1,708;    0,318
207,761;  388,519;    4,435;    2,409
208,361;  270,630;    1,889;    1,409
208,960;  364,284;    2,889;    1,500
209,560;  418,611;    0,435;    1,591
210,160;  412,088;    5,071;    1,864
210,759;  362,595;    0,708;    1,227
211,359;  363,294;   -0,474;    1,045
211,958;  622,297;    3,526;    2,045
212,558;  700,151;    0,799;    1,864
213,157;  539,695;   -0,929;    1,500
213,757;  956,895;    5,617;   -0,227
214,356;  660,892;    1,708;   -0,409
214,956;  979,208;    3,526;    0,409
215,555;  620,244;    0,617;    2,136
216,154;  563,722;   -0,292;   -0,591
216,754;  570,491;    1,253;    0,773
217,353;  687,638;   -0,383;   -1,045
217,952;  548,959;    2,072;    0,318
218,552;  779,483;    0,254;   -0,773
219,151;  664,981;   -1,110;    0,955
219,750;  673,444;    0,890;   -0,227
220,349;  769,536;   -2,292;    1,045
220,948;  867,150;    1,163;    1,136
221,548;  834,246;    0,617;    1,227
222,147;  939,739;   -1,292;   -0,409
222,746; 1220,395;    1,254;   -0,955
223,345; 1094,108;   -1,019;    0,500
223,944; 1101,758;    1,163;    0,773
224,543; 1250,487;    4,072;   -1,409
225,142; 1354,299;    1,345;    0,136
225,741; 1263,587;    1,163;    1,045
226,340; 1280,505;    1,254;   -0,955
226,939; 1697,145;    2,708;   -0,136
227,538; 1609,219;    1,163;   -0,773
228,137; 1779,745;    0,435;    0,864
228,735; 1862,675;    0,435;    1,227
229,334; 1641,808;   -0,474;   -0,227
229,933; 2007,358;    0,799;    0,591
230,532; 2125,793;   -1,201;   -0,409
231,131; 2187,349;    1,253;    0,318
231,729; 2279,918;    1,163;   -2,318
232,328; 2370,685;    0,435;   -1,500
232,927; 2411,361;    4,526;   -0,500
233,525; 2514,043;    0,981;    0,045
234,124; 2712,952;    1,890;   -1,591
234,723; 2718,510;    1,617;   -1,045
235,321; 2847,785;    1,163;    0,136
235,920; 3037,897;    2,526;   -1,227
236,518; 3302,263;    1,072;    0,318
237,117; 3449,202;    2,890;   -0,227
237,715; 3585,491;    1,163;   -0,500
238,314; 3605,002;    1,708;   -2,318
238,912; 3738,117;    0,526;   -1,409
239,510; 3756,928;    1,162;   -1,227
240,109; 3911,008;   -0,474;    3,773
240,707; 3942,061;   -0,474;    1,227
241,305; 4259,118;   -0,383;    0,136
241,904; 4458,300;   -0,292;   -2,045
242,502; 4429,873;    3,253;   -0,227
243,100; 4352,533;    3,344;   -0,955
243,698; 4568,731;    2,799;    1,682
244,297; 4727,423;   -0,656;    0,682
244,895; 4588,555;   -0,474;   -2,318
245,493; 4903,593;    2,981;   -0,591
246,091; 4901,018;    5,163;   -1,318
246,689; 4871,494;    2,163;    0,591
247,287; 5025,219;   -0,019;   -1,136
247,885; 5294,888;   -1,019;    1,227
248,483; 5358,308;   -0,201;   -0,500
249,081; 5485,918;    0,981;    1,591
249,679; 5612,298;   -1,019;    1,682
250,277; 5856,672;   -2,292;    0,864
250,875; 5838,512;    0,617;   -1,045
251,473; 5846,204;   -0,019;    0,500
252,071; 6020,944;   -0,383;    1,045
252,669; 6153,486;   -1,565;    0,318
253,267; 6370,041;    1,618;    0,773
253,864; 6314,946;    0,617;    0,682
254,462; 6243,951;    1,526;    1,591
255,060; 6211,056;    0,072;    1,318
255,658; 6498,849;   -3,292;   -0,136
256,255; 6866,240;   -0,201;   -2,045
256,853; 6733,888;    2,345;    1,409
257,451; 6716,908;    1,981;    1,864
258,048; 7007,468;    2,072;    1,864
258,646; 6776,790;    0,436;   -1,045
259,243; 6940,615;    2,981;    2,227
259,841; 6974,987;    1,799;    0,318
260,438; 6864,207;    0,254;    0,864
261,036; 7520,698;    0,617;    1,409
261,633; 7423,807;    1,526;    2,227
262,231; 7215,754;   -0,110;   -0,045
262,828; 7298,028;   -0,383;    1,136
263,425; 7316,965;   -1,928;   -0,591
264,023; 7606,329;    1,436;    0,045
264,620; 7150,014;    1,526;   -0,318
265,217; 7451,192;    2,890;    3,136
265,815; 7552,415;    2,527;    2,136
266,412; 7365,786;    0,072;    0,136
267,009; 7390,747;    0,526;    0,773
267,606; 7308,245;    0,345;   -0,955
268,203; 7294,546;   -0,383;   -0,591
268,801; 7562,984;   -0,474;    0,591
269,398; 7852,120;   -0,564;    2,500
269,995; 7812,755;    0,890;    1,591
270,592; 7603,740;    0,799;   -0,500
271,189; 7763,780;    1,981;    0,409
271,786; 7880,058;    2,072;    1,227
272,383; 7745,838;   -0,383;    0,227
272,980; 7917,409;    1,617;    0,318
273,577; 8357,266;    2,162;    1,227
274,174; 7943,023;    1,435;    2,591
274,771; 7905,758;    1,890;   -0,773
275,367; 8078,833;    3,253;    1,409
275,964; 8025,990;   -0,565;   -0,500
276,561; 8135,968;   -2,474;   -1,045
277,158; 8299,753;    1,799;   -1,773
277,755; 8447,281;   -0,110;    0,409
278,351; 7894,175;    0,436;   -1,500
278,948; 8171,097;   -0,201;    0,045
279,545; 8134,465;    0,527;    2,318
280,141; 8758,720;    1,254;   -2,045
280,738; 8589,073;    2,435;   -0,136
281,334; 8806,575;   -0,383;    0,591
281,931; 8232,310;    2,890;   -1,318
282,528; 8343,347;    4,072;   -0,500
283,124; 9005,042;    3,345;   -0,500
283,721; 8896,485;    0,709;    1,409
284,317; 8722,699;    0,163;    2,500
284,913; 9230,601;   -0,110;    0,591
285,510; 9397,328;    2,890;   -0,318
286,106; 9408,671;    2,345;   -0,955
286,703; 9036,319;    0,072;    1,955
287,299; 9217,896;    1,254;   -0,591
287,895; 9424,401;    0,890;   -1,045
288,491; 9956,120;    0,163;    2,136
289,088; 9709,180;    0,163;    2,409
289,684; 9726,304;    2,890;    1,500
290,280; 9747,056;    1,890;    0,682
290,876; 9835,103;    0,163;    5,500
291,472; 9733,231;    2,163;    2,227
292,068; 9851,356;    1,254;    0,227
292,665; 9558,987;   -0,564;    0,773
293,261; 9218,738;   -1,292;    2,136
293,857; 9566,825;    4,072;    2,136
294,453; 9492,834;   -0,928;    0,955
295,049; 9398,132;    0,253;    1,955
295,644; 9453,154;   -1,292;    0,136
296,240; 9334,035;    0,162;   -0,136
296,836; 9374,317;   -0,747;    0,318
297,432; 9649,448;    2,980;   -0,500
298,028; 9655,222;    0,435;    0,773
298,624;10047,800;    0,889;    1,864
299,220;10247,512;    0,435;    0,591
299,815; 9905,487;    0,526;   -0,409
300,411; 9745,314;    0,435;    1,773
301,007; 9752,285;    1,889;    0,227
301,602; 9775,979;    2,071;   -2,318
302,198; 9923,496;    1,435;   -0,773
302,794;10253,188;    1,526;   -0,500
303,389;10373,125;    1,071;    1,045
303,985;10441,675;    1,253;    1,409
304,580;10420,209;    0,889;    1,591
305,176;10362,836;    0,344;    0,136
305,771;10297,851;   -0,929;   -1,227
306,367;10180,589;    3,071;    0,136
306,962;10476,979;    2,889;    1,500
307,558;10197,660;    2,435;    0,136
308,153;10133,724;   -0,383;   -1,136
308,748;10378,191;    0,162;    1,682
309,344;10336,703;    0,253;   -1,318
309,939;10434,371;    2,071;   -1,318
310,534;10701,128;   -2,020;   -1,682
311,130;10638,034;   -0,656;   -2,500
311,725;10394,593;    0,526;   -0,500
312,320;10709,187;    1,253;    0,045
312,915;10561,289;    2,890;   -1,045
313,510;10600,050;    0,526;   -0,500
314,105;11094,292;   -3,565;    1,409
314,700;10514,395;   -1,656;   -1,045
315,295;10188,300;   -0,020;    0,045
315,890; 9775,294;   -0,292;    0,864
316,485;10113,369;    0,253;   -0,318
317,080;10222,937;   -0,929;    1,591
317,675;10689,711;    3,071;   -0,682
318,270;10129,754;    6,889;    3,318
318,865;10154,321;    2,435;    3,045
319,460; 9983,956;   -1,565;    0,591
320,055;10250,033;   -2,565;   -1,227
320,650; 9917,024;   -1,838;   -0,591
321,244; 9969,200;    0,889;   -1,409
321,839;10852,332;    0,980;   -0,227
322,434;10707,732;   -0,111;   -1,591
323,029;10393,490;   -0,474;    1,591
323,623;10249,554;    0,798;    0,773
324,218;10051,729;    2,707;    1,409
324,812; 9994,622;    0,889;    1,591
325,407; 9837,774;   -0,929;    2,045
326,002; 9729,618;    0,526;   -0,409
326,596;10030,186;   -0,656;    1,318
327,191;10211,814;   -0,383;   -1,045
327,785; 9841,913;   -0,747;   -0,227
328,379;10083,928;   -0,383;    0,136
328,974; 9876,224;    1,798;   -3,955
329,568;10097,896;    2,889;   -2,409
330,163; 9934,017;    2,435;    1,045
330,757;10275,282;    0,253;    1,591
331,351; 9638,901;   -0,292;    0,682
331,945; 9905,482;   -0,383;    1,409
332,540; 9531,153;    1,617;   -0,591
333,134; 9674,580;    3,344;    0,773
333,728; 9915,039;    2,799;    0,318
334,322;10223,448;    0,889;   -0,864
334,916; 9540,780;    0,344;    0,955
335,510; 9829,876;   -0,111;   -0,136
336,105;10049,996;   -0,929;    1,591
336,699; 9775,362;   -1,292;    0,591
337,293; 9714,526;    1,071;    0,318
337,887; 9841,937;    0,071;    1,955
338,481; 9916,197;    2,980;    0,591
339,074;10080,073;    2,071;    2,682
339,668; 9904,883;   -0,110;    1,227
340,262;10129,492;    7,708;    3,227
340,856; 9653,091;    1,708;   -0,682
341,450; 9070,423;    0,708;    1,864
342,044; 9888,344;    1,799;    0,136
342,637; 9671,826;    1,162;   -2,136
343,231; 9503,409;   -1,474;    0,682
343,825; 9464,111;   -0,747;   -0,591
344,419; 9460,083;   -0,474;    0,500
345,012; 9267,932;    2,889;    4,045
345,606; 9265,490;   -0,656;    1,591
346,199; 9145,879;   -0,111;   -0,227
346,793; 8722,143;    2,525;    2,045
347,386; 8916,347;    0,889;   -1,136
347,980; 8885,965;   -0,838;   -0,045
348,573; 8707,006;   -1,748;    0,409
349,167; 8441,454;    6,161;    4,773
349,760; 8747,799;    2,252;    2,682
350,354; 8741,178;    1,616;    1,136
350,947; 8521,030;    2,798;    1,682
351,540; 8240,278;    0,616;   -1,409
352,134; 8179,822;   -1,111;    1,136
352,727; 8250,434;   -0,657;    1,136
353,320; 8070,376;    2,343;    0,591
353,913; 7915,273;   -1,929;    1,864
354,507; 8099,258;    0,434;   -1,227
355,100; 8137,294;    0,071;    0,864
355,693; 7421,257;    4,798;    2,409
356,286; 7477,389;    0,980;    2,773
356,879; 7812,938;   -0,475;    1,227
357,472; 7444,262;    0,980;    1,500
358,065; 7654,576;    3,161;    2,500
358,658; 7570,050;    0,798;    2,318
359,251; 7254,917;    0,252;   -0,591
359,844; 6803,276;    0,343;   -1,136
360,437; 6975,865;    0,252;    0,045
361,030; 7214,621;    0,525;   -0,682
361,623; 6861,942;    0,434;    0,318
362,215; 6895,208;    0,979;    2,045
362,808; 6740,354;   -2,293;   -1,682
363,401; 6919,815;    0,798;    0,136
363,994; 6721,163;    3,252;   -1,500
364,586; 6640,162;    0,888;   -1,500
365,179; 6829,020;   -0,203;   -1,136
365,772; 6362,016;   -0,930;    2,045
366,364; 6628,014;    1,524;   -3,227
366,957; 6807,257;    1,342;   -0,045
367,549; 6802,534;   -0,203;   -0,864
368,142; 6471,516;    0,978;   -1,500
368,734; 6674,867;    2,523;   -2,136
369,327; 6633,087;    2,341;   -0,500
369,919; 6575,760;   -1,659;    0,409
370,512; 6392,160;   -1,023;   -0,500
371,104; 6184,770;    2,704;    1,591
371,696; 6360,492;    1,703;   -0,955
372,289; 6410,980;    0,157;    1,136
372,881; 6525,705;    1,156;    1,318
373,473; 6443,032;    4,064;    1,136
374,066; 6263,522;    1,336;    0,500
374,658; 6146,062;    0,879;    1,136
375,250; 6460,188;   -1,668;   -1,409
375,842; 6319,016;   -0,124;   -0,045
376,434; 6208,633;   -2,762;   -0,409
377,026; 6712,611;   -1,855;   -2,500
377,618; 6635,562;    0,779;   -0,682
378,210; 6475,446;    3,141;   -1,955
378,802; 6300,597;    3,412;   -0,591
379,394; 6337,021;    3,411;    0,682
379,986; 6849,612;    1,138;   -0,955
380,578; 6932,543;    1,410;    0,773
381,170; 6339,792;    0,320;    0,045
381,762; 6273,342;   -0,224;    1,409
382,354; 6435,410;   -0,223;   -1,318
382,945; 6532,892;    0,870;    0,318
383,537; 6669,111;    1,144;   -1,955
384,129; 6683,964;    0,963;   -1,136
384,721; 6865,556;    0,418;    0,955
385,312; 6801,302;   -1,399;   -0,955
385,904; 6886,275;   -0,945;    1,591
386,496; 6296,629;    0,691;    1,045
387,087; 6427,644;    0,418;    2,500
387,679; 6504,074;   -0,401;    0,045
388,270; 6580,196;   -2,401;    2,045
388,862; 6681,245;   -0,401;   -0,318
389,453; 6556,911;    1,054;    1,045
390,045; 6821,706;    3,236;   -2,682
390,636; 6734,889;    0,144;   -0,591
391,227; 6605,262;    2,054;   -0,045
391,819; 6719,812;    0,781;    0,773
392,410; 6754,010;    0,600;    0,045
393,001; 6698,534;    1,600;   -1,591
393,593; 6959,241;    0,600;   -0,045
394,184; 6850,947;    0,873;   -0,409
394,775; 6728,312;    1,146;    2,136
395,366; 6927,504;    1,782;    0,773
395,957; 6898,536;   -2,400;    0,136
396,548; 7196,169;    1,054;    2,682
397,139; 7446,923;    2,236;    0,591
397,730; 7216,704;    0,873;    0,955
398,321; 7262,016;    0,509;    0,955
398,912; 7285,779;   -0,764;    0,136
399,503; 7374,390;   -1,945;   -1,409
400,094; 6861,803;   -1,582;    1,682
400,685; 6732,942;    3,600;    0,045
401,276; 6786,656;   -0,400;   -0,955
401,867; 7062,801;   -1,127;    0,773
402,458; 7158,584;    1,509;   -2,318
403,048; 7129,016;    0,146;    0,591
403,639; 6781,580;    1,509;    0,864
404,230; 7030,816;    0,691;    0,318
404,821; 6962,845;   -0,127;    0,045
405,411; 7087,306;   -0,763;   -2,591
406,002; 6706,816;    3,237;   -1,136
406,592; 6601,288;    2,691;    0,045
407,183; 6856,342;    0,328;   -1,500
407,774; 6761,502;    1,419;   -0,136
408,364; 7041,760;    2,600;    0,409
408,954; 6705,414;   -0,036;    1,227
409,545; 6750,840;    1,873;    1,045
410,135; 6321,795;   -1,581;    0,500
410,726; 6478,399;    0,783;    0,318
411,316; 6845,318;    2,237;    0,773
411,906; 6511,240;    0,146;   -0,409
412,497; 6073,044;   -0,490;   -0,045
413,087; 6616,776;    0,783;   -0,227
413,677; 6984,059;   -2,490;    3,864
414,267; 6813,029;   -1,035;    1,409
414,857; 6827,357;    0,419;    4,227
415,448; 7090,239;   -0,763;    0,500
416,038; 6810,521;   -2,945;   -0,591
416,628; 6756,759;    0,965;    0,409
417,218; 6309,985;   -1,762;    3,318
417,808; 6534,586;    0,965;   -0,409
418,398; 6923,043;   -1,035;    2,682
418,988; 6930,732;   -2,217;    0,591
419,578; 7146,364;    3,601;    1,409
420,168; 7451,016;    0,692;   -0,955
420,757; 7074,172;    0,964;   -1,500
421,347; 6745,359;    1,601;   -0,227
421,937; 6908,263;    3,329;    1,409
422,527; 6864,171;    2,602;   -0,773
423,116; 6725,542;    2,692;   -0,045
423,706; 7015,335;    2,965;    0,318
424,296; 6977,922;    1,601;    0,682
424,885; 7390,922;    1,510;   -3,045
425,475; 7629,060;    1,147;   -2,864
426,065; 7546,762;   -1,489;   -0,318
426,654; 7222,853;    0,329;   -0,318
427,244; 7305,363;    1,147;    1,409
427,833; 6825,329;    1,056;   -0,500
428,423; 7239,152;    0,147;    1,136
429,012; 7905,673;    2,420;   -1,136
429,601; 7444,128;    2,057;    0,136
430,191; 7668,973;    2,511;    4,318
430,780; 7313,087;   -1,671;   -0,409
431,369; 7269,835;    1,329;   -0,045
431,959; 7824,843;    1,693;    0,500
432,548; 7607,349;   -1,398;   -0,045
433,137; 7747,914;    0,329;   -1,318
433,726; 8212,013;    0,148;    0,500
434,315; 7651,527;    0,148;    2,409
434,905; 7725,615;    0,693;    1,409
435,494; 7650,606;    3,148;    0,955
436,083; 8066,520;    1,420;   -0,955
436,672; 7913,631;    1,148;    0,500
437,261; 7571,052;    0,512;   -1,955
437,850; 7683,331;   -1,125;    0,682
438,439; 7652,890;    2,239;    1,955
439,027; 7493,267;    3,421;    1,773
439,616; 7804,868;    2,239;    1,227
440,205; 7658,337;    0,057;   -2,136
440,794; 7701,762;   -0,306;   -0,045
441,383; 7933,666;    1,603;   -0,591
441,971; 7818,478;   -0,306;    0,591
442,560; 7684,085;    0,603;   -1,773
443,149; 7453,520;    3,060;   -1,318
443,737; 7605,686;    0,968;   -2,318
444,326; 7819,749;    0,331;    0,318
444,915; 7860,242;   -1,851;    0,864
445,503; 8200,747;    0,058;   -0,318
446,092; 7564,305;    7,876;    2,136
446,680; 8046,625;    1,876;    0,318
447,269; 8193,139;   -1,487;   -0,318
447,857; 7967,171;    2,240;   -1,773
448,445; 8105,138;    2,149;    1,318
449,034; 8287,378;    0,876;   -1,136
449,622; 8374,994;    1,240;    3,500
450,210; 7737,450;    3,149;    2,227
450,799; 8245,575;    2,604;   -0,591
451,387; 8172,793;    1,786;   -0,591
451,975; 7850,389;   -1,305;    0,864
452,563; 7954,836;    0,422;    2,318
453,151; 7979,042;   -1,032;   -1,227
453,739; 7899,699;   -1,577;    0,136
454,328; 7762,587;    0,604;   -2,136
454,916; 7513,545;    1,150;   -0,136
455,504; 7689,339;    3,513;    1,227
456,092; 7878,273;    2,150;   -1,591
456,679; 7806,369;    0,604;    0,682
457,267; 7782,037;    3,604;    1,045
457,855; 7884,670;    3,241;    1,409
458,443; 7662,618;   -0,304;    1,682
459,031; 7819,298;    1,332;    2,409
459,619; 8209,822;   -3,577;    2,864
460,206; 8259,746;   -0,759;    2,045
460,794; 8365,656;   -0,668;   -0,227
461,382; 8573,319;    0,878;   -0,864
461,970; 8168,727;    0,605;    1,864
462,557; 8231,156;    0,878;   -0,682
463,145; 8407,728;   -0,304;   -1,682
463,732; 8526,235;    2,514;   -1,045
464,320; 8435,751;    1,514;   -3,045
464,907; 8154,918;    0,423;   -0,773
465,495; 8020,882;    2,696;   -1,227
466,082; 8183,111;    2,060;   -0,045
466,670; 8089,481;    2,605;    1,227
467,257; 8455,542;    0,060;    2,045
467,844; 8623,830;    1,514;    0,045
468,432; 8639,769;   -0,031;    3,500
469,019; 8189,155;    1,606;   -1,773
469,606; 8635,924;    0,969;    3,682
470,193; 8476,413;    2,151;    0,227
470,780; 8068,548;    0,333;    0,864
471,368; 8376,282;   -1,212;   -0,773
471,955; 8186,563;    1,060;   -0,682
472,542; 7859,492;   -0,303;   -1,136
473,129; 8083,686;   -0,485;    0,136
473,716; 7830,265;    0,060;    0,591
474,303; 8016,950;    1,333;   -0,864
474,890; 8278,436;    2,333;   -0,500
475,477; 8280,502;   -0,576;    0,409
476,064; 8215,162;    0,697;   -1,591
476,650; 8092,711;    2,152;    0,318
477,237; 7972,438;    1,879;    0,955
477,824; 8113,244;    3,879;    0,864
478,411; 8132,237;    0,606;   -0,318
478,997; 8304,479;    0,606;   -0,773
479,584; 8362,550;   -0,666;   -0,409
480,171; 9003,076;    1,243;   -0,773
480,757; 8684,166;   -0,848;    0,773
481,344; 8931,829;    0,334;    0,409
481,931; 8445,641;   -0,393;    1,045
482,517; 9285,268;    0,425;    0,318
483,104; 9767,345;    1,334;    2,864
483,690; 9988,191;    0,243;    0,045
484,276;10288,568;    0,698;    0,227
484,863;10050,206;    2,152;    1,136
485,449;10591,006;    0,152;    0,318
486,035;10552,218;   -0,666;   -0,136
486,622;10979,297;   -2,393;    0,045
487,208;10887,706;    1,334;    1,500
487,794;10743,146;    0,971;    0,318
488,380;10887,250;    0,698;   -1,409
488,967;10963,245;   -1,120;   -0,409
489,553;11005,697;   -1,029;   -1,409
490,139;11176,995;    0,971;    0,773
490,725;10653,162;    0,789;   -0,227
491,311;10326,790;    1,516;    3,045
491,897; 9728,090;   -0,665;    1,500
492,483; 9611,581;    0,426;    1,227
493,069; 9462,346;    5,426;    0,864
493,655; 9413,060;    1,789;    0,682
494,241; 9318,142;    1,517;   -0,955
494,826; 9671,445;    0,335;   -1,045
495,412; 9153,832;    0,335;   -0,682
495,998; 9317,301;    0,971;   -0,318
496,584; 9424,326;    2,244;    1,045
497,169; 9377,525;    2,335;   -0,682
497,755; 9346,288;    1,244;    1,227
498,341; 9880,637;    2,153;    0,318
498,926; 9475,913;    2,881;    1,955
499,512; 9614,723;   -0,028;    2,955
500,097; 9685,804;   -0,574;   -0,318
500,683; 9645,603;   -0,028;    2,136
501,268;10008,584;    1,881;   -0,955
501,854; 9746,126;   -0,119;    1,227
502,439; 9700,444;   -0,573;   -1,773
503,024; 9852,570;    1,608;    0,500
503,610; 9899,748;    1,335;   -0,682
504,195; 9885,448;    1,245;    1,955
504,780; 9987,318;    2,335;    1,227
505,366; 9846,626;    4,063;    2,864
505,951; 9621,529;   -1,119;    1,045
506,536; 9638,043;    1,427;   -3,682
507,121; 9609,683;    1,699;   -0,318
507,706;10082,165;   -0,392;    1,045
508,291;10417,690;   -2,937;    1,136
508,876; 9895,462;   -0,482;    2,591
509,461; 9427,632;    1,427;   -0,773
510,046; 9805,194;   -0,391;    0,318
510,631;10020,735;   -0,119;   -0,773
511,216; 9718,416;   -0,664;   -0,500
511,801;10085,684;   -0,755;    2,591
512,386;10302,634;    0,972;    0,500
512,971;10246,861;    0,427;    0,955
513,555; 9833,966;    1,154;   -1,500
514,140;10558,751;    1,336;   -3,136
514,725;10520,234;    1,791;   -1,136
515,309;10643,270;    1,064;    0,318
515,894;10156,449;   -0,300;   -2,227
516,479;10546,329;    1,973;   -0,955
517,063;10380,883;    0,882;    1,227
517,648;10543,071;    0,155;   -1,136
518,232;10163,969;   -1,300;   -1,409
518,817;10474,540;    1,337;    1,682
519,401;10682,825;    0,700;    0,591
519,985;10207,994;    2,700;    1,136
520,570;10092,092;   -0,118;   -1,955
521,154;10368,591;    0,064;    0,591
521,738;10535,637;    1,064;    2,409
522,323;11066,445;   -0,390;    1,682
522,907;10748,040;    2,428;   -0,136
523,491;10524,250;    1,155;    0,955
524,075;10504,093;    0,428;    0,591
524,659;10617,203;    0,973;    0,591
525,243;10151,414;    0,883;    0,409
525,827;10350,504;    0,883;   -0,045
526,411;11051,294;    1,155;   -0,136
526,995;11221,423;    0,337;    1,409
527,579;10868,915;    1,974;   -1,045
528,163;11124,873;    0,428;   -1,500
528,747;11050,251;    1,065;   -0,773
529,331;11393,289;    0,883;   -1,409
529,915;11499,309;    2,338;    0,955
530,499;11457,013;    0,247;    1,227
531,082;11189,412;    1,065;    1,591
531,666;10678,075;    0,520;    0,773
532,250;11303,822;    0,428;    2,682
532,833;11600,703;    0,610;    2,773
533,417;11436,411;    1,247;    0,864
534,001;11375,124;    0,429;   -0,318
534,584;12025,159;    1,974;    0,500
535,168;11849,564;    3,247;    1,409
535,751;11902,441;    4,520;    0,045
536,334;11356,705;    4,520;   -0,409
536,918;11938,519;    1,974;    1,591
537,501;11964,587;    1,520;    1,318
538,085;11975,167;    1,702;    1,045
538,668;12102,374;    0,883;    2,409
539,251;12396,581;    3,156;    3,773
539,834;12413,120;    0,156;    0,773
540,418;12335,553;    3,247;    4,318
541,001;12437,516;    2,702;    1,773
541,584;12390,683;    1,429;    2,227
542,167;12079,128;    0,702;    2,955
542,750;12192,961;    0,793;   -0,773
543,333;11806,332;    1,429;    2,136
543,916;12522,820;   -0,298;    2,500
544,499;13015,131;    2,520;    0,227
545,082;13003,862;    0,248;    3,591
545,665;13156,146;   -0,207;    1,500
546,248;13467,605;    0,520;   -0,318
546,830;13147,596;   -1,752;    1,955
547,413;13480,088;    0,157;   -0,773
547,996;13970,608;    0,157;    0,500
548,579;13746,226;   -0,843;    0,955
549,161;13552,503;    0,884;    2,682
549,744;13344,848;    0,612;    0,409
550,326;13805,079;    0,885;   -1,136
550,909;13611,487;    2,339;    0,591
551,492;13980,569;    0,521;    0,227
552,074;13768,887;   -0,024;   -1,318
552,657;14252,752;    2,430;    0,045
553,239;14054,737;   -3,024;   -0,773
553,821;13991,432;   -1,570;    1,045
554,404;13544,204;   -0,024;    1,136
554,986;13875,133;    2,248;    1,045
555,568;14354,573;    0,430;   -0,955
556,151;13673,962;    4,067;   -0,227
556,733;13843,511;   -1,388;   -0,864
557,315;14221,745;    4,703;    0,500
557,897;14022,442;    0,521;   -0,500
558,479;14148,878;    1,703;    1,318
559,061;14261,245;    1,067;   -0,864
559,643;14561,062;   -0,297;    0,045
560,225;14848,304;   -0,388;    2,864
560,807;14906,153;    0,340;    0,318
561,389;14422,731;   -1,206;    2,318
561,971;15041,292;   -0,660;    2,136
562,553;14894,338;    0,613;    1,591
563,135;14987,606;    1,249;    1,136
563,717;14607,513;    3,158;    1,136
564,298;15236,962;    3,976;   -0,045
564,880;14957,303;    0,340;   -1,409
565,462;15066,940;    1,977;    1,318
566,043;16061,296;   -0,933;    2,318
566,625;15657,953;    4,067;    1,227
567,207;15475,937;    0,704;    1,682
567,788;16380,377;   -0,114;    1,500
568,370;17086,826;   -1,841;   -0,500
568,951;16923,479;   -0,569;    0,227
569,533;17625,894;    0,977;   -0,500
570,114;18014,402;   -0,296;    0,682
570,695;18385,306;   -0,478;   -1,318
571,277;18743,598;   -0,205;   -1,682
571,858;19343,105;    2,704;   -1,136
572,439;20128,266;    0,795;   -1,045
573,021;20211,716;    0,432;   -2,773
573,602;20610,081;    1,795;    0,318
574,183;21349,056;   -0,114;    2,227
574,764;21403,369;    2,068;    0,409
575,345;21853,773;    0,250;   -0,136
575,926;22342,937;    2,704;    0,136
576,507;22320,011;    2,704;   -0,227
577,088;23259,715;    1,704;    1,682
577,669;23237,109;    1,704;    1,955
578,250;23873,420;   -0,750;   -1,045
578,831;24367,406;   -0,841;   -2,227
579,412;24500,316;   -1,205;    0,955
579,993;25382,957;    1,432;    0,227
580,573;25666,141;   -0,023;   -0,955
581,154;24692,111;    1,613;   -0,591
581,735;25453,016;    0,341;    0,773
582,315;24998,925;    0,523;    2,136
582,896;25272,914;   -1,750;    1,227
583,477;24757,408;    0,614;    1,227
584,057;25003,661;    1,159;    0,955
584,638;25215,502;   -2,750;    2,318
585,218;25198,976;    2,886;    2,682
585,799;25365,623;    1,977;   -0,227
586,379;25424,170;    1,250;    1,591
586,959;24389,921;    2,613;    0,318
587,540;23827,036;    0,432;    2,227
588,120;23422,105;   -1,113;   -0,045
588,700;22545,250;    2,977;    2,136
589,281;22837,367;    1,250;   -0,955
589,861;22797,537;   -0,296;   -1,682
590,441;22626,870;   -1,477;   -2,682
591,021;21698,705;    1,432;   -2,591
591,601;21961,250;    0,431;    0,500
592,181;22004,812;   -1,296;   -0,773
592,761;21395,284;    2,250;    1,409
593,341;21346,191;    1,522;    0,045
593,921;21348,601;   -0,569;    1,591
594,501;21304,126;    1,250;    1,318
595,081;21093,394;    0,522;   -0,318
595,661;21436,684;    1,068;    0,955
596,240;21884,091;   -1,023;    0,136
596,820;21499,243;    2,613;    1,955
597,400;21577,407;    1,977;    0,773
597,980;21826,829;   -0,750;    1,045
598,559;21882,470;    0,341;   -0,227
599,139;21692,616;   -0,750;   -1,227
599,718;21550,525;    0,795;   -0,409
600,298;21759,493;   -2,387;    0,682
600,877;22017,856;    4,795;    1,409
601,457;22272,917;    0,340;    1,136
602,036;22187,907;    1,795;    2,045
602,616;22335,123;    2,250;    1,682
603,195;22616,393;    0,431;    3,500
603,774;22179,606;   -0,296;    2,045
604,354;22059,996;    2,522;   -0,500
604,933;21590,131;    0,250;    1,864
605,512;21730,363;    2,340;    0,591
606,091;21796,154;    1,886;    3,773
606,671;22564,418;    0,249;    0,773
607,250;21706,649;    1,431;    3,136
607,829;21876,952;    1,158;    3,227
608,408;21770,536;    4,613;    2,591
608,987;20915,281;    2,704;    3,409
609,566;21174,663;    0,341;   -2,500
610,145;21309,446;    2,885;    0,682
610,723;21744,294;    1,613;    6,864
611,302;21018,017;    1,067;    1,682
611,881;20556,030;    5,158;   11,227
612,460;21319,670;    0,795;    3,955
613,039;21692,116;    1,703;    2,045
613,617;20565,891;    0,886;    4,773
614,196;20705,785;    1,613;    1,227
614,775;21027,862;    1,249;    2,409
615,353;20944,798;   -1,660;    0,864
615,932;20735,257;    0,249;    2,409
616,510;21278,247;    0,158;    0,591
617,089;20869,352;    8,794;   17,591
617,667;20714,691;    4,885;    6,136
618,246;20547,058;   -1,115;    1,318
618,824;20660,678;    1,612;   -0,955
619,402;20223,111;    0,431;   -1,773
619,981;20686,022;    1,067;   -1,045
620,559;20609,461;    0,794;    1,682
621,137;20169,675;    3,067;    1,864
621,715;20139,523;    3,703;   -0,682
622,293;20119,491;    1,885;   -0,773
622,871;20529,927;    0,340;    0,500
623,450;20187,139;    0,430;   -0,864
624,028;20101,960;   -0,388;   -0,955
624,606;19731,216;    2,339;    1,682
625,183;20084,760;   -0,661;   -1,136
625,761;19755,236;    1,885;    1,136
626,339;20027,905;    2,339;    2,591
626,917;20361,407;    0,339;   -0,045
627,495;20457,367;    2,794;    1,318
628,073;19944,434;    5,248;    2,864
628,650;19637,268;    3,067;    2,136
629,228;20029,792;    1,248;    4,409
629,806;19492,134;   -0,024;    1,136
630,383;19755,561;    0,066;   -0,318
630,961;19570,703;   -2,206;   -0,955
631,539;19304,853;   -2,479;    0,227
632,116;18718,794;   12,703;   15,409
632,694;19255,428;    4,885;    6,500
633,271;19505,672;    1,975;    2,682
633,848;19461,467;    1,430;    2,045
634,426;19482,314;    1,521;    1,773
635,003;18679,687;   -0,207;   -0,409
635,580;18967,135;    1,884;    3,682
636,158;19450,885;    3,793;    1,227
636,735;19444,332;    3,339;   -0,500
637,312;19551,975;    0,521;   -0,682
637,889;19615,487;    2,248;   -0,682
638,466;19187,444;    0,066;   -0,409
639,043;19173,170;    1,702;   -1,136
639,620;19464,986;    0,611;   -0,955
640,197;19705,758;    1,612;    1,682
640,774;19906,478;    1,430;    1,136
641,351;20238,289;    0,612;    1,136
641,928;19730,463;    2,794;    1,409
642,505;19378,365;    0,794;   -0,500
643,082;19508,539;    1,885;    1,227
643,658;18640,713;    1,157;    1,500
644,235;19243,433;   -2,479;    2,500
644,812;19473,971;    1,794;    0,773
645,388;19229,782;    1,612;    1,409
645,965;19289,229;    1,521;    1,682
646,542;19441,949;    3,430;   -0,227
647,118;19441,305;    3,703;   -0,955
647,695;19667,388;    0,339;    1,136
648,271;19620,290;   -2,115;    0,500
648,848;19829,555;    0,248;    2,227
649,424;19703,820;    0,976;    1,318
650,000;19462,449;   -0,388;   -1,045
650,577;19295,351;    0,158;   -0,955
651,153;19709,980;   -1,115;    0,955
651,729;20478,245;    0,521;    0,864
652,305;20583,328;    1,339;    2,773
652,881;23971,412;   -1,297;    1,136
653,458;29327,768;    0,249;    0,227
654,034;32400,579;    0,703;    1,591
654,610;33546,117;    0,339;    0,773
655,186;34694,836;    1,612;    3,045
655,762;34409,829;   -1,842;    0,409
656,338;34443,458;    0,703;    0,136
656,913;35389,632;   -0,297;    0,409
657,489;34767,352;    0,249;   -0,318
658,065;34677,708;    0,794;   -1,591
658,641;35249,337;    2,158;   -0,864
659,217;34648,148;    2,067;    0,409
659,792;34198,504;   -1,751;   -0,409
660,368;34502,496;   -0,388;   -0,682
660,944;34397,307;    1,794;    1,227
661,519;30789,299;    0,522;    0,409
662,095;25992,565;   -0,206;    0,591
662,670;22202,103;   -0,206;   -0,136
663,246;21302,732;   -0,660;   -0,409
663,821;20723,360;    0,431;    1,682
664,396;20203,535;    0,613;    1,864
664,972;20447,618;   -0,660;   -0,500
665,547;20752,702;    3,794;    0,136
666,122;20781,331;    1,340;    0,318
666,698;20991,414;    2,431;    0,318
667,273;20353,406;    0,885;    0,136
667,848;21102,490;    0,340;    1,500
668,423;20862,937;    1,795;    2,318
668,998;21353,566;    0,976;   -0,682
669,573;21821,467;    2,067;   -1,500
670,148;21660,005;    1,885;   -0,682
670,723;21403,634;   -0,024;    0,318
671,298;21773,627;   -1,296;    1,045
671,873;21848,801;   -0,296;   -0,136
672,448;21858,521;    1,704;    0,136
673,023;22121,150;    0,249;   -0,227
673,597;22418,960;    2,704;    2,318
674,172;22180,498;    2,431;    0,318
674,747;21733,764;   -0,205;   -1,045
675,321;21572,483;   -0,933;    3,318
675,896;21180,567;    2,158;    1,045
676,471;22057,378;    2,522;    1,591
677,045;21826,188;   -0,296;    0,682
677,620;21832,908;    2,158;    1,136
678,194;22157,355;    0,249;    1,136
678,769;21790,802;    0,886;   -0,318
679,343;22003,340;   -0,023;    1,773
679,917;21842,787;    0,340;    1,955
680,492;21878,143;    0,249;    3,227
681,066;22008,045;    0,613;    0,409
681,640;22020,765;    1,795;   -0,318
682,214;22744,848;    2,340;    0,500
682,788;22309,386;    0,613;   -0,773
683,363;22247,288;    1,977;    1,682
683,937;22001,644;    0,886;   -0,318
684,511;22684,636;   -1,023;   -0,591
685,085;22372,720;   -1,478;    0,318
685,659;22167,258;    1,431;    0,864
686,232;22422,250;    1,159;   -0,318
686,806;22183,425;    2,159;    0,409
687,380;22739,417;   -1,932;    0,591
687,954;22923,864;    2,432;    1,136
688,528;22591,220;    2,613;    1,955
689,101;23328,304;    0,432;    1,045
689,675;22936,660;    0,886;   -0,136
690,249;22352,834;    3,432;    0,409
690,822;22700,554;    1,159;    0,318
691,396;22789,456;    2,068;    1,227
691,969;22321,539;    2,523;    0,136
692,543;22745,168;   -0,568;   -1,955
693,116;22398,251;   -0,659;   -1,409
693,690;22253,880;   -0,296;    0,500
694,263;22742,600;    2,341;    2,955
694,836;22758,411;    2,795;    3,591
695,410;21565,221;    1,159;    1,773
695,983;22005,123;    1,614;    0,591
696,556;21966,843;   -0,750;   -1,045
697,129;22329,926;   -1,114;    1,409
697,703;21975,555;    1,341;    1,955
698,276;21983,184;    1,705;   -0,773
698,849;21853,995;   -1,023;    1,409
699,422;22133,533;    1,250;    0,591
699,995;21909,525;   -0,659;    0,136
700,568;22315,063;   -0,204;    3,045
701,140;22349,874;   -1,841;    1,682
701,713;22100,775;    0,341;    2,409
702,286;21869,495;    0,796;    0,864
702,859;21757,760;    0,614;   -0,591
703,432;21080,117;   -0,841;    0,682
704,004;21475,745;    1,978;    0,318
704,577;21347,192;    1,068;    0,136
705,150;21866,912;    0,887;    2,500
705,722;21656,541;    1,523;   -3,227
706,295;21506,170;    1,432;   -0,591
706,867;21380,435;    0,250;    1,955
707,440;21626,701;   -0,113;   -0,409
708,012;21852,875;   -0,022;    0,591
708,584;21705,413;    2,705;    0,227
709,157;21962,133;    1,160;   -0,591
709,729;21656,580;    1,069;    2,045
710,301;22473,754;   -1,204;    0,045
710,874;22482,837;    0,341;   -0,227
711,446;21422,012;   -0,295;    0,864
712,018;21318,004;   -3,022;    0,500
712,590;21057,269;   -0,204;    1,682
713,162;21535,898;   -0,477;    1,318
713,734;21744,891;    1,796;   -2,045
714,306;21664,520;    0,342;   -0,409
714,878;20477,330;   -0,295;    0,864
715,450;21263,868;   -0,113;    0,864
716,022;21528,406;    2,433;    1,318
716,593;21686,399;    0,978;    0,591
717,165;21591,119;    1,796;   -1,227
717,737;21358,384;    0,796;    0,409
718,309;21042,649;    1,160;   -0,045
718,880;21030,278;   -1,295;   -1,409
719,452;21287,271;    0,887;   -1,591
720,024;20933,627;    1,705;   -0,591
720,595;21375,619;    2,978;    0,955
721,167;20960,066;    1,160;   -2,045
721,738;20497,604;    2,069;   -1,045
722,309;20581,960;    1,251;   -1,227
722,881;20349,407;    2,705;    0,773
723,452;20895,400;    1,251;    2,864
724,023;21088,847;    1,524;    2,682
724,595;20892,749;    2,342;    0,682
725,166;20626,468;    1,524;   -0,409
725,737;20268,097;    1,887;    0,227
726,308;20393,999;    0,797;    0,318
726,879;20757,173;    1,069;    1,227
727,450;20653,257;   -2,022;   -0,045
728,021;20580,976;    1,069;    0,682
728,592;20466,514;    1,160;    0,500
729,163;20755,598;    1,433;   -0,136
729,734;20784,681;    2,160;   -0,227
730,305;21070,856;    0,615;    0,136
730,876;21378,484;    0,888;    2,955
731,447;21085,841;    0,797;    2,682
732,017;21190,560;   -0,840;    1,864
732,588;20719,917;   -0,021;    1,227
733,159;20885,000;    3,615;   -1,045
733,729;20736,538;    1,251;    0,409
734,300;20068,894;    0,160;    0,864
734,870;20491,887;   -1,385;    0,591
735,441;20962,697;    0,888;   -0,591
736,011;20732,326;    1,070;   -1,591
736,582;20713,682;    1,251;    0,045
737,152;20202,766;    0,979;   -2,045
737,722;20643,667;    1,070;   -0,682
738,293;20362,387;   -2,021;    1,318
738,863;20243,925;    1,797;    2,318
739,433;20102,554;    4,524;    0,318
740,003;20694,001;    1,524;   -0,682
740,573;20122,539;    2,252;   -1,591
741,143;20158,259;    3,615;    0,318
741,713;20824,524;    0,252;   -0,500
742,283;20600,516;    1,706;    1,591
742,853;20428,782;    0,524;    1,591
743,423;19940,956;    0,161;    0,045
743,993;20009,039;    1,070;    1,500
744,563;19411,396;    2,524;   -0,864
745,133;19381,115;   -0,112;   -0,864
745,702;20011,562;    2,797;    1,773
746,272;19298,555;    0,434;    0,591
746,842;19122,820;   -0,748;   -0,591
747,411;19522,358;   -0,839;   -0,318
747,981;19627,533;   -0,930;    0,500
748,551;19708,616;   -0,021;   -1,045
749,120;19588,790;   -0,112;   -0,227
749,690;19948,237;    2,161;    2,409
750,259;20203,139;    0,979;    2,955
750,828;20118,041;    4,070;   -1,955
751,398;20343,124;   -0,112;   -0,045
751,967;19915,480;    2,888;    0,409
752,536;20116,018;    1,161;   -0,227
753,105;20527,465;   -1,384;    0,227
753,675;20279,549;   -0,112;    1,773
754,244;20195,359;    0,888;    3,591
754,813;20220,988;    0,979;    1,227
755,382;19834,162;    0,798;    0,955
755,951;20274,064;   -0,112;    3,682
756,520;19923,420;    2,525;    1,864
757,089;20391,776;    1,888;    0,500
757,658;20505,042;    2,434;    1,227
758,227;20533,034;   -1,111;    0,318
758,795;20779,754;   -1,021;    1,136
759,364;21017,383;    0,525;   -0,591
759,933;20122,375;    1,343;   -0,045
760,501;19745,459;    0,252;   -1,318
761,070;20170,906;   -0,293;   -1,409
761,639;20815,626;    1,434;    1,318
762,207;20167,164;    0,889;   -0,955
762,776;20059,792;    2,889;    0,864
763,344;20054,330;    0,071;    0,591
763,913;19211,050;    1,616;    1,409
764,481;19937,588;    1,980;   -0,136
765,049;19804,217;    0,616;    1,409
765,618;19713,664;    1,434;    0,318
766,186;19779,202;    2,434;    0,136
766,754;19993,467;    1,798;    1,864
767,322;19067,551;    1,162;    0,409
767,890;19004,543;    0,525;   -1,773
768,459;19421,081;    2,616;   -0,318
769,027;19559,892;    2,525;    3,409
769,595;18675,612;    2,616;    2,591
770,163;19087,695;    3,344;    2,955
770,730;18879,869;    2,525;   -0,136
771,298;18736,226;    1,162;   -1,409
771,866;18832,854;    0,253;    4,955
772,434;19101,483;    1,162;   -1,864
773,002;19292,930;    2,616;    0,682
773,569;19033,377;    1,071;    1,682
774,137;18836,279;    0,889;   -0,045
774,705;19543,908;   -0,747;   -0,136
775,272;19091,810;    0,253;    0,682
775,840;18904,984;   -0,111;    2,682
776,407;18454,158;   -0,293;    1,955
776,975;18117,696;    1,162;    0,318
777,542;19077,870;    2,162;   -0,045
778,110;18929,318;    0,707;   -0,045
778,677;18642,037;    1,071;   -0,864
779,244;18409,393;   -1,020;    1,045
779,812;18496,477;    0,980;    0,864
780,379;18402,288;    2,435;    1,136
780,946;18620,916;    2,617;   -0,773
781,513;18869,636;   -0,565;    0,318
782,080;18278,720;    1,253;    2,864
782,647;18933,985;    1,708;    3,045
783,214;18592,705;   -0,201;    3,864
783,781;18243,697;    1,708;   -0,682
784,348;18150,690;    0,253;    1,500
784,915;18544,773;   -1,474;    0,318
785,482;18314,766;    2,708;    2,591
786,049;18756,485;    1,071;   -0,591
786,615;18878,387;    1,708;   -0,955
787,182;18566,289;   -3,201;   -0,682
787,749;18338,827;   -2,201;    1,409
788,315;17747,910;    0,253;   -0,409
788,882;17978,084;    0,981;   -1,227
789,448;18630,713;    1,435;   -0,955
790,015;18642,978;    1,799;    3,227
790,581;18300,244;    0,708;    0,227
791,148;18146,054;    1,344;    1,045
791,714;18357,411;   -1,019;    3,136
792,280;18098,494;    3,708;    1,591
792,847;17752,941;   -0,928;    2,500
793,413;18205,479;   -0,110;   -0,318
793,979;17801,199;    1,526;   -1,318
794,545;17875,009;    2,981;    2,682
795,111;17406,638;    2,435;    1,318
795,678;17510,358;    3,526;   -1,682
796,244;17195,532;    2,799;    0,136
796,810;17706,434;    0,799;    0,773
797,375;17497,790;   -0,292;   -2,136
797,941;17519,419;   -1,110;    0,591
798,507;17600,957;    0,254;   -0,955
799,073;17211,222;    2,708;    0,591
799,639;17280,851;    1,435;    3,136
800,205;17320,480;   -1,565;    2,682
800,770;16928,473;    1,345;    1,773
801,336;16963,101;    2,981;   -0,955
801,901;16736,276;    6,072;    3,136
802,467;17268,086;    0,526;    2,045
803,033;16669,079;   -0,019;    0,864
803,598;16844,526;    1,072;   -1,045
804,163;16932,246;    0,708;   -0,318
804,729;16834,784;   -0,110;    1,136
805,294;17159,685;    1,072;    2,227
805,859;16992,405;    0,890;   -0,409
806,425;16590,489;    3,890;    2,682
806,990;16261,027;    1,890;    4,318
807,555;16682,565;   -0,110;    2,591
808,120;16632,375;   -1,292;   -0,409
808,685;16669,459;    1,072;   -2,500
809,250;16229,178;    2,072;   -0,500
809,815;16502,535;   -0,201;    0,682
810,380;16938,891;    0,981;    1,591
810,945;17415,338;    2,890;    2,045
811,510;16696,148;   -0,200;    1,591
812,075;16424,868;    2,800;   -1,409
812,640;16449,134;    3,709;    1,409
813,204;16539,944;    2,163;   -0,227
813,769;16996,664;    0,254;   -0,045
814,334;16487,838;    0,527;    0,864
814,898;16577,376;    1,981;    0,591
815,463;16380,732;    0,981;   -0,773
816,027;16364,543;    1,345;   -2,318
816,592;16490,627;    2,163;   -2,045
817,156;16048,619;   -2,200;    1,136
817,721;15902,884;    0,982;    2,318
818,285;15891,877;    0,618;    1,500
818,849;16492,960;   -0,018;    1,682
819,414;16379,044;    0,073;    2,955
819,978;16001,309;   -0,291;    1,773
820,542;16545,211;    2,891;    0,500
821,106;16311,385;    2,800;    0,682
821,670;16389,650;    2,709;    2,591
822,234;16161,643;    1,073;    1,409
822,798;15635,362;   -0,836;    0,500
823,362;15622,719;    1,527;    4,227
823,926;15052,529;   -0,018;    1,136
824,490;15230,158;    3,527;   -0,682
825,054;15632,423;    2,527;   -1,136
825,618;15359,052;   -1,200;   -1,500
826,181;15321,863;    0,982;   -1,318
826,745;15227,219;   -0,745;   -1,045
827,309;15518,848;    2,255;    1,318
827,872;15032,840;    0,527;    0,955
828,436;15866,197;    1,982;   -0,773
828,999;15979,280;    2,436;    1,227
829,563;14959,363;   -0,654;    1,136
830,126;14797,447;   -0,018;   -0,591
830,690;14804,258;    0,709;    2,864
831,253;14349,886;   -0,473;    2,227
831,816;14493,424;   -0,018;    0,500
832,380;14496,508;    1,164;    0,864
832,943;14687,046;    3,073;   -0,500
833,506;14223,947;    0,255;   -1,227
834,069;14937,758;    2,164;   -0,955
834,632;15030,660;   -2,200;    1,318
835,195;14913,470;    1,346;    0,955
835,758;14215,099;    0,709;    1,955
836,321;14073,455;    1,073;   -1,045
836,884;14159,357;   -1,291;   -0,955
837,447;14195,804;    0,528;    1,773
838,010;14467,797;    1,800;    3,227
838,573;14698,971;    0,528;    0,773
839,135;14720,509;   -0,109;   -0,955
839,698;14223,410;    2,528;    0,409
840,261;13791,948;    0,255;   -0,227
840,823;13697,214;   -0,927;    0,864
841,386;13943,115;   -0,018;   -2,409
841,948;13838,653;    0,255;    1,773
842,511;13604,009;    0,255;    1,682
843,073;13729,638;    2,982;    0,227
843,636;13554,631;    0,619;   -0,227
844,198;13487,078;    1,255;    0,591
844,760;13648,070;    0,619;    1,955
845,322;13289,336;    0,164;    1,136
845,885;13630,601;   -0,290;    0,591
846,447;14059,230;    0,710;    0,227
847,009;13753,404;    3,983;   -0,682
847,571;13976,033;    1,346;   -2,045
848,133;14052,025;   -0,199;   -1,864
848,695;13913,563;    2,346;    1,409
849,257;13520,738;    1,346;   -1,682
849,819;13680,548;    2,983;   -0,409
850,381;13699,450;    1,801;   -0,864
850,942;13992,806;    1,892;   -0,591
851,504;13933,435;    0,983;    0,227
852,066;13961,791;    1,619;   -1,591
852,628;13622,420;    0,165;    1,955
853,189;13190,140;    0,256;    2,682
853,751;13316,860;   -0,654;    1,409
854,312;13106,579;    1,256;   -1,682
854,874;13555,754;   -0,108;   -0,773
855,435;14008,201;    0,528;   -1,682
855,997;14157,102;    3,983;   -0,136
856,558;13506,731;    0,801;    1,773
857,119;13606,269;   -0,744;    2,864
857,681;13355,716;   -0,108;    0,318
858,242;13388,254;    1,347;   -2,136
858,803;13751,701;    1,074;   -0,773
859,364;14295,239;    0,892;   -4,773
859,925;13728,323;   -0,290;   -0,955
860,486;13622,679;    0,529;   -0,955
861,047;13354,035;    0,165;   -1,227
861,608;13189,391;    0,165;   -0,773
862,169;13362,656;   -0,562;   -0,045
862,730;13159,467;   -0,290;    1,409
863,291;13411,823;    0,438;   -0,500
863,852;13652,179;   -0,926;    1,955
864,412;13210,354;   -1,835;   -0,864
864,973;11983,255;    1,892;    0,500
865,534;11876,702;    2,074;    0,227
866,094;13165,240;    2,620;    0,227
866,655;12891,506;    4,711;    3,318
867,215;13143,589;    0,074;    0,136
867,776;12983,672;   -1,199;   -0,136
868,336;13083,574;    1,529;    0,136
868,897;12672,658;    3,438;    1,682
869,457;12471,468;    3,256;    0,318
870,017;12726,552;    2,438;   -1,227
870,578;13155,362;    1,893;    0,773
871,138;12790,355;    2,620;   -0,955
871,698;12387,620;   -0,562;   -1,318
872,258;12292,431;    0,711;   -2,864
872,818;12634,605;    2,347;    0,045
873,378;12579,870;   -2,198;    1,045
873,938;12217,954;    4,984;    0,500
874,498;12489,583;    1,256;   -1,955
875,058;12427,666;    4,347;    1,773
875,618;12287,840;    1,438;   -2,682
876,177;12241,287;   -0,471;    0,136
876,737;11886,098;   -0,289;    1,955
877,297;11919,363;    2,711;    1,955
877,856;11953,992;    2,529;    0,318
878,416;11918,348;    2,438;   -0,136
878,976;12095,250;    3,438;    0,409
879,535;12286,515;    4,529;    3,136
880,095;12099,871;    1,347;    0,045
880,654;12145,409;    0,347;    1,318
881,213;12244,584;    2,347;    1,500
881,773;11937,758;    1,984;    2,682
882,332;12248,660;    6,075;    5,136
882,891;12141,107;    0,711;    2,136
883,451;12486,736;   -2,016;    1,682
884,010;11960,546;   -1,107;   -0,409
884,569;12046,448;   -2,289;   -0,045
885,128;12177,986;   -0,743;   -1,864
885,687;12270,615;   -0,743;    0,682
886,246;12020,062;    2,620;    2,136
886,805;11785,600;    1,620;    2,045
887,364;12000,865;    1,166;   -0,500
887,922;12335,221;   -0,016;    0,045
888,481;11860,486;    1,530;    0,591
889,040;12154,570;    3,711;    2,136
889,599;12683,835;    2,166;    1,409
890,157;12752,373;    2,166;    2,409
890,716;12409,820;    2,166;    0,227
891,274;12229,813;    0,075;   -1,136
891,833;12610,896;    1,166;    0,864
892,391;12482,343;    1,802;    0,500
892,950;12554,245;    0,166;   -0,773
893,508;12877,055;    0,984;   -0,409
894,067;12271,684;   -0,379;    0,136
894,625;12191,404;   -1,016;   -1,500
895,183;12390,215;   -0,198;   -0,682
895,741;12354,207;    2,257;   -1,773
896,299;12215,927;    1,621;   -2,409
896,858;12363,738;    1,530;   -1,591
897,416;12492,912;    0,166;   -1,318
897,974;12268,814;   -2,197;    0,318
898,532;12435,261;    6,530;    2,682
899,089;12362,435;    0,621;   -0,682
899,647;12369,700;    0,530;    1,318
900,205;12201,511;    0,257;    1,045
900,763;12380,140;    2,166;    0,227
901,321;12394,678;    3,530;   -1,409
901,878;11860,307;    3,257;   -0,773
902,436;11789,208;    0,257;    1,318
902,994;12180,474;    6,712;    3,682
903,551;11677,284;    1,439;    0,409
904,109;12042,368;    1,530;   -1,409
904,666;11688,906;    1,439;    1,045
905,224;11576,262;    3,894;   -0,409
905,781;11352,254;   -0,470;   -0,318
906,338;11396,792;    0,167;    1,045
906,895;11377,148;    1,894;    2,045
907,453;11331,050;    2,348;    1,136
908,010;11333,861;    3,348;    0,409
908,567;11039,671;   -0,561;    0,591
909,124;10600,664;    2,439;   -1,500
909,681;10686,747;   -1,288;    0,682
910,238;10871,194;   -0,106;   -1,318
910,795;11174,551;   -1,561;   -1,136
911,352;10862,096;   -0,379;   -2,682
911,909;10362,641;    2,803;   -0,864
912,466;10806,369;    1,985;    1,500
913,022;10403,278;   -0,924;    0,500
913,579;10714,460;   -0,470;    2,045
914,136;10478,278;   -2,561;    0,955
914,692;10781,732;    1,530;   -1,227
915,249;10377,732;    0,530;    0,409
915,806;10569,823;    1,803;    1,955
916,362;10455,096;    0,894;    1,864
916,918;10061,369;    2,439;    1,045
917,475;10042,914;    1,621;    0,955
918,031;10115,096;    0,076;   -0,045
918,587; 9685,005;    0,621;   -0,318
919,144; 9927,096;   -0,379;    0,227
919,700;10138,278;    0,167;    0,773
920,256; 9781,005;    0,439;    0,045
920,812; 9505,460;    1,439;   -1,045
921,368; 9529,641;    1,348;   -1,045
921,924; 9243,005;    0,439;   -0,136
922,480; 8865,641;    0,076;    1,227
923,036; 9433,732;   -0,652;    1,955
923,592; 9405,460;    0,621;    0,318
924,148; 9363,005;    1,894;   -0,955
924,704; 8799,551;    0,258;   -0,409
925,259; 9078,551;   -0,561;    0,591
925,815; 8859,641;    3,803;    0,500
926,371; 8474,278;    3,530;    1,409
926,926; 8381,551;    1,621;    0,591
927,482; 8110,460;    1,621;    0,773
928,037; 8008,551;   -0,833;    2,045
928,593; 8319,187;    0,258;    1,045
929,148; 8143,551;    1,167;   -1,500
929,704; 7744,187;    2,439;   -0,500
930,259; 7934,823;    0,894;   -0,136
930,814; 7156,005;    1,803;    1,955
931,369; 6957,551;    0,258;   -0,773
931,925; 6885,187;   -1,924;    0,136
932,480; 6803,278;    3,076;   -2,591
933,035; 6761,551;    3,985;   -0,318
933,590; 6615,096;   -1,742;   -1,773
934,145; 6347,823;   -1,288;   -0,318
934,700; 6621,096;    0,348;   -0,591
935,255; 6494,732;    4,803;    0,045
935,809; 5978,005;    6,258;    0,864
936,364; 5267,278;    2,167;   -0,136
936,919; 5323,096;    2,348;   -1,773
937,474; 5248,641;    1,348;    0,136
938,028; 5048,278;    3,076;    1,136
938,583; 4709,914;    6,348;    4,682
939,138; 4940,005;    0,167;    2,136
939,692; 4484,914;   -1,015;   -1,136
940,247; 4248,005;    1,167;   -1,045
940,801; 3966,005;    0,621;    0,227
941,355; 3896,823;    0,439;    2,591
941,910; 3609,460;    0,712;   -2,136
942,464; 3722,369;    2,712;   -0,318
943,018; 3620,551;    3,258;   -0,227
943,572; 3545,096;    2,803;   -0,682
944,126; 3124,005;   -0,924;   -0,409
944,681; 3037,460;    0,712;    0,227
945,235; 3024,551;    2,167;   -0,591
945,789; 2953,278;    1,258;   -1,864
946,342; 3124,914;   -0,561;   -0,591
946,896; 2902,732;    0,348;    0,955
947,450; 2696,641;   -0,561;   -0,227
948,004; 2951,278;    1,076;   -0,045
948,558; 2896,096;    1,258;   -0,864
949,111; 2825,187;   -1,197;   -0,318
949,665; 2953,460;   -0,106;   -0,682
950,219; 2834,551;    0,621;   -1,045
950,772; 2847,460;    0,258;    1,864
951,326; 2799,460;   -1,106;   -0,955
951,879; 2840,369;    1,076;   -2,318
952,433; 2898,823;    1,348;    2,227
952,986; 2728,551;    0,348;    0,682
953,539; 2668,641;    1,530;    0,591
954,093; 2638,005;    0,985;   -1,318
954,646; 2763,551;   -0,288;    1,318
955,199; 2579,641;    1,258;   -0,500
955,752; 2565,551;    1,985;    1,773
956,305; 2494,641;    0,894;    2,955
956,858; 2641,732;    0,621;   -0,318
957,411; 2785,914;    3,621;    2,136
957,964; 2600,732;    2,076;    2,136
958,517; 2593,551;    0,985;    3,136
959,070; 2484,641;   -1,197;    1,955
959,623; 2628,096;    1,076;    1,500
960,176; 2435,551;    0,712;    2,045
960,728; 2420,914;    1,712;    0,773
961,281; 2450,369;    2,258;    0,500
961,834; 2459,460;   -0,833;    0,864
962,386; 2390,460;    1,258;    1,045
962,939; 2312,096;    3,439;   -0,318
963,491; 2447,914;    2,621;    1,136
964,043; 2336,278;    0,076;    2,409
964,596; 2474,187;    1,712;    2,227
965,148; 2312,914;   -0,379;    1,773
965,700; 2257,278;   -0,015;   -0,227
966,253; 2392,096;   -0,833;    0,318
966,805; 2287,732;    1,894;    0,773
967,357; 2276,914;    0,439;   -1,500
967,909; 2290,369;    1,167;   -1,227
968,461; 2318,278;    0,894;    3,136
969,013; 2259,460;   -1,561;   -0,864
969,565; 2350,187;    1,803;   -1,136
970,117; 2542,641;    3,803;    1,045
970,669; 2300,732;    3,258;   -0,136
971,220; 2140,005;    2,167;   -1,500
971,772; 2099,005;    1,348;   -0,318
972,324; 2221,460;   -1,197;   -0,500
972,876; 2146,187;    0,167;   -0,045
973,427; 2301,641;   -1,197;   -1,045
973,979; 2296,096;    0,076;   -2,500
974,530; 2246,187;    0,803;    1,318
975,082; 2272,187;    2,167;    1,682
975,633; 2201,823;    2,894;    1,682
976,184; 2326,914;    2,076;    0,773
976,736; 2186,096;    0,348;    0,227
977,287; 2045,460;    0,258;   -0,500
977,838; 2168,460;   -0,924;   -0,318
978,389; 2206,005;    0,803;   -0,500
978,940; 2068,187;    1,258;   -0,409
979,491; 2083,823;    2,258;   -0,500
980,042; 2096,732;   -0,652;    3,045
980,593; 2115,278;    1,894;    0,227
981,144; 2199,005;    3,530;   -0,500
981,695; 2202,551;   -0,470;    1,500
982,246; 2153,641;   -1,833;    1,045
982,797; 2205,732;   -0,561;    0,682
983,347; 2324,551;    2,167;    0,591
983,898; 2518,187;    4,167;    0,409
984,449; 2409,460;    2,530;    0,773
984,999; 2234,460;    1,894;   -1,136
985,550; 2084,551;    3,167;   -0,318
986,100; 2044,005;    0,712;   -0,318
986,651; 2062,460;    0,258;    0,045
987,201; 2074,823;    0,894;   -0,591
987,751; 2145,732;   -0,288;    2,864
988,302; 2150,914;   -0,379;    1,500
988,852; 2148,732;    1,985;   -1,136
989,402; 2232,641;    0,985;    0,682
989,952; 2191,369;    1,621;    0,864
990,502; 2198,278;    1,076;    0,682
991,052; 2123,914;   -0,106;    0,045
991,602; 2042,823;    1,167;    1,318
992,152; 2071,914;    2,803;    0,682
992,702; 2062,732;    1,167;   -0,045
993,252; 1986,096;    0,076;   -0,500
993,802; 2107,732;    1,167;    1,318
994,352; 2247,732;   -0,742;    1,136
994,901; 2276,005;    1,076;    3,227
995,451; 2217,551;   -1,197;    0,318
996,000; 2303,187;    1,076;    0,318
996,550; 2088,460;    2,894;    0,227
997,100; 2102,187;   -0,561;   -0,045
997,649; 2351,641;   -0,197;    0,955
998,198; 2059,096;   -0,288;   -1,500
998,748; 2243,005;    0,348;   -2,318
999,297; 2119,096;    0,985;   -0,409
999,846; 2226,187;    1,894;   -0,773
1000,395; 2210,096;    1,530;    0,500
1000,945; 2251,005;    1,076;   -0,773
1001,494; 2298,732;    0,167;    0,682
1002,043; 2263,369;    0,712;    0,864
1002,592; 2088,005;    3,439;    1,955
1003,141; 2209,732;    2,439;   -0,682
1003,690; 2143,187;    1,258;    0,500
1004,238; 2144,278;   -0,106;   -0,045
1004,787; 1866,187;   -1,288;    1,227
1005,336; 2148,187;    1,621;    0,682
1005,885; 2197,005;   -0,197;   -2,773
1006,433; 2254,096;   -0,470;    0,955
1006,982; 2412,551;    2,167;    1,682
1007,531; 2276,732;    2,712;   -0,227
1008,079; 2212,460;    0,258;    0,500
1008,627; 2294,460;    1,621;    0,409
1009,176; 2113,460;    0,076;   -1,955
1009,724; 2120,187;   -2,742;    0,864
1010,273; 2240,096;    1,076;    0,500
1010,821; 2285,278;    1,076;    1,409
1011,369; 2060,369;    0,076;    1,318
1011,917; 2052,914;   -0,833;   -0,591
1012,465; 2300,187;    2,530;   -1,591
1013,013; 2357,732;    0,439;   -1,682
1013,561; 2316,914;   -1,288;   -0,773
1014,109; 2403,005;   -0,833;    1,682
1014,657; 2263,732;    1,348;    0,591
1015,205; 2292,732;    0,894;   -0,955
1015,753; 2291,551;    0,258;   -1,409
1016,301; 2339,732;    2,621;    3,045
1016,848; 2360,460;    2,167;    0,409
1017,396; 2418,096;    1,621;    0,045
1017,944; 2501,005;    2,621;    1,864
1018,491; 2284,369;   -0,197;    1,409
1019,039; 2545,187;   -0,652;    0,591
1019,586; 2370,551;    0,076;    1,682
1020,134; 2420,914;    0,712;    1,500
1020,681; 2454,551;    2,894;   -1,136
1021,228; 2426,369;   -0,561;   -2,227
1021,776; 2287,005;   -0,833;   -1,136
1022,323; 2545,823;    0,803;    0,773
1022,870; 2468,005;   -0,470;   -0,045
1023,417; 2406,278;    2,076;    1,864
1023,964; 2438,278;    0,621;    1,227
1024,511; 2367,369;   -0,652;    0,773
1025,058; 2199,823;    0,439;   -0,045
1025,605; 2233,914;   -1,742;    3,136
1026,152; 2495,005;   -0,106;   -0,591
1026,699; 2220,460;    0,167;    1,318
1027,245; 2340,732;    2,439;    0,318
1027,792; 2457,551;    0,712;    1,409
1028,339; 2465,823;    4,076;   -0,045
1028,885; 2299,551;    3,621;   -0,227
1029,432; 2233,005;   -0,106;    0,227
1029,978; 2325,369;    1,348;   -1,591
1030,525; 2252,914;    1,621;    0,409
1031,071; 2391,005;    0,348;    1,136
1031,618; 2580,732;    1,258;    1,682
1032,164; 2352,732;    2,076;    3,045
1032,710; 2388,278;    0,076;   -1,500
1033,256; 2320,641;    0,712;   -0,136
1033,803; 2249,551;   -0,288;    1,500
1034,349; 2023,187;    1,803;    0,136
1034,895; 2153,551;    2,621;   -0,318
1035,441; 2141,823;    0,439;    0,318
1035,987; 2189,278;   -2,288;   -0,682
1036,533; 2229,823;   -0,197;   -0,955
1037,078; 2435,732;    4,712;    1,682
1037,624; 2249,551;    2,439;   -0,955
1038,170; 2228,460;    1,712;   -0,318
1038,716; 2184,641;    2,167;   -0,409
1039,261; 2073,096;    2,167;   -0,773
1039,807; 2033,641;   -0,015;    3,409
1040,352; 2122,551;   -1,288;   -0,318
1040,898; 2125,551;    0,167;   -0,682
1041,443; 2021,005;    0,803;   -2,591
1041,989; 2174,551;    3,621;    1,591
1042,534; 2001,005;    0,985;    2,591
1043,079; 2049,278;    1,985;    0,955
1043,625; 1926,641;    0,258;    0,500
1044,170; 1990,823;    2,439;    1,045
1044,715; 2248,096;    0,167;    0,955
1045,260; 2071,551;   -0,833;   -0,955
1045,805; 2056,641;    0,258;   -0,591
1046,350; 1984,732;    0,530;   -0,409
1046,895; 2046,369;    0,803;    1,591
1047,440; 2041,278;    1,530;    0,409
1047,985; 1885,460;   -1,197;   -0,955
1048,530; 1812,096;    1,348;    1,227
1049,074; 1888,278;    2,803;    0,318
1049,619; 1838,005;   -0,924;    1,955
1050,164; 1699,187;    1,076;    0,227
1050,708; 1767,278;    2,621;    0,045
1051,253; 2147,914;    3,258;   -2,227
1051,797; 1849,914;   -0,197;   -1,318
1052,342; 1791,278;    1,348;    1,045
1052,886; 1828,914;    1,803;   -1,409
1053,430; 1682,460;    2,167;    0,136
1053,975; 1730,460;    0,894;   -0,318
1054,519; 1730,369;    1,803;    3,227
1055,063; 1791,914;    3,621;    1,318
1055,607; 1699,914;    1,348;    0,227
1056,151; 1702,096;    0,530;    1,682
1056,695; 1592,278;   -1,833;   -1,136
1057,239; 1655,005;   -1,197;   -0,682
1057,783; 1691,823;    2,258;   -1,500
1058,327; 1685,460;    3,076;    1,409
1058,871; 1911,187;    3,985;    1,318
1059,415; 1654,641;   -0,561;   -0,045
1059,958; 1920,460;    2,985;    2,591
1060,502; 1627,551;    1,348;   -0,773
1061,046; 1495,187;    1,712;   -0,955
1061,589; 1462,005;    2,803;   -1,136
1062,133; 1372,914;    0,985;    1,864
1062,676; 1359,278;    1,439;    0,864
1063,220; 1372,278;    0,985;    0,500
1063,763; 1405,551;    2,985;    1,136
1064,306; 1481,732;    0,985;    1,864
1064,849; 1400,187;    2,076;    0,591
1065,393; 1397,278;    2,894;   -1,500
1065,936; 1471,096;    2,530;   -0,409
1066,479; 1340,096;    2,621;    1,318
1067,022; 1375,005;    1,894;   -0,227
1067,565; 1298,914;   -1,197;   -1,318
1068,108; 1316,914;    1,258;   -0,591
1068,651; 1279,914;   -2,470;    1,409
1069,194; 1226,278;   -1,106;   -1,682
1069,736; 1243,460;    3,803;    0,955
1070,279; 1203,460;   -1,652;   -0,500
1070,822; 1292,732;    1,530;   -0,318
1071,364; 1406,551;    0,530;    1,318
1071,907; 1212,460;    0,348;    3,227
1072,450; 1084,823;    0,258;   -0,045
1072,992; 1116,278;   -0,561;    3,136
1073,535; 1263,369;    0,167;    2,136
1074,077; 1064,823;    2,985;    2,045
1074,619; 1056,187;    0,985;    0,591
1075,161; 1090,551;   -0,561;    1,500
1075,704; 1271,641;    0,258;    1,227
1076,246; 1061,732;    1,530;    0,682
1076,788;  969,823;   -1,015;    1,773
1077,330; 1036,460;   -2,106;    2,136
1077,872; 1031,823;   -1,924;    0,955
1078,414; 1268,187;    3,712;    0,773
1078,956; 1019,096;    0,167;   -0,227
1079,498; 1279,551;    0,439;    0,318
1080,040; 1009,278;    0,985;   -1,318
1080,581;  933,278;    0,621;   -0,318
1081,123;  850,096;   -0,106;   -0,773
1081,665;  889,278;    3,803;   -0,955
1082,206; 1204,823;    3,258;   -0,500
1082,748; 1066,823;    3,258;    2,045
1083,289;  938,278;    0,167;    1,318
1083,831;  875,460;    0,258;    0,227
1084,372;  912,187;    0,894;    0,591
1084,913;  916,914;    3,348;    0,864
1085,455;  874,551;    1,530;   -2,045
1085,996;  862,096;    0,530;    0,136
1086,537;  891,823;    0,985;    0,864
1087,078;  900,732;    0,439;   -2,136
1087,619;  954,641;   -1,652;    0,227
1088,160;  876,914;    1,439;    1,318
1088,701;  859,823;   -0,742;    0,682
1089,242;  817,005;   -0,561;   -2,227
1089,783;  908,551;   -0,561;    1,409
1090,324;  875,551;   -0,833;    0,682
1090,865;  770,460;   -1,924;   -0,409
1091,405;  722,278;   -0,561;    2,227
1091,946;  765,187;   -0,197;   -0,955
1092,487;  683,460;   -1,288;   -1,409
1093,027;  852,005;    1,803;   -1,500
1093,568;  721,187;    2,258;    1,227
1094,108;  812,732;    0,621;    1,773
1094,649;  750,278;   -0,470;    0,136
1095,189;  702,369;    1,167;   -0,682
1095,729;  663,641;    0,712;    0,955
1096,269;  654,369;    1,258;   -0,955
1096,810;  965,278;   -0,197;    0,500
1097,350;  807,460;   -0,561;   -0,773
1097,890;  702,005;    2,985;    1,227
1098,430;  950,551;    4,985;    2,864
1098,970;  843,732;    1,894;    1,682
1099,510;  694,187;   -0,833;   -2,318
1100,050;  628,187;    0,258;   -1,591
1100,589;  608,096;    0,076;   -0,318
1101,129;  723,823;    0,894;   -0,955
1101,669;  882,005;    2,803;    2,136
1102,209;  719,369;    1,530;    2,227
1102,748;  664,460;    3,439;    0,955
1103,288;  666,005;    0,712;   -1,227
1103,827;  683,369;    3,530;   -2,227
1104,367;  574,005;    1,712;   -2,409
1104,906;  546,369;   -1,015;   -1,136
1105,445;  618,732;    0,985;   -1,136
1105,985;  576,641;   -0,652;    1,500
1106,524;  613,732;    1,530;   -0,682
1107,063;  585,732;    1,167;    1,409
1107,602;  556,641;    1,894;   -1,500
1108,141;  497,732;    1,621;    1,500
1108,680;  601,369;    3,985;   -0,591
1109,219;  527,460;    0,167;   -0,500
1109,758;  531,732;    4,167;    0,682
1110,297;  503,278;   -1,106;   -0,682
1110,836;  461,187;    1,439;    0,955
1111,375;  607,914;    0,348;    0,409
1111,913;  624,823;    0,985;    0,773
1112,452;  559,278;    0,894;    0,136
1112,991;  453,641;    1,076;    1,955
1113,529;  420,369;    0,167;   -0,045
1114,068;  487,823;    0,439;    2,955
1114,606;  399,278;   -0,561;   -0,955
1115,144;  554,005;    1,530;    1,045
1115,683;  499,641;    1,985;    0,318
1116,221;  541,096;    2,076;   -0,864
1116,759;  458,732;    1,621;   -0,864
1117,297;  637,005;    1,621;    1,864
1117,836;  452,369;    1,985;   -1,227
1118,374;  463,005;    0,258;   -0,682
1118,912;  429,096;    0,439;    2,682
1119,450;  414,551;    0,985;    0,864
1119,988;  448,460;    3,348;    2,136
1120,525;  882,278;    7,258;    3,318
1121,063;  598,278;    0,530;    1,864
1121,601;  427,823;    1,076;   -1,227
1122,139;  384,732;    1,076;   -2,045
1122,676;  573,096;   -1,652;    2,773
1123,214;  516,914;    0,712;    4,409
1123,751;  342,096;    0,621;    2,227
1124,289;  456,369;    0,894;   -0,409
1124,826;  339,732;   -0,379;    0,227
1125,364;  274,005;    0,712;   -0,955
1125,901;  450,369;    6,258;    1,227
1126,438;  545,823;    3,530;    0,955
1126,975;  292,096;    2,985;   -0,773
1127,513;  347,187;    2,621;    2,136
1128,050;  267,460;   -0,561;   -0,682
1128,587;  369,823;    1,348;   -0,227
1129,124;  405,005;   -0,015;    1,318
1129,661;  283,460;   -1,924;    0,227
1130,198;  445,732;    2,439;    0,773
1130,734;  382,369;   -0,379;    1,409
1131,271;  256,460;   -1,197;    0,864
1131,808;  419,823;    1,621;    3,045
1132,345;  302,823;    4,530;    0,318
1132,881;  184,460;   -0,561;   -1,864
1133,418;  314,096;    0,348;   -1,136
1133,954;  257,278;    0,712;   -2,682
1134,491;  322,460;    1,712;   -0,773
1135,027;  235,369;    2,167;    0,864
1135,564;  315,460;    1,439;    2,955
1136,100;  294,914;   -0,742;    2,136
1136,636;  202,823;   -1,015;   -1,045
1137,172;  287,005;    0,894;   -1,045
1137,708;  224,187;   -1,561;   -1,045
1138,245;  217,732;    0,803;   -1,227
1138,781;  179,914;    1,803;   -3,318
1139,317;  254,641;    1,894;   -1,409
1139,852;  233,914;    3,076;    0,136
1140,388;  336,369;    2,076;   -0,409
1140,924;  232,278;    1,076;   -2,227
1141,460;  183,005;   -0,288;    0,136
1141,996;  126,914;   -0,652;    2,682
1142,531;  169,460;    1,076;    3,318
1143,067;  359,823;    1,167;    1,045
1143,602;  406,005;    3,439;   -0,318
1144,138;  268,369;    0,803;    1,045
1144,673;  151,278;    1,621;    1,409
1145,209;  209,551;    2,894;   -0,318
1145,744;  141,187;    0,803;    0,864
1146,279;  264,187;    1,530;   -0,136
1146,815;  190,551;    1,530;   -2,682
1147,350;  227,005;   -0,924;    0,045
1147,885;  147,278;   -1,924;   -1,318
1148,420;  141,914;    2,439;    0,773
1148,955;  125,369;   -1,470;    1,864
1149,490;  156,278;   -1,106;   -1,591
1150,025;  139,914;   -1,106;   -1,773
1150,560;  239,005;   -0,288;   -0,955
1151,094;  214,914;    0,258;   -0,591
1151,629;  209,096;   -3,742;    0,864
1152,164;  145,460;   -1,288;    1,318
1152,698;  113,278;    1,258;   -0,136
1153,233;   83,096;   -1,379;   -0,682
1153,767;  126,096;   -0,288;   -2,318
1154,302;  160,005;   -0,379;    1,773
1154,836;  168,914;    0,803;   -2,136
1155,371;  212,641;    2,258;    3,682
1155,905;  159,641;    1,985;    1,682
1156,439;  137,369;    0,530;   -0,500
1156,973;  164,187;    0,439;    0,318
1157,507;  112,460;   -1,742;    0,682
1158,042;  141,369;   -0,652;    1,045
1158,576;  184,914;   -0,561;    1,773
1159,110;  176,551;    0,076;    2,409
1159,643;  137,460;   -2,470;   -0,045
1160,177;   89,096;   -2,015;    1,500

