
Integration time [ms]:   0,050
Averaging Nr. [scans]: 11
Smoothing Nr. [pixels]: 0
Data measured with spectrometer [name]: 7318044SP
Wave   ;Sample   ;Dark     ;Reference
[nm]   ;[counts] ;[counts] ;[counts] 

186,757;   -4,565;   38,161;    1,318
187,357;   25,516;   26,706;    0,955
187,958;    9,698;   17,252;   -1,591
188,558;   48,236;   12,979;   -1,227
189,159;   31,087;   10,070;   -4,500
189,759;    8,227;    5,797;   -3,591
190,360;    8,200;    6,797;   -2,136
190,960;   43,644;    5,706;   -4,136
191,560;   51,407;    2,614;   -6,591
192,161;  286,108;    5,885;   -3,500
192,761;  132,783;    5,520;   -3,227
193,361;   86,931;    3,065;   -3,773
193,962;  133,425;    1,612;   -2,682
194,562;   66,314;   -0,114;   -3,955
195,162;   99,188;   -0,567;   -2,227
195,762;  266,985;    2,433;   -0,045
196,362;  216,085;    1,706;   -2,500
196,963;   91,623;    1,706;   -0,864
197,563;  156,608;    1,252;   -0,955
198,163;  113,387;   -0,111;   -0,682
198,763;  131,733;   -0,020;   -0,500
199,363;  235,998;    3,616;   -0,500
199,963;  202,628;    2,162;    0,409
200,563;  174,132;    6,344;   -1,409
201,163;  151,753;    5,435;   -0,227
201,763;  254,893;    1,435;    0,318
202,363;  193,662;    0,980;    1,500
202,963;  303,953;    1,526;    1,045
203,563;  412,167;    0,344;    0,500
204,162;  264,109;    1,889;   -1,864
204,762;  251,012;    2,071;    0,591
205,362;  230,020;    0,708;    1,955
205,962;  327,018;    3,435;    1,955
206,562;  330,614;    1,889;    2,318
207,161;  290,434;    1,708;    0,318
207,761;  441,647;    4,435;    2,409
208,361;  322,944;    1,889;    1,409
208,960;  413,639;    2,889;    1,500
209,560;  497,583;    0,435;    1,591
210,160;  482,375;    5,071;    1,864
210,759;  468,143;    0,708;    1,227
211,359;  463,526;   -0,474;    1,045
211,958;  733,037;    3,526;    2,045
212,558;  817,714;    0,799;    1,864
213,157;  658,822;   -0,929;    1,500
213,757; 1116,848;    5,617;   -0,227
214,356;  811,748;    1,708;   -0,409
214,956; 1155,565;    3,526;    0,409
215,555;  790,526;    0,617;    2,136
216,154;  722,014;   -0,292;   -0,591
216,754;  734,270;    1,253;    0,773
217,353;  892,789;   -0,383;   -1,045
217,952;  746,941;    2,072;    0,318
218,552;  972,131;    0,254;   -0,773
219,151;  893,082;   -1,110;    0,955
219,750;  902,488;    0,890;   -0,227
220,349; 1076,685;   -2,292;    1,045
220,948; 1117,528;    1,163;    1,136
221,548; 1178,990;    0,617;    1,227
222,147; 1293,436;   -1,292;   -0,409
222,746; 1579,594;    1,254;   -0,955
223,345; 1471,636;   -1,019;    0,500
223,944; 1502,081;    1,163;    0,773
224,543; 1719,246;    4,072;   -1,409
225,142; 1837,133;    1,345;    0,136
225,741; 1745,470;    1,163;    1,045
226,340; 1790,090;    1,254;   -0,955
226,939; 2286,783;    2,708;   -0,136
227,538; 2334,751;    1,163;   -0,773
228,137; 2466,956;    0,435;    0,864
228,735; 2675,493;    0,435;    1,227
229,334; 2392,567;   -0,474;   -0,227
229,933; 2787,650;    0,799;    0,591
230,532; 2926,459;   -1,201;   -0,409
231,131; 2971,335;    1,253;    0,318
231,729; 3182,154;    1,163;   -2,318
232,328; 3411,551;    0,435;   -1,500
232,927; 3504,889;    4,526;   -0,500
233,525; 3686,453;    0,981;    0,045
234,124; 3925,881;    1,890;   -1,591
234,723; 3996,038;    1,617;   -1,045
235,321; 4204,957;    1,163;    0,136
235,920; 4494,344;    2,526;   -1,227
236,518; 4786,171;    1,072;    0,318
237,117; 5073,147;    2,890;   -0,227
237,715; 5269,815;    1,163;   -0,500
238,314; 5300,030;    1,708;   -2,318
238,912; 5396,427;    0,526;   -1,409
239,510; 5490,848;    1,162;   -1,227
240,109; 5711,582;   -0,474;    3,773
240,707; 5774,591;   -0,474;    1,227
241,305; 6243,864;   -0,383;    0,136
241,904; 6455,773;   -0,292;   -2,045
242,502; 6431,343;    3,253;   -0,227
243,100; 6401,890;    3,344;   -0,955
243,698; 6711,467;    2,799;    1,682
244,297; 6913,576;   -0,656;    0,682
244,895; 6727,849;   -0,474;   -2,318
245,493; 7108,172;    2,981;   -0,591
246,091; 7195,651;    5,163;   -1,318
246,689; 7194,188;    2,163;    0,591
247,287; 7392,238;   -0,019;   -1,136
247,885; 7740,404;   -1,019;    1,227
248,483; 7903,651;   -0,201;   -0,500
249,081; 8052,438;    0,981;    1,591
249,679; 8236,620;   -1,019;    1,682
250,277; 8539,346;   -2,292;    0,864
250,875; 8514,534;    0,617;   -1,045
251,473; 8602,006;   -0,019;    0,500
252,071; 8796,651;   -0,383;    1,045
252,669; 8991,263;   -1,565;    0,318
253,267; 9341,637;    1,618;    0,773
253,864; 9285,783;    0,617;    0,682
254,462; 9077,924;    1,526;    1,591
255,060; 9109,156;    0,072;    1,318
255,658; 9514,263;   -3,292;   -0,136
256,255; 9950,502;   -0,201;   -2,045
256,853; 9812,040;    2,345;    1,409
257,451; 9855,246;    1,981;    1,864
258,048;10114,841;    2,072;    1,864
258,646; 9869,553;    0,436;   -1,045
259,243;10105,768;    2,981;    2,227
259,841;10175,420;    1,799;    0,318
260,438;10025,743;    0,254;    0,864
261,036;10871,344;    0,617;    1,409
261,633;10808,280;    1,526;    2,227
262,231;10547,817;   -0,110;   -0,045
262,828;10620,286;   -0,383;    1,136
263,425;10680,188;   -1,928;   -0,591
264,023;10968,792;    1,436;    0,045
264,620;10495,809;    1,526;   -0,318
265,217;10890,999;    2,890;    3,136
265,815;11027,785;    2,527;    2,136
266,412;10763,197;    0,072;    0,136
267,009;10818,420;    0,526;    0,773
267,606;10671,007;    0,345;   -0,955
268,203;10672,774;   -0,383;   -0,591
268,801;11043,106;   -0,474;    0,591
269,398;11367,462;   -0,564;    2,500
269,995;11384,741;    0,890;    1,591
270,592;11070,510;    0,799;   -0,500
271,189;11368,768;    1,981;    0,409
271,786;11520,411;    2,072;    1,227
272,383;11275,361;   -0,383;    0,227
272,980;11534,676;    1,617;    0,318
273,577;12074,501;    2,162;    1,227
274,174;11617,567;    1,435;    2,591
274,771;11602,990;    1,890;   -0,773
275,367;11733,038;    3,253;    1,409
275,964;11693,658;   -0,565;   -0,500
276,561;11851,288;   -2,474;   -1,045
277,158;12135,165;    1,799;   -1,773
277,755;12241,620;   -0,110;    0,409
278,351;11518,817;    0,436;   -1,500
278,948;11901,851;   -0,201;    0,045
279,545;11945,148;    0,527;    2,318
280,141;12615,304;    1,254;   -2,045
280,738;12477,610;    2,435;   -0,136
281,334;12765,007;   -0,383;    0,591
281,931;12123,976;    2,890;   -1,318
282,528;12231,604;    4,072;   -0,500
283,124;13040,924;    3,345;   -0,500
283,721;12992,397;    0,709;    1,409
284,317;12774,687;    0,163;    2,500
284,913;13364,108;   -0,110;    0,591
285,510;13571,654;    2,890;   -0,318
286,106;13609,331;    2,345;   -0,955
286,703;13188,702;    0,072;    1,955
287,299;13414,420;    1,254;   -0,591
287,895;13703,387;    0,890;   -1,045
288,491;14331,462;    0,163;    2,136
289,088;14006,595;    0,163;    2,409
289,684;14058,536;    2,890;    1,500
290,280;14084,733;    1,890;    0,682
290,876;14147,858;    0,163;    5,500
291,472;14068,653;    2,163;    2,227
292,068;14188,529;    1,254;    0,227
292,665;13891,965;   -0,564;    0,773
293,261;13414,966;   -1,292;    2,136
293,857;13872,535;    4,072;    2,136
294,453;13850,915;   -0,928;    0,955
295,049;13662,432;    0,253;    1,955
295,644;13682,996;   -1,292;    0,136
296,240;13596,094;    0,162;   -0,136
296,836;13675,729;   -0,747;    0,318
297,432;13960,885;    2,980;   -0,500
298,028;13961,770;    0,435;    0,773
298,624;14436,482;    0,889;    1,864
299,220;14764,737;    0,435;    0,591
299,815;14399,631;    0,526;   -0,409
300,411;14164,432;    0,435;    1,773
301,007;14183,927;    1,889;    0,227
301,602;14245,349;    2,071;   -2,318
302,198;14393,844;    1,435;   -0,773
302,794;14778,770;    1,526;   -0,500
303,389;14980,159;    1,071;    1,045
303,985;15038,060;    1,253;    1,409
304,580;14959,944;    0,889;    1,591
305,176;14956,218;    0,344;    0,136
305,771;14920,235;   -0,929;   -1,227
306,367;14689,714;    3,071;    0,136
306,962;15078,258;    2,889;    1,500
307,558;14824,738;    2,435;    0,136
308,153;14767,499;   -0,383;   -1,136
308,748;15016,052;    0,162;    1,682
309,344;14976,475;    0,253;   -1,318
309,939;15070,978;    2,071;   -1,318
310,534;15438,045;   -2,020;   -1,682
311,130;15397,126;   -0,656;   -2,500
311,725;15075,829;    0,526;   -0,500
312,320;15389,969;    1,253;    0,045
312,915;15229,962;    2,890;   -1,045
313,510;15298,234;    0,526;   -0,500
314,105;15878,414;   -3,565;    1,409
314,700;15252,936;   -1,656;   -1,045
315,295;14813,580;   -0,020;    0,045
315,890;14335,696;   -0,292;    0,864
316,485;14720,482;    0,253;   -0,318
317,080;14835,820;   -0,929;    1,591
317,675;15399,523;    3,071;   -0,682
318,270;14711,612;    6,889;    3,318
318,865;14783,786;    2,435;    3,045
319,460;14603,862;   -1,565;    0,591
320,055;14853,951;   -2,565;   -1,227
320,650;14490,421;   -1,838;   -0,591
321,244;14504,538;    0,889;   -1,409
321,839;15566,506;    0,980;   -0,227
322,434;15486,606;   -0,111;   -1,591
323,029;15072,869;   -0,474;    1,591
323,623;14904,961;    0,798;    0,773
324,218;14609,447;    2,707;    1,409
324,812;14526,506;    0,889;    1,591
325,407;14327,316;   -0,929;    2,045
326,002;14215,572;    0,526;   -0,409
326,596;14549,183;   -0,656;    1,318
327,191;14839,167;   -0,383;   -1,045
327,785;14345,456;   -0,747;   -0,227
328,379;14541,200;   -0,383;    0,136
328,974;14359,143;    1,798;   -3,955
329,568;14599,729;    2,889;   -2,409
330,163;14390,828;    2,435;    1,045
330,757;14801,292;    0,253;    1,591
331,351;14071,325;   -0,292;    0,682
331,945;14370,216;   -0,383;    1,409
332,540;13879,788;    1,617;   -0,591
333,134;14039,276;    3,344;    0,773
333,728;14310,846;    2,799;    0,318
334,322;14733,671;    0,889;   -0,864
334,916;13918,516;    0,344;    0,955
335,510;14298,705;   -0,111;   -0,136
336,105;14533,349;   -0,929;    1,591
336,699;14199,631;   -1,292;    0,591
337,293;14070,739;    1,071;    0,318
337,887;14278,457;    0,071;    1,955
338,481;14366,085;    2,980;    0,591
339,074;14533,417;    2,071;    2,682
339,668;14296,797;   -0,110;    1,227
340,262;14503,136;    7,708;    3,227
340,856;14032,294;    1,708;   -0,682
341,450;13335,154;    0,708;    1,864
342,044;14318,921;    1,799;    0,136
342,637;14050,037;    1,162;   -2,136
343,231;13846,767;   -1,474;    0,682
343,825;13776,623;   -0,747;   -0,591
344,419;13711,721;   -0,474;    0,500
345,012;13434,861;    2,889;    4,045
345,606;13437,596;   -0,656;    1,591
346,199;13295,794;   -0,111;   -0,227
346,793;12749,901;    2,525;    2,045
347,386;12969,010;    0,889;   -1,136
347,980;12959,925;   -0,838;   -0,045
348,573;12711,941;   -1,748;    0,409
349,167;12277,213;    6,161;    4,773
349,760;12684,080;    2,252;    2,682
350,354;12679,541;    1,616;    1,136
350,947;12354,203;    2,798;    1,682
351,540;12019,856;    0,616;   -1,409
352,134;11947,568;   -1,111;    1,136
352,727;12045,974;   -0,657;    1,136
353,320;11808,006;    2,343;    0,591
353,913;11637,726;   -1,929;    1,864
354,507;11790,767;    0,434;   -1,227
355,100;11820,990;    0,071;    0,864
355,693;10897,864;    4,798;    2,409
356,286;10964,469;    0,980;    2,773
356,879;11393,097;   -0,475;    1,227
357,472;10912,792;    0,980;    1,500
358,065;11123,716;    3,161;    2,500
358,658;11060,362;    0,798;    2,318
359,251;10640,833;    0,252;   -0,591
359,844;10047,964;    0,343;   -1,136
360,437;10158,883;    0,252;    0,045
361,030;10487,072;    0,525;   -0,682
361,623;10049,154;    0,434;    0,318
362,215;10081,815;    0,979;    2,045
362,808; 9934,320;   -2,293;   -1,682
363,401;10113,054;    0,798;    0,136
363,994; 9799,492;    3,252;   -1,500
364,586; 9728,193;    0,888;   -1,500
365,179; 9951,076;   -0,203;   -1,136
365,772; 9401,699;   -0,930;    2,045
366,364; 9744,010;    1,524;   -3,227
366,957; 9940,719;    1,342;   -0,045
367,549; 9946,379;   -0,203;   -0,864
368,142; 9528,717;    0,978;   -1,500
368,734; 9783,152;    2,523;   -2,136
369,327; 9687,449;    2,341;   -0,500
369,919; 9618,050;   -1,659;    0,409
370,512; 9373,139;   -1,023;   -0,500
371,104; 9037,390;    2,704;    1,591
371,696; 9238,484;    1,703;   -0,955
372,289; 9387,200;    0,157;    1,136
372,881; 9491,591;    1,156;    1,318
373,473; 9432,908;    4,064;    1,136
374,066; 9218,916;    1,336;    0,500
374,658; 9069,656;    0,879;    1,136
375,250; 9492,124;   -1,668;   -1,409
375,842; 9279,260;   -0,124;   -0,045
376,434; 9109,886;   -2,762;   -0,409
377,026; 9814,038;   -1,855;   -2,500
377,618; 9668,950;    0,779;   -0,682
378,210; 9473,013;    3,141;   -1,955
378,802; 9335,112;    3,412;   -0,591
379,394; 9259,965;    3,411;    0,682
379,986; 9950,662;    1,138;   -0,955
380,578;10058,487;    1,410;    0,773
381,170; 9272,872;    0,320;    0,045
381,762; 9258,945;   -0,224;    1,409
382,354; 9505,095;   -0,223;   -1,318
382,945; 9609,212;    0,870;    0,318
383,537; 9793,735;    1,144;   -1,955
384,129; 9787,810;    0,963;   -1,136
384,721; 9989,432;    0,418;    0,955
385,312; 9928,063;   -1,399;   -0,955
385,904;10019,598;   -0,945;    1,591
386,496; 9333,588;    0,691;    1,045
387,087; 9479,899;    0,418;    2,500
387,679; 9512,749;   -0,401;    0,045
388,270; 9646,921;   -2,401;    2,045
388,862; 9780,360;   -0,401;   -0,318
389,453; 9657,640;    1,054;    1,045
390,045; 9920,789;    3,236;   -2,682
390,636; 9903,623;    0,144;   -0,591
391,227; 9759,723;    2,054;   -0,045
391,819; 9840,956;    0,781;    0,773
392,410; 9907,759;    0,600;    0,045
393,001; 9847,473;    1,600;   -1,591
393,593;10143,631;    0,600;   -0,045
394,184; 9982,035;    0,873;   -0,409
394,775; 9945,167;    1,146;    2,136
395,366;10156,380;    1,782;    0,773
395,957;10205,081;   -2,400;    0,136
396,548;10551,388;    1,054;    2,682
397,139;10832,783;    2,236;    0,591
397,730;10518,513;    0,873;    0,955
398,321;10613,803;    0,509;    0,955
398,912;10616,084;   -0,764;    0,136
399,503;10747,283;   -1,945;   -1,409
400,094;10119,267;   -1,582;    1,682
400,685; 9954,167;    3,600;    0,045
401,276;10057,645;   -0,400;   -0,955
401,867;10389,258;   -1,127;    0,773
402,458;10506,778;    1,509;   -2,318
403,048;10513,134;    0,146;    0,591
403,639;10051,058;    1,509;    0,864
404,230;10295,730;    0,691;    0,318
404,821;10188,737;   -0,127;    0,045
405,411;10336,738;   -0,763;   -2,591
406,002; 9889,184;    3,237;   -1,136
406,592; 9678,847;    2,691;    0,045
407,183;10050,790;    0,328;   -1,500
407,774; 9933,558;    1,419;   -0,136
408,364;10333,541;    2,600;    0,409
408,954; 9872,418;   -0,036;    1,227
409,545; 9928,029;    1,873;    1,045
410,135; 9391,626;   -1,581;    0,500
410,726; 9594,075;    0,783;    0,318
411,316;10014,106;    2,237;    0,773
411,906; 9629,958;    0,146;   -0,409
412,497; 9070,047;   -0,490;   -0,045
413,087; 9747,221;    0,783;   -0,227
413,677;10211,562;   -2,490;    3,864
414,267;10005,951;   -1,035;    1,409
414,857;10019,637;    0,419;    4,227
415,448;10306,205;   -0,763;    0,500
416,038; 9973,370;   -2,945;   -0,591
416,628; 9982,356;    0,965;    0,409
417,218; 9355,348;   -1,762;    3,318
417,808; 9639,671;    0,965;   -0,409
418,398;10177,985;   -1,035;    2,682
418,988;10221,811;   -2,217;    0,591
419,578;10477,397;    3,601;    1,409
420,168;10851,066;    0,692;   -0,955
420,757;10382,692;    0,964;   -1,500
421,347;10019,267;    1,601;   -0,227
421,937;10243,821;    3,329;    1,409
422,527;10125,747;    2,602;   -0,773
423,116; 9895,373;    2,692;   -0,045
423,706;10376,357;    2,965;    0,318
424,296;10340,250;    1,601;    0,682
424,885;10818,341;    1,510;   -3,045
425,475;11142,284;    1,147;   -2,864
426,065;11057,755;   -1,489;   -0,318
426,654;10623,980;    0,329;   -0,318
427,244;10717,804;    1,147;    1,409
427,833;10099,292;    1,056;   -0,500
428,423;10628,037;    0,147;    1,136
429,012;11540,807;    2,420;   -1,136
429,601;10944,320;    2,057;    0,136
430,191;11189,683;    2,511;    4,318
430,780;10786,021;   -1,671;   -0,409
431,369;10659,147;    1,329;   -0,045
431,959;11389,767;    1,693;    0,500
432,548;11170,189;   -1,398;   -0,045
433,137;11392,925;    0,329;   -1,318
433,726;11949,213;    0,148;    0,500
434,315;11222,255;    0,148;    2,409
434,905;11325,712;    0,693;    1,409
435,494;11223,488;    3,148;    0,955
436,083;11693,858;    1,420;   -0,955
436,672;11539,595;    1,148;    0,500
437,261;11054,108;    0,512;   -1,955
437,850;11203,355;   -1,125;    0,682
438,439;11139,539;    2,239;    1,955
439,027;10939,878;    3,421;    1,773
439,616;11364,441;    2,239;    1,227
440,205;11276,887;    0,057;   -2,136
440,794;11351,847;   -0,306;   -0,045
441,383;11628,203;    1,603;   -0,591
441,971;11486,897;   -0,306;    0,591
442,560;11311,766;    0,603;   -1,773
443,149;11106,781;    3,060;   -1,318
443,737;11275,613;    0,968;   -2,318
444,326;11505,246;    0,331;    0,318
444,915;11561,419;   -1,851;    0,864
445,503;12002,237;    0,058;   -0,318
446,092;11221,849;    7,876;    2,136
446,680;11832,610;    1,876;    0,318
447,269;12032,561;   -1,487;   -0,318
447,857;11772,545;    2,240;   -1,773
448,445;11909,818;    2,149;    1,318
449,034;12163,983;    0,876;   -1,136
449,622;12289,083;    1,240;    3,500
450,210;11356,077;    3,149;    2,227
450,799;11947,135;    2,604;   -0,591
451,387;11911,962;    1,786;   -0,591
451,975;11505,597;   -1,305;    0,864
452,563;11631,778;    0,422;    2,318
453,151;11693,110;   -1,032;   -1,227
453,739;11598,055;   -1,577;    0,136
454,328;11393,095;    0,604;   -2,136
454,916;11044,625;    1,150;   -0,136
455,504;11269,988;    3,513;    1,227
456,092;11509,822;    2,150;   -1,591
456,679;11473,996;    0,604;    0,682
457,267;11313,162;    3,604;    1,045
457,855;11548,229;    3,241;    1,409
458,443;11330,883;   -0,304;    1,682
459,031;11404,485;    1,332;    2,409
459,619;11930,890;   -3,577;    2,864
460,206;12105,816;   -0,759;    2,045
460,794;12173,511;   -0,668;   -0,227
461,382;12432,611;    0,878;   -0,864
461,970;11953,364;    0,605;    1,864
462,557;12048,289;    0,878;   -0,682
463,145;12227,164;   -0,304;   -1,682
463,732;12384,794;    2,514;   -1,045
464,320;12315,572;    1,514;   -3,045
464,907;11920,464;    0,423;   -0,773
465,495;11766,649;    2,696;   -1,227
466,082;11945,671;    2,060;   -0,045
466,670;11870,887;    2,605;    1,227
467,257;12360,515;    0,060;    2,045
467,844;12505,623;    1,514;    0,045
468,432;12537,417;   -0,031;    3,500
469,019;12016,616;    1,606;   -1,773
469,606;12475,814;    0,969;    3,682
470,193;12265,717;    2,151;    0,227
470,780;11802,170;    0,333;    0,864
471,368;12180,716;   -1,212;   -0,773
471,955;11919,368;    1,060;   -0,682
472,542;11549,891;   -0,303;   -1,136
473,129;11802,840;   -0,485;    0,136
473,716;11518,567;    0,060;    0,591
474,303;11709,311;    1,333;   -0,864
474,890;12070,462;    2,333;   -0,500
475,477;12058,082;   -0,576;    0,409
476,064;11950,960;    0,697;   -1,591
476,650;11898,016;    2,152;    0,318
477,237;11736,926;    1,879;    0,955
477,824;11878,008;    3,879;    0,864
478,411;11945,066;    0,606;   -0,318
478,997;12157,257;    0,606;   -0,773
479,584;12224,928;   -0,666;   -0,409
480,171;13026,101;    1,243;   -0,773
480,757;12667,723;   -0,848;    0,773
481,344;13006,630;    0,334;    0,409
481,931;12488,998;   -0,393;    1,045
482,517;13524,806;    0,425;    0,318
483,104;14210,441;    1,334;    2,864
483,690;14595,738;    0,243;    0,045
484,276;15000,954;    0,698;    0,227
484,863;14745,301;    2,152;    1,136
485,449;15401,831;    0,152;    0,318
486,035;15416,352;   -0,666;   -0,136
486,622;15877,178;   -2,393;    0,045
487,208;15775,716;    1,334;    1,500
487,794;15667,088;    0,971;    0,318
488,380;15818,155;    0,698;   -1,409
488,967;15859,843;   -1,120;   -0,409
489,553;15942,016;   -1,029;   -1,409
490,139;16075,817;    0,971;    0,773
490,725;15514,495;    0,789;   -0,227
491,311;15006,784;    1,516;    3,045
491,897;14152,537;   -0,665;    1,500
492,483;13925,636;    0,426;    1,227
493,069;13603,173;    5,426;    0,864
493,655;13621,273;    1,789;    0,682
494,241;13530,653;    1,517;   -0,955
494,826;13950,916;    0,335;   -1,045
495,412;13402,222;    0,335;   -0,682
495,998;13551,828;    0,971;   -0,318
496,584;13738,299;    2,244;    1,045
497,169;13738,721;    2,335;   -0,682
497,755;13659,623;    1,244;    1,227
498,341;14244,894;    2,153;    0,318
498,926;13773,540;    2,881;    1,955
499,512;13992,139;   -0,028;    2,955
500,097;14139,947;   -0,574;   -0,318
500,683;14100,938;   -0,028;    2,136
501,268;14480,988;    1,881;   -0,955
501,854;14193,327;   -0,119;    1,227
502,439;14085,833;   -0,573;   -1,773
503,024;14298,088;    1,608;    0,500
503,610;14381,551;    1,335;   -0,682
504,195;14412,402;    1,245;    1,955
504,780;14534,021;    2,335;    1,227
505,366;14323,244;    4,063;    2,864
505,951;14009,371;   -1,119;    1,045
506,536;14039,264;    1,427;   -3,682
507,121;14015,924;    1,699;   -0,318
507,706;14571,676;   -0,392;    1,045
508,291;15008,107;   -2,937;    1,136
508,876;14443,688;   -0,482;    2,591
509,461;13849,514;    1,427;   -0,773
510,046;14307,877;   -0,391;    0,318
510,631;14525,736;   -0,119;   -0,773
511,216;14183,092;   -0,664;   -0,500
511,801;14587,892;   -0,755;    2,591
512,386;14867,951;    0,972;    0,500
512,971;14827,820;    0,427;    0,955
513,555;14358,993;    1,154;   -1,500
514,140;15211,175;    1,336;   -3,136
514,725;15237,863;    1,791;   -1,136
515,309;15333,631;    1,064;    0,318
515,894;14744,771;   -0,300;   -2,227
516,479;15231,764;    1,973;   -0,955
517,063;15093,143;    0,882;    1,227
517,648;15237,449;    0,155;   -1,136
518,232;14842,617;   -1,300;   -1,409
518,817;15189,692;    1,337;    1,682
519,401;15416,881;    0,700;    0,591
519,985;14879,178;    2,700;    1,136
520,570;14785,725;   -0,118;   -1,955
521,154;15094,263;    0,064;    0,591
521,738;15250,950;    1,064;    2,409
522,323;15868,122;   -0,390;    1,682
522,907;15620,801;    2,428;   -0,136
523,491;15293,281;    1,155;    0,955
524,075;15292,719;    0,428;    0,591
524,659;15373,429;    0,973;    0,591
525,243;14757,222;    0,883;    0,409
525,827;15042,421;    0,883;   -0,045
526,411;15939,156;    1,155;   -0,136
526,995;16222,661;    0,337;    1,409
527,579;15791,696;    1,974;   -1,045
528,163;16064,043;    0,428;   -1,500
528,747;16026,729;    1,065;   -0,773
529,331;16358,903;    0,883;   -1,409
529,915;16521,184;    2,338;    0,955
530,499;16490,606;    0,247;    1,227
531,082;16133,133;    1,065;    1,591
531,666;15543,747;    0,520;    0,773
532,250;16297,167;    0,428;    2,682
532,833;16665,400;    0,610;    2,773
533,417;16585,995;    1,247;    0,864
534,001;16503,277;    0,429;   -0,318
534,584;17238,485;    1,974;    0,500
535,168;17035,741;    3,247;    1,409
535,751;17104,243;    4,520;    0,045
536,334;16536,227;    4,520;   -0,409
536,918;17227,144;    1,974;    1,591
537,501;17339,079;    1,520;    1,318
538,085;17281,319;    1,702;    1,045
538,668;17477,394;    0,883;    2,409
539,251;17818,923;    3,156;    3,773
539,834;17828,707;    0,156;    0,773
540,418;17747,337;    3,247;    4,318
541,001;17900,874;    2,702;    1,773
541,584;17936,868;    1,429;    2,227
542,167;17579,949;    0,702;    2,955
542,750;17749,966;    0,793;   -0,773
543,333;17307,753;    1,429;    2,136
543,916;18200,603;   -0,298;    2,500
544,499;18807,107;    2,520;    0,227
545,082;18788,008;    0,248;    3,591
545,665;18924,884;   -0,207;    1,500
546,248;19328,207;    0,520;   -0,318
546,830;19036,042;   -1,752;    1,955
547,413;19430,382;    0,157;   -0,773
547,996;20018,911;    0,157;    0,500
548,579;19724,474;   -0,843;    0,955
549,161;19562,011;    0,884;    2,682
549,744;19350,120;    0,612;    0,409
550,326;19886,136;    0,885;   -1,136
550,909;19566,765;    2,339;    0,591
551,492;20033,450;    0,521;    0,227
552,074;19831,865;   -0,024;   -1,318
552,657;20413,385;    2,430;    0,045
553,239;20176,882;   -3,024;   -0,773
553,821;20089,352;   -1,570;    1,045
554,404;19583,708;   -0,024;    1,136
554,986;19940,444;    2,248;    1,045
555,568;20549,667;    0,430;   -0,955
556,151;19717,924;    4,067;   -0,227
556,733;19929,675;   -1,388;   -0,864
557,315;20449,032;    4,703;    0,500
557,897;20267,420;    0,521;   -0,500
558,479;20419,015;    1,703;    1,318
559,061;20496,629;    1,067;   -0,864
559,643;20858,388;   -0,297;    0,045
560,225;21263,750;   -0,388;    2,864
560,807;21295,661;    0,340;    0,318
561,389;20793,405;   -1,206;    2,318
561,971;21527,630;   -0,660;    2,136
562,553;21330,215;    0,613;    1,591
563,135;21488,496;    1,249;    1,136
563,717;21034,546;    3,158;    1,136
564,298;21803,844;    3,976;   -0,045
564,880;21542,350;    0,340;   -1,409
565,462;21739,987;    1,977;    1,318
566,043;22955,836;   -0,933;    2,318
566,625;22486,373;    4,067;    1,227
567,207;22334,796;    0,704;    1,682
567,788;23551,474;   -0,114;    1,500
568,370;24467,194;   -1,841;   -0,500
568,951;24243,226;   -0,569;    0,227
569,533;25231,674;    0,977;   -0,500
570,114;25728,853;   -0,296;    0,682
570,695;26239,814;   -0,478;   -1,318
571,277;26875,368;   -0,205;   -1,682
571,858;27676,136;    2,704;   -1,136
572,439;28650,904;    0,795;   -1,045
573,021;28859,923;    0,432;   -2,773
573,602;29417,997;    1,795;    0,318
574,183;30394,709;   -0,114;    2,227
574,764;30610,105;    2,068;    0,409
575,345;31149,197;    0,250;   -0,136
575,926;31834,170;    2,704;    0,136
576,507;31899,080;    2,704;   -0,227
577,088;33004,319;    1,704;    1,682
577,669;33036,899;    1,704;    1,955
578,250;33827,890;   -0,750;   -1,045
578,831;34577,231;   -0,841;   -2,227
579,412;34783,337;   -1,205;    0,955
579,993;35875,965;    1,432;    0,227
580,573;36177,007;   -0,023;   -0,955
581,154;35098,849;    1,613;   -0,591
581,735;36002,130;    0,341;    0,773
582,315;35465,767;    0,523;    2,136
582,896;35802,469;   -1,750;    1,227
583,477;35195,123;    0,614;    1,227
584,057;35383,659;    1,159;    0,955
584,638;35726,874;   -2,750;    2,318
585,218;35741,734;    2,886;    2,682
585,799;35861,700;    1,977;   -0,227
586,379;35854,501;    1,250;    1,591
586,959;34591,775;    2,613;    0,318
587,540;33800,652;    0,432;    2,227
588,120;33246,918;   -1,113;   -0,045
588,700;32158,669;    2,977;    2,136
589,281;32479,213;    1,250;   -0,955
589,861;32387,660;   -0,296;   -1,682
590,441;32176,866;   -1,477;   -2,682
591,021;31151,411;    1,432;   -2,591
591,601;31309,749;    0,431;    0,500
592,181;31283,476;   -1,296;   -0,773
592,761;30559,727;    2,250;    1,409
593,341;30480,097;    1,522;    0,045
593,921;30495,650;   -0,569;    1,591
594,501;30264,081;    1,250;    1,318
595,081;30131,939;    0,522;   -0,318
595,661;30451,543;    1,068;    0,955
596,240;31054,327;   -1,023;    0,136
596,820;30678,475;    2,613;    1,955
597,400;30888,642;    1,977;    0,773
597,980;31101,294;   -0,750;    1,045
598,559;31086,981;    0,341;   -0,227
599,139;30818,122;   -0,750;   -1,227
599,718;30698,667;    0,795;   -0,409
600,298;30906,741;   -2,387;    0,682
600,877;31092,682;    4,795;    1,409
601,457;31427,739;    0,340;    1,136
602,036;31337,286;    1,795;    2,045
602,616;31584,013;    2,250;    1,682
603,195;31888,549;    0,431;    3,500
603,774;31389,384;   -0,296;    2,045
604,354;31311,913;    2,522;   -0,500
604,933;30733,088;    0,250;    1,864
605,512;30858,178;    2,340;    0,591
606,091;30951,276;    1,886;    3,773
606,671;31747,896;    0,249;    0,773
607,250;30790,913;    1,431;    3,136
607,829;31049,085;    1,158;    3,227
608,408;30893,863;    4,613;    2,591
608,987;29874,605;    2,704;    3,409
609,566;30164,370;    0,341;   -2,500
610,145;30180,060;    2,885;    0,682
610,723;30656,490;    1,613;    6,864
611,302;29893,076;    1,067;    1,682
611,881;29321,688;    5,158;   11,227
612,460;30166,225;    0,795;    3,955
613,039;30650,183;    1,703;    2,045
613,617;29335,152;    0,886;    4,773
614,196;29519,622;    1,613;    1,227
614,775;29858,042;    1,249;    2,409
615,353;29811,372;   -1,660;    0,864
615,932;29472,455;    0,249;    2,409
616,510;30132,397;    0,158;    0,591
617,089;29532,628;    8,794;   17,591
617,667;29286,099;    4,885;    6,136
618,246;29128,578;   -1,115;    1,318
618,824;29249,942;    1,612;   -0,955
619,402;28803,314;    0,431;   -1,773
619,981;29353,933;    1,067;   -1,045
620,559;29247,916;    0,794;    1,682
621,137;28749,387;    3,067;    1,864
621,715;28694,090;    3,703;   -0,682
622,293;28603,073;    1,885;   -0,773
622,871;29095,123;    0,340;    0,500
623,450;28647,204;    0,430;   -0,864
624,028;28577,941;   -0,388;   -0,955
624,606;28141,155;    2,339;    1,682
625,183;28525,642;   -0,661;   -1,136
625,761;28109,270;    1,885;    1,136
626,339;28432,800;    2,339;    2,591
626,917;28814,641;    0,339;   -0,045
627,495;28890,517;    2,794;    1,318
628,073;28327,153;    5,248;    2,864
628,650;27919,501;    3,067;    2,136
629,228;28413,841;    1,248;    4,409
629,806;27747,154;   -0,024;    1,136
630,383;28005,707;    0,066;   -0,318
630,961;27759,914;   -2,206;   -0,955
631,539;27514,021;   -2,479;    0,227
632,116;26669,005;   12,703;   15,409
632,694;27352,814;    4,885;    6,500
633,271;27642,309;    1,975;    2,682
633,848;27583,789;    1,430;    2,045
634,426;27713,374;    1,521;    1,773
635,003;26771,223;   -0,207;   -0,409
635,580;27050,008;    1,884;    3,682
636,158;27642,754;    3,793;    1,227
636,735;27561,342;    3,339;   -0,500
637,312;27730,433;    0,521;   -0,682
637,889;27839,209;    2,248;   -0,682
638,466;27329,140;    0,066;   -0,409
639,043;27348,659;    1,702;   -1,136
639,620;27660,436;    0,611;   -0,955
640,197;28001,934;    1,612;    1,682
640,774;28117,182;    1,430;    1,136
641,351;28499,248;    0,612;    1,136
641,928;27887,768;    2,794;    1,409
642,505;27514,107;    0,794;   -0,500
643,082;27661,446;    1,885;    1,227
643,658;26676,785;    1,157;    1,500
644,235;27437,851;   -2,479;    2,500
644,812;27716,644;    1,794;    0,773
645,388;27455,801;    1,612;    1,409
645,965;27533,412;    1,521;    1,682
646,542;27594,115;    3,430;   -0,227
647,118;27600,453;    3,703;   -0,955
647,695;27930,792;    0,339;    1,136
648,271;27805,585;   -2,115;    0,500
648,848;28131,197;    0,248;    2,227
649,424;27914,899;    0,976;    1,318
650,000;27682,965;   -0,388;   -1,045
650,577;27518,849;    0,158;   -0,955
651,153;27975,370;   -1,115;    0,955
651,729;28987,254;    0,521;    0,864
652,305;29197,320;    1,339;    2,773
652,881;34018,022;   -1,297;    1,136
653,458;41496,179;    0,249;    0,227
654,034;45809,245;    0,703;    1,591
654,610;47420,766;    0,339;    0,773
655,186;48766,741;    1,612;    3,045
655,762;48541,352;   -1,842;    0,409
656,338;48607,600;    0,703;    0,136
656,913;49599,030;   -0,297;    0,409
657,489;48893,732;    0,249;   -0,318
658,065;48738,980;    0,794;   -1,591
658,641;49323,591;    2,158;   -0,864
659,217;48645,567;    2,067;    0,409
659,792;48066,723;   -1,751;   -0,409
660,368;48382,335;   -0,388;   -0,682
660,944;48072,674;    1,794;    1,227
661,519;43166,012;    0,522;    0,409
662,095;36521,442;   -0,206;    0,591
662,670;31340,144;   -0,206;   -0,136
663,246;30060,392;   -0,660;   -0,409
663,821;29273,913;    0,431;    1,682
664,396;28721,160;    0,613;    1,864
664,972;28984,772;   -0,660;   -0,500
665,547;29307,929;    3,794;    0,136
666,122;29299,722;    1,340;    0,318
666,698;29638,243;    2,431;    0,318
667,273;28958,400;    0,885;    0,136
667,848;29797,738;    0,340;    1,500
668,423;29547,895;    1,795;    2,318
668,998;30142,416;    0,976;   -0,682
669,573;30690,391;    2,067;   -1,500
670,148;30546,730;    1,885;   -0,682
670,723;30347,432;   -0,024;    0,318
671,298;30825,225;   -1,296;    1,045
671,873;30928,200;   -0,296;   -0,136
672,448;30846,630;    1,704;    0,136
673,023;31223,241;    0,249;   -0,227
673,597;31556,671;    2,704;    2,318
674,172;31293,010;    2,431;    0,318
674,747;30798,712;   -0,205;   -1,045
675,321;30741,142;   -0,933;    3,318
675,896;30241,571;    2,158;    1,045
676,471;31229,728;    2,522;    1,591
677,045;30954,976;   -0,296;    0,682
677,620;30980,587;    2,158;    1,136
678,194;31346,563;    0,249;    1,136
678,769;30866,447;    0,886;   -0,318
679,343;31041,513;   -0,023;    1,773
679,917;30942,397;    0,340;    1,955
680,492;31072,917;    0,249;    3,227
681,066;31177,983;    0,613;    0,409
681,640;31269,140;    1,795;   -0,318
682,214;32063,570;    2,340;    0,500
682,788;31570,091;    0,613;   -0,773
683,363;31587,429;    1,977;    1,682
683,937;31261,586;    0,886;   -0,318
684,511;32122,289;   -1,023;   -0,591
685,085;31797,355;   -1,478;    0,318
685,659;31533,966;    1,431;    0,864
686,232;31743,214;    1,159;   -0,318
686,806;31513,189;    2,159;    0,409
687,380;32112,528;   -1,932;    0,591
687,954;32378,230;    2,432;    1,136
688,528;32004,296;    2,613;    1,955
689,101;32817,271;    0,432;    1,045
689,675;32345,428;    0,886;   -0,136
690,249;31680,858;    3,432;    0,409
690,822;31996,014;    1,159;    0,318
691,396;32131,808;    2,068;    1,227
691,969;31590,783;    2,523;    0,136
692,543;32005,667;   -0,568;   -1,955
693,116;31671,824;   -0,659;   -1,409
693,690;31489,254;   -0,296;    0,500
694,263;32089,138;    2,341;    2,955
694,836;32066,476;    2,795;    3,591
695,410;30676,724;    1,159;    1,773
695,983;31207,608;    1,614;    0,591
696,556;31145,584;   -0,750;   -1,045
697,129;31555,559;   -1,114;    1,409
697,703;31140,170;    1,341;    1,955
698,276;31167,872;    1,705;   -0,773
698,849;30960,666;   -1,023;    1,409
699,422;31369,186;    1,250;    0,591
699,995;30961,707;   -0,659;    0,136
700,568;31489,591;   -0,204;    3,045
701,140;31514,021;   -1,841;    1,682
701,713;31262,905;    0,341;    2,409
702,286;31010,425;    0,796;    0,864
702,859;30862,946;    0,614;   -0,591
703,432;29974,557;   -0,841;    0,682
704,004;30575,987;    1,978;    0,318
704,577;30399,507;    1,068;    0,136
705,150;30930,483;    0,887;    2,500
705,722;30703,185;    1,523;   -3,227
706,295;30484,705;    1,432;   -0,591
706,867;30324,317;    0,250;    1,955
707,440;30513,110;   -0,113;   -0,409
708,012;30782,540;   -0,022;    0,591
708,584;30717,242;    2,705;    0,227
709,157;31067,672;    1,160;   -0,591
709,729;30716,011;    1,069;    2,045
710,301;31543,531;   -1,204;    0,045
710,874;31551,143;    0,341;   -0,227
711,446;30400,572;   -0,295;    0,864
712,018;30276,002;   -3,022;    0,500
712,590;29988,795;   -0,204;    1,682
713,162;30559,043;   -0,477;    1,318
713,734;30851,382;    1,796;   -2,045
714,306;30716,175;    0,342;   -0,409
714,878;29347,786;   -0,295;    0,864
715,450;30209,216;   -0,113;    0,864
716,022;30421,191;    2,433;    1,318
716,593;30575,712;    0,978;    0,591
717,165;30514,868;    1,796;   -1,227
717,737;30257,207;    0,796;    0,409
718,309;29907,728;    1,160;   -0,045
718,880;29827,339;   -1,295;   -1,409
719,452;30043,223;    0,887;   -1,591
720,024;29569,289;    1,705;   -0,591
720,595;30124,174;    2,978;    0,955
721,167;29677,603;    1,160;   -2,045
721,738;29149,033;    2,069;   -1,045
722,309;29058,190;    1,251;   -1,227
722,881;28882,710;    2,705;    0,773
723,452;29619,413;    1,251;    2,864
724,023;29782,297;    1,524;    2,682
724,595;29533,908;    2,342;    0,682
725,166;29278,702;    1,524;   -0,409
725,737;28867,768;    1,887;    0,227
726,308;28995,924;    0,797;    0,318
726,879;29416,536;    1,069;    1,227
727,450;29260,875;   -2,022;   -0,045
728,021;29224,031;    1,069;    0,682
728,592;29106,734;    1,160;    0,500
729,163;29392,527;    1,433;   -0,136
729,734;29342,502;    2,160;   -0,227
730,305;29721,477;    0,615;    0,136
730,876;30065,543;    0,888;    2,955
731,447;29746,064;    0,797;    2,682
732,017;29910,766;   -0,840;    1,864
732,588;29427,469;   -0,021;    1,227
733,159;29582,807;    3,615;   -1,045
733,729;29369,782;    1,251;    0,409
734,300;28664,848;    0,160;    0,864
734,870;29063,642;   -1,385;    0,591
735,441;29638,162;    0,888;   -0,591
736,011;29369,955;    1,070;   -1,591
736,582;29305,840;    1,251;    0,045
737,152;28717,178;    0,979;   -2,045
737,722;29280,426;    1,070;   -0,682
738,293;28970,310;   -2,021;    1,318
738,863;28831,922;    1,797;    2,318
739,433;28626,351;    4,524;    0,318
740,003;29263,417;    1,524;   -0,682
740,573;28602,938;    2,252;   -1,591
741,143;28596,458;    3,615;    0,318
741,713;29349,706;    0,252;   -0,500
742,283;28998,954;    1,706;    1,591
742,853;28799,929;    0,524;    1,591
743,423;28258,177;    0,161;    0,045
743,993;28342,152;    1,070;    1,500
744,563;27667,127;    2,524;   -0,864
745,133;27741,648;   -0,112;   -0,864
745,702;28426,441;    2,797;    1,773
746,272;27531,325;    0,434;    0,591
746,842;27290,846;   -0,748;   -0,591
747,411;27776,003;   -0,839;   -0,318
747,981;27954,160;   -0,930;    0,500
748,551;28009,771;   -0,021;   -1,045
749,120;27915,837;   -0,112;   -0,227
749,690;28274,630;    2,161;    2,409
750,259;28598,696;    0,979;    2,955
750,828;28490,580;    4,070;   -1,955
751,398;28704,010;   -0,112;   -0,045
751,967;28154,894;    2,888;    0,409
752,536;28378,142;    1,161;   -0,227
753,105;28864,572;   -1,384;    0,227
753,675;28683,001;   -0,112;    1,773
754,244;28596,522;    0,888;    3,591
754,813;28609,861;    0,979;    1,227
755,382;28237,927;    0,798;    0,955
755,951;28747,447;   -0,112;    3,682
756,520;28290,968;    2,525;    1,864
757,089;28883,579;    1,888;    0,500
757,658;29032,463;    2,434;    1,227
758,227;29046,257;   -1,111;    0,318
758,795;29327,232;   -1,021;    1,136
759,364;29575,661;    0,525;   -0,591
759,933;28567,727;    1,343;   -0,045
760,501;28084,884;    0,252;   -1,318
761,070;28547,587;   -0,293;   -1,409
761,639;29304,653;    1,434;    1,318
762,207;28567,900;    0,889;   -0,955
762,776;28520,785;    2,889;    0,864
763,344;28461,305;    0,071;    0,591
763,913;27577,462;    1,616;    1,409
764,481;28289,801;    1,980;   -0,136
765,049;28111,139;    0,616;    1,409
765,618;27998,205;    1,434;    0,318
766,186;28031,726;    2,434;    0,136
766,754;28231,701;    1,798;    1,864
767,322;27195,858;    1,162;    0,409
767,890;27234,742;    0,525;   -1,773
768,459;27621,081;    2,616;   -0,318
769,027;27838,238;    2,525;    3,409
769,595;26784,576;    2,616;    2,591
770,163;27232,824;    3,344;    2,955
770,730;26964,254;    2,525;   -0,136
771,298;26798,047;    1,162;   -1,409
771,866;26868,659;    0,253;    4,955
772,434;27197,997;    1,162;   -1,864
773,002;27423,427;    2,616;    0,682
773,569;27032,493;    1,071;    1,682
774,137;26832,650;    0,889;   -0,045
774,705;27622,261;   -0,747;   -0,136
775,272;27057,236;    0,253;    0,682
775,840;26855,939;   -0,111;    2,682
776,407;26348,368;   -0,293;    1,955
776,975;25889,071;    1,162;    0,318
777,542;26966,137;    2,162;   -0,045
778,110;26827,748;    0,707;   -0,045
778,677;26456,541;    1,071;   -0,864
779,244;26205,607;   -1,020;    1,045
779,812;26313,583;    0,980;    0,864
780,379;26132,558;    2,435;    1,136
780,946;26386,987;    2,617;   -0,773
781,513;26686,235;   -0,565;    0,318
782,080;26008,210;    1,253;    2,864
782,647;26822,549;    1,708;    3,045
783,214;26398,251;   -0,201;    3,864
783,781;25963,590;    1,708;   -0,682
784,348;25885,111;    0,253;    1,500
784,915;26399,540;   -1,474;    0,318
785,482;26095,152;    2,708;    2,591
786,049;26532,490;    1,071;   -0,591
786,615;26645,284;    1,708;   -0,955
787,182;26408,441;   -3,201;   -0,682
787,749;26066,234;   -2,201;    1,409
788,315;25396,573;    0,253;   -0,409
788,882;25665,366;    0,981;   -1,227
789,448;26369,432;    1,435;   -0,955
790,015;26424,589;    1,799;    3,227
790,581;25934,018;    0,708;    0,227
791,148;25837,175;    1,344;    1,045
791,714;26111,605;   -1,019;    3,136
792,280;25738,398;    3,708;    1,591
792,847;25270,828;   -0,928;    2,500
793,413;25884,985;   -0,110;   -0,318
793,979;25344,142;    1,526;   -1,318
794,545;25413,480;    2,981;    2,682
795,111;24817,183;    2,435;    1,318
795,678;25009,158;    3,526;   -1,682
796,244;24694,860;    2,799;    0,136
796,810;25243,472;    0,799;    0,773
797,375;24993,265;   -0,292;   -2,136
797,941;25007,967;   -1,110;    0,591
798,507;25083,124;    0,254;   -0,955
799,073;24629,736;    2,708;    0,591
799,639;24722,620;    1,435;    3,136
800,205;24764,322;   -1,565;    2,682
800,770;24255,570;    1,345;    1,773
801,336;24241,545;    2,981;   -0,955
801,901;23979,702;    6,072;    3,136
802,467;24580,768;    0,526;    2,045
803,033;23911,743;   -0,019;    0,864
803,598;24110,900;    1,072;   -1,045
804,163;24121,511;    0,708;   -0,318
804,729;24040,850;   -0,110;    1,136
805,294;24456,280;    1,072;    2,227
805,859;24275,527;    0,890;   -0,409
806,425;23716,593;    3,890;    2,682
806,990;23361,023;    1,890;    4,318
807,555;23898,362;   -0,110;    2,591
808,120;23785,610;   -1,292;   -0,409
808,685;23826,767;    1,072;   -2,500
809,250;23297,833;    2,072;   -0,500
809,815;23609,444;   -0,201;    0,682
810,380;24179,237;    0,981;    1,591
810,945;24677,303;    2,890;    2,045
811,510;23884,642;   -0,200;    1,591
812,075;23565,253;    2,800;   -1,409
812,640;23593,774;    3,709;    1,409
813,204;23638,476;    2,163;   -0,227
813,769;24154,724;    0,254;   -0,045
814,334;23538,426;    0,527;    0,864
814,898;23578,492;    1,981;    0,591
815,463;23416,013;    0,981;   -0,773
816,027;23395,352;    1,345;   -2,318
816,592;23481,327;    2,163;   -2,045
817,156;22977,120;   -2,200;    1,136
817,721;22790,641;    0,982;    2,318
818,285;22734,707;    0,618;    1,500
818,849;23427,318;   -0,018;    1,682
819,414;23338,839;    0,073;    2,955
819,978;22872,086;   -0,291;    1,773
820,542;23490,971;    2,891;    0,500
821,106;23245,855;    2,800;    0,682
821,670;23320,103;    2,709;    2,591
822,234;22952,078;    1,073;    1,409
822,798;22376,235;   -0,836;    0,500
823,362;22331,028;    1,527;    4,227
823,926;21555,730;   -0,018;    1,136
824,490;21797,069;    3,527;   -0,682
825,054;22269,680;    2,527;   -1,136
825,618;21915,837;   -1,200;   -1,500
826,181;21837,721;    0,982;   -1,318
826,745;21742,333;   -0,745;   -1,045
827,309;22063,217;    2,255;    1,318
827,872;21486,556;    0,527;    0,955
828,436;22500,804;    1,982;   -0,773
828,999;22575,688;    2,436;    1,227
829,563;21381,572;   -0,654;    1,136
830,126;21140,456;   -0,018;   -0,591
830,690;21099,704;    0,709;    2,864
831,253;20634,770;   -0,473;    2,227
831,816;20769,654;   -0,018;    0,500
832,380;20700,629;    1,164;    0,864
832,943;20909,786;    3,073;   -0,500
833,506;20400,307;    0,255;   -1,227
834,069;21215,009;    2,164;   -0,955
834,632;21280,257;   -2,200;    1,318
835,195;21145,323;    1,346;    0,955
835,758;20331,389;    0,709;    1,955
836,321;20149,364;    1,073;   -1,045
836,884;20270,612;   -1,291;   -0,955
837,447;20300,496;    0,528;    1,773
838,010;20532,016;    1,800;    3,227
838,573;20857,810;    0,528;    0,773
839,135;20757,421;   -0,109;   -0,955
839,698;20218,214;    2,528;    0,409
840,261;19704,008;    0,255;   -0,227
840,823;19563,346;   -0,927;    0,864
841,386;19853,776;   -0,018;   -2,409
841,948;19706,024;    0,255;    1,773
842,511;19433,635;    0,255;    1,682
843,073;19589,247;    2,982;    0,227
843,636;19377,495;    0,619;   -0,227
844,198;19353,652;    1,255;    0,591
844,760;19490,445;    0,619;    1,955
845,322;19108,784;    0,164;    1,136
845,885;19546,486;   -0,290;    0,591
846,447;20010,461;    0,710;    0,227
847,009;19540,982;    3,983;   -0,682
847,571;19879,957;    1,346;   -2,045
848,133;19952,023;   -0,199;   -1,864
848,695;19795,634;    2,346;    1,409
849,257;19339,700;    1,346;   -1,682
849,819;19528,493;    2,983;   -0,409
850,381;19565,377;    1,801;   -0,864
850,942;19895,443;    1,892;   -0,591
851,504;19824,419;    0,983;    0,227
852,066;19877,666;    1,619;   -1,591
852,628;19415,551;    0,165;    1,955
853,189;18990,798;    0,256;    2,682
853,751;19111,046;   -0,654;    1,409
854,312;18925,658;    1,256;   -1,682
854,874;19457,542;   -0,108;   -0,773
855,435;19943,699;    0,528;   -1,682
855,997;20114,583;    3,983;   -0,136
856,558;19384,013;    0,801;    1,773
857,119;19494,533;   -0,744;    2,864
857,681;19129,417;   -0,108;    0,318
858,242;19167,483;    1,347;   -2,136
858,803;19634,640;    1,074;   -0,773
859,364;20174,706;    0,892;   -4,773
859,925;19531,681;   -0,290;   -0,955
860,486;19446,111;    0,529;   -0,955
861,047;19180,268;    0,165;   -1,227
861,608;18940,697;    0,165;   -0,773
862,169;19107,582;   -0,562;   -0,045
862,730;18855,648;   -0,290;    1,409
863,291;19134,077;    0,438;   -0,500
863,852;19441,325;   -0,926;    1,955
864,412;18869,573;   -1,835;   -0,864
864,973;17428,821;    1,892;    0,500
865,534;17238,432;    2,074;    0,227
866,094;18859,407;    2,620;    0,227
866,655;18439,382;    4,711;    3,318
867,215;18761,994;    0,074;    0,136
867,776;18626,060;   -1,199;   -0,136
868,336;18695,762;    1,529;    0,136
868,897;18099,374;    3,438;    1,682
869,457;17875,440;    3,256;    0,318
870,017;18164,596;    2,438;   -1,227
870,578;18691,026;    1,893;    0,773
871,138;18333,365;    2,620;   -0,955
871,698;17845,885;   -0,562;   -1,318
872,258;17684,588;    0,711;   -2,864
872,818;18068,654;    2,347;    0,045
873,378;18081,174;   -2,198;    1,045
873,938;17607,331;    4,984;    0,500
874,498;17934,852;    1,256;   -1,955
875,058;17789,190;    4,347;    1,773
875,618;17637,984;    1,438;   -2,682
876,177;17571,595;   -0,471;    0,136
876,737;17191,388;   -0,289;    1,955
877,297;17144,363;    2,711;    1,955
877,856;17159,066;    2,529;    0,318
878,416;17109,495;    2,438;   -0,136
878,976;17364,198;    3,438;    0,409
879,535;17532,173;    4,529;    3,136
880,095;17270,148;    1,347;    0,045
880,654;17407,396;    0,347;    1,318
881,213;17445,280;    2,347;    1,500
881,773;17118,346;    1,984;    2,682
882,332;17494,594;    6,075;    5,136
882,891;17341,842;    0,711;    2,136
883,451;17826,089;   -2,016;    1,682
884,010;17276,428;   -1,107;   -0,409
884,569;17345,312;   -2,289;   -0,045
885,128;17400,015;   -0,743;   -1,864
885,687;17503,808;   -0,743;    0,682
886,246;17198,510;    2,620;    2,136
886,805;16940,395;    1,620;    2,045
887,364;17272,370;    1,166;   -0,500
887,922;17672,799;   -0,016;    0,045
888,481;17179,774;    1,530;    0,591
889,040;17426,840;    3,711;    2,136
889,599;18073,452;    2,166;    1,409
890,157;18188,154;    2,166;    2,409
890,716;17840,402;    2,166;    0,227
891,274;17635,468;    0,075;   -1,136
891,833;18048,079;    1,166;    0,864
892,391;17953,327;    1,802;    0,500
892,950;18071,120;    0,166;   -0,773
893,508;18416,641;    0,984;   -0,409
894,067;17801,343;   -0,379;    0,136
894,625;17673,773;   -1,016;   -1,500
895,183;17854,384;   -0,198;   -0,682
895,741;17782,269;    2,257;   -1,773
896,299;17577,698;    1,621;   -2,409
896,858;17840,673;    1,530;   -1,591
897,416;17944,012;    0,166;   -1,318
897,974;17661,714;   -2,197;    0,318
898,532;17767,053;    6,530;    2,682
899,089;17691,301;    0,621;   -0,682
899,647;17755,821;    0,530;    1,318
900,205;17528,342;    0,257;    1,045
900,763;17676,226;    2,166;    0,227
901,321;17651,747;    3,530;   -1,409
901,878;17103,722;    3,257;   -0,773
902,436;16950,788;    0,257;    1,318
902,994;17366,854;    6,712;    3,682
903,551;16791,920;    1,439;    0,409
904,109;17198,531;    1,530;   -1,409
904,666;16781,415;    1,439;    1,045
905,224;16542,572;    3,894;   -0,409
905,781;16291,093;   -0,470;   -0,318
906,338;16409,795;    0,167;    1,045
906,895;16319,679;    1,894;    2,045
907,453;16223,655;    2,348;    1,136
908,010;16259,175;    3,348;    0,409
908,567;15874,968;   -0,561;    0,591
909,124;15443,034;    2,439;   -1,500
909,681;15508,737;   -1,288;    0,682
910,238;15639,621;   -0,106;   -1,318
910,795;15958,778;   -1,561;   -1,136
911,352;15584,869;   -0,379;   -2,682
911,909;14974,778;    2,803;   -0,864
912,466;15439,687;    1,985;    1,500
913,022;15016,596;   -0,924;    0,500
913,579;15372,414;   -0,470;    2,045
914,136;15057,141;   -2,561;    0,955
914,692;15399,051;    1,530;   -1,227
915,249;14959,960;    0,530;    0,409
915,806;15191,505;    1,803;    1,955
916,362;14915,687;    0,894;    1,864
916,918;14461,869;    2,439;    1,045
917,475;14456,778;    1,621;    0,955
918,031;14584,323;    0,076;   -0,045
918,587;13994,141;    0,621;   -0,318
919,144;14205,778;   -0,379;    0,227
919,700;14558,505;    0,167;    0,773
920,256;14122,687;    0,439;    0,045
920,812;13718,051;    1,439;   -1,045
921,368;13724,596;    1,348;   -1,045
921,924;13375,505;    0,439;   -0,136
922,480;12913,778;    0,076;    1,227
923,036;13557,505;   -0,652;    1,955
923,592;13508,141;    0,621;    0,318
924,148;13392,960;    1,894;   -0,955
924,704;12701,141;    0,258;   -0,409
925,259;12991,323;   -0,561;    0,591
925,815;12707,960;    3,803;    0,500
926,371;12263,141;    3,530;    1,409
926,926;12130,141;    1,621;    0,591
927,482;11705,960;    1,621;    0,773
928,037;11620,051;   -0,833;    2,045
928,593;11889,596;    0,258;    1,045
929,148;11684,596;    1,167;   -1,500
929,704;11234,596;    2,439;   -0,500
930,259;11410,596;    0,894;   -0,136
930,814;10473,505;    1,803;    1,955
931,369;10187,869;    0,258;   -0,773
931,925;10094,051;   -1,924;    0,136
932,480; 9948,141;    3,076;   -2,591
933,035; 9790,687;    3,985;   -0,318
933,590; 9575,414;   -1,742;   -1,773
934,145; 9205,505;   -1,288;   -0,318
934,700; 9582,141;    0,348;   -0,591
935,255; 9372,960;    4,803;    0,045
935,809; 8620,596;    6,258;    0,864
936,364; 7751,869;    2,167;   -0,136
936,919; 7702,141;    2,348;   -1,773
937,474; 7563,596;    1,348;    0,136
938,028; 7325,051;    3,076;    1,136
938,583; 6764,505;    6,348;    4,682
939,138; 7103,960;    0,167;    2,136
939,692; 6552,505;   -1,015;   -1,136
940,247; 6178,596;    1,167;   -1,045
940,801; 5715,960;    0,621;    0,227
941,355; 5644,323;    0,439;    2,591
941,910; 5314,869;    0,712;   -2,136
942,464; 5382,869;    2,712;   -0,318
943,018; 5155,414;    3,258;   -0,227
943,572; 5113,232;    2,803;   -0,682
944,126; 4498,505;   -0,924;   -0,409
944,681; 4351,596;    0,712;    0,227
945,235; 4363,323;    2,167;   -0,591
945,789; 4314,596;    1,258;   -1,864
946,342; 4372,414;   -0,561;   -0,591
946,896; 4206,232;    0,348;    0,955
947,450; 3971,414;   -0,561;   -0,227
948,004; 4148,051;    1,076;   -0,045
948,558; 4159,232;    1,258;   -0,864
949,111; 4087,051;   -1,197;   -0,318
949,665; 4097,323;   -0,106;   -0,682
950,219; 3966,596;    0,621;   -1,045
950,772; 4058,414;    0,258;    1,864
951,326; 3971,051;   -1,106;   -0,955
951,879; 4075,323;    1,076;   -2,318
952,433; 4090,051;    1,348;    2,227
952,986; 3933,687;    0,348;    0,682
953,539; 3874,596;    1,530;    0,591
954,093; 3827,141;    0,985;   -1,318
954,646; 3971,778;   -0,288;    1,318
955,199; 3765,596;    1,258;   -0,500
955,752; 3624,051;    1,985;    1,773
956,305; 3591,687;    0,894;    2,955
956,858; 3753,141;    0,621;   -0,318
957,411; 3928,596;    3,621;    2,136
957,964; 3762,505;    2,076;    2,136
958,517; 3756,051;    0,985;    3,136
959,070; 3564,778;   -1,197;    1,955
959,623; 3626,596;    1,076;    1,500
960,176; 3402,414;    0,712;    2,045
960,728; 3380,778;    1,712;    0,773
961,281; 3453,141;    2,258;    0,500
961,834; 3495,505;   -0,833;    0,864
962,386; 3413,505;    1,258;    1,045
962,939; 3335,051;    3,439;   -0,318
963,491; 3481,869;    2,621;    1,136
964,043; 3352,869;    0,076;    2,409
964,596; 3473,232;    1,712;    2,227
965,148; 3292,051;   -0,379;    1,773
965,700; 3228,687;   -0,015;   -0,227
966,253; 3399,051;   -0,833;    0,318
966,805; 3226,141;    1,894;    0,773
967,357; 3277,232;    0,439;   -1,500
967,909; 3211,869;    1,167;   -1,227
968,461; 3358,960;    0,894;    3,136
969,013; 3261,687;   -1,561;   -0,864
969,565; 3330,778;    1,803;   -1,136
970,117; 3370,505;    3,803;    1,045
970,669; 3233,687;    3,258;   -0,136
971,220; 3119,505;    2,167;   -1,500
971,772; 3023,687;    1,348;   -0,318
972,324; 3127,960;   -1,197;   -0,500
972,876; 3081,960;    0,167;   -0,045
973,427; 3218,960;   -1,197;   -1,045
973,979; 3196,960;    0,076;   -2,500
974,530; 3225,414;    0,803;    1,318
975,082; 3235,960;    2,167;    1,682
975,633; 3131,869;    2,894;    1,682
976,184; 3289,141;    2,076;    0,773
976,736; 3066,323;    0,348;    0,227
977,287; 2853,232;    0,258;   -0,500
977,838; 3046,960;   -0,924;   -0,318
978,389; 3089,232;    0,803;   -0,500
978,940; 2942,414;    1,258;   -0,409
979,491; 2987,596;    2,258;   -0,500
980,042; 2957,869;   -0,652;    3,045
980,593; 3020,505;    1,894;    0,227
981,144; 3039,596;    3,530;   -0,500
981,695; 3019,869;   -0,470;    1,500
982,246; 2988,505;   -1,833;    1,045
982,797; 3145,141;   -0,561;    0,682
983,347; 3263,051;    2,167;    0,591
983,898; 3422,414;    4,167;    0,409
984,449; 3241,141;    2,530;    0,773
984,999; 3160,141;    1,894;   -1,136
985,550; 2909,687;    3,167;   -0,318
986,100; 2969,778;    0,712;   -0,318
986,651; 2995,596;    0,258;    0,045
987,201; 2970,323;    0,894;   -0,591
987,751; 3069,778;   -0,288;    2,864
988,302; 3049,141;   -0,379;    1,500
988,852; 3063,232;    1,985;   -1,136
989,402; 3097,960;    0,985;    0,682
989,952; 3012,232;    1,621;    0,864
990,502; 3113,778;    1,076;    0,682
991,052; 3097,051;   -0,106;    0,045
991,602; 2948,960;    1,167;    1,318
992,152; 2944,596;    2,803;    0,682
992,702; 2932,141;    1,167;   -0,045
993,252; 2847,232;    0,076;   -0,500
993,802; 2921,778;    1,167;    1,318
994,352; 3183,232;   -0,742;    1,136
994,901; 3296,051;    1,076;    3,227
995,451; 3194,232;   -1,197;    0,318
996,000; 3269,414;    1,076;    0,318
996,550; 2969,869;    2,894;    0,227
997,100; 2985,232;   -0,561;   -0,045
997,649; 3271,323;   -0,197;    0,955
998,198; 2900,778;   -0,288;   -1,500
998,748; 3075,596;    0,348;   -2,318
999,297; 2982,596;    0,985;   -0,409
999,846; 3065,414;    1,894;   -0,773
1000,395; 3114,051;    1,530;    0,500
1000,945; 3061,051;    1,076;   -0,773
1001,494; 3144,414;    0,167;    0,682
1002,043; 3135,778;    0,712;    0,864
1002,592; 2973,051;    3,439;    1,955
1003,141; 3129,596;    2,439;   -0,682
1003,690; 2959,960;    1,258;    0,500
1004,238; 3039,232;   -0,106;   -0,045
1004,787; 2654,051;   -1,288;    1,227
1005,336; 2889,232;    1,621;    0,682
1005,885; 3050,505;   -0,197;   -2,773
1006,433; 3200,687;   -0,470;    0,955
1006,982; 3257,505;    2,167;    1,682
1007,531; 3175,596;    2,712;   -0,227
1008,079; 3133,232;    0,258;    0,500
1008,627; 3282,596;    1,621;    0,409
1009,176; 3010,232;    0,076;   -1,955
1009,724; 3062,414;   -2,742;    0,864
1010,273; 3104,687;    1,076;    0,500
1010,821; 3246,232;    1,076;    1,409
1011,369; 2968,051;    0,076;    1,318
1011,917; 2949,687;   -0,833;   -0,591
1012,465; 3243,869;    2,530;   -1,591
1013,013; 3353,051;    0,439;   -1,682
1013,561; 3213,869;   -1,288;   -0,773
1014,109; 3245,414;   -0,833;    1,682
1014,657; 3130,414;    1,348;    0,591
1015,205; 3279,141;    0,894;   -0,955
1015,753; 3302,505;    0,258;   -1,409
1016,301; 3317,869;    2,621;    3,045
1016,848; 3347,687;    2,167;    0,409
1017,396; 3369,687;    1,621;    0,045
1017,944; 3487,505;    2,621;    1,864
1018,491; 3255,869;   -0,197;    1,409
1019,039; 3388,869;   -0,652;    0,591
1019,586; 3318,323;    0,076;    1,682
1020,134; 3442,869;    0,712;    1,500
1020,681; 3438,232;    2,894;   -1,136
1021,228; 3454,141;   -0,561;   -2,227
1021,776; 3285,778;   -0,833;   -1,136
1022,323; 3494,869;    0,803;    0,773
1022,870; 3456,232;   -0,470;   -0,045
1023,417; 3335,051;    2,076;    1,864
1023,964; 3482,323;    0,621;    1,227
1024,511; 3309,778;   -0,652;    0,773
1025,058; 3115,141;    0,439;   -0,045
1025,605; 3155,687;   -1,742;    3,136
1026,152; 3354,232;   -0,106;   -0,591
1026,699; 3088,141;    0,167;    1,318
1027,245; 3265,687;    2,439;    0,318
1027,792; 3513,232;    0,712;    1,409
1028,339; 3358,687;    4,076;   -0,045
1028,885; 3212,687;    3,621;   -0,227
1029,432; 3148,141;   -0,106;    0,227
1029,978; 3207,869;    1,348;   -1,591
1030,525; 3114,323;    1,621;    0,409
1031,071; 3368,596;    0,348;    1,136
1031,618; 3462,596;    1,258;    1,682
1032,164; 3256,323;    2,076;    3,045
1032,710; 3299,232;    0,076;   -1,500
1033,256; 3227,232;    0,712;   -0,136
1033,803; 3217,778;   -0,288;    1,500
1034,349; 2960,778;    1,803;    0,136
1034,895; 3107,051;    2,621;   -0,318
1035,441; 3069,051;    0,439;    0,318
1035,987; 3077,687;   -2,288;   -0,682
1036,533; 3083,869;   -0,197;   -0,955
1037,078; 3275,778;    4,712;    1,682
1037,624; 3096,141;    2,439;   -0,955
1038,170; 3116,323;    1,712;   -0,318
1038,716; 3003,141;    2,167;   -0,409
1039,261; 2922,869;    2,167;   -0,773
1039,807; 2865,141;   -0,015;    3,409
1040,352; 2928,869;   -1,288;   -0,318
1040,898; 2970,778;    0,167;   -0,682
1041,443; 2897,869;    0,803;   -2,591
1041,989; 2910,323;    3,621;    1,591
1042,534; 2800,596;    0,985;    2,591
1043,079; 2928,051;    1,985;    0,955
1043,625; 2679,323;    0,258;    0,500
1044,170; 2715,778;    2,439;    1,045
1044,715; 2987,778;    0,167;    0,955
1045,260; 2807,323;   -0,833;   -0,955
1045,805; 2867,051;    0,258;   -0,591
1046,350; 2811,051;    0,530;   -0,409
1046,895; 2755,960;    0,803;    1,591
1047,440; 2701,869;    1,530;    0,409
1047,985; 2609,505;   -1,197;   -0,955
1048,530; 2523,051;    1,348;    1,227
1049,074; 2586,960;    2,803;    0,318
1049,619; 2555,141;   -0,924;    1,955
1050,164; 2344,505;    1,076;    0,227
1050,708; 2405,960;    2,621;    0,045
1051,253; 2769,323;    3,258;   -2,227
1051,797; 2487,323;   -0,197;   -1,318
1052,342; 2509,051;    1,348;    1,045
1052,886; 2489,323;    1,803;   -1,409
1053,430; 2384,141;    2,167;    0,136
1053,975; 2394,232;    0,894;   -0,318
1054,519; 2362,869;    1,803;    3,227
1055,063; 2361,505;    3,621;    1,318
1055,607; 2250,141;    1,348;    0,227
1056,151; 2290,414;    0,530;    1,682
1056,695; 2213,141;   -1,833;   -1,136
1057,239; 2267,232;   -1,197;   -0,682
1057,783; 2259,141;    2,258;   -1,500
1058,327; 2217,960;    3,076;    1,409
1058,871; 2441,960;    3,985;    1,318
1059,415; 2141,414;   -0,561;   -0,045
1059,958; 2388,414;    2,985;    2,591
1060,502; 2115,141;    1,348;   -0,773
1061,046; 2038,505;    1,712;   -0,955
1061,589; 2010,778;    2,803;   -1,136
1062,133; 1889,960;    0,985;    1,864
1062,676; 1839,869;    1,439;    0,864
1063,220; 1837,778;    0,985;    0,500
1063,763; 1853,141;    2,985;    1,136
1064,306; 1913,778;    0,985;    1,864
1064,849; 1813,687;    2,076;    0,591
1065,393; 1816,869;    2,894;   -1,500
1065,936; 1943,323;    2,530;   -0,409
1066,479; 1825,869;    2,621;    1,318
1067,022; 1853,869;    1,894;   -0,227
1067,565; 1747,596;   -1,197;   -1,318
1068,108; 1778,960;    1,258;   -0,591
1068,651; 1756,960;   -2,470;    1,409
1069,194; 1697,051;   -1,106;   -1,682
1069,736; 1677,414;    3,803;    0,955
1070,279; 1655,505;   -1,652;   -0,500
1070,822; 1708,869;    1,530;   -0,318
1071,364; 1761,141;    0,530;    1,318
1071,907; 1591,778;    0,348;    3,227
1072,450; 1522,778;    0,258;   -0,045
1072,992; 1511,687;   -0,561;    3,136
1073,535; 1629,960;    0,167;    2,136
1074,077; 1443,414;    2,985;    2,045
1074,619; 1403,960;    0,985;    0,591
1075,161; 1424,414;   -0,561;    1,500
1075,704; 1609,505;    0,258;    1,227
1076,246; 1414,778;    1,530;    0,682
1076,788; 1347,687;   -1,015;    1,773
1077,330; 1431,232;   -2,106;    2,136
1077,872; 1388,141;   -1,924;    0,955
1078,414; 1592,596;    3,712;    0,773
1078,956; 1327,869;    0,167;   -0,227
1079,498; 1570,323;    0,439;    0,318
1080,040; 1283,687;    0,985;   -1,318
1080,581; 1232,778;    0,621;   -0,318
1081,123; 1174,141;   -0,106;   -0,773
1081,665; 1220,960;    3,803;   -0,955
1082,206; 1495,778;    3,258;   -0,500
1082,748; 1357,778;    3,258;    2,045
1083,289; 1251,232;    0,167;    1,318
1083,831; 1167,505;    0,258;    0,227
1084,372; 1193,141;    0,894;    0,591
1084,913; 1187,596;    3,348;    0,864
1085,455; 1156,232;    1,530;   -2,045
1085,996; 1128,687;    0,530;    0,136
1086,537; 1146,778;    0,985;    0,864
1087,078; 1185,414;    0,439;   -2,136
1087,619; 1213,869;   -1,652;    0,227
1088,160; 1122,596;    1,439;    1,318
1088,701; 1129,051;   -0,742;    0,682
1089,242; 1068,414;   -0,561;   -2,227
1089,783; 1148,323;   -0,561;    1,409
1090,324; 1116,778;   -0,833;    0,682
1090,865; 1004,687;   -1,924;   -0,409
1091,405;  991,869;   -0,561;    2,227
1091,946; 1015,960;   -0,197;   -0,955
1092,487;  945,778;   -1,288;   -1,409
1093,027; 1091,414;    1,803;   -1,500
1093,568;  943,687;    2,258;    1,227
1094,108; 1031,232;    0,621;    1,773
1094,649;  979,051;   -0,470;    0,136
1095,189;  927,778;    1,167;   -0,682
1095,729;  876,596;    0,712;    0,955
1096,269;  879,323;    1,258;   -0,955
1096,810; 1180,323;   -0,197;    0,500
1097,350; 1005,232;   -0,561;   -0,773
1097,890;  912,687;    2,985;    1,227
1098,430; 1158,778;    4,985;    2,864
1098,970; 1032,596;    1,894;    1,682
1099,510;  906,051;   -0,833;   -2,318
1100,050;  827,596;    0,258;   -1,591
1100,589;  797,505;    0,076;   -0,318
1101,129;  917,960;    0,894;   -0,955
1101,669; 1049,051;    2,803;    2,136
1102,209;  884,596;    1,530;    2,227
1102,748;  836,778;    3,439;    0,955
1103,288;  828,778;    0,712;   -1,227
1103,827;  850,414;    3,530;   -2,227
1104,367;  743,414;    1,712;   -2,409
1104,906;  710,232;   -1,015;   -1,136
1105,445;  772,960;    0,985;   -1,136
1105,985;  711,505;   -0,652;    1,500
1106,524;  757,232;    1,530;   -0,682
1107,063;  738,232;    1,167;    1,409
1107,602;  713,596;    1,894;   -1,500
1108,141;  639,232;    1,621;    1,500
1108,680;  725,960;    3,985;   -0,591
1109,219;  671,596;    0,167;   -0,500
1109,758;  677,778;    4,167;    0,682
1110,297;  651,778;   -1,106;   -0,682
1110,836;  595,414;    1,439;    0,955
1111,375;  747,323;    0,348;    0,409
1111,913;  756,323;    0,985;    0,773
1112,452;  701,141;    0,894;    0,136
1112,991;  588,687;    1,076;    1,955
1113,529;  548,505;    0,167;   -0,045
1114,068;  610,960;    0,439;    2,955
1114,606;  519,687;   -0,561;   -0,955
1115,144;  676,960;    1,530;    1,045
1115,683;  607,232;    1,985;    0,318
1116,221;  668,687;    2,076;   -0,864
1116,759;  573,414;    1,621;   -0,864
1117,297;  755,596;    1,621;    1,864
1117,836;  571,505;    1,985;   -1,227
1118,374;  566,869;    0,258;   -0,682
1118,912;  524,323;    0,439;    2,682
1119,450;  510,778;    0,985;    0,864
1119,988;  567,141;    3,348;    2,136
1120,525; 1002,232;    7,258;    3,318
1121,063;  707,141;    0,530;    1,864
1121,601;  523,051;    1,076;   -1,227
1122,139;  476,232;    1,076;   -2,045
1122,676;  669,778;   -1,652;    2,773
1123,214;  607,051;    0,712;    4,409
1123,751;  424,323;    0,621;    2,227
1124,289;  559,414;    0,894;   -0,409
1124,826;  424,687;   -0,379;    0,227
1125,364;  352,141;    0,712;   -0,955
1125,901;  529,505;    6,258;    1,227
1126,438;  626,414;    3,530;    0,955
1126,975;  367,414;    2,985;   -0,773
1127,513;  439,687;    2,621;    2,136
1128,050;  352,687;   -0,561;   -0,682
1128,587;  438,141;    1,348;   -0,227
1129,124;  481,505;   -0,015;    1,318
1129,661;  356,778;   -1,924;    0,227
1130,198;  516,414;    2,439;    0,773
1130,734;  458,505;   -0,379;    1,409
1131,271;  324,505;   -1,197;    0,864
1131,808;  491,869;    1,621;    3,045
1132,345;  365,414;    4,530;    0,318
1132,881;  249,051;   -0,561;   -1,864
1133,418;  375,596;    0,348;   -1,136
1133,954;  326,232;    0,712;   -2,682
1134,491;  386,596;    1,712;   -0,773
1135,027;  294,778;    2,167;    0,864
1135,564;  372,051;    1,439;    2,955
1136,100;  354,051;   -0,742;    2,136
1136,636;  253,687;   -1,015;   -1,045
1137,172;  337,323;    0,894;   -1,045
1137,708;  272,505;   -1,561;   -1,045
1138,245;  270,687;    0,803;   -1,227
1138,781;  239,960;    1,803;   -3,318
1139,317;  300,960;    1,894;   -1,409
1139,852;  285,051;    3,076;    0,136
1140,388;  383,232;    2,076;   -0,409
1140,924;  282,414;    1,076;   -2,227
1141,460;  219,323;   -0,288;    0,136
1141,996;  167,596;   -0,652;    2,682
1142,531;  207,596;    1,076;    3,318
1143,067;  413,869;    1,167;    1,045
1143,602;  458,141;    3,439;   -0,318
1144,138;  310,232;    0,803;    1,045
1144,673;  193,505;    1,621;    1,409
1145,209;  256,323;    2,894;   -0,318
1145,744;  179,141;    0,803;    0,864
1146,279;  300,414;    1,530;   -0,136
1146,815;  222,141;    1,530;   -2,682
1147,350;  257,869;   -0,924;    0,045
1147,885;  185,141;   -1,924;   -1,318
1148,420;  177,414;    2,439;    0,773
1148,955;  154,596;   -1,470;    1,864
1149,490;  186,687;   -1,106;   -1,591
1150,025;  163,687;   -1,106;   -1,773
1150,560;  270,051;   -0,288;   -0,955
1151,094;  242,323;    0,258;   -0,591
1151,629;  240,414;   -3,742;    0,864
1152,164;  175,596;   -1,288;    1,318
1152,698;  139,505;    1,258;   -0,136
1153,233;  100,323;   -1,379;   -0,682
1153,767;  150,141;   -0,288;   -2,318
1154,302;  192,778;   -0,379;    1,773
1154,836;  190,232;    0,803;   -2,136
1155,371;  234,869;    2,258;    3,682
1155,905;  194,505;    1,985;    1,682
1156,439;  168,141;    0,530;   -0,500
1156,973;  192,778;    0,439;    0,318
1157,507;  138,141;   -1,742;    0,682
1158,042;  158,687;   -0,652;    1,045
1158,576;  201,596;   -0,561;    1,773
1159,110;  188,051;    0,076;    2,409
1159,643;  167,869;   -2,470;   -0,045
1160,177;  113,960;   -2,015;    1,500

