
Integration time [ms]:   0,040
Averaging Nr. [scans]: 11
Smoothing Nr. [pixels]: 0
Data measured with spectrometer [name]: 7318044SP
Wave   ;Sample   ;Dark     ;Reference
[nm]   ;[counts] ;[counts] ;[counts] 

186,757;   31,907;   38,161;    1,318
187,357;   57,768;   26,706;    0,955
187,958;   40,479;   17,252;   -1,591
188,558;   78,858;   12,979;   -1,227
189,159;   40,796;   10,070;   -4,500
189,759;   10,430;    5,797;   -3,591
190,360;   18,399;    6,797;   -2,136
190,960;   50,614;    5,706;   -4,136
191,560;   64,326;    2,614;   -6,591
192,161;  277,350;    5,885;   -3,500
192,761;  138,281;    5,520;   -3,227
193,361;   91,793;    3,065;   -3,773
193,962;  143,967;    1,612;   -2,682
194,562;   69,991;   -0,114;   -3,955
195,162;   99,422;   -0,567;   -2,227
195,762;  249,210;    2,433;   -0,045
196,362;  202,413;    1,706;   -2,500
196,963;   77,807;    1,706;   -0,864
197,563;  141,018;    1,252;   -0,955
198,163;   92,036;   -0,111;   -0,682
198,763;  106,961;   -0,020;   -0,500
199,363;  201,511;    3,616;   -0,500
199,963;  170,841;    2,162;    0,409
200,563;  145,319;    6,344;   -1,409
201,163;  125,007;    5,435;   -0,227
201,763;  208,930;    1,435;    0,318
202,363;  152,900;    0,980;    1,500
202,963;  240,884;    1,526;    1,045
203,563;  354,320;    0,344;    0,500
204,162;  213,145;    1,889;   -1,864
204,762;  195,244;    2,071;    0,591
205,362;  163,668;    0,708;    1,955
205,962;  252,119;    3,435;    1,955
206,562;  248,244;    1,889;    2,318
207,161;  217,627;    1,708;    0,318
207,761;  372,085;    4,435;    2,409
208,361;  256,194;    1,889;    1,409
208,960;  344,304;    2,889;    1,500
209,560;  400,727;    0,435;    1,591
210,160;  384,657;    5,071;    1,864
210,759;  346,071;    0,708;    1,227
211,359;  358,322;   -0,474;    1,045
211,958;  600,685;    3,526;    2,045
212,558;  660,447;    0,799;    1,864
213,157;  519,629;   -0,929;    1,500
213,757;  936,378;    5,617;   -0,227
214,356;  642,646;    1,708;   -0,409
214,956;  955,957;    3,526;    0,409
215,555;  595,455;    0,617;    2,136
216,154;  536,297;   -0,292;   -0,591
216,754;  536,611;    1,253;    0,773
217,353;  656,664;   -0,383;   -1,045
217,952;  518,083;    2,072;    0,318
218,552;  741,971;    0,254;   -0,773
219,151;  634,197;   -1,110;    0,955
219,750;  631,755;    0,890;   -0,227
220,349;  705,752;   -2,292;    1,045
220,948;  809,550;    1,163;    1,136
221,548;  788,278;    0,617;    1,227
222,147;  886,225;   -1,292;   -0,409
222,746; 1175,249;    1,254;   -0,955
223,345; 1035,417;   -1,019;    0,500
223,944; 1032,155;    1,163;    0,773
224,543; 1166,427;    4,072;   -1,409
225,142; 1283,611;    1,345;    0,136
225,741; 1177,440;    1,163;    1,045
226,340; 1186,722;    1,254;   -0,955
226,939; 1605,085;    2,708;   -0,136
227,538; 1493,253;    1,163;   -0,773
228,137; 1653,956;    0,435;    0,864
228,735; 1741,341;    0,435;    1,227
229,334; 1518,474;   -0,474;   -0,227
229,933; 1898,115;    0,799;    0,591
230,532; 1995,639;   -1,201;   -0,409
231,131; 2058,466;    1,253;    0,318
231,729; 2125,674;    1,163;   -2,318
232,328; 2161,441;    0,435;   -1,500
232,927; 2210,750;    4,526;   -0,500
233,525; 2299,439;    0,981;    0,045
234,124; 2495,161;    1,890;   -1,591
234,723; 2504,721;    1,617;   -1,045
235,321; 2610,089;    1,163;    0,136
235,920; 2790,108;    2,526;   -1,227
236,518; 3051,386;    1,072;    0,318
237,117; 3157,052;    2,890;   -0,227
237,715; 3302,702;    1,163;   -0,500
238,314; 3352,576;    1,708;   -2,318
238,912; 3458,418;    0,526;   -1,409
239,510; 3478,683;    1,162;   -1,227
240,109; 3646,032;   -0,474;    3,773
240,707; 3667,995;   -0,474;    1,227
241,305; 3968,326;   -0,383;    0,136
241,904; 4146,508;   -0,292;   -2,045
242,502; 4131,809;    3,253;   -0,227
243,100; 4079,562;    3,344;   -0,955
243,698; 4307,212;    2,799;    1,682
244,297; 4448,998;   -0,656;    0,682
244,895; 4323,950;   -0,474;   -2,318
245,493; 4616,262;    2,981;   -0,591
246,091; 4647,323;    5,163;   -1,318
246,689; 4615,344;    2,163;    0,591
247,287; 4753,978;   -0,019;   -1,136
247,885; 5005,195;   -1,019;    1,227
248,483; 5103,793;   -0,201;   -0,500
249,081; 5217,956;    0,981;    1,591
249,679; 5360,063;   -1,019;    1,682
250,277; 5575,887;   -2,292;    0,864
250,875; 5557,178;    0,617;   -1,045
251,473; 5569,873;   -0,019;    0,500
252,071; 5765,793;   -0,383;    1,045
252,669; 5920,246;   -1,565;    0,318
253,267; 6115,079;    1,618;    0,773
253,864; 6030,887;    0,617;    0,682
254,462; 5982,076;    1,526;    1,591
255,060; 5934,272;    0,072;    1,318
255,658; 6220,610;   -3,292;   -0,136
256,255; 6614,908;   -0,201;   -2,045
256,853; 6489,741;    2,345;    1,409
257,451; 6477,031;    1,981;    1,864
258,048; 6729,045;    2,072;    1,864
258,646; 6481,370;    0,436;   -1,045
259,243; 6676,468;    2,981;    2,227
259,841; 6726,111;    1,799;    0,318
260,438; 6626,151;    0,254;    0,864
261,036; 7256,819;    0,617;    1,409
261,633; 7166,659;    1,526;    2,227
262,231; 6958,514;   -0,110;   -0,045
262,828; 7036,329;   -0,383;    1,136
263,425; 7048,723;   -1,928;   -0,591
264,023; 7310,363;    1,436;    0,045
264,620; 6890,139;    1,526;   -0,318
265,217; 7221,680;    2,890;    3,136
265,815; 7311,361;    2,527;    2,136
266,412; 7133,910;    0,072;    0,136
267,009; 7149,325;    0,526;    0,773
267,606; 7098,642;    0,345;   -0,955
268,203; 7082,849;   -0,383;   -0,591
268,801; 7284,836;   -0,474;    0,591
269,398; 7551,974;   -0,564;    2,500
269,995; 7535,602;    0,890;    1,591
270,592; 7348,406;    0,799;   -0,500
271,189; 7524,724;    1,981;    0,409
271,786; 7607,544;    2,072;    1,227
272,383; 7505,322;   -0,383;    0,227
272,980; 7656,078;    1,617;    0,318
273,577; 8084,203;    2,162;    1,227
274,174; 7660,961;    1,435;    2,591
274,771; 7655,246;    1,890;   -0,773
275,367; 7807,224;    3,253;    1,409
275,964; 7792,474;   -0,565;   -0,500
276,561; 7868,365;   -2,474;   -1,045
277,158; 8069,154;    1,799;   -1,773
277,755; 8192,501;   -0,110;    0,409
278,351; 7633,754;    0,436;   -1,500
278,948; 7903,135;   -0,201;    0,045
279,545; 7920,228;    0,527;    2,318
280,141; 8490,933;    1,254;   -2,045
280,738; 8353,288;    2,435;   -0,136
281,334; 8547,337;   -0,383;    0,591
281,931; 7975,896;    2,890;   -1,318
282,528; 8102,024;    4,072;   -0,500
283,124; 8750,440;    3,345;   -0,500
283,721; 8644,343;    0,709;    1,409
284,317; 8495,194;    0,163;    2,500
284,913; 9000,096;   -0,110;    0,591
285,510; 9218,096;    2,890;   -0,318
286,106; 9235,709;    2,345;   -0,955
286,703; 8830,993;    0,072;    1,955
287,299; 9024,838;    1,254;   -0,591
287,895; 9218,799;    0,890;   -1,045
288,491; 9753,428;    0,163;    2,136
289,088; 9517,762;    0,163;    2,409
289,684; 9579,246;    2,890;    1,500
290,280; 9577,269;    1,890;    0,682
290,876; 9649,864;    0,163;    5,500
291,472; 9572,450;    2,163;    2,227
292,068; 9668,576;    1,254;    0,227
292,665; 9385,020;   -0,564;    0,773
293,261; 9038,773;   -1,292;    2,136
293,857; 9433,493;    4,072;    2,136
294,453; 9388,681;   -0,928;    0,955
295,049; 9231,607;    0,253;    1,955
295,644; 9285,452;   -1,292;    0,136
296,240; 9205,057;    0,162;   -0,136
296,836; 9243,427;   -0,747;    0,318
297,432; 9497,919;    2,980;   -0,500
298,028; 9495,329;    0,435;    0,773
298,624; 9866,728;    0,889;    1,864
299,220;10114,802;    0,435;    0,591
299,815; 9781,234;    0,526;   -0,409
300,411; 9618,153;    0,435;    1,773
301,007; 9598,483;    1,889;    0,227
301,602; 9624,453;    2,071;   -2,318
302,198; 9815,783;    1,435;   -0,773
302,794;10113,751;    1,526;   -0,500
303,389;10222,688;    1,071;    1,045
303,985;10295,057;    1,253;    1,409
304,580;10238,136;    0,889;    1,591
305,176;10222,220;    0,344;    0,136
305,771;10185,055;   -0,929;   -1,227
306,367;10033,067;    3,071;    0,136
306,962;10342,726;    2,889;    1,500
307,558;10102,679;    2,435;    0,136
308,153;10019,927;   -0,383;   -1,136
308,748;10231,393;    0,162;    1,682
309,344;10193,363;    0,253;   -1,318
309,939;10311,757;    2,071;   -1,318
310,534;10592,696;   -2,020;   -1,682
311,130;10499,691;   -0,656;   -2,500
311,725;10241,705;    0,526;   -0,500
312,320;10571,206;    1,253;    0,045
312,915;10428,675;    2,890;   -1,045
313,510;10474,162;    0,526;   -0,500
314,105;10945,944;   -3,565;    1,409
314,700;10370,958;   -1,656;   -1,045
315,295;10057,681;   -0,020;    0,045
315,890; 9673,040;   -0,292;    0,864
316,485; 9959,572;    0,253;   -0,318
317,080;10065,411;   -0,929;    1,591
317,675;10559,367;    3,071;   -0,682
318,270;10018,133;    6,889;    3,318
318,865;10026,154;    2,435;    3,045
319,460; 9886,339;   -1,565;    0,591
320,055;10101,592;   -2,565;   -1,227
320,650; 9792,582;   -1,838;   -0,591
321,244; 9809,760;    0,889;   -1,409
321,839;10700,441;    0,980;   -0,227
322,434;10597,479;   -0,111;   -1,591
323,029;10276,051;   -0,474;    1,591
323,623;10077,483;    0,798;    0,773
324,218; 9924,016;    2,707;    1,409
324,812; 9843,366;    0,889;    1,591
325,407; 9660,521;   -0,929;    2,045
326,002; 9611,455;    0,526;   -0,409
326,596; 9919,930;   -0,656;    1,318
327,191;10111,560;   -0,383;   -1,045
327,785; 9717,930;   -0,747;   -0,227
328,379; 9946,947;   -0,383;    0,136
328,974; 9734,789;    1,798;   -3,955
329,568; 9993,096;    2,889;   -2,409
330,163; 9815,942;    2,435;    1,045
330,757;10146,395;    0,253;    1,591
331,351; 9520,285;   -0,292;    0,682
331,945; 9852,045;   -0,383;    1,409
332,540; 9455,628;    1,617;   -0,591
333,134; 9604,057;    3,344;    0,773
333,728; 9801,059;    2,799;    0,318
334,322;10084,103;    0,889;   -0,864
334,916; 9421,531;    0,344;    0,955
335,510; 9750,078;   -0,111;   -0,136
336,105; 9961,287;   -0,929;    1,591
336,699; 9666,293;   -1,292;    0,591
337,293; 9629,549;    1,071;    0,318
337,887; 9755,047;    0,071;    1,955
338,481; 9828,945;    2,980;    0,591
339,074;10016,461;    2,071;    2,682
339,668; 9809,724;   -0,110;    1,227
340,262;10031,605;    7,708;    3,227
340,856; 9564,662;    1,708;   -0,682
341,450; 8995,995;    0,708;    1,864
342,044; 9828,277;    1,799;    0,136
342,637; 9586,396;    1,162;   -2,136
343,231; 9427,260;   -1,474;    0,682
343,825; 9379,223;   -0,747;   -0,591
344,419; 9358,555;   -0,474;    0,500
345,012; 9198,767;    2,889;    4,045
345,606; 9202,506;   -0,656;    1,591
346,199; 9081,347;   -0,111;   -0,227
346,793; 8649,156;    2,525;    2,045
347,386; 8812,182;    0,889;   -1,136
347,980; 8830,521;   -0,838;   -0,045
348,573; 8640,015;   -1,748;    0,409
349,167; 8400,460;    6,161;    4,773
349,760; 8734,077;    2,252;    2,682
350,354; 8667,358;    1,616;    1,136
350,947; 8436,760;    2,798;    1,682
351,540; 8181,097;    0,616;   -1,409
352,134; 8118,192;   -1,111;    1,136
352,727; 8175,444;   -0,657;    1,136
353,320; 7992,565;    2,343;    0,591
353,913; 7851,190;   -1,929;    1,864
354,507; 8043,085;    0,434;   -1,227
355,100; 8064,756;    0,071;    0,864
355,693; 7389,986;    4,798;    2,409
356,286; 7412,394;    0,980;    2,773
356,879; 7730,581;   -0,475;    1,227
357,472; 7337,905;    0,980;    1,500
358,065; 7590,580;    3,161;    2,500
358,658; 7525,056;    0,798;    2,318
359,251; 7194,196;    0,252;   -0,591
359,844; 6744,643;    0,343;   -1,136
360,437; 6892,873;    0,252;    0,045
361,030; 7148,809;    0,525;   -0,682
361,623; 6764,671;    0,434;    0,318
362,215; 6834,030;    0,979;    2,045
362,808; 6689,632;   -2,293;   -1,682
363,401; 6877,452;    0,798;    0,136
363,994; 6689,799;    3,252;   -1,500
364,586; 6578,429;    0,888;   -1,500
365,179; 6750,921;   -0,203;   -1,136
365,772; 6252,928;   -0,930;    2,045
366,364; 6513,735;    1,524;   -3,227
366,957; 6749,334;    1,342;   -0,045
367,549; 6743,973;   -0,203;   -0,864
368,142; 6425,496;    0,978;   -1,500
368,734; 6607,022;    2,523;   -2,136
369,327; 6573,783;    2,341;   -0,500
369,919; 6480,269;   -1,659;    0,409
370,512; 6334,025;   -1,023;   -0,500
371,104; 6102,531;    2,704;    1,591
371,696; 6280,873;    1,703;   -0,955
372,289; 6332,623;    0,157;    1,136
372,881; 6483,058;    1,156;    1,318
373,473; 6376,551;    4,064;    1,136
374,066; 6209,287;    1,336;    0,500
374,658; 6097,063;    0,879;    1,136
375,250; 6383,154;   -1,668;   -1,409
375,842; 6247,398;   -0,124;   -0,045
376,434; 6122,347;   -2,762;   -0,409
377,026; 6659,555;   -1,855;   -2,500
377,618; 6539,102;    0,779;   -0,682
378,210; 6398,223;    3,141;   -1,955
378,802; 6251,167;    3,412;   -0,591
379,394; 6243,388;    3,411;    0,682
379,986; 6745,873;    1,138;   -0,955
380,578; 6839,890;    1,410;    0,773
381,170; 6253,064;    0,320;    0,045
381,762; 6200,816;   -0,224;    1,409
382,354; 6373,913;   -0,223;   -1,318
382,945; 6446,788;    0,870;    0,318
383,537; 6590,221;    1,144;   -1,955
384,129; 6619,555;    0,963;   -1,136
384,721; 6773,974;    0,418;    0,955
385,312; 6701,726;   -1,399;   -0,955
385,904; 6809,240;   -0,945;    1,591
386,496; 6216,862;    0,691;    1,045
387,087; 6329,594;    0,418;    2,500
387,679; 6347,838;   -0,401;    0,045
388,270; 6478,047;   -2,401;    2,045
388,862; 6572,826;   -0,401;   -0,318
389,453; 6470,763;    1,054;    1,045
390,045; 6702,376;    3,236;   -2,682
390,636; 6658,918;    0,144;   -0,591
391,227; 6499,660;    2,054;   -0,045
391,819; 6633,759;    0,781;    0,773
392,410; 6682,778;    0,600;    0,045
393,001; 6618,223;    1,600;   -1,591
393,593; 6866,841;    0,600;   -0,045
394,184; 6706,090;    0,873;   -0,409
394,775; 6633,911;    1,146;    2,136
395,366; 6830,278;    1,782;    0,773
395,957; 6799,941;   -2,400;    0,136
396,548; 7070,215;    1,054;    2,682
397,139; 7382,507;    2,236;    0,591
397,730; 7129,297;    0,873;    0,955
398,321; 7172,430;    0,509;    0,955
398,912; 7185,013;   -0,764;    0,136
399,503; 7290,079;   -1,945;   -1,409
400,094; 6769,312;   -1,582;    1,682
400,685; 6620,901;    3,600;    0,045
401,276; 6678,069;   -0,400;   -0,955
401,867; 6983,852;   -1,127;    0,773
402,458; 7072,178;    1,509;   -2,318
403,048; 7034,342;    0,146;    0,591
403,639; 6693,719;    1,509;    0,864
404,230; 6946,960;    0,691;    0,318
404,821; 6888,715;   -0,127;    0,045
405,411; 6983,725;   -0,763;   -2,591
406,002; 6616,142;    3,237;   -1,136
406,592; 6503,345;    2,691;    0,045
407,183; 6737,496;    0,328;   -1,500
407,774; 6660,926;    1,419;   -0,136
408,364; 6960,819;    2,600;    0,409
408,954; 6619,202;   -0,036;    1,227
409,545; 6651,355;    1,873;    1,045
410,135; 6226,587;   -1,581;    0,500
410,726; 6373,018;    0,783;    0,318
411,316; 6692,748;    2,237;    0,773
411,906; 6402,493;    0,146;   -0,409
412,497; 5961,836;   -0,490;   -0,045
413,087; 6511,387;    0,783;   -0,227
413,677; 6857,677;   -2,490;    3,864
414,267; 6705,647;   -1,035;    1,409
414,857; 6682,521;    0,419;    4,227
415,448; 6933,214;   -0,763;    0,500
416,038; 6667,587;   -2,945;   -0,591
416,628; 6595,104;    0,965;    0,409
417,218; 6182,242;   -1,762;    3,318
417,808; 6419,116;    0,965;   -0,409
418,398; 6773,482;   -1,035;    2,682
418,988; 6761,354;   -2,217;    0,591
419,578; 6977,801;    3,601;    1,409
420,168; 7291,451;    0,692;   -0,955
420,757; 6921,692;    0,964;   -1,500
421,347; 6612,257;    1,601;   -0,227
421,937; 6756,616;    3,329;    1,409
422,527; 6705,889;    2,602;   -0,773
423,116; 6539,344;    2,692;   -0,045
423,706; 6830,958;    2,965;    0,318
424,296; 6788,273;    1,601;    0,682
424,885; 7182,363;    1,510;   -3,045
425,475; 7439,777;    1,147;   -2,864
426,065; 7316,751;   -1,489;   -0,318
426,654; 6986,848;    0,329;   -0,318
427,244; 7111,989;    1,147;    1,409
427,833; 6614,044;    1,056;   -0,500
428,423; 6996,146;    0,147;    1,136
429,012; 7667,671;    2,420;   -1,136
429,601; 7219,219;    2,057;    0,136
430,191; 7448,605;    2,511;    4,318
430,780; 7066,990;   -1,671;   -0,409
431,369; 7014,471;    1,329;   -0,045
431,959; 7579,753;    1,693;    0,500
432,548; 7345,441;   -1,398;   -0,045
433,137; 7437,099;    0,329;   -1,318
433,726; 7920,651;    0,148;    0,500
434,315; 7368,348;    0,148;    2,409
434,905; 7455,988;    0,693;    1,409
435,494; 7382,521;    3,148;    0,955
436,083; 7778,341;    1,420;   -0,955
436,672; 7636,908;    1,148;    0,500
437,261; 7287,878;    0,512;   -1,955
437,850; 7389,246;   -1,125;    0,682
438,439; 7349,084;    2,239;    1,955
439,027; 7213,099;    3,421;    1,773
439,616; 7518,521;    2,239;    1,227
440,205; 7343,259;    0,057;   -2,136
440,794; 7366,235;   -0,306;   -0,045
441,383; 7595,324;    1,603;   -0,591
441,971; 7457,044;   -0,306;    0,591
442,560; 7291,110;    0,603;   -1,773
443,149; 7043,499;    3,060;   -1,318
443,737; 7200,996;    0,968;   -2,318
444,326; 7429,047;    0,331;    0,318
444,915; 7445,266;   -1,851;    0,864
445,503; 7798,860;    0,058;   -0,318
446,092; 7142,602;    7,876;    2,136
446,680; 7603,469;    1,876;    0,318
447,269; 7740,076;   -1,487;   -0,318
447,857; 7532,020;    2,240;   -1,773
448,445; 7635,170;    2,149;    1,318
449,034; 7820,592;    0,876;   -1,136
449,622; 7915,843;    1,240;    3,500
450,210; 7262,306;    3,149;    2,227
450,799; 7727,796;    2,604;   -0,591
451,387; 7668,106;    1,786;   -0,591
451,975; 7371,064;   -1,305;    0,864
452,563; 7466,600;    0,422;    2,318
453,151; 7501,719;   -1,032;   -1,227
453,739; 7394,201;   -1,577;    0,136
454,328; 7267,541;    0,604;   -2,136
454,916; 7041,502;    1,150;   -0,136
455,504; 7199,657;    3,513;    1,227
456,092; 7339,226;    2,150;   -1,591
456,679; 7277,503;    0,604;    0,682
457,267; 7289,993;    3,604;    1,045
457,855; 7385,082;    3,241;    1,409
458,443; 7142,034;   -0,304;    1,682
459,031; 7285,167;    1,332;    2,409
459,619; 7695,415;   -3,577;    2,864
460,206; 7729,523;   -0,759;    2,045
460,794; 7812,344;   -0,668;   -0,227
461,382; 8009,739;    0,878;   -0,864
461,970; 7648,874;    0,605;    1,864
462,557; 7683,121;    0,878;   -0,682
463,145; 7828,419;   -0,304;   -1,682
463,732; 7923,294;    2,514;   -1,045
464,320; 7835,906;    1,514;   -3,045
464,907; 7577,707;    0,423;   -0,773
465,495; 7485,133;    2,696;   -1,227
466,082; 7600,356;    2,060;   -0,045
466,670; 7473,817;    2,605;    1,227
467,257; 7847,608;    0,060;    2,045
467,844; 8021,715;    1,514;    0,045
468,432; 8016,109;   -0,031;    3,500
469,019; 7590,045;    1,606;   -1,773
469,606; 8015,902;    0,969;    3,682
470,193; 7854,943;    2,151;    0,227
470,780; 7483,164;    0,333;    0,864
471,368; 7784,173;   -1,212;   -0,773
471,955; 7588,089;    1,060;   -0,682
472,542; 7246,932;   -0,303;   -1,136
473,129; 7462,395;   -0,485;    0,136
473,716; 7235,518;    0,060;    0,591
474,303; 7370,840;    1,333;   -0,864
474,890; 7597,606;    2,333;   -0,500
475,477; 7634,947;   -0,576;    0,409
476,064; 7523,976;    0,697;   -1,591
476,650; 7429,975;    2,152;    0,318
477,237; 7292,611;    1,879;    0,955
477,824; 7452,691;    3,879;    0,864
478,411; 7446,865;    0,606;   -0,318
478,997; 7605,293;    0,606;   -0,773
479,584; 7650,095;   -0,666;   -0,409
480,171; 8247,074;    1,243;   -0,773
480,757; 7955,623;   -0,848;    0,773
481,344; 8166,554;    0,334;    0,409
481,931; 7706,562;   -0,393;    1,045
482,517; 8538,274;    0,425;    0,318
483,104; 8963,799;    1,334;    2,864
483,690; 9168,100;    0,243;    0,045
484,276; 9418,935;    0,698;    0,227
484,863; 9208,117;    2,152;    1,136
485,449; 9685,286;    0,152;    0,318
486,035; 9647,134;   -0,666;   -0,136
486,622;10039,301;   -2,393;    0,045
487,208; 9969,985;    1,334;    1,500
487,794; 9865,247;    0,971;    0,318
488,380; 9968,170;    0,698;   -1,409
488,967;10037,262;   -1,120;   -0,409
489,553;10075,802;   -1,029;   -1,409
490,139;10274,919;    0,971;    0,773
490,725; 9817,541;    0,789;   -0,227
491,311; 9510,441;    1,516;    3,045
491,897; 8937,287;   -0,665;    1,500
492,483; 8858,688;    0,426;    1,227
493,069; 8787,635;    5,426;    0,864
493,655; 8709,078;    1,789;    0,682
494,241; 8665,978;    1,517;   -0,955
494,826; 9020,732;    0,335;   -1,045
495,412; 8517,028;    0,335;   -0,682
495,998; 8717,415;    0,971;   -0,318
496,584; 8801,619;    2,244;    1,045
497,169; 8803,911;    2,335;   -0,682
497,755; 8789,588;    1,244;    1,227
498,341; 9292,477;    2,153;    0,318
498,926; 8933,392;    2,881;    1,955
499,512; 9102,851;   -0,028;    2,955
500,097; 9153,927;   -0,574;   -0,318
500,683; 9155,633;   -0,028;    2,136
501,268; 9535,705;    1,881;   -0,955
501,854; 9319,885;   -0,119;    1,227
502,439; 9236,753;   -0,573;   -1,773
503,024; 9442,331;    1,608;    0,500
503,610; 9515,235;    1,335;   -0,682
504,195; 9518,391;    1,245;    1,955
504,780; 9672,440;    2,335;    1,227
505,366; 9545,565;    4,063;    2,864
505,951; 9309,115;   -1,119;    1,045
506,536; 9363,810;    1,427;   -3,682
507,121; 9342,266;    1,699;   -0,318
507,706; 9837,112;   -0,392;    1,045
508,291;10200,276;   -2,937;    1,136
508,876; 9714,602;   -0,482;    2,591
509,461; 9235,315;    1,427;   -0,773
510,046; 9633,876;   -0,391;    0,318
510,631; 9881,869;   -0,119;   -0,773
511,216; 9581,461;   -0,664;   -0,500
511,801; 9939,178;   -0,755;    2,591
512,386;10180,041;    0,972;    0,500
512,971;10122,728;    0,427;    0,955
513,555; 9744,739;    1,154;   -1,500
514,140;10445,888;    1,336;   -3,136
514,725;10439,558;    1,791;   -1,136
515,309;10553,684;    1,064;    0,318
515,894;10099,590;   -0,300;   -2,227
516,479;10507,563;    1,973;   -0,955
517,063;10345,388;    0,882;    1,227
517,648;10491,940;    0,155;   -1,136
518,232;10111,119;   -1,300;   -1,409
518,817;10463,599;    1,337;    1,682
519,401;10655,247;    0,700;    0,591
519,985;10182,687;    2,700;    1,136
520,570;10074,425;   -0,118;   -1,955
521,154;10327,290;    0,064;    0,591
521,738;10507,521;    1,064;    2,409
522,323;11047,234;   -0,390;    1,682
522,907;10771,016;    2,428;   -0,136
523,491;10533,407;    1,155;    0,955
524,075;10511,615;    0,428;    0,591
524,659;10596,721;    0,973;    0,591
525,243;10123,479;    0,883;    0,409
525,827;10335,298;    0,883;   -0,045
526,411;11084,176;    1,155;   -0,136
526,995;11288,943;    0,337;    1,409
527,579;10870,986;    1,974;   -1,045
528,163;11153,311;    0,428;   -1,500
528,747;11086,507;    1,065;   -0,773
529,331;11346,998;    0,883;   -1,409
529,915;11505,747;    2,338;    0,955
530,499;11448,178;    0,247;    1,227
531,082;11179,755;    1,065;    1,591
531,666;10678,699;    0,520;    0,773
532,250;11294,805;    0,428;    2,682
532,833;11583,235;    0,610;    2,773
533,417;11462,580;    1,247;    0,864
534,001;11405,750;    0,429;   -0,318
534,584;12058,788;    1,974;    0,500
535,168;11884,739;    3,247;    1,409
535,751;11905,883;    4,520;    0,045
536,334;11393,422;    4,520;   -0,409
536,918;11960,508;    1,974;    1,591
537,501;12045,578;    1,520;    1,318
538,085;12040,159;    1,702;    1,045
538,668;12142,275;    0,883;    2,409
539,251;12409,119;    3,156;    3,773
539,834;12446,567;    0,156;    0,773
540,418;12346,185;    3,247;    4,318
541,001;12415,057;    2,702;    1,773
541,584;12384,958;    1,429;    2,227
542,167;12120,034;    0,702;    2,955
542,750;12224,960;    0,793;   -0,773
543,333;11848,336;    1,429;    2,136
543,916;12562,366;   -0,298;    2,500
544,499;13087,496;    2,520;    0,227
545,082;13064,956;    0,248;    3,591
545,665;13185,601;   -0,207;    1,500
546,248;13447,427;    0,520;   -0,318
546,830;13150,599;   -1,752;    1,955
547,413;13500,821;    0,157;   -0,773
547,996;13996,162;    0,157;    0,500
548,579;13805,601;   -0,843;    0,955
549,161;13615,969;    0,884;    2,682
549,744;13389,681;    0,612;    0,409
550,326;13791,639;    0,885;   -1,136
550,909;13644,413;    2,339;    0,591
551,492;14016,855;    0,521;    0,227
552,074;13785,724;   -0,024;   -1,318
552,657;14264,134;    2,430;    0,045
553,239;14132,302;   -3,024;   -0,773
553,821;14012,357;   -1,570;    1,045
554,404;13534,586;   -0,024;    1,136
554,986;13866,698;    2,248;    1,045
555,568;14384,230;    0,430;   -0,955
556,151;13680,619;    4,067;   -0,227
556,733;13858,894;   -1,388;   -0,864
557,315;14271,133;    4,703;    0,500
557,897;14008,648;    0,521;   -0,500
558,479;14176,447;    1,703;    1,318
559,061;14286,637;    1,067;   -0,864
559,643;14556,634;   -0,297;    0,045
560,225;14883,780;   -0,388;    2,864
560,807;14919,543;    0,340;    0,318
561,389;14464,485;   -1,206;    2,318
561,971;15083,417;   -0,660;    2,136
562,553;14941,185;    0,613;    1,591
563,135;15041,635;    1,249;    1,136
563,717;14642,723;    3,158;    1,136
564,298;15259,264;    3,976;   -0,045
564,880;14963,977;    0,340;   -1,409
565,462;15125,158;    1,977;    1,318
566,043;16101,237;   -0,933;    2,318
566,625;15688,985;    4,067;    1,227
567,207;15511,972;    0,704;    1,682
567,788;16436,140;   -0,114;    1,500
568,370;17130,956;   -1,841;   -0,500
568,951;16919,242;   -0,569;    0,227
569,533;17670,663;    0,977;   -0,500
570,114;18049,799;   -0,296;    0,682
570,695;18480,073;   -0,478;   -1,318
571,277;18778,640;   -0,205;   -1,682
571,858;19354,145;    2,704;   -1,136
572,439;20162,576;    0,795;   -1,045
573,021;20298,216;    0,432;   -2,773
573,602;20675,489;    1,795;    0,318
574,183;21446,375;   -0,114;    2,227
574,764;21460,596;    2,068;    0,409
575,345;21909,638;    0,250;   -0,136
575,926;22409,253;    2,704;    0,136
576,507;22373,782;    2,704;   -0,227
577,088;23346,123;    1,704;    1,682
577,669;23337,883;    1,704;    1,955
578,250;23957,102;   -0,750;   -1,045
578,831;24422,185;   -0,841;   -2,227
579,412;24596,000;   -1,205;    0,955
579,993;25464,823;    1,432;    0,227
580,573;25731,734;   -0,023;   -0,955
581,154;24728,249;    1,613;   -0,591
581,735;25535,517;    0,341;    0,773
582,315;25042,335;    0,523;    2,136
582,896;25360,869;   -1,750;    1,227
583,477;24885,821;    0,614;    1,227
584,057;25021,527;    1,159;    0,955
584,638;25269,186;   -2,750;    2,318
585,218;25321,932;    2,886;    2,682
585,799;25464,305;    1,977;   -0,227
586,379;25423,759;    1,250;    1,591
586,959;24455,421;    2,613;    0,318
587,540;23891,996;    0,432;    2,227
588,120;23547,433;   -1,113;   -0,045
588,700;22636,665;    2,977;    2,136
589,281;22958,506;    1,250;   -0,955
589,861;22851,949;   -0,296;   -1,682
590,441;22733,191;   -1,477;   -2,682
591,021;21805,116;    1,432;   -2,591
591,601;22106,111;    0,431;    0,500
592,181;22118,854;   -1,296;   -0,773
592,761;21437,973;    2,250;    1,409
593,341;21393,328;    1,522;    0,045
593,921;21422,281;   -0,569;    1,591
594,501;21340,808;    1,250;    1,318
595,081;21144,528;    0,522;   -0,318
595,661;21466,365;    1,068;    0,955
596,240;21959,407;   -1,023;    0,136
596,820;21552,101;    2,613;    1,955
597,400;21623,179;    1,977;    0,773
597,980;21897,234;   -0,750;    1,045
598,559;21948,514;    0,341;   -0,227
599,139;21727,116;   -0,750;   -1,227
599,718;21592,570;    0,795;   -0,409
600,298;21844,992;   -2,387;    0,682
600,877;22017,080;    4,795;    1,409
601,457;22245,593;    0,340;    1,136
602,036;22204,041;    1,795;    2,045
602,616;22358,073;    2,250;    1,682
603,195;22669,886;    0,431;    3,500
603,774;22212,374;   -0,296;    2,045
604,354;22076,308;    2,522;   -0,500
604,933;21691,083;    0,250;    1,864
605,512;21810,131;    2,340;    0,591
606,091;21830,555;    1,886;    3,773
606,671;22626,094;    0,249;    0,773
607,250;21776,961;    1,431;    3,136
607,829;21962,352;    1,158;    3,227
608,408;21846,664;    4,613;    2,591
608,987;20992,677;    2,704;    3,409
609,566;21215,981;    0,341;   -2,500
610,145;21358,479;    2,885;    0,682
610,723;21758,873;    1,613;    6,864
611,302;21047,502;    1,067;    1,682
611,881;20607,880;    5,158;   11,227
612,460;21360,521;    0,795;    3,955
613,039;21739,418;    1,703;    2,045
613,617;20564,200;    0,886;    4,773
614,196;20709,999;    1,613;    1,227
614,775;21042,528;    1,249;    2,409
615,353;21008,916;   -1,660;    0,864
615,932;20803,103;    0,249;    2,409
616,510;21347,094;    0,158;    0,591
617,089;20932,381;    8,794;   17,591
617,667;20735,628;    4,885;    6,136
618,246;20567,720;   -1,115;    1,318
618,824;20680,341;    1,612;   -0,955
619,402;20311,047;    0,431;   -1,773
619,981;20768,228;    1,067;   -1,045
620,559;20683,484;    0,794;    1,682
621,137;20261,790;    3,067;    1,864
621,715;20205,457;    3,703;   -0,682
622,293;20135,879;    1,885;   -0,773
622,871;20581,860;    0,340;    0,500
623,450;20235,705;    0,430;   -0,864
624,028;20160,256;   -0,388;   -0,955
624,606;19789,419;    2,339;    1,682
625,183;20165,961;   -0,661;   -1,136
625,761;19806,710;    1,885;    1,136
626,339;20125,563;    2,339;    2,591
626,917;20452,513;    0,339;   -0,045
627,495;20505,019;    2,794;    1,318
628,073;19939,993;    5,248;    2,864
628,650;19633,558;    3,067;    2,136
629,228;20046,085;    1,248;    4,409
629,806;19520,243;   -0,024;    1,136
630,383;19787,394;    0,066;   -0,318
630,961;19651,903;   -2,206;   -0,955
631,539;19377,322;   -2,479;    0,227
632,116;18776,085;   12,703;   15,409
632,694;19278,534;    4,885;    6,500
633,271;19519,228;    1,975;    2,682
633,848;19476,753;    1,430;    2,045
634,426;19526,596;    1,521;    1,773
635,003;18733,054;   -0,207;   -0,409
635,580;19016,228;    1,884;    3,682
636,158;19500,800;    3,793;    1,227
636,735;19477,978;    3,339;   -0,500
637,312;19577,988;    0,521;   -0,682
637,889;19649,768;    2,248;   -0,682
638,466;19220,809;    0,066;   -0,409
639,043;19226,621;    1,702;   -1,136
639,620;19560,801;    0,611;   -0,955
640,197;19765,770;    1,612;    1,682
640,774;19904,581;    1,430;    1,136
641,351;20253,211;    0,612;    1,136
641,928;19729,113;    2,794;    1,409
642,505;19422,651;    0,794;   -0,500
643,082;19590,371;    1,885;    1,227
643,658;18682,182;    1,157;    1,500
644,235;19303,357;   -2,479;    2,500
644,812;19555,350;    1,794;    0,773
645,388;19346,706;    1,612;    1,409
645,965;19361,790;    1,521;    1,682
646,542;19382,692;    3,430;   -0,227
647,118;19429,322;    3,703;   -0,955
647,695;19696,042;    0,339;    1,136
648,271;19633,944;   -2,115;    0,500
648,848;19882,664;    0,248;    2,227
649,424;19686,930;    0,976;    1,318
650,000;19469,468;   -0,388;   -1,045
650,577;19322,552;    0,158;   -0,955
651,153;19685,272;   -1,115;    0,955
651,729;20585,628;    0,521;    0,864
652,305;20654,712;    1,339;    2,773
652,881;23999,160;   -1,297;    1,136
653,458;29383,880;    0,249;    0,227
654,034;32388,418;    0,703;    1,591
654,610;33594,684;    0,339;    0,773
655,186;34789,131;    1,612;    3,045
655,762;34421,852;   -1,842;    0,409
656,338;34535,754;    0,703;    0,136
656,913;35475,474;   -0,297;    0,409
657,489;34809,921;    0,249;   -0,318
658,065;34774,187;    0,794;   -1,591
658,641;35341,998;    2,158;   -0,864
659,217;34753,173;    2,067;    0,409
659,792;34187,347;   -1,751;   -0,409
660,368;34537,340;   -0,388;   -0,682
660,944;34494,606;    1,794;    1,227
661,519;30883,781;    0,522;    0,409
662,095;26023,501;   -0,206;    0,591
662,670;22218,130;   -0,206;   -0,136
663,246;21329,123;   -0,660;   -0,409
663,821;20764,389;    0,431;    1,682
664,396;20272,654;    0,613;    1,864
664,972;20472,102;   -0,660;   -0,500
665,547;20783,822;    3,794;    0,136
666,122;20807,997;    1,340;    0,318
666,698;21047,444;    2,431;    0,318
667,273;20427,255;    0,885;    0,136
667,848;21158,339;    0,340;    1,500
668,423;20921,968;    1,795;    2,318
668,998;21355,870;    0,976;   -0,682
669,573;21829,681;    2,067;   -1,500
670,148;21686,129;    1,885;   -0,682
670,723;21447,758;   -0,024;    0,318
671,298;21824,115;   -1,296;    1,045
671,873;21921,926;   -0,296;   -0,136
672,448;21875,646;    1,704;    0,136
673,023;22175,184;    0,249;   -0,227
673,597;22456,814;    2,704;    2,318
674,172;22242,170;    2,431;    0,318
674,747;21813,799;   -0,205;   -1,045
675,321;21631,338;   -0,933;    3,318
675,896;21258,331;    2,158;    1,045
676,471;22076,869;    2,522;    1,591
677,045;21865,771;   -0,296;    0,682
677,620;21926,855;    2,158;    1,136
678,194;22250,030;    0,249;    1,136
678,769;21891,932;    0,886;   -0,318
679,343;22120,561;   -0,023;    1,773
679,917;21943,190;    0,340;    1,955
680,492;21977,910;    0,249;    3,227
681,066;22084,449;    0,613;    0,409
681,640;22135,260;    1,795;   -0,318
682,214;22838,071;    2,340;    0,500
682,788;22388,791;    0,613;   -0,773
683,363;22315,239;    1,977;    1,682
683,937;21997,050;    0,886;   -0,318
684,511;22688,406;   -1,023;   -0,591
685,085;22462,581;   -1,478;    0,318
685,659;22221,574;    1,431;    0,864
686,232;22450,930;    1,159;   -0,318
686,806;22184,923;    2,159;    0,409
687,380;22778,462;   -1,932;    0,591
687,954;22965,000;    2,432;    1,136
688,528;22673,357;    2,613;    1,955
689,101;23415,622;    0,432;    1,045
689,675;23048,161;    0,886;   -0,136
690,249;22411,244;    3,432;    0,409
690,822;22775,874;    1,159;    0,318
691,396;22823,048;    2,068;    1,227
691,969;22331,223;    2,523;    0,136
692,543;22777,489;   -0,568;   -1,955
693,116;22420,027;   -0,659;   -1,409
693,690;22321,384;   -0,296;    0,500
694,263;22837,468;    2,341;    2,955
694,836;22848,824;    2,795;    3,591
695,410;21597,544;    1,159;    1,773
695,983;22009,810;    1,614;    0,591
696,556;22043,530;   -0,750;   -1,045
697,129;22379,978;   -1,114;    1,409
697,703;22052,970;    1,341;    1,955
698,276;22081,600;    1,705;   -0,773
698,849;21868,684;   -1,023;    1,409
699,422;22200,131;    1,250;    0,591
699,995;21937,760;   -0,659;    0,136
700,568;22398,844;   -0,204;    3,045
701,140;22432,019;   -1,841;    1,682
701,713;22162,194;    0,341;    2,409
702,286;21937,914;    0,796;    0,864
702,859;21806,179;    0,614;   -0,591
703,432;21149,809;   -0,841;    0,682
704,004;21530,074;    1,978;    0,318
704,577;21419,794;    1,068;    0,136
705,150;21914,787;    0,887;    2,500
705,722;21746,508;    1,523;   -3,227
706,295;21567,046;    1,432;   -0,591
706,867;21384,221;    0,250;    1,955
707,440;21570,577;   -0,113;   -0,409
708,012;21793,297;   -0,022;    0,591
708,584;21713,199;    2,705;    0,227
709,157;22000,556;    1,160;   -0,591
709,729;21694,367;    1,069;    2,045
710,301;22486,996;   -1,204;    0,045
710,874;22470,626;    0,341;   -0,227
711,446;21413,346;   -0,295;    0,864
712,018;21318,975;   -3,022;    0,500
712,590;21141,786;   -0,204;    1,682
713,162;21619,961;   -0,477;    1,318
713,734;21808,408;    1,796;   -2,045
714,306;21727,674;    0,342;   -0,409
714,878;20554,031;   -0,295;    0,864
715,450;21333,751;   -0,113;    0,864
716,022;21553,744;    2,433;    1,318
716,593;21736,191;    0,978;    0,591
717,165;21636,184;    1,796;   -1,227
717,737;21397,541;    0,796;    0,409
718,309;21111,352;    1,160;   -0,045
718,880;21059,435;   -1,295;   -1,409
719,452;21288,428;    0,887;   -1,591
720,024;20967,239;    1,705;   -0,591
720,595;21470,869;    2,978;    0,955
721,167;21016,407;    1,160;   -2,045
721,738;20563,491;    2,069;   -1,045
722,309;20589,484;    1,251;   -1,227
722,881;20350,568;    2,705;    0,773
723,452;20951,651;    1,251;    2,864
724,023;21173,553;    1,524;    2,682
724,595;20941,728;    2,342;    0,682
725,166;20683,721;    1,524;   -0,409
725,737;20339,896;    1,887;    0,227
726,308;20461,252;    0,797;    0,318
726,879;20818,973;    1,069;    1,227
727,450;20682,693;   -2,022;   -0,045
728,021;20639,686;    1,069;    0,682
728,592;20470,497;    1,160;    0,500
729,163;20830,581;    1,433;   -0,136
729,734;20790,573;    2,160;   -0,227
730,305;21096,112;    0,615;    0,136
730,876;21415,741;    0,888;    2,955
731,447;21149,370;    0,797;    2,682
732,017;21253,272;   -0,840;    1,864
732,588;20790,538;   -0,021;    1,227
733,159;20925,531;    3,615;   -1,045
733,729;20800,615;    1,251;    0,409
734,300;20163,699;    0,160;    0,864
734,870;20517,237;   -1,385;    0,591
735,441;20986,684;    0,888;   -0,591
736,011;20805,223;    1,070;   -1,591
736,582;20726,216;    1,251;    0,045
737,152;20246,299;    0,979;   -2,045
737,722;20696,202;    1,070;   -0,682
738,293;20436,285;   -2,021;    1,318
738,863;20340,096;    1,797;    2,318
739,433;20207,726;    4,524;    0,318
740,003;20775,264;    1,524;   -0,682
740,573;20241,439;    2,252;   -1,591
741,143;20201,886;    3,615;    0,318
741,713;20907,970;    0,252;   -0,500
742,283;20648,872;    1,706;    1,591
742,853;20468,774;    0,524;    1,591
743,423;19997,949;    0,161;    0,045
743,993;20075,487;    1,070;    1,500
744,563;19498,116;    2,524;   -0,864
745,133;19438,655;   -0,112;   -0,864
745,702;20079,193;    2,797;    1,773
746,272;19398,459;    0,434;    0,591
746,842;19201,179;   -0,748;   -0,591
747,411;19569,172;   -0,839;   -0,318
747,981;19728,256;   -0,930;    0,500
748,551;19729,158;   -0,021;   -1,045
749,120;19609,969;   -0,112;   -0,227
749,690;19934,144;    2,161;    2,409
750,259;20281,046;    0,979;    2,955
750,828;20199,402;    4,070;   -1,955
751,398;20394,395;   -0,112;   -0,045
751,967;19956,570;    2,888;    0,409
752,536;20165,381;    1,161;   -0,227
753,105;20533,919;   -1,384;    0,227
753,675;20323,730;   -0,112;    1,773
754,244;20217,269;    0,888;    3,591
754,813;20273,716;    0,979;    1,227
755,382;19885,073;    0,798;    0,955
755,951;20357,611;   -0,112;    3,682
756,520;19996,695;    2,525;    1,864
757,089;20476,688;    1,888;    0,500
757,658;20618,862;    2,434;    1,227
758,227;20630,219;   -1,111;    0,318
758,795;20864,666;   -1,021;    1,136
759,364;21063,114;    0,525;   -0,591
759,933;20146,289;    1,343;   -0,045
760,501;19777,282;    0,252;   -1,318
761,070;20213,820;   -0,293;   -1,409
761,639;20836,267;    1,434;    1,318
762,207;20228,260;    0,889;   -0,955
762,776;20138,617;    2,889;    0,864
763,344;20140,973;    0,071;    0,591
763,913;19287,421;    1,616;    1,409
764,481;19970,141;    1,980;   -0,136
765,049;19832,407;    0,616;    1,409
765,618;19684,218;    1,434;    0,318
766,186;19827,393;    2,434;    0,136
766,754;20017,840;    1,798;    1,864
767,322;19106,287;    1,162;    0,409
767,890;19106,553;    0,525;   -1,773
768,459;19537,910;    2,616;   -0,318
769,027;19575,630;    2,525;    3,409
769,595;18755,895;    2,616;    2,591
770,163;19129,888;    3,344;    2,955
770,730;18933,881;    2,525;   -0,136
771,298;18783,511;    1,162;   -1,409
771,866;18841,413;    0,253;    4,955
772,434;19153,315;    1,162;   -1,864
773,002;19326,762;    2,616;    0,682
773,569;19053,937;    1,071;    1,682
774,137;18834,293;    0,889;   -0,045
774,705;19583,741;   -0,747;   -0,136
775,272;19145,279;    0,253;    0,682
775,840;18972,908;   -0,111;    2,682
776,407;18520,992;   -0,293;    1,955
776,975;18134,531;    1,162;    0,318
777,542;19136,251;    2,162;   -0,045
778,110;18975,789;    0,707;   -0,045
778,677;18652,418;    1,071;   -0,864
779,244;18465,048;   -1,020;    1,045
779,812;18560,677;    0,980;    0,864
780,379;18412,761;    2,435;    1,136
780,946;18601,117;    2,617;   -0,773
781,513;18907,747;   -0,565;    0,318
782,080;18310,376;    1,253;    2,864
782,647;18946,551;    1,708;    3,045
783,214;18642,362;   -0,201;    3,864
783,781;18292,264;    1,708;   -0,682
784,348;18152,984;    0,253;    1,500
784,915;18583,795;   -1,474;    0,318
785,482;18381,879;    2,708;    2,591
786,049;18832,235;    1,071;   -0,591
786,615;18898,683;    1,708;   -0,955
787,182;18692,948;   -3,201;   -0,682
787,749;18407,305;   -2,201;    1,409
788,315;17766,389;    0,253;   -0,409
788,882;18083,291;    0,981;   -1,227
789,448;18699,466;    1,435;   -0,955
790,015;18694,277;    1,799;    3,227
790,581;18311,906;    0,708;    0,227
791,148;18193,899;    1,344;    1,045
791,714;18404,619;   -1,019;    3,136
792,280;18180,248;    3,708;    1,591
792,847;17808,241;   -0,928;    2,500
793,413;18232,780;   -0,110;   -0,318
793,979;17833,863;    1,526;   -1,318
794,545;17933,402;    2,981;    2,682
795,111;17429,758;    2,435;    1,318
795,678;17555,115;    3,526;   -1,682
796,244;17273,926;    2,799;    0,136
796,810;17762,464;    0,799;    0,773
797,375;17552,366;   -0,292;   -2,136
797,941;17538,814;   -1,110;    0,591
798,507;17597,988;    0,254;   -0,955
799,073;17234,254;    2,708;    0,591
799,639;17380,156;    1,435;    3,136
800,205;17420,785;   -1,565;    2,682
800,770;17000,324;    1,345;    1,773
801,336;17020,408;    2,981;   -0,955
801,901;16775,491;    6,072;    3,136
802,467;17302,302;    0,526;    2,045
803,033;16702,295;   -0,019;    0,864
803,598;16874,470;    1,072;   -1,045
804,163;16922,281;    0,708;   -0,318
804,729;16883,183;   -0,110;    1,136
805,294;17241,449;    1,072;    2,227
805,859;17057,896;    0,890;   -0,409
806,425;16618,071;    3,890;    2,682
806,990;16291,609;    1,890;    4,318
807,555;16693,330;   -0,110;    2,591
808,120;16647,322;   -1,292;   -0,409
808,685;16707,224;    1,072;   -2,500
809,250;16243,854;    2,072;   -0,500
809,815;16553,301;   -0,201;    0,682
810,380;17015,658;    0,981;    1,591
810,945;17472,742;    2,890;    2,045
811,510;16806,644;   -0,200;    1,591
812,075;16519,909;    2,800;   -1,409
812,640;16516,993;    3,709;    1,409
813,204;16595,531;    2,163;   -0,227
813,769;17058,433;    0,254;   -0,045
814,334;16511,699;    0,527;    0,864
814,898;16569,056;    1,981;    0,591
815,463;16388,049;    0,981;   -0,773
816,027;16367,860;    1,345;   -2,318
816,592;16519,671;    2,163;   -2,045
817,156;16091,482;   -2,200;    1,136
817,721;15980,202;    0,982;    2,318
818,285;15961,377;    0,618;    1,500
818,849;16536,915;   -0,018;    1,682
819,414;16465,363;    0,073;    2,955
819,978;16050,355;   -0,291;    1,773
820,542;16580,803;    2,891;    0,500
821,106;16375,159;    2,800;    0,682
821,670;16438,243;    2,709;    2,591
822,234;16187,054;    1,073;    1,409
822,798;15654,775;   -0,836;    0,500
823,362;15673,858;    1,527;    4,227
823,926;15077,215;   -0,018;    1,136
824,490;15278,208;    3,527;   -0,682
825,054;15660,837;    2,527;   -1,136
825,618;15389,466;   -1,200;   -1,500
826,181;15315,459;    0,982;   -1,318
826,745;15223,543;   -0,745;   -1,045
827,309;15508,809;    2,255;    1,318
827,872;15060,529;    0,527;    0,955
828,436;15933,885;    1,982;   -0,773
828,999;16040,333;    2,436;    1,227
829,563;14999,326;   -0,654;    1,136
830,126;14829,501;   -0,018;   -0,591
830,690;14860,130;    0,709;    2,864
831,253;14413,214;   -0,473;    2,227
831,816;14543,661;   -0,018;    0,500
832,380;14480,745;    1,164;    0,864
832,943;14732,647;    3,073;   -0,500
833,506;14247,640;    0,255;   -1,227
834,069;14949,996;    2,164;   -0,955
834,632;15025,535;   -2,200;    1,318
835,195;14936,982;    1,346;    0,955
835,758;14243,793;    0,709;    1,955
836,321;14066,877;    1,073;   -1,045
836,884;14202,416;   -1,291;   -0,955
837,447;14285,318;    0,528;    1,773
838,010;14510,129;    1,800;    3,227
838,573;14751,485;    0,528;    0,773
839,135;14739,933;   -0,109;   -0,955
839,698;14220,926;    2,528;    0,409
840,261;13810,191;    0,255;   -0,227
840,823;13721,548;   -0,927;    0,864
841,386;13975,086;   -0,018;   -2,409
841,948;13883,897;    0,255;    1,773
842,511;13648,708;    0,255;    1,682
843,073;13759,610;    2,982;    0,227
843,636;13581,512;    0,619;   -0,227
844,198;13493,505;    1,255;    0,591
844,760;13640,225;    0,619;    1,955
845,322;13311,764;    0,164;    1,136
845,885;13705,211;   -0,290;    0,591
846,447;14101,477;    0,710;    0,227
847,009;13764,379;    3,983;   -0,682
847,571;13985,372;    1,346;   -2,045
848,133;14084,274;   -0,199;   -1,864
848,695;13937,721;    2,346;    1,409
849,257;13546,623;    1,346;   -1,682
849,819;13718,343;    2,983;   -0,409
850,381;13760,336;    1,801;   -0,864
850,942;14033,693;    1,892;   -0,591
851,504;13957,595;    0,983;    0,227
852,066;13976,497;    1,619;   -1,591
852,628;13645,217;    0,165;    1,955
853,189;13198,119;    0,256;    2,682
853,751;13329,839;   -0,654;    1,409
854,312;13164,832;    1,256;   -1,682
854,874;13602,734;   -0,108;   -0,773
855,435;14018,545;    0,528;   -1,682
855,997;14164,538;    3,983;   -0,136
856,558;13524,076;    0,801;    1,773
857,119;13627,979;   -0,744;    2,864
857,681;13369,153;   -0,108;    0,318
858,242;13379,601;    1,347;   -2,136
858,803;13819,594;    1,074;   -0,773
859,364;14335,677;    0,892;   -4,773
859,925;13760,216;   -0,290;   -0,955
860,486;13660,209;    0,529;   -0,955
861,047;13394,383;    0,165;   -1,227
861,608;13272,285;    0,165;   -0,773
862,169;13408,733;   -0,562;   -0,045
862,730;13165,089;   -0,290;    1,409
863,291;13409,355;    0,438;   -0,500
863,852;13749,348;   -0,926;    1,955
864,412;13267,432;   -1,835;   -0,864
864,973;12021,788;    1,892;    0,500
865,534;11929,963;    2,074;    0,227
866,094;13227,501;    2,620;    0,227
866,655;12906,313;    4,711;    3,318
867,215;13166,215;    0,074;    0,136
867,776;13036,753;   -1,199;   -0,136
868,336;13107,200;    1,529;    0,136
868,897;12728,284;    3,438;    1,682
869,457;12498,095;    3,256;    0,318
870,017;12726,725;    2,438;   -1,227
870,578;13170,081;    1,893;    0,773
871,138;12831,256;    2,620;   -0,955
871,698;12414,885;   -0,562;   -1,318
872,258;12314,333;    0,711;   -2,864
872,818;12680,416;    2,347;    0,045
873,378;12680,591;   -2,198;    1,045
873,938;12271,039;    4,984;    0,500
874,498;12535,941;    1,256;   -1,955
875,058;12477,661;    4,347;    1,773
875,618;12337,199;    1,438;   -2,682
876,177;12247,647;   -0,471;    0,136
876,737;11918,458;   -0,289;    1,955
877,297;11952,723;    2,711;    1,955
877,856;11947,080;    2,529;    0,318
878,416;11922,255;    2,438;   -0,136
878,976;12089,520;    3,438;    0,409
879,535;12281,604;    4,529;    3,136
880,095;12092,142;    1,347;    0,045
880,654;12187,317;    0,347;    1,318
881,213;12272,492;    2,347;    1,500
881,773;11951,848;    1,984;    2,682
882,332;12289,660;    6,075;    5,136
882,891;12127,016;    0,711;    2,136
883,451;12518,009;   -2,016;    1,682
884,010;12012,184;   -1,107;   -0,409
884,569;12093,086;   -2,289;   -0,045
885,128;12200,260;   -0,743;   -1,864
885,687;12251,435;   -0,743;    0,682
886,246;12069,974;    2,620;    2,136
886,805;11836,330;    1,620;    2,045
887,364;12044,232;    1,166;   -0,500
887,922;12338,589;   -0,016;    0,045
888,481;11896,945;    1,530;    0,591
889,040;12151,029;    3,711;    2,136
889,599;12698,567;    2,166;    1,409
890,157;12777,924;    2,166;    2,409
890,716;12448,371;    2,166;    0,227
891,274;12296,001;    0,075;   -1,136
891,833;12694,084;    1,166;    0,864
892,391;12521,350;    1,802;    0,500
892,950;12562,343;    0,166;   -0,773
893,508;12929,790;    0,984;   -0,409
894,067;12324,238;   -0,379;    0,136
894,625;12243,231;   -1,016;   -1,500
895,183;12438,133;   -0,198;   -0,682
895,741;12385,671;    2,257;   -1,773
896,299;12222,391;    1,621;   -2,409
896,858;12366,839;    1,530;   -1,591
897,416;12503,377;    0,166;   -1,318
897,974;12298,370;   -2,197;    0,318
898,532;12480,999;    6,530;    2,682
899,089;12369,356;    0,621;   -0,682
899,647;12425,622;    0,530;    1,318
900,205;12224,251;    0,257;    1,045
900,763;12374,516;    2,166;    0,227
901,321;12416,509;    3,530;   -1,409
901,878;11885,866;    3,257;   -0,773
902,436;11797,132;    0,257;    1,318
902,994;12211,579;    6,712;    3,682
903,551;11715,390;    1,439;    0,409
904,109;12092,201;    1,530;   -1,409
904,666;11717,558;    1,439;    1,045
905,224;11570,460;    3,894;   -0,409
905,781;11367,271;   -0,470;   -0,318
906,338;11404,991;    0,167;    1,045
906,895;11379,348;    1,894;    2,045
907,453;11343,977;    2,348;    1,136
908,010;11351,243;    3,348;    0,409
908,567;11077,054;   -0,561;    0,591
909,124;10664,774;    2,439;   -1,500
909,681;10709,312;   -1,288;    0,682
910,238;10882,032;   -0,106;   -1,318
910,795;11183,753;   -1,561;   -1,136
911,352;10870,480;   -0,379;   -2,682
911,909;10395,389;    2,803;   -0,864
912,466;10826,025;    1,985;    1,500
913,022;10387,571;   -0,924;    0,500
913,579;10700,298;   -0,470;    2,045
914,136;10496,934;   -2,561;    0,955
914,692;10830,934;    1,530;   -1,227
915,249;10444,389;    0,530;    0,409
915,806;10638,389;    1,803;    1,955
916,362;10464,662;    0,894;    1,864
916,918;10089,116;    2,439;    1,045
917,475;10125,753;    1,621;    0,955
918,031;10169,116;    0,076;   -0,045
918,587; 9705,753;    0,621;   -0,318
919,144; 9938,662;   -0,379;    0,227
919,700;10177,116;    0,167;    0,773
920,256; 9792,389;    0,439;    0,045
920,812; 9541,116;    1,439;   -1,045
921,368; 9551,662;    1,348;   -1,045
921,924; 9251,480;    0,439;   -0,136
922,480; 8904,025;    0,076;    1,227
923,036; 9451,571;   -0,652;    1,955
923,592; 9408,116;    0,621;    0,318
924,148; 9341,207;    1,894;   -0,955
924,704; 8801,116;    0,258;   -0,409
925,259; 9097,662;   -0,561;    0,591
925,815; 8885,571;    3,803;    0,500
926,371; 8459,025;    3,530;    1,409
926,926; 8402,389;    1,621;    0,591
927,482; 8129,116;    1,621;    0,773
928,037; 8021,934;   -0,833;    2,045
928,593; 8327,298;    0,258;    1,045
929,148; 8187,389;    1,167;   -1,500
929,704; 7764,298;    2,439;   -0,500
930,259; 7941,480;    0,894;   -0,136
930,814; 7185,571;    1,803;    1,955
931,369; 6965,298;    0,258;   -0,773
931,925; 6903,207;   -1,924;    0,136
932,480; 6811,753;    3,076;   -2,591
933,035; 6784,934;    3,985;   -0,318
933,590; 6619,843;   -1,742;   -1,773
934,145; 6361,116;   -1,288;   -0,318
934,700; 6645,389;    0,348;   -0,591
935,255; 6488,207;    4,803;    0,045
935,809; 6000,207;    6,258;    0,864
936,364; 5279,934;    2,167;   -0,136
936,919; 5307,662;    2,348;   -1,773
937,474; 5237,025;    1,348;    0,136
938,028; 5057,025;    3,076;    1,136
938,583; 4697,298;    6,348;    4,682
939,138; 4921,389;    0,167;    2,136
939,692; 4464,843;   -1,015;   -1,136
940,247; 4249,571;    1,167;   -1,045
940,801; 3971,116;    0,621;    0,227
941,355; 3913,389;    0,439;    2,591
941,910; 3615,389;    0,712;   -2,136
942,464; 3730,934;    2,712;   -0,318
943,018; 3637,207;    3,258;   -0,227
943,572; 3568,116;    2,803;   -0,682
944,126; 3153,843;   -0,924;   -0,409
944,681; 3048,571;    0,712;    0,227
945,235; 3000,662;    2,167;   -0,591
945,789; 2958,571;    1,258;   -1,864
946,342; 3143,480;   -0,561;   -0,591
946,896; 2909,662;    0,348;    0,955
947,450; 2705,662;   -0,561;   -0,227
948,004; 2946,116;    1,076;   -0,045
948,558; 2904,298;    1,258;   -0,864
949,111; 2835,025;   -1,197;   -0,318
949,665; 2954,025;   -0,106;   -0,682
950,219; 2841,571;    0,621;   -1,045
950,772; 2876,116;    0,258;    1,864
951,326; 2820,116;   -1,106;   -0,955
951,879; 2842,116;    1,076;   -2,318
952,433; 2895,116;    1,348;    2,227
952,986; 2726,934;    0,348;    0,682
953,539; 2669,116;    1,530;    0,591
954,093; 2624,480;    0,985;   -1,318
954,646; 2760,753;   -0,288;    1,318
955,199; 2591,298;    1,258;   -0,500
955,752; 2578,753;    1,985;    1,773
956,305; 2513,934;    0,894;    2,955
956,858; 2653,662;    0,621;   -0,318
957,411; 2793,843;    3,621;    2,136
957,964; 2627,207;    2,076;    2,136
958,517; 2601,571;    0,985;    3,136
959,070; 2483,389;   -1,197;    1,955
959,623; 2640,571;    1,076;    1,500
960,176; 2444,025;    0,712;    2,045
960,728; 2414,298;    1,712;    0,773
961,281; 2453,207;    2,258;    0,500
961,834; 2464,207;   -0,833;    0,864
962,386; 2402,025;    1,258;    1,045
962,939; 2317,843;    3,439;   -0,318
963,491; 2438,207;    2,621;    1,136
964,043; 2339,571;    0,076;    2,409
964,596; 2478,207;    1,712;    2,227
965,148; 2327,934;   -0,379;    1,773
965,700; 2250,571;   -0,015;   -0,227
966,253; 2397,116;   -0,833;    0,318
966,805; 2277,207;    1,894;    0,773
967,357; 2283,571;    0,439;   -1,500
967,909; 2305,753;    1,167;   -1,227
968,461; 2325,207;    0,894;    3,136
969,013; 2268,389;   -1,561;   -0,864
969,565; 2356,934;    1,803;   -1,136
970,117; 2557,480;    3,803;    1,045
970,669; 2319,843;    3,258;   -0,136
971,220; 2142,298;    2,167;   -1,500
971,772; 2102,480;    1,348;   -0,318
972,324; 2231,753;   -1,197;   -0,500
972,876; 2157,207;    0,167;   -0,045
973,427; 2314,480;   -1,197;   -1,045
973,979; 2301,298;    0,076;   -2,500
974,530; 2248,843;    0,803;    1,318
975,082; 2249,480;    2,167;    1,682
975,633; 2181,571;    2,894;    1,682
976,184; 2330,571;    2,076;    0,773
976,736; 2173,662;    0,348;    0,227
977,287; 2039,389;    0,258;   -0,500
977,838; 2162,571;   -0,924;   -0,318
978,389; 2204,571;    0,803;   -0,500
978,940; 2060,116;    1,258;   -0,409
979,491; 2084,480;    2,258;   -0,500
980,042; 2086,025;   -0,652;    3,045
980,593; 2124,025;    1,894;    0,227
981,144; 2213,843;    3,530;   -0,500
981,695; 2223,298;   -0,470;    1,500
982,246; 2150,116;   -1,833;    1,045
982,797; 2205,843;   -0,561;    0,682
983,347; 2334,662;    2,167;    0,591
983,898; 2536,298;    4,167;    0,409
984,449; 2388,207;    2,530;    0,773
984,999; 2232,298;    1,894;   -1,136
985,550; 2079,389;    3,167;   -0,318
986,100; 2044,934;    0,712;   -0,318
986,651; 2072,025;    0,258;    0,045
987,201; 2072,389;    0,894;   -0,591
987,751; 2143,934;   -0,288;    2,864
988,302; 2156,571;   -0,379;    1,500
988,852; 2152,298;    1,985;   -1,136
989,402; 2237,116;    0,985;    0,682
989,952; 2188,298;    1,621;    0,864
990,502; 2225,389;    1,076;    0,682
991,052; 2155,934;   -0,106;    0,045
991,602; 2052,934;    1,167;    1,318
992,152; 2077,662;    2,803;    0,682
992,702; 2062,934;    1,167;   -0,045
993,252; 1992,207;    0,076;   -0,500
993,802; 2095,389;    1,167;    1,318
994,352; 2254,662;   -0,742;    1,136
994,901; 2284,571;    1,076;    3,227
995,451; 2242,025;   -1,197;    0,318
996,000; 2310,934;    1,076;    0,318
996,550; 2084,571;    2,894;    0,227
997,100; 2094,934;   -0,561;   -0,045
997,649; 2349,116;   -0,197;    0,955
998,198; 2056,298;   -0,288;   -1,500
998,748; 2245,662;    0,348;   -2,318
999,297; 2127,753;    0,985;   -0,409
999,846; 2240,116;    1,894;   -0,773
1000,395; 2215,298;    1,530;    0,500
1000,945; 2247,843;    1,076;   -0,773
1001,494; 2297,753;    0,167;    0,682
1002,043; 2261,753;    0,712;    0,864
1002,592; 2094,207;    3,439;    1,955
1003,141; 2206,571;    2,439;   -0,682
1003,690; 2134,116;    1,258;    0,500
1004,238; 2155,843;   -0,106;   -0,045
1004,787; 1865,934;   -1,288;    1,227
1005,336; 2135,116;    1,621;    0,682
1005,885; 2182,843;   -0,197;   -2,773
1006,433; 2261,662;   -0,470;    0,955
1006,982; 2425,934;    2,167;    1,682
1007,531; 2284,662;    2,712;   -0,227
1008,079; 2188,843;    0,258;    0,500
1008,627; 2294,025;    1,621;    0,409
1009,176; 2111,207;    0,076;   -1,955
1009,724; 2120,389;   -2,742;    0,864
1010,273; 2234,480;    1,076;    0,500
1010,821; 2273,480;    1,076;    1,409
1011,369; 2065,662;    0,076;    1,318
1011,917; 2060,571;   -0,833;   -0,591
1012,465; 2314,843;    2,530;   -1,591
1013,013; 2358,389;    0,439;   -1,682
1013,561; 2324,207;   -1,288;   -0,773
1014,109; 2406,571;   -0,833;    1,682
1014,657; 2251,480;    1,348;    0,591
1015,205; 2307,753;    0,894;   -0,955
1015,753; 2312,207;    0,258;   -1,409
1016,301; 2351,571;    2,621;    3,045
1016,848; 2367,480;    2,167;    0,409
1017,396; 2418,934;    1,621;    0,045
1017,944; 2500,116;    2,621;    1,864
1018,491; 2285,934;   -0,197;    1,409
1019,039; 2562,843;   -0,652;    0,591
1019,586; 2366,571;    0,076;    1,682
1020,134; 2429,934;    0,712;    1,500
1020,681; 2471,662;    2,894;   -1,136
1021,228; 2435,662;   -0,561;   -2,227
1021,776; 2302,116;   -0,833;   -1,136
1022,323; 2554,116;    0,803;    0,773
1022,870; 2476,753;   -0,470;   -0,045
1023,417; 2430,843;    2,076;    1,864
1023,964; 2469,480;    0,621;    1,227
1024,511; 2362,298;   -0,652;    0,773
1025,058; 2193,116;    0,439;   -0,045
1025,605; 2227,571;   -1,742;    3,136
1026,152; 2487,207;   -0,106;   -0,591
1026,699; 2219,025;    0,167;    1,318
1027,245; 2314,843;    2,439;    0,318
1027,792; 2470,662;    0,712;    1,409
1028,339; 2474,298;    4,076;   -0,045
1028,885; 2304,207;    3,621;   -0,227
1029,432; 2240,389;   -0,106;    0,227
1029,978; 2335,480;    1,348;   -1,591
1030,525; 2245,662;    1,621;    0,409
1031,071; 2389,753;    0,348;    1,136
1031,618; 2594,389;    1,258;    1,682
1032,164; 2364,934;    2,076;    3,045
1032,710; 2416,025;    0,076;   -1,500
1033,256; 2314,843;    0,712;   -0,136
1033,803; 2237,207;   -0,288;    1,500
1034,349; 2026,480;    1,803;    0,136
1034,895; 2170,934;    2,621;   -0,318
1035,441; 2173,298;    0,439;    0,318
1035,987; 2189,571;   -2,288;   -0,682
1036,533; 2209,753;   -0,197;   -0,955
1037,078; 2435,934;    4,712;    1,682
1037,624; 2264,662;    2,439;   -0,955
1038,170; 2221,025;    1,712;   -0,318
1038,716; 2192,025;    2,167;   -0,409
1039,261; 2073,934;    2,167;   -0,773
1039,807; 2037,843;   -0,015;    3,409
1040,352; 2129,662;   -1,288;   -0,318
1040,898; 2152,934;    0,167;   -0,682
1041,443; 2033,843;    0,803;   -2,591
1041,989; 2179,298;    3,621;    1,591
1042,534; 2026,571;    0,985;    2,591
1043,079; 2060,298;    1,985;    0,955
1043,625; 1933,843;    0,258;    0,500
1044,170; 1986,753;    2,439;    1,045
1044,715; 2245,662;    0,167;    0,955
1045,260; 2090,207;   -0,833;   -0,955
1045,805; 2069,025;    0,258;   -0,591
1046,350; 1984,753;    0,530;   -0,409
1046,895; 2054,116;    0,803;    1,591
1047,440; 2024,480;    1,530;    0,409
1047,985; 1890,753;   -1,197;   -0,955
1048,530; 1815,116;    1,348;    1,227
1049,074; 1884,571;    2,803;    0,318
1049,619; 1842,934;   -0,924;    1,955
1050,164; 1713,207;    1,076;    0,227
1050,708; 1771,843;    2,621;    0,045
1051,253; 2148,298;    3,258;   -2,227
1051,797; 1848,571;   -0,197;   -1,318
1052,342; 1803,480;    1,348;    1,045
1052,886; 1825,753;    1,803;   -1,409
1053,430; 1697,843;    2,167;    0,136
1053,975; 1721,298;    0,894;   -0,318
1054,519; 1718,116;    1,803;    3,227
1055,063; 1791,025;    3,621;    1,318
1055,607; 1690,934;    1,348;    0,227
1056,151; 1721,662;    0,530;    1,682
1056,695; 1593,480;   -1,833;   -1,136
1057,239; 1652,025;   -1,197;   -0,682
1057,783; 1687,571;    2,258;   -1,500
1058,327; 1687,662;    3,076;    1,409
1058,871; 1920,571;    3,985;    1,318
1059,415; 1635,298;   -0,561;   -0,045
1059,958; 1911,843;    2,985;    2,591
1060,502; 1621,843;    1,348;   -0,773
1061,046; 1500,298;    1,712;   -0,955
1061,589; 1479,389;    2,803;   -1,136
1062,133; 1383,934;    0,985;    1,864
1062,676; 1354,116;    1,439;    0,864
1063,220; 1382,571;    0,985;    0,500
1063,763; 1410,843;    2,985;    1,136
1064,306; 1486,025;    0,985;    1,864
1064,849; 1393,662;    2,076;    0,591
1065,393; 1397,480;    2,894;   -1,500
1065,936; 1460,934;    2,530;   -0,409
1066,479; 1337,025;    2,621;    1,318
1067,022; 1373,843;    1,894;   -0,227
1067,565; 1293,207;   -1,197;   -1,318
1068,108; 1302,571;    1,258;   -0,591
1068,651; 1272,662;   -2,470;    1,409
1069,194; 1219,753;   -1,106;   -1,682
1069,736; 1242,934;    3,803;    0,955
1070,279; 1194,298;   -1,652;   -0,500
1070,822; 1295,934;    1,530;   -0,318
1071,364; 1406,662;    0,530;    1,318
1071,907; 1215,662;    0,348;    3,227
1072,450; 1084,571;    0,258;   -0,045
1072,992; 1113,298;   -0,561;    3,136
1073,535; 1260,480;    0,167;    2,136
1074,077; 1061,662;    2,985;    2,045
1074,619; 1055,480;    0,985;    0,591
1075,161; 1088,480;   -0,561;    1,500
1075,704; 1276,662;    0,258;    1,227
1076,246; 1046,389;    1,530;    0,682
1076,788;  966,116;   -1,015;    1,773
1077,330; 1020,389;   -2,106;    2,136
1077,872; 1029,116;   -1,924;    0,955
1078,414; 1273,389;    3,712;    0,773
1078,956; 1016,480;    0,167;   -0,227
1079,498; 1278,934;    0,439;    0,318
1080,040; 1009,025;    0,985;   -1,318
1080,581;  928,843;    0,621;   -0,318
1081,123;  848,571;   -0,106;   -0,773
1081,665;  893,116;    3,803;   -0,955
1082,206; 1200,662;    3,258;   -0,500
1082,748; 1062,298;    3,258;    2,045
1083,289;  936,480;    0,167;    1,318
1083,831;  868,662;    0,258;    0,227
1084,372;  922,934;    0,894;    0,591
1084,913;  902,389;    3,348;    0,864
1085,455;  857,480;    1,530;   -2,045
1085,996;  855,389;    0,530;    0,136
1086,537;  892,662;    0,985;    0,864
1087,078;  914,753;    0,439;   -2,136
1087,619;  962,298;   -1,652;    0,227
1088,160;  880,480;    1,439;    1,318
1088,701;  846,298;   -0,742;    0,682
1089,242;  794,025;   -0,561;   -2,227
1089,783;  902,116;   -0,561;    1,409
1090,324;  872,662;   -0,833;    0,682
1090,865;  767,025;   -1,924;   -0,409
1091,405;  722,116;   -0,561;    2,227
1091,946;  759,571;   -0,197;   -0,955
1092,487;  674,753;   -1,288;   -1,409
1093,027;  854,753;    1,803;   -1,500
1093,568;  724,207;    2,258;    1,227
1094,108;  816,207;    0,621;    1,773
1094,649;  748,480;   -0,470;    0,136
1095,189;  699,207;    1,167;   -0,682
1095,729;  659,025;    0,712;    0,955
1096,269;  651,389;    1,258;   -0,955
1096,810;  958,480;   -0,197;    0,500
1097,350;  798,207;   -0,561;   -0,773
1097,890;  707,571;    2,985;    1,227
1098,430;  950,116;    4,985;    2,864
1098,970;  841,480;    1,894;    1,682
1099,510;  690,753;   -0,833;   -2,318
1100,050;  637,025;    0,258;   -1,591
1100,589;  623,480;    0,076;   -0,318
1101,129;  731,753;    0,894;   -0,955
1101,669;  871,934;    2,803;    2,136
1102,209;  709,025;    1,530;    2,227
1102,748;  667,934;    3,439;    0,955
1103,288;  655,480;    0,712;   -1,227
1103,827;  678,571;    3,530;   -2,227
1104,367;  566,934;    1,712;   -2,409
1104,906;  547,207;   -1,015;   -1,136
1105,445;  620,480;    0,985;   -1,136
1105,985;  566,298;   -0,652;    1,500
1106,524;  606,934;    1,530;   -0,682
1107,063;  588,298;    1,167;    1,409
1107,602;  550,389;    1,894;   -1,500
1108,141;  484,571;    1,621;    1,500
1108,680;  609,934;    3,985;   -0,591
1109,219;  549,116;    0,167;   -0,500
1109,758;  534,662;    4,167;    0,682
1110,297;  506,480;   -1,106;   -0,682
1110,836;  464,662;    1,439;    0,955
1111,375;  607,207;    0,348;    0,409
1111,913;  620,662;    0,985;    0,773
1112,452;  564,662;    0,894;    0,136
1112,991;  459,116;    1,076;    1,955
1113,529;  424,843;    0,167;   -0,045
1114,068;  501,116;    0,439;    2,955
1114,606;  405,025;   -0,561;   -0,955
1115,144;  552,753;    1,530;    1,045
1115,683;  491,571;    1,985;    0,318
1116,221;  531,843;    2,076;   -0,864
1116,759;  438,298;    1,621;   -0,864
1117,297;  633,116;    1,621;    1,864
1117,836;  466,934;    1,985;   -1,227
1118,374;  460,389;    0,258;   -0,682
1118,912;  418,389;    0,439;    2,682
1119,450;  411,753;    0,985;    0,864
1119,988;  454,298;    3,348;    2,136
1120,525;  888,662;    7,258;    3,318
1121,063;  599,116;    0,530;    1,864
1121,601;  423,753;    1,076;   -1,227
1122,139;  385,753;    1,076;   -2,045
1122,676;  575,934;   -1,652;    2,773
1123,214;  513,298;    0,712;    4,409
1123,751;  339,207;    0,621;    2,227
1124,289;  447,843;    0,894;   -0,409
1124,826;  341,116;   -0,379;    0,227
1125,364;  266,571;    0,712;   -0,955
1125,901;  438,298;    6,258;    1,227
1126,438;  548,480;    3,530;    0,955
1126,975;  288,025;    2,985;   -0,773
1127,513;  356,934;    2,621;    2,136
1128,050;  273,207;   -0,561;   -0,682
1128,587;  362,298;    1,348;   -0,227
1129,124;  409,753;   -0,015;    1,318
1129,661;  277,116;   -1,924;    0,227
1130,198;  439,298;    2,439;    0,773
1130,734;  393,116;   -0,379;    1,409
1131,271;  254,207;   -1,197;    0,864
1131,808;  416,571;    1,621;    3,045
1132,345;  299,753;    4,530;    0,318
1132,881;  190,571;   -0,561;   -1,864
1133,418;  330,298;    0,348;   -1,136
1133,954;  256,116;    0,712;   -2,682
1134,491;  325,480;    1,712;   -0,773
1135,027;  233,480;    2,167;    0,864
1135,564;  314,480;    1,439;    2,955
1136,100;  304,025;   -0,742;    2,136
1136,636;  204,934;   -1,015;   -1,045
1137,172;  288,116;    0,894;   -1,045
1137,708;  218,934;   -1,561;   -1,045
1138,245;  220,571;    0,803;   -1,227
1138,781;  176,480;    1,803;   -3,318
1139,317;  245,389;    1,894;   -1,409
1139,852;  234,298;    3,076;    0,136
1140,388;  333,389;    2,076;   -0,409
1140,924;  232,662;    1,076;   -2,227
1141,460;  171,116;   -0,288;    0,136
1141,996;  124,571;   -0,652;    2,682
1142,531;  164,843;    1,076;    3,318
1143,067;  352,298;    1,167;    1,045
1143,602;  406,298;    3,439;   -0,318
1144,138;  270,753;    0,803;    1,045
1144,673;  154,116;    1,621;    1,409
1145,209;  212,207;    2,894;   -0,318
1145,744;  135,025;    0,803;    0,864
1146,279;  250,389;    1,530;   -0,136
1146,815;  180,480;    1,530;   -2,682
1147,350;  222,571;   -0,924;    0,045
1147,885;  151,480;   -1,924;   -1,318
1148,420;  148,389;    2,439;    0,773
1148,955;  128,298;   -1,470;    1,864
1149,490;  150,934;   -1,106;   -1,591
1150,025;  134,480;   -1,106;   -1,773
1150,560;  242,753;   -0,288;   -0,955
1151,094;  202,207;    0,258;   -0,591
1151,629;  211,389;   -3,742;    0,864
1152,164;  147,298;   -1,288;    1,318
1152,698;  115,753;    1,258;   -0,136
1153,233;   80,389;   -1,379;   -0,682
1153,767;  126,934;   -0,288;   -2,318
1154,302;  153,480;   -0,379;    1,773
1154,836;  164,843;    0,803;   -2,136
1155,371;  212,662;    2,258;    3,682
1155,905;  164,389;    1,985;    1,682
1156,439;  135,480;    0,530;   -0,500
1156,973;  162,662;    0,439;    0,318
1157,507;  102,025;   -1,742;    0,682
1158,042;  126,480;   -0,652;    1,045
1158,576;  168,480;   -0,561;    1,773
1159,110;  165,389;    0,076;    2,409
1159,643;  139,389;   -2,470;   -0,045
1160,177;   88,843;   -2,015;    1,500

