
Integration time [ms]:   0,050
Averaging Nr. [scans]: 11
Smoothing Nr. [pixels]: 0
Data measured with spectrometer [name]: 7318044SP
Wave   ;Sample   ;Dark     ;Reference
[nm]   ;[counts] ;[counts] ;[counts] 

186,757;  -30,449;   38,161;    1,318
187,357;  -13,323;   26,706;    0,955
187,958;  -23,523;   17,252;   -1,591
188,558;   11,272;   12,979;   -1,227
189,159;  -16,768;   10,070;   -4,500
189,759;  -31,166;    5,797;   -3,591
190,360;  -29,428;    6,797;   -2,136
190,960;   -8,574;    5,706;   -4,136
191,560;   -0,496;    2,614;   -6,591
192,161;  174,783;    5,885;   -3,500
192,761;   54,252;    5,520;   -3,227
193,361;   12,221;    3,065;   -3,773
193,962;   50,155;    1,612;   -2,682
194,562;   -7,075;   -0,114;   -3,955
195,162;   -1,209;   -0,567;   -2,227
195,762;  103,741;    2,433;   -0,045
196,362;   54,871;    1,706;   -2,500
196,963;  -16,406;    1,706;   -0,864
197,563;   23,093;    1,252;   -0,955
198,163;  -11,125;   -0,111;   -0,682
198,763;   -4,240;   -0,020;   -0,500
199,363;   37,920;    3,616;   -0,500
199,963;   20,478;    2,162;    0,409
200,563;    6,461;    6,344;   -1,409
201,163;  -10,638;    5,435;   -0,227
201,763;   19,983;    1,435;    0,318
202,363;   -1,929;    0,980;    1,500
202,963;   21,186;    1,526;    1,045
203,563;   66,273;    0,344;    0,500
204,162;   10,013;    1,889;   -1,864
204,762;    5,698;    2,071;    0,591
205,362;  -14,207;    0,708;    1,955
205,962;    5,086;    3,435;    1,955
206,562;    6,250;    1,889;    2,318
207,161;   -9,662;    1,708;    0,318
207,761;   60,008;    4,435;    2,409
208,361;   -2,890;    1,889;    1,409
208,960;   11,205;    2,889;    1,500
209,560;    8,435;    0,435;    1,591
210,160;   22,026;    5,071;    1,864
210,759;    1,479;    0,708;    1,227
211,359;   -8,880;   -0,474;    1,045
211,958;   79,035;    3,526;    2,045
212,558;   85,470;    0,799;    1,864
213,157;   28,331;   -0,929;    1,500
213,757;  143,775;    5,617;   -0,227
214,356;   42,482;    1,708;   -0,409
214,956;  118,811;    3,526;    0,409
215,555;   31,882;    0,617;    2,136
216,154;    0,641;   -0,292;   -0,591
216,754;   -2,274;    1,253;    0,773
217,353;    8,717;   -0,383;   -1,045
217,952;  -27,354;    2,072;    0,318
218,552;   28,922;    0,254;   -0,773
219,151;   -1,280;   -1,110;    0,955
219,750;  -10,792;    0,890;   -0,227
220,349;  -17,547;   -2,292;    1,045
220,948;   34,589;    1,163;    1,136
221,548;   -2,824;    0,617;    1,227
222,147;    2,827;   -1,292;   -0,409
222,746;   61,943;    1,254;   -0,955
223,345;   18,868;   -1,019;    0,500
223,944;   14,684;    1,163;    0,773
224,543;   22,824;    4,072;   -1,409
225,142;   12,356;    1,345;    0,136
225,741;    8,948;    1,163;    1,045
226,340;    8,450;    1,254;   -0,955
226,939;   45,912;    2,708;   -0,136
227,538;   -6,575;    1,163;   -0,773
228,137;   55,036;    0,435;    0,864
228,735;   24,942;    0,435;    1,227
229,334;  -24,610;   -0,474;   -0,227
229,933;   57,914;    0,799;    0,591
230,532;   48,693;   -1,201;   -0,409
231,131;   80,880;    1,253;    0,318
231,729;   25,534;    1,163;   -2,318
232,328;   -0,598;    0,435;   -1,500
232,927;    3,193;    4,526;   -0,500
233,525;   -0,730;    0,981;    0,045
234,124;   17,298;    1,890;   -1,591
234,723;   -3,676;    1,617;   -1,045
235,321;  -10,292;    1,163;    0,136
235,920;   -1,281;    2,526;   -1,227
236,518;   55,285;    1,072;    0,318
237,117;   -6,580;    2,890;   -0,227
237,715;   14,635;    1,163;   -0,500
238,314;   10,885;    1,708;   -2,318
238,912;   57,098;    0,526;   -1,409
239,510;   24,267;    1,162;   -1,227
240,109;   64,017;   -0,474;    3,773
240,707;   48,002;   -0,474;    1,227
241,305;   -8,035;   -0,383;    0,136
241,904;   11,965;   -0,292;   -2,045
242,502;   69,975;    3,253;   -0,227
243,100;   36,537;    3,344;   -0,955
243,698;   -1,248;    2,799;    1,682
244,297;   12,121;   -0,656;    0,682
244,895;    3,793;   -0,474;   -2,318
245,493;   60,157;    2,981;   -0,591
246,091;   70,840;    5,163;   -1,318
246,689;   27,019;    2,163;    0,591
247,287;   21,893;   -0,019;   -1,136
247,885;    9,594;   -1,019;    1,227
248,483;   -4,505;   -0,201;   -0,500
249,081;   31,261;    0,981;    1,591
249,679;   32,370;   -1,019;    1,682
250,277;   -8,337;   -2,292;    0,864
250,875;   32,450;    0,617;   -1,045
251,473;    7,273;   -0,019;    0,500
252,071;   38,859;   -0,383;    1,045
252,669;    7,866;   -1,565;    0,318
253,267;   -2,478;    1,618;    0,773
253,864;    6,984;    0,617;    0,682
254,462;   42,403;    1,526;    1,591
255,060;   -0,341;    0,072;    1,318
255,658;   -6,498;   -3,292;   -0,136
256,255;    2,254;   -0,201;   -2,045
256,853;   29,049;    2,345;    1,409
257,451;    5,696;    1,981;    1,864
258,048;  142,953;    2,072;    1,864
258,646;   52,581;    0,436;   -1,045
259,243;   76,231;    2,981;    2,227
259,841;   36,202;    1,799;    0,318
260,438;   -2,252;    0,254;    0,864
261,036;   28,246;    0,617;    1,409
261,633;    0,600;    1,526;    2,227
262,231;   -9,203;   -0,110;   -0,045
262,828;   -7,322;   -0,383;    1,136
263,425;    4,855;   -1,928;   -0,591
264,023;    7,114;    1,436;    0,045
264,620;   35,484;    1,526;   -0,318
265,217;   65,960;    2,890;    3,136
265,815;    7,800;    2,527;    2,136
266,412;   25,694;    0,072;    0,136
267,009;   20,693;    0,526;    0,773
267,606;   52,491;    0,345;   -0,955
268,203;    8,200;   -0,383;   -0,591
268,801;    5,076;   -0,474;    0,591
269,398;   -6,364;   -0,564;    2,500
269,995;   24,678;    0,890;    1,591
270,592;    9,058;    0,799;   -0,500
271,189;   -4,060;    1,981;    0,409
271,786;  -13,655;    2,072;    1,227
272,383;   34,616;   -0,383;    0,227
272,980;    5,486;    1,617;    0,318
273,577;   -5,436;    2,162;    1,227
274,174;  -15,664;    1,435;    2,591
274,771;   20,139;    1,890;   -0,773
275,367;  154,743;    3,253;    1,409
275,964;   60,845;   -0,565;   -0,500
276,561;    5,785;   -2,474;   -1,045
277,158;  -18,993;    1,799;   -1,773
277,755;   55,261;   -0,110;    0,409
278,351;   27,487;    0,436;   -1,500
278,948;   35,954;   -0,201;    0,045
279,545;   20,855;    0,527;    2,318
280,141;   57,865;    1,254;   -2,045
280,738;   71,951;    2,435;   -0,136
281,334;   18,090;   -0,383;    0,591
281,931;   -6,925;    2,890;   -1,318
282,528;   38,635;    4,072;   -0,500
283,124;   55,130;    3,345;   -0,500
283,721;   45,698;    0,709;    1,409
284,317;   14,777;    0,163;    2,500
284,913;   59,400;   -0,110;    0,591
285,510;  111,400;    2,890;   -0,318
286,106;   59,054;    2,345;   -0,955
286,703;   20,185;    0,072;    1,955
287,299;    1,111;    1,254;   -0,591
287,895;    0,515;    0,890;   -1,045
288,491;   -0,001;    0,163;    2,136
289,088;   18,906;    0,163;    2,409
289,684;   22,775;    2,890;    1,500
290,280;   77,310;    1,890;    0,682
290,876;   53,813;    0,163;    5,500
291,472;   37,220;    2,163;    2,227
292,068;   54,606;    1,254;    0,227
292,665;   22,838;   -0,564;    0,773
293,261;   -5,690;   -1,292;    2,136
293,857;   41,576;    4,072;    2,136
294,453;   17,820;   -0,928;    0,955
295,049;   76,068;    0,253;    1,955
295,644;   31,218;   -1,292;    0,136
296,240;   -8,777;    0,162;   -0,136
296,836;   24,424;   -0,747;    0,318
297,432;   60,397;    2,980;   -0,500
298,028;   53,187;    0,435;    0,773
298,624;   18,979;    0,889;    1,864
299,220;   17,737;    0,435;    0,591
299,815;   18,111;    0,526;   -0,409
300,411;   39,522;    0,435;    1,773
301,007;   46,996;    1,889;    0,227
301,602;    4,672;    2,071;   -2,318
302,198;   52,872;    1,435;   -0,773
302,794;   17,787;    1,526;   -0,500
303,389;   -5,204;    1,071;    1,045
303,985;    2,229;    1,253;    1,409
304,580;   49,420;    0,889;    1,591
305,176;   21,400;    0,344;    0,136
305,771;  -29,630;   -0,929;   -1,227
306,367;  119,088;    3,071;    0,136
306,962;   38,945;    2,889;    1,500
307,558;   60,791;    2,435;    0,136
308,153;   33,676;   -0,383;   -1,136
308,748;   -7,647;    0,162;    1,682
309,344;   99,938;    0,253;   -1,318
309,939;   79,031;    2,071;   -1,318
310,534;   13,439;   -2,020;   -1,682
311,130;   10,509;   -0,656;   -2,500
311,725;   -0,010;    0,526;   -0,500
312,320;    8,011;    1,253;    0,045
312,915;   34,170;    2,890;   -1,045
313,510;  108,570;    0,526;   -0,500
314,105;   23,554;   -3,565;    1,409
314,700;  -10,511;   -1,656;   -1,045
315,295;    6,783;   -0,020;    0,045
315,890;  -10,335;   -0,292;    0,864
316,485;   21,360;    0,253;   -0,318
317,080;   -9,231;   -0,929;    1,591
317,675;   99,287;    3,071;   -0,682
318,270;  196,434;    6,889;    3,318
318,865;  118,522;    2,435;    3,045
319,460;   64,368;   -1,565;    0,591
320,055;    5,279;   -2,565;   -1,227
320,650;    5,322;   -1,838;   -0,591
321,244;   11,477;    0,889;   -1,409
321,839;    4,499;    0,980;   -0,227
322,434;   19,192;   -0,111;   -1,591
323,029;    6,572;   -0,474;    1,591
323,623;   -5,375;    0,798;    0,773
324,218;   73,550;    2,707;    1,409
324,812;   40,335;    0,889;    1,591
325,407;   32,095;   -0,929;    2,045
326,002;   90,525;    0,526;   -0,409
326,596;   60,116;   -0,656;    1,318
327,191;    4,872;   -0,383;   -1,045
327,785;   10,116;   -0,747;   -0,227
328,379;    2,176;   -0,383;    0,136
328,974;   15,298;    1,798;   -3,955
329,568;   36,643;    2,889;   -2,409
330,163;   61,247;    2,435;    1,045
330,757;    8,429;    0,253;    1,591
331,351;   -6,120;   -0,292;    0,682
331,945;  -11,398;   -0,383;    1,409
332,540;   25,428;    1,617;   -0,591
333,134;   17,495;    3,344;    0,773
333,728;   27,306;    2,799;    0,318
334,322;  -10,981;    0,889;   -0,864
334,916;  -12,682;    0,344;    0,955
335,510;   42,632;   -0,111;   -0,136
336,105;   22,145;   -0,929;    1,591
336,699;  -10,017;   -1,292;    0,591
337,293;   19,734;    1,071;    0,318
337,887;   -1,140;    0,071;    1,955
338,481;   33,820;    2,980;    0,591
339,074;   69,405;    2,071;    2,682
339,668;   56,631;   -0,110;    1,227
340,262;  291,075;    7,708;    3,227
340,856;  107,955;    1,708;   -0,682
341,450;    4,407;    0,708;    1,864
342,044;   30,280;    1,799;    0,136
342,637;   55,562;    1,162;   -2,136
343,231;   14,941;   -1,474;    0,682
343,825;    7,344;   -0,747;   -0,591
344,419;   11,621;   -0,474;    0,500
345,012;  236,078;    2,889;    4,045
345,606;  135,481;   -0,656;    1,591
346,199;   16,289;   -0,111;   -0,227
346,793;   51,514;    2,525;    2,045
347,386;    4,664;    0,889;   -1,136
347,980;  -13,857;   -0,838;   -0,045
348,573;   12,514;   -1,748;    0,409
349,167;  160,515;    6,161;    4,773
349,760;   70,371;    2,252;    2,682
350,354;   50,160;    1,616;    1,136
350,947;   56,077;    2,798;    1,682
351,540;   24,557;    0,616;   -1,409
352,134;  -10,506;   -1,111;    1,136
352,727;   -4,510;   -0,657;    1,136
353,320;  -14,095;    2,343;    0,591
353,913;  -27,953;   -1,929;    1,864
354,507;   48,427;    0,434;   -1,227
355,100;    5,953;    0,071;    0,864
355,693;  192,651;    4,798;    2,409
356,286;   71,036;    0,980;    2,773
356,879;   15,742;   -0,475;    1,227
357,472;   26,146;    0,980;    1,500
358,065;   29,972;    3,161;    2,500
358,658;  -12,080;    0,798;    2,318
359,251;   -9,983;    0,252;   -0,591
359,844;   42,508;    0,343;   -1,136
360,437;   58,109;    0,252;    0,045
361,030;   11,622;    0,525;   -0,682
361,623;    6,657;    0,434;    0,318
362,215;  103,539;    0,979;    2,045
362,808;   30,104;   -2,293;   -1,682
363,401;    2,964;    0,798;    0,136
363,994;   98,994;    3,252;   -1,500
364,586;   18,750;    0,888;   -1,500
365,179;    2,268;   -0,203;   -1,136
365,772;  -36,088;   -0,930;    2,045
366,364;    2,514;    1,524;   -3,227
366,957;   26,910;    1,342;   -0,045
367,549;    9,630;   -0,203;   -0,864
368,142;   12,276;    0,978;   -1,500
368,734;    9,509;    2,523;   -2,136
369,327;  -23,553;    2,341;   -0,500
369,919;   -3,055;   -1,659;    0,409
370,512;    4,821;   -1,023;   -0,500
371,104;  152,511;    2,704;    1,591
371,696;  158,666;    1,703;   -0,955
372,289;   74,158;    0,157;    1,136
372,881;   41,124;    1,156;    1,318
373,473;  -11,177;    4,064;    1,136
374,066;   32,713;    1,336;    0,500
374,658;   19,793;    0,879;    1,136
375,250;  -20,638;   -1,668;   -1,409
375,842;   -0,526;   -0,124;   -0,045
376,434;  -38,186;   -2,762;   -0,409
377,026;  -48,867;   -1,855;   -2,500
377,618;   -7,571;    0,779;   -0,682
378,210;  -62,454;    3,141;   -1,955
378,802;  -75,455;    3,412;   -0,591
379,394;  251,152;    3,411;    0,682
379,986;   42,894;    1,138;   -0,955
380,578;  -36,865;    1,410;    0,773
381,170;  175,481;    0,320;    0,045
381,762;   98,717;   -0,224;    1,409
382,354;   65,671;   -0,223;   -1,318
382,945;   -0,062;    0,870;    0,318
383,537;  -29,943;    1,144;   -1,955
384,129;  -28,600;    0,963;   -1,136
384,721;   70,463;    0,418;    0,955
385,312;   18,711;   -1,399;   -0,955
385,904;   77,037;   -0,945;    1,591
386,496;    8,745;    0,691;    1,045
387,087;  119,366;    0,418;    2,500
387,679;   59,999;   -0,401;    0,045
388,270;   34,197;   -2,401;    2,045
388,862;   10,826;   -0,401;   -0,318
389,453;    1,612;    1,054;    1,045
390,045;   11,217;    3,236;   -2,682
390,636;  -78,448;    0,144;   -0,591
391,227;  -24,247;    2,054;   -0,045
391,819;  -41,919;    0,781;    0,773
392,410;  163,946;    0,600;    0,045
393,001;    6,571;    1,600;   -1,591
393,593;   49,742;    0,600;   -0,045
394,184;   83,032;    0,873;   -0,409
394,775;   -7,388;    1,146;    2,136
395,366;  -67,536;    1,782;    0,773
395,957;   56,256;   -2,400;    0,136
396,548;  -23,841;    1,054;    2,682
397,139;   63,666;    2,236;    0,591
397,730;    8,699;    0,873;    0,955
398,321;   13,504;    0,509;    0,955
398,912;  -28,166;   -0,764;    0,136
399,503;  -32,959;   -1,945;   -1,409
400,094;   -2,967;   -1,582;    1,682
400,685;   -8,750;    3,600;    0,045
401,276;  -39,776;   -0,400;   -0,955
401,867;  -57,715;   -1,127;    0,773
402,458;  -93,723;    1,509;   -2,318
403,048;   13,853;    0,146;    0,591
403,639;  -30,974;    1,509;    0,864
404,230;   75,073;    0,691;    0,318
404,821;  114,223;   -0,127;    0,045
405,411;   34,130;   -0,763;   -2,591
406,002;  -32,472;    3,237;   -1,136
406,592;  155,427;    2,691;    0,045
407,183;   39,929;    0,328;   -1,500
407,774;   28,037;    1,419;   -0,136
408,364;  -16,205;    2,600;    0,409
408,954;   70,617;   -0,036;    1,227
409,545;   75,335;    1,873;    1,045
410,135;   41,698;   -1,581;    0,500
410,726;   -9,836;    0,783;    0,318
411,316;  154,835;    2,237;    0,773
411,906;   32,483;    0,146;   -0,409
412,497;   31,758;   -0,490;   -0,045
413,087;   -6,628;    0,783;   -0,227
413,677;  -61,622;   -2,490;    3,864
414,267;  -70,576;   -1,035;    1,409
414,857;  -78,375;    0,419;    4,227
415,448;  -78,580;   -0,763;    0,500
416,038;  -53,623;   -2,945;   -0,591
416,628;  -26,450;    0,965;    0,409
417,218;   24,109;   -1,762;    3,318
417,808;  145,583;    0,965;   -0,409
418,398;   45,800;   -1,035;    2,682
418,988;  -42,488;   -2,217;    0,591
419,578;   29,275;    3,601;    1,409
420,168;  -26,056;    0,692;   -0,955
420,757;   85,361;    0,964;   -1,500
421,347;    1,947;    1,601;   -0,227
421,937;  -27,123;    3,329;    1,409
422,527;   85,192;    2,602;   -0,773
423,116;  200,010;    2,692;   -0,045
423,706;  -18,798;    2,965;    0,318
424,296;  -54,895;    1,601;    0,682
424,885;   40,287;    1,510;   -3,045
425,475;    8,244;    1,147;   -2,864
426,065;  -68,458;   -1,489;   -0,318
426,654;  -73,626;    0,329;   -0,318
427,244;  136,834;    1,147;    1,409
427,833;  103,720;    1,056;   -0,500
428,423;   -0,693;    0,147;    1,136
429,012;    4,758;    2,420;   -1,136
429,601;  103,289;    2,057;    0,136
430,191;   15,873;    2,511;    4,318
430,780;  -64,173;   -1,671;   -0,409
431,369;   91,202;    1,329;   -0,045
431,959;    2,431;    1,693;    0,500
432,548;  -47,255;   -1,398;   -0,045
433,137;  -95,307;    0,329;   -1,318
433,726;  -36,700;    0,148;    0,500
434,315;  -17,429;    0,148;    2,409
434,905;   72,459;    0,693;    1,409
435,494;   68,789;    3,148;    0,955
436,083;  -40,079;    1,420;   -0,955
436,672;   34,597;    1,148;    0,500
437,261;   -3,727;    0,512;   -1,955
437,850;  180,754;   -1,125;    0,682
438,439;  222,934;    2,239;    1,955
439,027;  334,051;    3,421;    1,773
439,616;  260,420;    2,239;    1,227
440,205;   66,236;    0,057;   -2,136
440,794;   24,163;   -0,306;   -0,045
441,383;  -30,787;    1,603;   -0,591
441,971;  -52,255;   -0,306;    0,591
442,560;  -42,964;    0,603;   -1,773
443,149; -114,746;    3,060;   -1,318
443,737;  -84,686;    0,968;   -2,318
444,326;  -58,409;    0,331;    0,318
444,915;  -22,666;   -1,851;    0,864
445,503;  -12,065;    0,058;   -0,318
446,092;  221,415;    7,876;    2,136
446,680;  151,191;    1,876;    0,318
447,269;   55,916;   -1,487;   -0,318
447,857;   40,799;    2,240;   -1,773
448,445;   13,399;    2,149;    1,318
449,034;  -39,590;    0,876;   -1,136
449,622;  -23,314;    1,240;    3,500
450,210;  209,826;    3,149;    2,227
450,799;  138,394;    2,604;   -0,591
451,387;  107,360;    1,786;   -0,591
451,975;   86,507;   -1,305;    0,864
452,563;  143,326;    0,422;    2,318
453,151;    7,238;   -1,032;   -1,227
453,739;   38,249;   -1,577;    0,136
454,328;  128,630;    0,604;   -2,136
454,916;   69,167;    1,150;   -0,136
455,504;   88,241;    3,513;    1,227
456,092;   -5,315;    2,150;   -1,591
456,679;  -33,518;    0,604;    0,682
457,267;  334,728;    3,604;    1,045
457,855;   57,827;    3,241;    1,409
458,443;  -64,187;   -0,304;    1,682
459,031;   51,583;    1,332;    2,409
459,619;   20,691;   -3,577;    2,864
460,206;  -43,794;   -0,759;    2,045
460,794;  -43,717;   -0,668;   -0,227
461,382;   -8,225;    0,878;   -0,864
461,970;  -13,378;    0,605;    1,864
462,557;  -70,353;    0,878;   -0,682
463,145;   24,761;   -0,304;   -1,682
463,732;  231,229;    2,514;   -1,045
464,320;   39,338;    1,514;   -3,045
464,907;  158,186;    0,423;   -0,773
465,495;   78,765;    2,696;   -1,227
466,082;   12,905;    2,060;   -0,045
466,670;   36,282;    2,605;    1,227
467,257;  -43,050;    0,060;    2,045
467,844;   31,102;    1,514;    0,045
468,432;    9,055;   -0,031;    3,500
469,019;  -17,431;    1,606;   -1,773
469,606;   61,668;    0,969;    3,682
470,193;   77,026;    2,151;    0,227
470,780;   38,537;    0,333;    0,864
471,368;  -18,373;   -1,212;   -0,773
471,955;   68,052;    1,060;   -0,682
472,542;   35,168;   -0,303;   -1,136
473,129;  -58,869;   -0,485;    0,136
473,716;  -46,105;    0,060;    0,591
474,303;  -18,189;    1,333;   -0,864
474,890;  -16,915;    2,333;   -0,500
475,477;   63,732;   -0,576;    0,409
476,064;   -7,265;    0,697;   -1,591
476,650;   87,742;    2,152;    0,318
477,237;   17,833;    1,879;    0,955
477,824;    1,793;    3,879;    0,864
478,411;  -68,766;    0,606;   -0,318
478,997;  -78,600;    0,606;   -0,773
479,584; -115,262;   -0,666;   -0,409
480,171;   31,972;    1,243;   -0,773
480,757;   74,637;   -0,848;    0,773
481,344;   -8,053;    0,334;    0,409
481,931;  -84,731;   -0,393;    1,045
482,517;   15,250;    0,425;    0,318
483,104;   89,071;    1,334;    2,864
483,690;  -18,556;    0,243;    0,045
484,276;  -32,908;    0,698;    0,227
484,863;  141,868;    2,152;    1,136
485,449;    5,423;    0,152;    0,318
486,035;  -31,623;   -0,666;   -0,136
486,622;   39,218;   -2,393;    0,045
487,208;  -22,677;    1,334;    1,500
487,794;  -85,493;    0,971;    0,318
488,380;  -79,740;    0,698;   -1,409
488,967;  -80,796;   -1,120;   -0,409
489,553;  -64,998;   -1,029;   -1,409
490,139;   -0,477;    0,971;    0,773
490,725;  -63,098;    0,789;   -0,227
491,311;  -18,327;    1,516;    3,045
491,897;  -36,681;   -0,665;    1,500
492,483;  -33,442;    0,426;    1,227
493,069;  357,119;    5,426;    0,864
493,655;   93,757;    1,789;    0,682
494,241;  -10,108;    1,517;   -0,955
494,826;   -6,456;    0,335;   -1,045
495,412;   48,757;    0,335;   -0,682
495,998;  -25,168;    0,971;   -0,318
496,584;   19,548;    2,244;    1,045
497,169;   34,280;    2,335;   -0,682
497,755;  -18,817;    1,244;    1,227
498,341;   89,640;    2,153;    0,318
498,926;  196,843;    2,881;    1,955
499,512;  -24,506;   -0,028;    2,955
500,097;  -29,435;   -0,574;   -0,318
500,683;   -8,655;   -0,028;    2,136
501,268;  -38,708;    1,881;   -0,955
501,854;  -16,337;   -0,119;    1,227
502,439;  -32,701;   -0,573;   -1,773
503,024;  -24,525;    1,608;    0,500
503,610;    1,224;    1,335;   -0,682
504,195;  -37,800;    1,245;    1,955
504,780;   38,486;    2,335;    1,227
505,366;  102,649;    4,063;    2,864
505,951;   40,803;   -1,119;    1,045
506,536;  -24,640;    1,427;   -3,682
507,121;   25,080;    1,699;   -0,318
507,706;   -3,092;   -0,392;    1,045
508,291;  -46,194;   -2,937;    1,136
508,876;  -51,620;   -0,482;    2,591
509,461;  -24,507;    1,427;   -0,773
510,046;   11,330;   -0,391;    0,318
510,631;   22,638;   -0,119;   -0,773
511,216;  -41,166;   -0,664;   -0,500
511,801;   -0,752;   -0,755;    2,591
512,386;   12,178;    0,972;    0,500
512,971;   20,451;    0,427;    0,955
513,555;   44,540;    1,154;   -1,500
514,140;   14,412;    1,336;   -3,136
514,725;  112,212;    1,791;   -1,136
515,309;   38,829;    1,064;    0,318
515,894;  -21,479;   -0,300;   -2,227
516,479;    1,917;    1,973;   -0,955
517,063;   -1,203;    0,882;    1,227
517,648;  -34,826;    0,155;   -1,136
518,232;  -56,545;   -1,300;   -1,409
518,817;    7,885;    1,337;    1,682
519,401;   86,834;    0,700;    0,591
519,985;   72,262;    2,700;    1,136
520,570;  -10,830;   -0,118;   -1,955
521,154;   45,457;    0,064;    0,591
521,738;  138,730;    1,064;    2,409
522,323;   42,074;   -0,390;    1,682
522,907;   46,325;    2,428;   -0,136
523,491;    9,971;    1,155;    0,955
524,075;    9,673;    0,428;    0,591
524,659;  169,377;    0,973;    0,591
525,243;  155,785;    0,883;    0,409
525,827;  131,554;    0,883;   -0,045
526,411;  174,650;    1,155;   -0,136
526,995;  327,742;    0,337;    1,409
527,579;  466,043;    1,974;   -1,045
528,163;  473,036;    0,428;   -1,500
528,747;  700,565;    1,065;   -0,773
529,331;  736,216;    0,883;   -1,409
529,915;  652,346;    2,338;    0,955
530,499;  928,769;    0,247;    1,227
531,082; 1230,037;    1,065;    1,591
531,666; 1453,606;    0,520;    0,773
532,250; 1614,085;    0,428;    2,682
532,833; 2012,286;    0,610;    2,773
533,417; 2073,960;    1,247;    0,864
534,001; 2388,780;    0,429;   -0,318
534,584; 2892,516;    1,974;    0,500
535,168; 3073,691;    3,247;    1,409
535,751; 3645,640;    4,520;    0,045
536,334; 3616,579;    4,520;   -0,409
536,918; 4356,328;    1,974;    1,591
537,501; 4735,373;    1,520;    1,318
538,085; 5157,668;    1,702;    1,045
538,668; 5586,644;    0,883;    2,409
539,251; 6284,255;    3,156;    3,773
539,834; 6698,606;    0,156;    0,773
540,418; 7075,001;    3,247;    4,318
541,001; 7541,307;    2,702;    1,773
541,584; 7925,701;    1,429;    2,227
542,167; 8034,499;    0,702;    2,955
542,750; 8405,196;    0,793;   -0,773
543,333; 8321,817;    1,429;    2,136
543,916; 9336,050;   -0,298;    2,500
544,499;10015,415;    2,520;    0,227
545,082;10369,575;    0,248;    3,591
545,665;10797,762;   -0,207;    1,500
546,248;11305,908;    0,520;   -0,318
546,830;11283,588;   -1,752;    1,955
547,413;11913,722;    0,157;   -0,773
547,996;12585,642;    0,157;    0,500
548,579;12585,302;   -0,843;    0,955
549,161;12635,644;    0,884;    2,682
549,744;12651,940;    0,612;    0,409
550,326;13302,129;    0,885;   -1,136
550,909;13256,597;    2,339;    0,591
551,492;13767,291;    0,521;    0,227
552,074;13758,018;   -0,024;   -1,318
552,657;14470,172;    2,430;    0,045
553,239;14391,097;   -3,024;   -0,773
553,821;14441,214;   -1,570;    1,045
554,404;14081,864;   -0,024;    1,136
554,986;14568,540;    2,248;    1,045
555,568;15242,101;    0,430;   -0,955
556,151;14636,804;    4,067;   -0,227
556,733;14929,705;   -1,388;   -0,864
557,315;15431,173;    4,703;    0,500
557,897;15313,128;    0,521;   -0,500
558,479;15545,348;    1,703;    1,318
559,061;15765,082;    1,067;   -0,864
559,643;16105,368;   -0,297;    0,045
560,225;16535,443;   -0,388;    2,864
560,807;16651,096;    0,340;    0,318
561,389;16251,175;   -1,206;    2,318
561,971;16945,843;   -0,660;    2,136
562,553;16881,298;    0,613;    1,591
563,135;17042,047;    1,249;    1,136
563,717;16737,285;    3,158;    1,136
564,298;17422,713;    3,976;   -0,045
564,880;17223,821;    0,340;   -1,409
565,462;17483,911;    1,977;    1,318
566,043;18617,836;   -0,933;    2,318
566,625;18169,196;    4,067;    1,227
567,207;18097,618;    0,704;    1,682
567,788;19183,816;   -0,114;    1,500
568,370;20019,139;   -1,841;   -0,500
568,951;19862,262;   -0,569;    0,227
569,533;20689,002;    0,977;   -0,500
570,114;21225,078;   -0,296;    0,682
570,695;21720,386;   -0,478;   -1,318
571,277;22236,334;   -0,205;   -1,682
571,858;22976,333;    2,704;   -1,136
572,439;23861,805;    0,795;   -1,045
573,021;24026,554;    0,432;   -2,773
573,602;24556,148;    1,795;    0,318
574,183;25475,523;   -0,114;    2,227
574,764;25656,481;    2,068;    0,409
575,345;26159,790;    0,250;   -0,136
575,926;26810,891;    2,704;    0,136
576,507;26925,054;    2,704;   -0,227
577,088;27998,023;    1,704;    1,682
577,669;28002,416;    1,704;    1,955
578,250;28746,523;   -0,750;   -1,045
578,831;29392,874;   -0,841;   -2,227
579,412;29706,755;   -1,205;    0,955
579,993;30672,461;    1,432;    0,227
580,573;31008,950;   -0,023;   -0,955
581,154;30010,087;    1,613;   -0,591
581,735;30963,564;    0,341;    0,773
582,315;30439,745;    0,523;    2,136
582,896;30829,300;   -1,750;    1,227
583,477;30358,650;    0,614;    1,227
584,057;30579,520;    1,159;    0,955
584,638;30859,552;   -2,750;    2,318
585,218;30914,332;    2,886;    2,682
585,799;31110,519;    1,977;   -0,227
586,379;31115,750;    1,250;    1,591
586,959;29988,949;    2,613;    0,318
587,540;29394,679;    0,432;    2,227
588,120;28953,529;   -1,113;   -0,045
588,700;27977,304;    2,977;    2,136
589,281;28323,887;    1,250;   -0,955
589,861;28263,120;   -0,296;   -1,682
590,441;28131,803;   -1,477;   -2,682
591,021;27131,458;    1,432;   -2,591
591,601;27439,122;    0,431;    0,500
592,181;27495,322;   -1,296;   -0,773
592,761;26799,690;    2,250;    1,409
593,341;26769,733;    1,522;    0,045
593,921;26717,355;   -0,569;    1,591
594,501;26631,162;    1,250;    1,318
595,081;26555,289;    0,522;   -0,318
595,661;26933,202;    1,068;    0,955
596,240;27449,517;   -1,023;    0,136
596,820;27050,669;    2,613;    1,955
597,400;27224,769;    1,977;    0,773
597,980;27497,614;   -0,750;    1,045
598,559;27582,032;    0,341;   -0,227
599,139;27348,325;   -0,750;   -1,227
599,718;27242,779;    0,795;   -0,409
600,298;27478,155;   -2,387;    0,682
600,877;27765,896;    4,795;    1,409
601,457;28064,139;    0,340;    1,136
602,036;27961,846;    1,795;    2,045
602,616;28238,701;    2,250;    1,682
603,195;28523,863;    0,431;    3,500
603,774;28078,851;   -0,296;    2,045
604,354;27946,644;    2,522;   -0,500
604,933;27534,294;    0,250;    1,864
605,512;27634,531;    2,340;    0,591
606,091;27710,809;    1,886;    3,773
606,671;28545,838;    0,249;    0,773
607,250;27659,935;    1,431;    3,136
607,829;27919,952;    1,158;    3,227
608,408;27856,953;    4,613;    2,591
608,987;26856,307;    2,704;    3,409
609,566;27161,751;    0,341;   -2,500
610,145;27281,834;    2,885;    0,682
610,723;27737,423;    1,613;    6,864
611,302;26921,823;    1,067;    1,682
611,881;26439,849;    5,158;   11,227
612,460;27294,918;    0,795;    3,955
613,039;27768,794;    1,703;    2,045
613,617;26510,359;    0,886;    4,773
614,196;26677,495;    1,613;    1,227
614,775;27002,301;    1,249;    2,409
615,353;26998,052;   -1,660;    0,864
615,932;26744,304;    0,249;    2,409
616,510;27331,662;    0,158;    0,591
617,089;26827,009;    8,794;   17,591
617,667;26658,216;    4,885;    6,136
618,246;26480,845;   -1,115;    1,318
618,824;26666,008;    1,612;   -0,955
619,402;26241,375;    0,431;   -1,773
619,981;26731,333;    1,067;   -1,045
620,559;26683,727;    0,794;    1,682
621,137;26230,806;    3,067;    1,864
621,715;26141,941;    3,703;   -0,682
622,293;26083,044;    1,885;   -0,773
622,871;26625,355;    0,340;    0,500
623,450;26142,553;    0,430;   -0,864
624,028;26107,573;   -0,388;   -0,955
624,606;25738,205;    2,339;    1,682
625,183;26103,947;   -0,661;   -1,136
625,761;25734,762;    1,885;    1,136
626,339;26025,281;    2,339;    2,591
626,917;26422,694;    0,339;   -0,045
627,495;26512,735;    2,794;    1,318
628,073;25968,808;    5,248;    2,864
628,650;25644,037;    3,067;    2,136
629,228;26027,571;    1,248;    4,409
629,806;25455,225;   -0,024;    1,136
630,383;25738,957;    0,066;   -0,318
630,961;25579,893;   -2,206;   -0,955
631,539;25261,010;   -2,479;    0,227
632,116;24529,256;   12,703;   15,409
632,694;25210,690;    4,885;    6,500
633,271;25477,800;    1,975;    2,682
633,848;25423,754;    1,430;    2,045
634,426;25499,463;    1,521;    1,773
635,003;24625,588;   -0,207;   -0,409
635,580;24938,484;    1,884;    3,682
636,158;25563,271;    3,793;    1,227
636,735;25488,377;    3,339;   -0,500
637,312;25572,830;    0,521;   -0,682
637,889;25715,598;    2,248;   -0,682
638,466;25234,374;    0,066;   -0,409
639,043;25238,129;    1,702;   -1,136
639,620;25532,095;    0,611;   -0,955
640,197;25873,652;    1,612;    1,682
640,774;25986,978;    1,430;    1,136
641,351;26405,759;    0,612;    1,136
641,928;25839,085;    2,794;    1,409
642,505;25496,956;    0,794;   -0,500
643,082;25625,282;    1,885;    1,227
643,658;24639,790;    1,157;    1,500
644,235;25371,116;   -2,479;    2,500
644,812;25659,442;    1,794;    0,773
645,388;25434,405;    1,612;    1,409
645,965;25561,822;    1,521;    1,682
646,542;25581,420;    3,430;   -0,227
647,118;25614,292;    3,703;   -0,955
647,695;25894,345;    0,339;    1,136
648,271;25784,853;   -2,115;    0,500
648,848;26152,179;    0,248;    2,227
649,424;25976,596;    0,976;    1,318
650,000;25732,104;   -0,388;   -1,045
650,577;25556,430;    0,158;   -0,955
651,153;26038,302;   -1,115;    0,955
651,729;26989,900;    0,521;    0,864
652,305;27182,863;    1,339;    2,773
652,881;31597,007;   -1,297;    1,136
653,458;38453,879;    0,249;    0,227
654,034;42377,023;    0,703;    1,591
654,610;43925,076;    0,339;    0,773
655,186;45310,584;    1,612;    3,045
655,762;45055,001;   -1,842;    0,409
656,338;45102,145;    0,703;    0,136
656,913;46153,380;   -0,297;    0,409
657,489;45456,161;    0,249;   -0,318
658,065;45437,669;    0,794;   -1,591
658,641;46053,813;    2,158;   -0,864
659,217;45350,866;    2,067;    0,409
659,792;44733,829;   -1,751;   -0,409
660,368;45097,246;   -0,388;   -0,682
660,944;44875,844;    1,794;    1,227
661,519;40271,716;    0,522;    0,409
662,095;34065,860;   -0,206;    0,591
662,670;29291,459;   -0,206;   -0,136
663,246;28079,421;   -0,660;   -0,409
663,821;27378,293;    0,431;    1,682
664,396;26879,892;    0,613;    1,864
664,972;27132,127;   -0,660;   -0,500
665,547;27517,544;    3,794;    0,136
666,122;27498,324;    1,340;    0,318
666,698;27785,196;    2,431;    0,318
667,273;27116,704;    0,885;    0,136
667,848;27985,030;    0,340;    1,500
668,423;27736,083;    1,795;    2,318
668,998;28303,955;    0,976;   -0,682
669,573;28864,735;    2,067;   -1,500
670,148;28676,152;    1,885;   -0,682
670,723;28427,933;   -0,024;    0,318
671,298;28872,350;   -1,296;    1,045
671,873;28983,857;   -0,296;   -0,136
672,448;28995,274;    1,704;    0,136
673,023;29305,873;    0,249;   -0,227
673,597;29616,381;    2,704;    2,318
674,172;29369,798;    2,431;    0,318
674,747;28920,124;   -0,205;   -1,045
675,321;28730,450;   -0,933;    3,318
675,896;28289,322;    2,158;    1,045
676,471;29257,375;    2,522;    1,591
677,045;29064,246;   -0,296;    0,682
677,620;29096,573;    2,158;    1,136
678,194;29436,989;    0,249;    1,136
678,769;29015,225;    0,886;   -0,318
679,343;29210,187;   -0,023;    1,773
679,917;29096,331;    0,340;    1,955
680,492;29163,566;    0,249;    3,227
681,066;29319,983;    0,613;    0,409
681,640;29368,218;    1,795;   -0,318
682,214;30153,635;    2,340;    0,500
682,788;29674,598;    0,613;   -0,773
683,363;29602,197;    1,977;    1,682
683,937;29266,523;    0,886;   -0,318
684,511;30099,758;   -1,023;   -0,591
685,085;29785,538;   -1,478;    0,318
685,659;29591,501;    1,431;    0,864
686,232;29821,554;    1,159;   -0,318
686,806;29501,426;    2,159;    0,409
687,380;30212,570;   -1,932;    0,591
687,954;30430,260;    2,432;    1,136
688,528;30092,222;    2,613;    1,955
689,101;30896,821;    0,432;    1,045
689,675;30470,601;    0,886;   -0,136
690,249;29789,382;    3,432;    0,409
690,822;30138,435;    1,159;    0,318
691,396;30220,489;    2,068;    1,227
691,969;29685,451;    2,523;    0,136
692,543;30139,504;   -0,568;   -1,955
693,116;29777,376;   -0,659;   -1,409
693,690;29587,975;   -0,296;    0,500
694,263;30243,210;    2,341;    2,955
694,836;30241,627;    2,795;    3,591
695,410;28883,771;    1,159;    1,773
695,983;29348,188;    1,614;    0,591
696,556;29319,605;   -0,750;   -1,045
697,129;29732,476;   -1,114;    1,409
697,703;29358,711;    1,341;    1,955
698,276;29412,037;    1,705;   -0,773
698,849;29160,727;   -1,023;    1,409
699,422;29586,871;    1,250;    0,591
699,995;29232,197;   -0,659;    0,136
700,568;29743,342;   -0,204;    3,045
701,140;29729,577;   -1,841;    1,682
701,713;29468,539;    0,341;    2,409
702,286;29204,956;    0,796;    0,864
702,859;29092,555;    0,614;   -0,591
703,432;28265,245;   -0,841;    0,682
704,004;28786,207;    1,978;    0,318
704,577;28649,806;    1,068;    0,136
705,150;29230,677;    0,887;    2,500
705,722;29040,731;    1,523;   -3,227
706,295;28805,329;    1,432;   -0,591
706,867;28608,383;    0,250;    1,955
707,440;28801,709;   -0,113;   -0,409
708,012;29107,308;   -0,022;    0,591
708,584;28975,452;    2,705;    0,227
709,157;29303,869;    1,160;   -0,591
709,729;28944,286;    1,069;    2,045
710,301;29819,066;   -1,204;    0,045
710,874;29793,392;    0,341;   -0,227
711,446;28717,264;   -0,295;    0,864
712,018;28596,590;   -3,022;    0,500
712,590;28287,825;   -0,204;    1,682
713,162;28823,515;   -0,477;    1,318
713,734;29113,568;    1,796;   -2,045
714,306;28961,258;    0,342;   -0,409
714,878;27666,129;   -0,295;    0,864
715,450;28498,546;   -0,113;    0,864
716,022;28766,963;    2,433;    1,318
716,593;28923,926;    0,978;    0,591
717,165;28835,433;    1,796;   -1,227
717,737;28566,941;    0,796;    0,409
718,309;28234,086;    1,160;   -0,045
718,880;28259,593;   -1,295;   -1,409
719,452;28441,556;    0,887;   -1,591
720,024;27968,245;    1,705;   -0,591
720,595;28521,117;    2,978;    0,955
721,167;28063,261;    1,160;   -2,045
721,738;27566,951;    2,069;   -1,045
722,309;27470,459;    1,251;   -1,227
722,881;27286,330;    2,705;    0,773
723,452;27976,929;    1,251;    2,864
724,023;28177,073;    1,524;    2,682
724,595;27921,490;    2,342;    0,682
725,166;27641,544;    1,524;   -0,409
725,737;27282,233;    1,887;    0,227
726,308;27397,196;    0,797;    0,318
726,879;27863,522;    1,069;    1,227
727,450;27700,939;   -2,022;   -0,045
728,021;27671,810;    1,069;    0,682
728,592;27484,227;    1,160;    0,500
729,163;27809,190;    1,433;   -0,136
729,734;27767,516;    2,160;   -0,227
730,305;28096,387;    0,615;    0,136
730,876;28464,804;    0,888;    2,955
731,447;28149,585;    0,797;    2,682
732,017;28287,820;   -0,840;    1,864
732,588;27826,328;   -0,021;    1,227
733,159;27963,108;    3,615;   -1,045
733,729;27723,434;    1,251;    0,409
734,300;27047,488;    0,160;    0,864
734,870;27482,541;   -1,385;    0,591
735,441;28000,867;    0,888;   -0,591
736,011;27785,466;    1,070;   -1,591
736,582;27796,610;    1,251;    0,045
737,152;27210,300;    0,979;   -2,045
737,722;27625,989;    1,070;   -0,682
738,293;27393,861;   -2,021;    1,318
738,863;27228,369;    1,797;    2,318
739,433;27058,058;    4,524;    0,318
740,003;27722,839;    1,524;   -0,682
740,573;27051,983;    2,252;   -1,591
741,143;27088,127;    3,615;    0,318
741,713;27867,544;    0,252;   -0,500
742,283;27532,325;    1,706;    1,591
742,853;27337,833;    0,524;    1,591
743,423;26747,523;    0,161;    0,045
743,993;26872,121;    1,070;    1,500
744,563;26215,720;    2,524;   -0,864
745,133;26127,501;   -0,112;   -0,864
745,702;26887,827;    2,797;    1,773
746,272;26051,698;    0,434;    0,591
746,842;25860,206;   -0,748;   -0,591
747,411;26288,805;   -0,839;   -0,318
747,981;26499,040;   -0,930;    0,500
748,551;26567,275;   -0,021;   -1,045
749,120;26403,328;   -0,112;   -0,227
749,690;26758,654;    2,161;    2,409
750,259;27034,890;    0,979;    2,955
750,828;26902,034;    4,070;   -1,955
751,398;27212,905;   -0,112;   -0,045
751,967;26711,050;    2,888;    0,409
752,536;26889,194;    1,161;   -0,227
753,105;27333,974;   -1,384;    0,227
753,675;27115,300;   -0,112;    1,773
754,244;27046,808;    0,888;    3,591
754,813;27092,134;    0,979;    1,227
755,382;26774,188;    0,798;    0,955
755,951;27240,514;   -0,112;    3,682
756,520;26803,840;    2,525;    1,864
757,089;27395,439;    1,888;    0,500
757,658;27486,128;    2,434;    1,227
758,227;27476,091;   -1,111;    0,318
758,795;27788,417;   -1,021;    1,136
759,364;28070,015;    0,525;   -0,591
759,933;27065,978;    1,343;   -0,045
760,501;26598,577;    0,252;   -1,318
761,070;27069,266;   -0,293;   -1,409
761,639;27798,774;    1,434;    1,318
762,207;27098,282;    0,889;   -0,955
762,776;27047,972;    2,889;    0,864
763,344;26979,116;    0,071;    0,591
763,913;26054,533;    1,616;    1,409
764,481;26861,495;    1,980;   -0,136
765,049;26663,185;    0,616;    1,409
765,618;26551,693;    1,434;    0,318
766,186;26620,383;    2,434;    0,136
766,754;26824,800;    1,798;    1,864
767,322;25776,944;    1,162;    0,409
767,890;25814,543;    0,525;   -1,773
768,459;26170,141;    2,616;   -0,318
769,027;26391,649;    2,525;    3,409
769,595;25408,793;    2,616;    2,591
770,163;25744,665;    3,344;    2,955
770,730;25526,082;    2,525;   -0,136
771,298;25362,044;    1,162;   -1,409
771,866;25440,189;    0,253;    4,955
772,434;25782,060;    1,162;   -1,864
773,002;25955,750;    2,616;    0,682
773,569;25595,530;    1,071;    1,682
774,137;25434,856;    0,889;   -0,045
774,705;26205,728;   -0,747;   -0,136
775,272;25655,418;    0,253;    0,682
775,840;25452,289;   -0,111;    2,682
776,407;24967,888;   -0,293;    1,955
776,975;24562,759;    1,162;    0,318
777,542;25618,540;    2,162;   -0,045
778,110;25452,593;    0,707;   -0,045
778,677;25071,737;    1,071;   -0,864
779,244;24874,427;   -1,020;    1,045
779,812;24992,390;    0,980;    0,864
780,379;24820,443;    2,435;    1,136
780,946;25066,587;    2,617;   -0,773
781,513;25384,913;   -0,565;    0,318
782,080;24699,876;    1,253;    2,864
782,647;25458,474;    1,708;    3,045
783,214;25065,346;   -0,201;    3,864
783,781;24624,672;    1,708;   -0,682
784,348;24533,452;    0,253;    1,500
784,915;25001,324;   -1,474;    0,318
785,482;24776,468;    2,708;    2,591
786,049;25240,522;    1,071;   -0,591
786,615;25317,757;    1,708;   -0,955
787,182;25087,992;   -3,201;   -0,682
787,749;24782,500;   -2,201;    1,409
788,315;24108,098;    0,253;   -0,409
788,882;24355,152;    0,981;   -1,227
789,448;25058,569;    1,435;   -0,955
790,015;25079,622;    1,799;    3,227
790,581;24652,494;    0,708;    0,227
791,148;24502,183;    1,344;    1,045
791,714;24737,327;   -1,019;    3,136
792,280;24463,017;    3,708;    1,591
792,847;23985,980;   -0,928;    2,500
793,413;24554,760;   -0,110;   -0,318
793,979;24048,268;    1,526;   -1,318
794,545;24147,412;    2,981;    2,682
795,111;23574,466;    2,435;    1,318
795,678;23752,883;    3,526;   -1,682
796,244;23393,209;    2,799;    0,136
796,810;23932,353;    0,799;    0,773
797,375;23656,406;   -0,292;   -2,136
797,941;23700,005;   -1,110;    0,591
798,507;23811,604;    0,254;   -0,955
799,073;23366,293;    2,708;    0,591
799,639;23447,074;    1,435;    3,136
800,205;23468,127;   -1,565;    2,682
800,770;23028,271;    1,345;    1,773
801,336;23035,598;    2,981;   -0,955
801,901;22680,833;    6,072;    3,136
802,467;23275,613;    0,526;    2,045
803,033;22629,121;   -0,019;    0,864
803,598;22763,447;    1,072;   -1,045
804,163;22873,046;    0,708;   -0,318
804,729;22810,917;   -0,110;    1,136
805,294;23190,062;    1,072;    2,227
805,859;23035,388;    0,890;   -0,409
806,425;22529,986;    3,890;    2,682
806,990;22144,313;    1,890;    4,318
807,555;22663,366;   -0,110;    2,591
808,120;22564,783;   -1,292;   -0,409
808,685;22582,654;    1,072;   -2,500
809,250;22110,071;    2,072;   -0,500
809,815;22456,034;   -0,201;    0,682
810,380;22991,996;    0,981;    1,591
810,945;23467,231;    2,890;    2,045
811,510;22657,194;   -0,200;    1,591
812,075;22358,429;    2,800;   -1,409
812,640;22389,300;    3,709;    1,409
813,204;22445,626;    2,163;   -0,227
813,769;22936,861;    0,254;   -0,045
814,334;22342,006;    0,527;    0,864
814,898;22354,150;    1,981;    0,591
815,463;22228,749;    0,981;   -0,773
816,027;22230,893;    1,345;   -2,318
816,592;22330,310;    2,163;   -2,045
817,156;21812,090;   -2,200;    1,136
817,721;21663,417;    0,982;    2,318
818,285;21623,288;    0,618;    1,500
818,849;22255,523;   -0,018;    1,682
819,414;22136,849;    0,073;    2,955
819,978;21704,539;   -0,291;    1,773
820,542;22320,774;    2,891;    0,500
821,106;22047,191;    2,800;    0,682
821,670;22090,790;    2,709;    2,591
822,234;21817,752;    1,073;    1,409
822,798;21243,169;   -0,836;    0,500
823,362;21194,041;    1,527;    4,227
823,926;20528,367;   -0,018;    1,136
824,490;20766,602;    3,527;   -0,682
825,054;21188,473;    2,527;   -1,136
825,618;20788,254;   -1,200;   -1,500
826,181;20760,216;    0,982;   -1,318
826,745;20608,361;   -0,745;   -1,045
827,309;20968,959;    2,255;    1,318
827,872;20401,194;    0,527;    0,955
828,436;21383,521;    1,982;   -0,773
828,999;21415,119;    2,436;    1,227
829,563;20252,173;   -0,654;    1,136
830,126;20061,135;   -0,018;   -0,591
830,690;20081,825;    0,709;    2,864
831,253;19564,151;   -0,473;    2,227
831,816;19733,113;   -0,018;    0,500
832,380;19650,894;    1,164;    0,864
832,943;19852,947;    3,073;   -0,500
833,506;19392,455;    0,255;   -1,227
834,069;20197,508;    2,164;   -0,955
834,632;20230,198;   -2,200;    1,318
835,195;20116,979;    1,346;    0,955
835,758;19342,032;    0,709;    1,955
836,321;19141,267;    1,073;   -1,045
836,884;19210,139;   -1,291;   -0,955
837,447;19296,555;    0,528;    1,773
838,010;19575,700;    1,800;    3,227
838,573;19880,844;    0,528;    0,773
839,135;19799,261;   -0,109;   -0,955
839,698;19266,041;    2,528;    0,409
840,261;18788,913;    0,255;   -0,227
840,823;18664,239;   -0,927;    0,864
841,386;18951,111;   -0,018;   -2,409
841,948;18789,618;    0,255;    1,773
842,511;18494,944;    0,255;    1,682
843,073;18672,180;    2,982;    0,227
843,636;18467,506;    0,619;   -0,227
844,198;18425,468;    1,255;    0,591
844,760;18568,158;    0,619;    1,955
845,322;18173,393;    0,164;    1,136
845,885;18615,537;   -0,290;    0,591
846,447;19024,045;    0,710;    0,227
847,009;18565,462;    3,983;   -0,682
847,571;18922,697;    1,346;   -2,045
848,133;19045,023;   -0,199;   -1,864
848,695;18858,895;    2,346;    1,409
849,257;18431,584;    1,346;   -1,682
849,819;18561,910;    2,983;   -0,409
850,381;18597,055;    1,801;   -0,864
850,942;18984,653;    1,892;   -0,591
851,504;18858,979;    0,983;    0,227
852,066;18918,124;    1,619;   -1,591
852,628;18484,359;    0,165;    1,955
853,189;17999,412;    0,256;    2,682
853,751;18141,465;   -0,654;    1,409
854,312;18022,519;    1,256;   -1,682
854,874;18504,027;   -0,108;   -0,773
855,435;18992,444;    0,528;   -1,682
855,997;19063,315;    3,983;   -0,136
856,558;18333,277;    0,801;    1,773
857,119;18493,513;   -0,744;    2,864
857,681;18146,293;   -0,108;    0,318
858,242;18200,619;    1,347;   -2,136
858,803;18699,945;    1,074;   -0,773
859,364;19242,635;    0,892;   -4,773
859,925;18598,325;   -0,290;   -0,955
860,486;18486,196;    0,529;   -0,955
861,047;18237,431;    0,165;   -1,227
861,608;18045,030;    0,165;   -0,773
862,169;18172,083;   -0,562;   -0,045
862,730;17910,591;   -0,290;    1,409
863,291;18184,190;    0,438;   -0,500
863,852;18539,334;   -0,926;    1,955
864,412;17982,388;   -1,835;   -0,864
864,973;16526,623;    1,892;    0,500
865,534;16362,949;    2,074;    0,227
866,094;17881,911;    2,620;    0,227
866,655;17556,055;    4,711;    3,318
867,215;17857,745;    0,074;    0,136
867,776;17724,707;   -1,199;   -0,136
868,336;17827,306;    1,529;    0,136
868,897;17268,269;    3,438;    1,682
869,457;17023,595;    3,256;    0,318
870,017;17275,284;    2,438;   -1,227
870,578;17843,429;    1,893;    0,773
871,138;17440,936;    2,620;   -0,955
871,698;16985,990;   -0,562;   -1,318
872,258;16860,952;    0,711;   -2,864
872,818;17172,460;    2,347;    0,045
873,378;17178,513;   -2,198;    1,045
873,938;16738,476;    4,984;    0,500
874,498;17044,256;    1,256;   -1,955
875,058;16972,128;    4,347;    1,773
875,618;16784,818;    1,438;   -2,682
876,177;16736,871;   -0,471;    0,136
876,737;16340,742;   -0,289;    1,955
877,297;16304,341;    2,711;    1,955
877,856;16370,849;    2,529;    0,318
878,416;16258,448;    2,438;   -0,136
878,976;16481,683;    3,438;    0,409
879,535;16691,827;    4,529;    3,136
880,095;16433,335;    1,347;    0,045
880,654;16518,207;    0,347;    1,318
881,213;16598,624;    2,347;    1,500
881,773;16252,495;    1,984;    2,682
882,332;16626,730;    6,075;    5,136
882,891;16483,511;    0,711;    2,136
883,451;16945,655;   -2,016;    1,682
884,010;16400,163;   -1,107;   -0,409
884,569;16476,853;   -2,289;   -0,045
885,128;16594,724;   -0,743;   -1,864
885,687;16695,596;   -0,743;    0,682
886,246;16387,649;    2,620;    2,136
886,805;16106,975;    1,620;    2,045
887,364;16459,574;    1,166;   -0,500
887,922;16858,900;   -0,016;    0,045
888,481;16281,317;    1,530;    0,591
889,040;16597,279;    3,711;    2,136
889,599;17265,151;    2,166;    1,409
890,157;17337,386;    2,166;    2,409
890,716;17020,348;    2,166;    0,227
891,274;16788,220;    0,075;   -1,136
891,833;17196,728;    1,166;    0,864
892,391;17087,326;    1,802;    0,500
892,950;17175,743;    0,166;   -0,773
893,508;17493,251;    0,984;   -0,409
894,067;16854,304;   -0,379;    0,136
894,625;16783,812;   -1,016;   -1,500
895,183;17023,684;   -0,198;   -0,682
895,741;16913,373;    2,257;   -1,773
896,299;16756,700;    1,621;   -2,409
896,858;16949,480;    1,530;   -1,591
897,416;17069,352;    0,166;   -1,318
897,974;16833,950;   -2,197;    0,318
898,532;16967,095;    6,530;    2,682
899,089;16835,966;    0,621;   -0,682
899,647;16924,929;    0,530;    1,318
900,205;16665,346;    0,257;    1,045
900,763;16853,126;    2,166;    0,227
901,321;16835,270;    3,530;   -1,409
901,878;16288,415;    3,257;   -0,773
902,436;16135,650;    0,257;    1,318
902,994;16550,339;    6,712;    3,682
903,551;16001,938;    1,439;    0,409
904,109;16365,901;    1,530;   -1,409
904,666;16005,590;    1,439;    1,045
905,224;15829,734;    3,894;   -0,409
905,781;15493,879;   -0,470;   -0,318
906,338;15592,932;    0,167;    1,045
906,895;15517,804;    1,894;    2,045
907,453;15444,130;    2,348;    1,136
908,010;15481,183;    3,348;    0,409
908,567;15110,600;   -0,561;    0,591
909,124;14627,926;    2,439;   -1,500
909,681;14702,888;   -1,288;    0,682
910,238;14874,033;   -0,106;   -1,318
910,795;15214,995;   -1,561;   -1,136
911,352;14830,540;   -0,379;   -2,682
911,909;14226,540;    2,803;   -0,864
912,466;14705,722;    1,985;    1,500
913,022;14249,631;   -0,924;    0,500
913,579;14617,268;   -0,470;    2,045
914,136;14312,813;   -2,561;    0,955
914,692;14703,177;    1,530;   -1,227
915,249;14269,359;    0,530;    0,409
915,806;14454,904;    1,803;    1,955
916,362;14204,904;    0,894;    1,864
916,918;13766,904;    2,439;    1,045
917,475;13736,086;    1,621;    0,955
918,031;13835,086;    0,076;   -0,045
918,587;13309,540;    0,621;   -0,318
919,144;13547,631;   -0,379;    0,227
919,700;13842,359;    0,167;    0,773
920,256;13417,722;    0,439;    0,045
920,812;13017,268;    1,439;   -1,045
921,368;13030,359;    1,348;   -1,045
921,924;12710,086;    0,439;   -0,136
922,480;12274,995;    0,076;    1,227
923,036;12904,177;   -0,652;    1,955
923,592;12889,813;    0,621;    0,318
924,148;12751,359;    1,894;   -0,955
924,704;12094,722;    0,258;   -0,409
925,259;12350,086;   -0,561;    0,591
925,815;12085,813;    3,803;    0,500
926,371;11627,268;    3,530;    1,409
926,926;11510,177;    1,621;    0,591
927,482;11107,813;    1,621;    0,773
928,037;11015,359;   -0,833;    2,045
928,593;11335,722;    0,258;    1,045
929,148;11145,359;    1,167;   -1,500
929,704;10692,904;    2,439;   -0,500
930,259;10880,086;    0,894;   -0,136
930,814; 9936,722;    1,803;    1,955
931,369; 9637,722;    0,258;   -0,773
931,925; 9577,359;   -1,924;    0,136
932,480; 9437,449;    3,076;   -2,591
933,035; 9325,086;    3,985;   -0,318
933,590; 9050,359;   -1,742;   -1,773
934,145; 8758,540;   -1,288;   -0,318
934,700; 9126,722;    0,348;   -0,591
935,255; 8890,359;    4,803;    0,045
935,809; 8173,177;    6,258;    0,864
936,364; 7323,540;    2,167;   -0,136
936,919; 7326,722;    2,348;   -1,773
937,474; 7232,540;    1,348;    0,136
938,028; 6999,086;    3,076;    1,136
938,583; 6428,359;    6,348;    4,682
939,138; 6744,359;    0,167;    2,136
939,692; 6206,177;   -1,015;   -1,136
940,247; 5885,631;    1,167;   -1,045
940,801; 5467,995;    0,621;    0,227
941,355; 5354,177;    0,439;    2,591
941,910; 5014,813;    0,712;   -2,136
942,464; 5137,268;    2,712;   -0,318
943,018; 4921,722;    3,258;   -0,227
943,572; 4851,540;    2,803;   -0,682
944,126; 4254,813;   -0,924;   -0,409
944,681; 4149,086;    0,712;    0,227
945,235; 4152,904;    2,167;   -0,591
945,789; 4102,540;    1,258;   -1,864
946,342; 4190,449;   -0,561;   -0,591
946,896; 3995,268;    0,348;    0,955
947,450; 3743,813;   -0,561;   -0,227
948,004; 3943,268;    1,076;   -0,045
948,558; 3978,540;    1,258;   -0,864
949,111; 3881,359;   -1,197;   -0,318
949,665; 3925,086;   -0,106;   -0,682
950,219; 3771,631;    0,621;   -1,045
950,772; 3862,449;    0,258;    1,864
951,326; 3797,177;   -1,106;   -0,955
951,879; 3873,359;    1,076;   -2,318
952,433; 3888,904;    1,348;    2,227
952,986; 3727,995;    0,348;    0,682
953,539; 3683,631;    1,530;    0,591
954,093; 3639,086;    0,985;   -1,318
954,646; 3753,995;   -0,288;    1,318
955,199; 3562,359;    1,258;   -0,500
955,752; 3440,268;    1,985;    1,773
956,305; 3399,177;    0,894;    2,955
956,858; 3571,904;    0,621;   -0,318
957,411; 3760,904;    3,621;    2,136
957,964; 3570,449;    2,076;    2,136
958,517; 3554,177;    0,985;    3,136
959,070; 3407,086;   -1,197;    1,955
959,623; 3472,086;    1,076;    1,500
960,176; 3237,086;    0,712;    2,045
960,728; 3228,813;    1,712;    0,773
961,281; 3298,359;    2,258;    0,500
961,834; 3320,904;   -0,833;    0,864
962,386; 3239,540;    1,258;    1,045
962,939; 3166,268;    3,439;   -0,318
963,491; 3299,722;    2,621;    1,136
964,043; 3183,540;    0,076;    2,409
964,596; 3303,904;    1,712;    2,227
965,148; 3122,540;   -0,379;    1,773
965,700; 3074,449;   -0,015;   -0,227
966,253; 3228,722;   -0,833;    0,318
966,805; 3062,995;    1,894;    0,773
967,357; 3107,268;    0,439;   -1,500
967,909; 3057,813;    1,167;   -1,227
968,461; 3161,359;    0,894;    3,136
969,013; 3091,904;   -1,561;   -0,864
969,565; 3160,631;    1,803;   -1,136
970,117; 3248,722;    3,803;    1,045
970,669; 3085,268;    3,258;   -0,136
971,220; 2948,631;    2,167;   -1,500
971,772; 2868,540;    1,348;   -0,318
972,324; 2975,359;   -1,197;   -0,500
972,876; 2922,904;    0,167;   -0,045
973,427; 3058,904;   -1,197;   -1,045
973,979; 3026,177;    0,076;   -2,500
974,530; 3076,449;    0,803;    1,318
975,082; 3073,540;    2,167;    1,682
975,633; 2962,449;    2,894;    1,682
976,184; 3135,268;    2,076;    0,773
976,736; 2916,177;    0,348;    0,227
977,287; 2699,086;    0,258;   -0,500
977,838; 2893,722;   -0,924;   -0,318
978,389; 2941,813;    0,803;   -0,500
978,940; 2824,540;    1,258;   -0,409
979,491; 2856,813;    2,258;   -0,500
980,042; 2800,086;   -0,652;    3,045
980,593; 2858,449;    1,894;    0,227
981,144; 2927,995;    3,530;   -0,500
981,695; 2880,268;   -0,470;    1,500
982,246; 2822,359;   -1,833;    1,045
982,797; 2996,359;   -0,561;    0,682
983,347; 3105,268;    2,167;    0,591
983,898; 3259,268;    4,167;    0,409
984,449; 3091,086;    2,530;    0,773
984,999; 3013,449;    1,894;   -1,136
985,550; 2791,722;    3,167;   -0,318
986,100; 2819,813;    0,712;   -0,318
986,651; 2851,177;    0,258;    0,045
987,201; 2839,086;    0,894;   -0,591
987,751; 2919,722;   -0,288;    2,864
988,302; 2889,722;   -0,379;    1,500
988,852; 2919,995;    1,985;   -1,136
989,402; 2963,631;    0,985;    0,682
989,952; 2866,449;    1,621;    0,864
990,502; 2965,177;    1,076;    0,682
991,052; 2934,904;   -0,106;    0,045
991,602; 2804,813;    1,167;    1,318
992,152; 2799,086;    2,803;    0,682
992,702; 2777,631;    1,167;   -0,045
993,252; 2698,359;    0,076;   -0,500
993,802; 2789,904;    1,167;    1,318
994,352; 3045,359;   -0,742;    1,136
994,901; 3134,813;    1,076;    3,227
995,451; 3027,268;   -1,197;    0,318
996,000; 3116,995;    1,076;    0,318
996,550; 2817,995;    2,894;    0,227
997,100; 2840,631;   -0,561;   -0,045
997,649; 3142,904;   -0,197;    0,955
998,198; 2756,177;   -0,288;   -1,500
998,748; 2935,359;    0,348;   -2,318
999,297; 2854,631;    0,985;   -0,409
999,846; 2937,177;    1,894;   -0,773
1000,395; 2976,359;    1,530;    0,500
1000,945; 2930,268;    1,076;   -0,773
1001,494; 2991,631;    0,167;    0,682
1002,043; 2979,086;    0,712;    0,864
1002,592; 2835,904;    3,439;    1,955
1003,141; 2968,359;    2,439;   -0,682
1003,690; 2810,359;    1,258;    0,500
1004,238; 2875,722;   -0,106;   -0,045
1004,787; 2538,631;   -1,288;    1,227
1005,336; 2773,540;    1,621;    0,682
1005,885; 2908,177;   -0,197;   -2,773
1006,433; 3073,631;   -0,470;    0,955
1006,982; 3127,722;    2,167;    1,682
1007,531; 3027,722;    2,712;   -0,227
1008,079; 2973,995;    0,258;    0,500
1008,627; 3119,086;    1,621;    0,409
1009,176; 2847,722;    0,076;   -1,955
1009,724; 2902,904;   -2,742;    0,864
1010,273; 2953,813;    1,076;    0,500
1010,821; 3093,177;    1,076;    1,409
1011,369; 2804,904;    0,076;    1,318
1011,917; 2802,177;   -0,833;   -0,591
1012,465; 3081,813;    2,530;   -1,591
1013,013; 3180,722;    0,439;   -1,682
1013,561; 3051,268;   -1,288;   -0,773
1014,109; 3099,995;   -0,833;    1,682
1014,657; 2959,177;    1,348;    0,591
1015,205; 3106,631;    0,894;   -0,955
1015,753; 3135,268;    0,258;   -1,409
1016,301; 3177,268;    2,621;    3,045
1016,848; 3206,540;    2,167;    0,409
1017,396; 3227,904;    1,621;    0,045
1017,944; 3349,086;    2,621;    1,864
1018,491; 3100,904;   -0,197;    1,409
1019,039; 3275,813;   -0,652;    0,591
1019,586; 3164,449;    0,076;    1,682
1020,134; 3255,904;    0,712;    1,500
1020,681; 3274,268;    2,894;   -1,136
1021,228; 3263,722;   -0,561;   -2,227
1021,776; 3110,722;   -0,833;   -1,136
1022,323; 3332,904;    0,803;    0,773
1022,870; 3284,813;   -0,470;   -0,045
1023,417; 3175,449;    2,076;    1,864
1023,964; 3320,813;    0,621;    1,227
1024,511; 3156,813;   -0,652;    0,773
1025,058; 2945,359;    0,439;   -0,045
1025,605; 3003,722;   -1,742;    3,136
1026,152; 3208,177;   -0,106;   -0,591
1026,699; 2950,995;    0,167;    1,318
1027,245; 3125,086;    2,439;    0,318
1027,792; 3343,449;    0,712;    1,409
1028,339; 3218,631;    4,076;   -0,045
1028,885; 3061,540;    3,621;   -0,227
1029,432; 3005,086;   -0,106;    0,227
1029,978; 3073,359;    1,348;   -1,591
1030,525; 2956,177;    1,621;    0,409
1031,071; 3217,449;    0,348;    1,136
1031,618; 3326,177;    1,258;    1,682
1032,164; 3123,540;    2,076;    3,045
1032,710; 3140,086;    0,076;   -1,500
1033,256; 3072,722;    0,712;   -0,136
1033,803; 3054,540;   -0,288;    1,500
1034,349; 2788,813;    1,803;    0,136
1034,895; 2943,904;    2,621;   -0,318
1035,441; 2921,359;    0,439;    0,318
1035,987; 2920,268;   -2,288;   -0,682
1036,533; 2922,449;   -0,197;   -0,955
1037,078; 3118,904;    4,712;    1,682
1037,624; 2948,449;    2,439;   -0,955
1038,170; 2968,722;    1,712;   -0,318
1038,716; 2866,904;    2,167;   -0,409
1039,261; 2786,086;    2,167;   -0,773
1039,807; 2734,995;   -0,015;    3,409
1040,352; 2796,449;   -1,288;   -0,318
1040,898; 2849,449;    0,167;   -0,682
1041,443; 2748,995;    0,803;   -2,591
1041,989; 2782,449;    3,621;    1,591
1042,534; 2659,086;    0,985;    2,591
1043,079; 2773,631;    1,985;    0,955
1043,625; 2560,086;    0,258;    0,500
1044,170; 2592,540;    2,439;    1,045
1044,715; 2864,540;    0,167;    0,955
1045,260; 2681,813;   -0,833;   -0,955
1045,805; 2723,449;    0,258;   -0,591
1046,350; 2679,540;    0,530;   -0,409
1046,895; 2643,904;    0,803;    1,591
1047,440; 2589,995;    1,530;    0,409
1047,985; 2479,086;   -1,197;   -0,955
1048,530; 2402,359;    1,348;    1,227
1049,074; 2463,449;    2,803;    0,318
1049,619; 2449,904;   -0,924;    1,955
1050,164; 2241,177;    1,076;    0,227
1050,708; 2299,904;    2,621;    0,045
1051,253; 2653,631;    3,258;   -2,227
1051,797; 2377,995;   -0,197;   -1,318
1052,342; 2392,813;    1,348;    1,045
1052,886; 2378,813;    1,803;   -1,409
1053,430; 2259,995;    2,167;    0,136
1053,975; 2271,631;    0,894;   -0,318
1054,519; 2253,722;    1,803;    3,227
1055,063; 2270,268;    3,621;    1,318
1055,607; 2153,086;    1,348;    0,227
1056,151; 2178,086;    0,530;    1,682
1056,695; 2099,177;   -1,833;   -1,136
1057,239; 2168,722;   -1,197;   -0,682
1057,783; 2169,268;    2,258;   -1,500
1058,327; 2108,631;    3,076;    1,409
1058,871; 2344,631;    3,985;    1,318
1059,415; 2038,631;   -0,561;   -0,045
1059,958; 2303,722;    2,985;    2,591
1060,502; 2054,177;    1,348;   -0,773
1061,046; 1950,904;    1,712;   -0,955
1061,589; 1923,813;    2,803;   -1,136
1062,133; 1810,722;    0,985;    1,864
1062,676; 1749,177;    1,439;    0,864
1063,220; 1771,449;    0,985;    0,500
1063,763; 1776,904;    2,985;    1,136
1064,306; 1836,813;    0,985;    1,864
1064,849; 1737,359;    2,076;    0,591
1065,393; 1747,086;    2,894;   -1,500
1065,936; 1867,086;    2,530;   -0,409
1066,479; 1746,995;    2,621;    1,318
1067,022; 1776,631;    1,894;   -0,227
1067,565; 1685,904;   -1,197;   -1,318
1068,108; 1702,086;    1,258;   -0,591
1068,651; 1674,813;   -2,470;    1,409
1069,194; 1600,995;   -1,106;   -1,682
1069,736; 1593,722;    3,803;    0,955
1070,279; 1590,177;   -1,652;   -0,500
1070,822; 1633,359;    1,530;   -0,318
1071,364; 1702,904;    0,530;    1,318
1071,907; 1515,631;    0,348;    3,227
1072,450; 1452,540;    0,258;   -0,045
1072,992; 1447,904;   -0,561;    3,136
1073,535; 1577,177;    0,167;    2,136
1074,077; 1380,449;    2,985;    2,045
1074,619; 1350,177;    0,985;    0,591
1075,161; 1366,631;   -0,561;    1,500
1075,704; 1548,631;    0,258;    1,227
1076,246; 1352,813;    1,530;    0,682
1076,788; 1270,449;   -1,015;    1,773
1077,330; 1365,631;   -2,106;    2,136
1077,872; 1325,359;   -1,924;    0,955
1078,414; 1547,722;    3,712;    0,773
1078,956; 1275,177;    0,167;   -0,227
1079,498; 1520,359;    0,439;    0,318
1080,040; 1225,995;    0,985;   -1,318
1080,581; 1182,177;    0,621;   -0,318
1081,123; 1115,177;   -0,106;   -0,773
1081,665; 1163,449;    3,803;   -0,955
1082,206; 1455,086;    3,258;   -0,500
1082,748; 1318,449;    3,258;    2,045
1083,289; 1195,177;    0,167;    1,318
1083,831; 1108,177;    0,258;    0,227
1084,372; 1135,540;    0,894;    0,591
1084,913; 1127,177;    3,348;    0,864
1085,455; 1110,449;    1,530;   -2,045
1085,996; 1079,722;    0,530;    0,136
1086,537; 1106,631;    0,985;    0,864
1087,078; 1134,904;    0,439;   -2,136
1087,619; 1178,813;   -1,652;    0,227
1088,160; 1091,631;    1,439;    1,318
1088,701; 1074,086;   -0,742;    0,682
1089,242; 1023,177;   -0,561;   -2,227
1089,783; 1107,540;   -0,561;    1,409
1090,324; 1085,359;   -0,833;    0,682
1090,865;  959,359;   -1,924;   -0,409
1091,405;  943,359;   -0,561;    2,227
1091,946;  975,086;   -0,197;   -0,955
1092,487;  894,268;   -1,288;   -1,409
1093,027; 1046,449;    1,803;   -1,500
1093,568;  901,995;    2,258;    1,227
1094,108;  983,722;    0,621;    1,773
1094,649;  940,540;   -0,470;    0,136
1095,189;  884,359;    1,167;   -0,682
1095,729;  834,540;    0,712;    0,955
1096,269;  851,813;    1,258;   -0,955
1096,810; 1150,813;   -0,197;    0,500
1097,350;  970,813;   -0,561;   -0,773
1097,890;  868,086;    2,985;    1,227
1098,430; 1119,086;    4,985;    2,864
1098,970;  997,086;    1,894;    1,682
1099,510;  878,904;   -0,833;   -2,318
1100,050;  800,268;    0,258;   -1,591
1100,589;  756,540;    0,076;   -0,318
1101,129;  883,359;    0,894;   -0,955
1101,669; 1019,268;    2,803;    2,136
1102,209;  854,904;    1,530;    2,227
1102,748;  806,904;    3,439;    0,955
1103,288;  794,995;    0,712;   -1,227
1103,827;  813,995;    3,530;   -2,227
1104,367;  700,722;    1,712;   -2,409
1104,906;  681,540;   -1,015;   -1,136
1105,445;  739,449;    0,985;   -1,136
1105,985;  678,268;   -0,652;    1,500
1106,524;  728,449;    1,530;   -0,682
1107,063;  705,449;    1,167;    1,409
1107,602;  676,631;    1,894;   -1,500
1108,141;  598,359;    1,621;    1,500
1108,680;  702,813;    3,985;   -0,591
1109,219;  648,540;    0,167;   -0,500
1109,758;  654,086;    4,167;    0,682
1110,297;  626,722;   -1,106;   -0,682
1110,836;  573,722;    1,439;    0,955
1111,375;  718,449;    0,348;    0,409
1111,913;  732,813;    0,985;    0,773
1112,452;  677,722;    0,894;    0,136
1112,991;  565,904;    1,076;    1,955
1113,529;  528,359;    0,167;   -0,045
1114,068;  587,268;    0,439;    2,955
1114,606;  495,268;   -0,561;   -0,955
1115,144;  651,995;    1,530;    1,045
1115,683;  588,359;    1,985;    0,318
1116,221;  636,904;    2,076;   -0,864
1116,759;  551,449;    1,621;   -0,864
1117,297;  723,177;    1,621;    1,864
1117,836;  546,631;    1,985;   -1,227
1118,374;  548,995;    0,258;   -0,682
1118,912;  509,813;    0,439;    2,682
1119,450;  491,995;    0,985;    0,864
1119,988;  541,177;    3,348;    2,136
1120,525;  981,995;    7,258;    3,318
1121,063;  676,086;    0,530;    1,864
1121,601;  494,995;    1,076;   -1,227
1122,139;  462,086;    1,076;   -2,045
1122,676;  646,995;   -1,652;    2,773
1123,214;  582,268;    0,712;    4,409
1123,751;  397,177;    0,621;    2,227
1124,289;  529,177;    0,894;   -0,409
1124,826;  408,086;   -0,379;    0,227
1125,364;  340,631;    0,712;   -0,955
1125,901;  513,449;    6,258;    1,227
1126,438;  601,449;    3,530;    0,955
1126,975;  359,995;    2,985;   -0,773
1127,513;  419,722;    2,621;    2,136
1128,050;  332,177;   -0,561;   -0,682
1128,587;  420,722;    1,348;   -0,227
1129,124;  452,722;   -0,015;    1,318
1129,661;  341,177;   -1,924;    0,227
1130,198;  496,359;    2,439;    0,773
1130,734;  435,359;   -0,379;    1,409
1131,271;  305,813;   -1,197;    0,864
1131,808;  467,813;    1,621;    3,045
1132,345;  353,359;    4,530;    0,318
1132,881;  246,722;   -0,561;   -1,864
1133,418;  367,995;    0,348;   -1,136
1133,954;  299,631;    0,712;   -2,682
1134,491;  366,904;    1,712;   -0,773
1135,027;  286,268;    2,167;    0,864
1135,564;  356,540;    1,439;    2,955
1136,100;  341,995;   -0,742;    2,136
1136,636;  244,359;   -1,015;   -1,045
1137,172;  324,540;    0,894;   -1,045
1137,708;  259,086;   -1,561;   -1,045
1138,245;  262,359;    0,803;   -1,227
1138,781;  220,540;    1,803;   -3,318
1139,317;  278,086;    1,894;   -1,409
1139,852;  271,904;    3,076;    0,136
1140,388;  379,540;    2,076;   -0,409
1140,924;  265,449;    1,076;   -2,227
1141,460;  218,449;   -0,288;    0,136
1141,996;  150,813;   -0,652;    2,682
1142,531;  198,904;    1,076;    3,318
1143,067;  391,995;    1,167;    1,045
1143,602;  432,086;    3,439;   -0,318
1144,138;  289,631;    0,803;    1,045
1144,673;  176,177;    1,621;    1,409
1145,209;  236,995;    2,894;   -0,318
1145,744;  167,449;    0,803;    0,864
1146,279;  284,631;    1,530;   -0,136
1146,815;  219,631;    1,530;   -2,682
1147,350;  253,177;   -0,924;    0,045
1147,885;  168,177;   -1,924;   -1,318
1148,420;  168,995;    2,439;    0,773
1148,955;  152,631;   -1,470;    1,864
1149,490;  176,268;   -1,106;   -1,591
1150,025;  157,813;   -1,106;   -1,773
1150,560;  260,813;   -0,288;   -0,955
1151,094;  230,540;    0,258;   -0,591
1151,629;  224,904;   -3,742;    0,864
1152,164;  160,540;   -1,288;    1,318
1152,698;  135,449;    1,258;   -0,136
1153,233;   94,086;   -1,379;   -0,682
1153,767;  131,722;   -0,288;   -2,318
1154,302;  172,359;   -0,379;    1,773
1154,836;  175,813;    0,803;   -2,136
1155,371;  231,722;    2,258;    3,682
1155,905;  195,177;    1,985;    1,682
1156,439;  159,268;    0,530;   -0,500
1156,973;  190,268;    0,439;    0,318
1157,507;  129,177;   -1,742;    0,682
1158,042;  155,086;   -0,652;    1,045
1158,576;  186,540;   -0,561;    1,773
1159,110;  185,086;    0,076;    2,409
1159,643;  164,540;   -2,470;   -0,045
1160,177;  100,449;   -2,015;    1,500

