
Integration time [ms]:   0,040
Averaging Nr. [scans]: 11
Smoothing Nr. [pixels]: 0
Data measured with spectrometer [name]: 7318044SP
Wave   ;Sample   ;Dark     ;Reference
[nm]   ;[counts] ;[counts] ;[counts] 

186,757;   34,920;   38,161;    1,318
187,357;   60,242;   26,706;    0,955
187,958;   44,679;   17,252;   -1,591
188,558;   81,781;   12,979;   -1,227
189,159;   52,087;   10,070;   -4,500
189,759;   22,903;    5,797;   -3,591
190,360;   20,971;    6,797;   -2,136
190,960;   54,286;    5,706;   -4,136
191,560;   69,471;    2,614;   -6,591
192,161;  277,262;    5,885;   -3,500
192,761;  144,866;    5,520;   -3,227
193,361;  101,109;    3,065;   -3,773
193,962;  155,898;    1,612;   -2,682
194,562;   80,964;   -0,114;   -3,955
195,162;  102,188;   -0,567;   -2,227
195,762;  256,692;    2,433;   -0,045
196,362;  213,529;    1,706;   -2,500
196,963;   92,011;    1,706;   -0,864
197,563;  161,487;    1,252;   -0,955
198,163;  104,589;   -0,111;   -0,682
198,763;  117,789;   -0,020;   -0,500
199,363;  216,975;    3,616;   -0,500
199,963;  177,299;    2,162;    0,409
200,563;  154,047;    6,344;   -1,409
201,163;  134,642;    5,435;   -0,227
201,763;  219,202;    1,435;    0,318
202,363;  159,443;    0,980;    1,500
202,963;  255,606;    1,526;    1,045
203,563;  364,589;    0,344;    0,500
204,162;  219,141;    1,889;   -1,864
204,762;  213,959;    2,071;    0,591
205,362;  181,840;    0,708;    1,955
205,962;  277,935;    3,435;    1,955
206,562;  272,236;    1,889;    2,318
207,161;  245,430;    1,708;    0,318
207,761;  394,077;    4,435;    2,409
208,361;  269,735;    1,889;    1,409
208,960;  361,479;    2,889;    1,500
209,560;  428,805;    0,435;    1,591
210,160;  402,828;    5,071;    1,864
210,759;  369,426;    0,708;    1,227
211,359;  370,578;   -0,474;    1,045
211,958;  615,673;    3,526;    2,045
212,558;  694,528;    0,799;    1,864
213,157;  536,889;   -0,929;    1,500
213,757;  965,270;    5,617;   -0,227
214,356;  669,904;    1,708;   -0,409
214,956;  987,676;    3,526;    0,409
215,555;  629,710;    0,617;    2,136
216,154;  568,460;   -0,292;   -0,591
216,754;  575,320;    1,253;    0,773
217,353;  687,378;   -0,383;   -1,045
217,952;  547,515;    2,072;    0,318
218,552;  777,767;    0,254;   -0,773
219,151;  667,082;   -1,110;    0,955
219,750;  669,636;    0,890;   -0,227
220,349;  757,729;   -2,292;    1,045
220,948;  860,433;    1,163;    1,136
221,548;  844,257;    0,617;    1,227
222,147;  948,113;   -1,292;   -0,409
222,746; 1226,496;    1,254;   -0,955
223,345; 1099,299;   -1,019;    0,500
223,944; 1086,132;    1,163;    0,773
224,543; 1237,044;    4,072;   -1,409
225,142; 1359,217;    1,345;    0,136
225,741; 1260,961;    1,163;    1,045
226,340; 1274,970;    1,254;   -0,955
226,939; 1693,974;    2,708;   -0,136
227,538; 1610,775;    1,163;   -0,773
228,137; 1775,938;    0,435;    0,864
228,735; 1879,959;    0,435;    1,227
229,334; 1652,001;   -0,474;   -0,227
229,933; 2026,824;    0,799;    0,591
230,532; 2128,714;   -1,201;   -0,409
231,131; 2181,815;    1,253;    0,318
231,729; 2271,202;    1,163;   -2,318
232,328; 2366,242;    0,435;   -1,500
232,927; 2417,101;    4,526;   -0,500
233,525; 2508,963;    0,981;    0,045
234,124; 2694,236;    1,890;   -1,591
234,723; 2706,340;    1,617;   -1,045
235,321; 2849,160;    1,163;    0,136
235,920; 3043,908;    2,526;   -1,227
236,518; 3296,001;    1,072;    0,318
237,117; 3441,576;    2,890;   -0,227
237,715; 3565,502;    1,163;   -0,500
238,314; 3620,196;    1,708;   -2,318
238,912; 3734,583;    0,526;   -1,409
239,510; 3749,304;    1,162;   -1,227
240,109; 3918,293;   -0,474;    3,773
240,707; 3925,619;   -0,474;    1,227
241,305; 4242,039;   -0,383;    0,136
241,904; 4435,312;   -0,292;   -2,045
242,502; 4420,339;    3,253;   -0,227
243,100; 4351,454;    3,344;   -0,955
243,698; 4566,743;    2,799;    1,682
244,297; 4731,162;   -0,656;    0,682
244,895; 4589,929;   -0,474;   -2,318
245,493; 4889,058;    2,981;   -0,591
246,091; 4909,938;    5,163;   -1,318
246,689; 4887,414;    2,163;    0,591
247,287; 5008,230;   -0,019;   -1,136
247,885; 5271,625;   -1,019;    1,227
248,483; 5377,409;   -0,201;   -0,500
249,081; 5475,655;    0,981;    1,591
249,679; 5607,672;   -1,019;    1,682
250,277; 5840,409;   -2,292;    0,864
250,875; 5820,978;    0,617;   -1,045
251,473; 5857,669;   -0,019;    0,500
252,071; 6053,591;   -0,383;    1,045
252,669; 6158,860;   -1,565;    0,318
253,267; 6372,050;    1,618;    0,773
253,864; 6334,321;    0,617;    0,682
254,462; 6248,961;    1,526;    1,591
255,060; 6217,885;    0,072;    1,318
255,658; 6491,314;   -3,292;   -0,136
256,255; 6869,160;   -0,201;   -2,045
256,853; 6727,080;    2,345;    1,409
257,451; 6726,646;    1,981;    1,864
258,048; 7027,025;    2,072;    1,864
258,646; 6759,619;    0,436;   -1,045
259,243; 6910,534;    2,981;    2,227
259,841; 6982,724;    1,799;    0,318
260,438; 6895,035;    0,254;    0,864
261,036; 7520,346;    0,617;    1,409
261,633; 7430,454;    1,526;    2,227
262,231; 7203,855;   -0,110;   -0,045
262,828; 7322,312;   -0,383;    1,136
263,425; 7349,976;   -1,928;   -0,591
264,023; 7598,340;    1,436;    0,045
264,620; 7134,752;    1,526;   -0,318
265,217; 7467,566;    2,890;    3,136
265,815; 7577,061;    2,527;    2,136
266,412; 7388,433;    0,072;    0,136
267,009; 7424,395;    0,526;    0,773
267,606; 7312,528;    0,345;   -0,955
268,203; 7301,557;   -0,383;   -0,591
268,801; 7567,631;   -0,474;    0,591
269,398; 7882,494;   -0,564;    2,500
269,995; 7840,130;    0,890;    1,591
270,592; 7618,752;    0,799;   -0,500
271,189; 7787,608;    1,981;    0,409
271,786; 7883,796;    2,072;    1,227
272,383; 7744,940;   -0,383;    0,227
272,980; 7919,874;    1,617;    0,318
273,577; 8362,460;    2,162;    1,227
274,174; 7934,944;    1,435;    2,591
274,771; 7939,042;    1,890;   -0,773
275,367; 8079,936;    3,253;    1,409
275,964; 8055,001;   -0,565;   -0,500
276,561; 8118,524;   -2,474;   -1,045
277,158; 8299,217;    1,799;   -1,773
277,755; 8402,927;   -0,110;    0,409
278,351; 7867,640;    0,436;   -1,500
278,948; 8163,107;   -0,201;    0,045
279,545; 8180,293;    0,527;    2,318
280,141; 8757,094;    1,254;   -2,045
280,738; 8585,357;    2,435;   -0,136
281,334; 8802,130;   -0,383;    0,591
281,931; 8226,410;    2,890;   -1,318
282,528; 8330,902;    4,072;   -0,500
283,124; 9019,598;    3,345;   -0,500
283,721; 8872,312;    0,709;    1,409
284,317; 8713,617;    0,163;    2,500
284,913; 9225,519;   -0,110;    0,591
285,510; 9397,156;    2,890;   -0,318
286,106; 9395,044;    2,345;   -0,955
286,703; 9053,238;    0,072;    1,955
287,299; 9224,179;    1,254;   -0,591
287,895; 9406,502;    0,890;   -1,045
288,491; 9955,403;    0,163;    2,136
289,088; 9717,553;    0,163;    2,409
289,684; 9786,678;    2,890;    1,500
290,280; 9736,067;    1,890;    0,682
290,876; 9837,568;    0,163;    5,500
291,472; 9738,695;    2,163;    2,227
292,068; 9831,638;    1,254;    0,227
292,665; 9534,815;   -0,564;    0,773
293,261; 9218,475;   -1,292;    2,136
293,857; 9545,655;    4,072;    2,136
294,453; 9501,390;   -0,928;    0,955
295,049; 9411,963;    0,253;    1,955
295,644; 9465,166;   -1,292;    0,136
296,240; 9339,320;    0,162;   -0,136
296,836; 9386,058;   -0,747;    0,318
297,432; 9645,462;    2,980;   -0,500
298,028; 9697,236;    0,435;    0,773
298,624;10060,267;    0,889;    1,864
299,220;10273,071;    0,435;    0,591
299,815; 9931,318;    0,526;   -0,409
300,411; 9733,418;    0,435;    1,773
301,007; 9729,754;    1,889;    0,227
301,602; 9772,811;    2,071;   -2,318
302,198; 9928,420;    1,435;   -0,773
302,794;10219,384;    1,526;   -0,500
303,389;10351,593;    1,071;    1,045
303,985;10442,324;    1,253;    1,409
304,580;10393,405;    0,889;    1,591
305,176;10381,122;    0,344;    0,136
305,771;10285,864;   -0,929;   -1,227
306,367;10179,874;    3,071;    0,136
306,962;10498,720;    2,889;    1,500
307,558;10214,855;    2,435;    0,136
308,153;10168,919;   -0,383;   -1,136
308,748;10383,931;    0,162;    1,682
309,344;10365,079;    0,253;   -1,318
309,939;10465,020;    2,071;   -1,318
310,534;10699,232;   -2,020;   -1,682
311,130;10636,593;   -0,656;   -2,500
311,725;10388,333;    0,526;   -0,500
312,320;10689,473;    1,253;    0,045
312,915;10560,210;    2,890;   -1,045
313,510;10605,517;    0,526;   -0,500
314,105;11093,578;   -3,565;    1,409
314,700;10511,318;   -1,656;   -1,045
315,295;10196,678;   -0,020;    0,045
315,890; 9783,580;   -0,292;    0,864
316,485;10096,927;    0,253;   -0,318
317,080;10194,314;   -0,929;    1,591
317,675;10700,360;    3,071;   -0,682
318,270;10153,677;    6,889;    3,318
318,865;10164,153;    2,435;    3,045
319,460; 9979,606;   -1,565;    0,591
320,055;10228,229;   -2,565;   -1,227
320,650; 9913,494;   -1,838;   -0,591
321,244; 9951,851;    0,889;   -1,409
321,839;10831,982;    0,980;   -0,227
322,434;10732,473;   -0,111;   -1,591
323,029;10418,231;   -0,474;    1,591
323,623;10242,659;    0,798;    0,773
324,218;10046,834;    2,707;    1,409
324,812; 9965,272;    0,889;    1,591
325,407; 9782,515;   -0,929;    2,045
326,002; 9734,086;    0,526;   -0,409
326,596;10077,109;   -0,656;    1,318
327,191;10208,464;   -0,383;   -1,045
327,785; 9833,109;   -0,747;   -0,227
328,379;10068,033;   -0,383;    0,136
328,974; 9855,783;    1,798;   -3,955
329,568;10058,819;    2,889;   -2,409
330,163; 9899,576;    2,435;    1,045
330,757;10251,204;    0,253;    1,591
331,351; 9624,914;   -0,292;    0,682
331,945; 9911,132;   -0,383;    1,409
332,540; 9534,893;    1,617;   -0,591
333,134; 9664,048;    3,344;    0,773
333,728; 9866,688;    2,799;    0,318
334,322;10208,007;    0,889;   -0,864
334,916; 9526,155;    0,344;    0,955
335,510; 9835,980;   -0,111;   -0,136
336,105;10043,737;   -0,929;    1,591
336,699; 9774,012;   -1,292;    0,591
337,293; 9705,447;    1,071;    0,318
337,887; 9847,223;    0,071;    1,955
338,481; 9928,938;    2,980;    0,591
339,074;10077,358;    2,071;    2,682
339,668; 9886,350;   -0,110;    1,227
340,262;10135,322;    7,708;    3,227
340,856; 9641,012;    1,708;   -0,682
341,450; 9062,980;    0,708;    1,864
342,044; 9849,720;    1,799;    0,136
342,637; 9620,293;    1,162;   -2,136
343,231; 9502,238;   -1,474;    0,682
343,825; 9453,578;   -0,747;   -0,591
344,419; 9432,551;   -0,474;    0,500
345,012; 9282,401;    2,889;    4,045
345,606; 9260,231;   -0,656;    1,591
346,199; 9143,529;   -0,111;   -0,227
346,793; 8717,885;    2,525;    2,045
347,386; 8885,906;    0,889;   -1,136
347,980; 8884,434;   -0,838;   -0,045
348,573; 8717,113;   -1,748;    0,409
349,167; 8468,561;    6,161;    4,773
349,760; 8774,724;    2,252;    2,682
350,354; 8713,195;    1,616;    1,136
350,947; 8482,047;    2,798;    1,682
351,540; 8231,476;    0,616;   -1,409
352,134; 8207,838;   -1,111;    1,136
352,727; 8261,540;   -0,657;    1,136
353,320; 8072,210;    2,343;    0,591
353,913; 7906,016;   -1,929;    1,864
354,507; 8083,819;    0,434;   -1,227
355,100; 8110,128;    0,071;    0,864
355,693; 7438,092;    4,798;    2,409
356,286; 7461,495;    0,980;    2,773
356,879; 7824,954;   -0,475;    1,227
357,472; 7473,732;    0,980;    1,500
358,065; 7638,956;    3,161;    2,500
358,658; 7565,794;    0,798;    2,318
359,251; 7279,115;    0,252;   -0,591
359,844; 6795,747;    0,343;   -1,136
360,437; 6970,789;    0,252;    0,045
361,030; 7228,092;    0,525;   -0,682
361,623; 6841,231;    0,434;    0,318
362,215; 6896,952;    0,979;    2,045
362,808; 6729,189;   -2,293;   -1,682
363,401; 6930,741;    0,798;    0,136
363,994; 6735,362;    3,252;   -1,500
364,586; 6639,453;    0,888;   -1,500
365,179; 6794,584;   -0,203;   -1,136
365,772; 6323,851;   -0,930;    2,045
366,364; 6606,487;    1,524;   -3,227
366,957; 6814,368;    1,342;   -0,045
367,549; 6803,282;   -0,203;   -0,864
368,142; 6495,810;    0,978;   -1,500
368,734; 6673,981;    2,523;   -2,136
369,327; 6663,292;    2,341;   -0,500
369,919; 6587,693;   -1,659;    0,409
370,512; 6406,731;   -1,023;   -0,500
371,104; 6164,708;    2,704;    1,591
371,696; 6327,523;    1,703;   -0,955
372,289; 6396,105;    0,157;    1,136
372,881; 6507,470;    1,156;    1,318
373,473; 6403,981;    4,064;    1,136
374,066; 6255,478;    1,336;    0,500
374,658; 6139,752;    0,879;    1,136
375,250; 6455,248;   -1,668;   -1,409
375,842; 6307,902;   -0,124;   -0,045
376,434; 6192,253;   -2,762;   -0,409
377,026; 6731,512;   -1,855;   -2,500
377,618; 6623,925;    0,779;   -0,682
378,210; 6470,181;    3,141;   -1,955
378,802; 6343,791;    3,412;   -0,591
379,394; 6318,220;    3,411;    0,682
379,986; 6852,359;    1,138;   -0,955
380,578; 6907,564;    1,410;    0,773
381,170; 6316,537;    0,320;    0,045
381,762; 6291,537;   -0,224;    1,409
382,354; 6433,145;   -0,223;   -1,318
382,945; 6530,257;    0,870;    0,318
383,537; 6664,197;    1,144;   -1,955
384,129; 6709,409;    0,963;   -1,136
384,721; 6858,271;    0,418;    0,955
385,312; 6769,834;   -1,399;   -0,955
385,904; 6870,808;   -0,945;    1,591
386,496; 6280,254;    0,691;    1,045
387,087; 6429,998;    0,418;    2,500
387,679; 6464,793;   -0,401;    0,045
388,270; 6595,916;   -2,401;    2,045
388,862; 6678,601;   -0,401;   -0,318
389,453; 6546,539;    1,054;    1,045
390,045; 6810,516;    3,236;   -2,682
390,636; 6769,154;    0,144;   -0,591
391,227; 6612,436;    2,054;   -0,045
391,819; 6703,258;    0,781;    0,773
392,410; 6749,637;    0,600;    0,045
393,001; 6671,977;    1,600;   -1,591
393,593; 6951,684;    0,600;   -0,045
394,184; 6830,753;    0,873;   -0,409
394,775; 6708,392;    1,146;    2,136
395,366; 6936,402;    1,782;    0,773
395,957; 6911,618;   -2,400;    0,136
396,548; 7178,159;    1,054;    2,682
397,139; 7467,368;    2,236;    0,591
397,730; 7197,694;    0,873;    0,955
398,321; 7241,278;    0,509;    0,955
398,912; 7262,313;   -0,764;    0,136
399,503; 7364,197;   -1,945;   -1,409
400,094; 6843,428;   -1,582;    1,682
400,685; 6724,204;    3,600;    0,045
401,276; 6774,009;   -0,400;   -0,955
401,867; 7071,062;   -1,127;    0,773
402,458; 7155,483;    1,509;   -2,318
403,048; 7149,550;    0,146;    0,591
403,639; 6771,569;    1,509;    0,864
404,230; 7037,531;    0,691;    0,318
404,821; 6962,288;   -0,127;    0,045
405,411; 7094,295;   -0,763;   -2,591
406,002; 6702,986;    3,237;   -1,136
406,592; 6598,457;    2,691;    0,045
407,183; 6858,874;    0,328;   -1,500
407,774; 6781,035;    1,419;   -0,136
408,364; 7056,383;    2,600;    0,409
408,954; 6731,946;   -0,036;    1,227
409,545; 6769,191;    1,873;    1,045
410,135; 6331,690;   -1,581;    0,500
410,726; 6462,747;    0,783;    0,318
411,316; 6845,485;    2,237;    0,773
411,906; 6514,225;    0,146;   -0,409
412,497; 6086,394;   -0,490;   -0,045
413,087; 6609,307;    0,783;   -0,227
413,677; 6977,043;   -2,490;    3,864
414,267; 6825,468;   -1,035;    1,409
414,857; 6816,796;    0,419;    4,227
415,448; 7063,770;   -0,763;    0,500
416,038; 6788,324;   -2,945;   -0,591
416,628; 6732,743;    0,965;    0,409
417,218; 6331,606;   -1,762;    3,318
417,808; 6552,024;    0,965;   -0,409
418,398; 6929,572;   -1,035;    2,682
418,988; 6933,807;   -2,217;    0,591
419,578; 7155,530;    3,601;    1,409
420,168; 7459,274;    0,692;   -0,955
420,757; 7104,794;    0,964;   -1,500
421,347; 6748,251;    1,601;   -0,227
421,937; 6909,701;    3,329;    1,409
422,527; 6873,335;    2,602;   -0,773
423,116; 6704,616;    2,692;   -0,045
423,706; 7001,773;    2,965;    0,318
424,296; 6983,361;    1,601;    0,682
424,885; 7376,451;    1,510;   -3,045
425,475; 7622,771;    1,147;   -2,864
426,065; 7534,654;   -1,489;   -0,318
426,654; 7191,380;    0,329;   -0,318
427,244; 7331,528;    1,147;    1,409
427,833; 6835,585;    1,056;   -0,500
428,423; 7245,589;    0,147;    1,136
429,012; 7912,018;    2,420;   -1,136
429,601; 7445,291;    2,057;    0,136
430,191; 7660,773;    2,511;    4,318
430,780; 7315,160;   -1,671;   -0,409
431,369; 7270,270;    1,329;   -0,045
431,959; 7854,824;    1,693;    0,500
432,548; 7631,329;   -1,398;   -0,045
433,137; 7722,075;    0,329;   -1,318
433,726; 8202,538;    0,148;    0,500
434,315; 7645,961;    0,148;    2,409
434,905; 7731,866;    0,693;    1,409
435,494; 7661,040;    3,148;    0,955
436,083; 8058,591;    1,420;   -0,955
436,672; 7937,429;    1,148;    0,500
437,261; 7561,940;    0,512;   -1,955
437,850; 7680,947;   -1,125;    0,682
438,439; 7635,868;    2,239;    1,955
439,027; 7530,245;    3,421;    1,773
439,616; 7812,845;    2,239;    1,227
440,205; 7661,951;    0,057;   -2,136
440,794; 7703,012;   -0,306;   -0,045
441,383; 7939,824;    1,603;   -0,591
441,971; 7817,818;   -0,306;    0,591
442,560; 7667,061;    0,603;   -1,773
443,149; 7426,214;    3,060;   -1,318
443,737; 7566,478;    0,968;   -2,318
444,326; 7814,907;    0,331;    0,318
444,915; 7848,854;   -1,851;    0,864
445,503; 8192,541;    0,058;   -0,318
446,092; 7546,008;    7,876;    2,136
446,680; 8047,146;    1,876;    0,318
447,269; 8194,841;   -1,487;   -0,318
447,857; 7955,691;    2,240;   -1,773
448,445; 8106,657;    2,149;    1,318
449,034; 8307,989;    0,876;   -1,136
449,622; 8403,514;    1,240;    3,500
450,210; 7727,605;    3,149;    2,227
450,799; 8215,184;    2,604;   -0,591
451,387; 8178,584;    1,786;   -0,591
451,975; 7843,271;   -1,305;    0,864
452,563; 7941,810;    0,422;    2,318
453,151; 7981,560;   -1,032;   -1,227
453,739; 7918,034;   -1,577;    0,136
454,328; 7760,377;    0,604;   -2,136
454,916; 7495,516;    1,150;   -0,136
455,504; 7681,856;    3,513;    1,227
456,092; 7839,336;    2,150;   -1,591
456,679; 7802,431;    0,604;    0,682
457,267; 7784,918;    3,604;    1,045
457,855; 7900,641;    3,241;    1,409
458,443; 7629,134;   -0,304;    1,682
459,031; 7807,814;    1,332;    2,409
459,619; 8202,975;   -3,577;    2,864
460,206; 8292,899;   -0,759;    2,045
460,794; 8352,535;   -0,668;   -0,227
461,382; 8571,288;    0,878;   -0,864
461,970; 8147,423;    0,605;    1,864
462,557; 8226,034;    0,878;   -0,682
463,145; 8394,334;   -0,304;   -1,682
463,732; 8514,931;    2,514;   -1,045
464,320; 8430,538;    1,514;   -3,045
464,907; 8146,068;    0,423;   -0,773
465,495; 8021,848;    2,696;   -1,227
466,082; 8174,624;    2,060;   -0,045
466,670; 8070,994;    2,605;    1,227
467,257; 8478,237;    0,060;    2,045
467,844; 8618,343;    1,514;    0,045
468,432; 8618,009;   -0,031;    3,500
469,019; 8190,667;    1,606;   -1,773
469,606; 8637,527;    0,969;    3,682
470,193; 8451,652;    2,151;    0,227
470,780; 8093,242;    0,333;    0,864
471,368; 8393,066;   -1,212;   -0,773
471,955; 8195,711;    1,060;   -0,682
472,542; 7858,094;   -0,303;   -1,136
473,129; 8063,197;   -0,485;    0,136
473,716; 7847,777;    0,060;    0,591
474,303; 8016,189;    1,333;   -0,864
474,890; 8264,946;    2,333;   -0,500
475,477; 8278,375;   -0,576;    0,409
476,064; 8217,489;    0,697;   -1,591
476,650; 8128,766;    2,152;    0,318
477,237; 7942,857;    1,879;    0,955
477,824; 8095,390;    3,879;    0,864
478,411; 8120,838;    0,606;   -0,318
478,997; 8277,897;    0,606;   -0,773
479,584; 8357,604;   -0,666;   -0,409
480,171; 8982,312;    1,243;   -0,773
480,757; 8691,310;   -0,848;    0,773
481,344; 8932,519;    0,334;    0,409
481,931; 8452,965;   -0,393;    1,045
482,517; 9328,957;    0,425;    0,318
483,104; 9781,217;    1,334;    2,864
483,690;10011,153;    0,243;    0,045
484,276;10276,166;    0,698;    0,227
484,863;10051,895;    2,152;    1,136
485,449;10590,058;    0,152;    0,318
486,035;10574,452;   -0,666;   -0,136
486,622;10973,623;   -2,393;    0,045
487,208;10922,213;    1,334;    1,500
487,794;10813,562;    0,971;    0,318
488,380;10884,938;    0,698;   -1,409
488,967;10914,295;   -1,120;   -0,409
489,553;10992,384;   -1,029;   -1,409
490,139;11146,500;    0,971;    0,773
490,725;10664,395;    0,789;   -0,227
491,311;10326,841;    1,516;    3,045
491,897; 9717,141;   -0,665;    1,500
492,483; 9604,177;    0,426;    1,227
493,069; 9447,306;    5,426;    0,864
493,655; 9385,655;    1,789;    0,682
494,241; 9357,283;    1,517;   -0,955
494,826; 9671,496;    0,335;   -1,045
495,412; 9149,974;    0,335;   -0,682
495,998; 9309,714;    0,971;   -0,318
496,584; 9433,921;    2,244;    1,045
497,169; 9383,302;    2,335;   -0,682
497,755; 9352,881;    1,244;    1,227
498,341; 9881,596;    2,153;    0,318
498,926; 9481,780;    2,881;    1,955
499,512; 9641,315;   -0,028;    2,955
500,097; 9714,124;   -0,574;   -0,318
500,683; 9634,287;   -0,028;    2,136
501,268;10011,541;    1,881;   -0,955
501,854; 9762,719;   -0,119;    1,227
502,439; 9669,581;   -0,573;   -1,773
503,024; 9854,072;    1,608;    0,500
503,610; 9898,431;    1,335;   -0,682
504,195; 9874,585;    1,245;    1,955
504,780; 9963,456;    2,335;    1,227
505,366; 9848,492;    4,063;    2,864
505,951; 9584,302;   -1,119;    1,045
506,536; 9620,634;    1,427;   -3,682
507,121; 9592,820;    1,699;   -0,318
507,706;10084,484;   -0,392;    1,045
508,291;10421,827;   -2,937;    1,136
508,876; 9899,869;   -0,482;    2,591
509,461; 9430,858;    1,427;   -0,773
510,046; 9803,693;   -0,391;    0,318
510,631;10018,780;   -0,119;   -0,773
511,216; 9702,370;   -0,664;   -0,500
511,801;10065,184;   -0,755;    2,591
512,386;10277,769;    0,972;    0,500
512,971;10225,359;    0,427;    0,955
513,555; 9834,011;    1,154;   -1,500
514,140;10542,431;    1,336;   -3,136
514,725;10521,186;    1,791;   -1,136
515,309;10633,495;    1,064;    0,318
515,894;10165,311;   -0,300;   -2,227
516,479;10557,645;    1,973;   -0,955
517,063;10375,562;    0,882;    1,227
517,648;10510,478;    0,155;   -1,136
518,232;10126,556;   -1,300;   -1,409
518,817;10477,400;    1,337;    1,682
519,401;10665,867;    0,700;    0,591
519,985;10185,309;    2,700;    1,136
520,570;10087,861;   -0,118;   -1,955
521,154;10343,632;    0,064;    0,591
521,738;10481,586;    1,064;    2,409
522,323;11031,759;   -0,390;    1,682
522,907;10794,990;    2,428;   -0,136
523,491;10515,290;    1,155;    0,955
524,075;10511,770;    0,428;    0,591
524,659;10599,516;    0,973;    0,591
525,243;10143,819;    0,883;    0,409
525,827;10349,816;    0,883;   -0,045
526,411;11064,334;    1,155;   -0,136
526,995;11233,827;    0,337;    1,409
527,579;10895,863;    1,974;   -1,045
528,163;11135,457;    0,428;   -1,500
528,747;11053,745;    1,065;   -0,773
529,331;11341,055;    0,883;   -1,409
529,915;11486,620;    2,338;    0,955
530,499;11461,960;    0,247;    1,227
531,082;11186,905;    1,065;    1,591
531,666;10701,295;    0,520;    0,773
532,250;11286,043;    0,428;    2,682
532,833;11555,650;    0,610;    2,773
533,417;11444,176;    1,247;    0,864
534,001;11365,616;    0,429;   -0,318
534,584;12014,923;    1,974;    0,500
535,168;11834,328;    3,247;    1,409
535,751;11865,660;    4,520;    0,045
536,334;11371,834;    4,520;   -0,409
536,918;11969,011;    1,974;    1,591
537,501;11985,170;    1,520;    1,318
538,085;11953,840;    1,702;    1,045
538,668;12081,775;    0,883;    2,409
539,251;12388,254;    3,156;    3,773
539,834;12408,066;    0,156;    0,773
540,418;12314,407;    3,247;    4,318
541,001;12408,189;    2,702;    1,773
541,584;12410,627;    1,429;    2,227
542,167;12095,800;    0,702;    2,955
542,750;12204,815;    0,793;   -0,773
543,333;11802,821;    1,429;    2,136
543,916;12528,582;   -0,298;    2,500
544,499;13042,166;    2,520;    0,227
545,082;13052,443;    0,248;    3,591
545,665;13139,362;   -0,207;    1,500
546,248;13428,003;    0,520;   -0,318
546,830;13127,267;   -1,752;    1,955
547,413;13507,667;    0,157;   -0,773
547,996;13975,278;    0,157;    0,500
548,579;13763,986;   -0,843;    0,955
549,161;13592,536;    0,884;    2,682
549,744;13346,790;    0,612;    0,409
550,326;13806,657;    0,885;   -1,136
550,909;13596,065;    2,339;    0,591
551,492;13946,147;    0,521;    0,227
552,074;13805,646;   -0,024;   -1,318
552,657;14282,511;    2,430;    0,045
553,239;14054,132;   -3,024;   -0,773
553,821;13966,737;   -1,570;    1,045
554,404;13458,145;   -0,024;    1,136
554,986;13826,982;    2,248;    1,045
555,568;14356,695;    0,430;   -0,955
556,151;13666,720;    4,067;   -0,227
556,733;13848,452;   -1,388;   -0,864
557,315;14229,775;    4,703;    0,500
557,897;14024,746;    0,521;   -0,500
558,479;14160,363;    1,703;    1,318
559,061;14306,547;    1,067;   -0,864
559,643;14542,820;   -0,297;    0,045
560,225;14834,790;   -0,388;    2,864
560,807;14867,365;    0,340;    0,318
561,389;14397,033;   -1,206;    2,318
561,971;15033,048;   -0,660;    2,136
562,553;14880,004;    0,613;    1,591
563,135;14986,636;    1,249;    1,136
563,717;14588,088;    3,158;    1,136
564,298;15178,627;    3,976;   -0,045
564,880;14933,604;    0,340;   -1,409
565,462;15078,968;    1,977;    1,318
566,043;16073,234;   -0,933;    2,318
566,625;15617,164;    4,067;    1,227
567,207;15448,329;    0,704;    1,682
567,788;16368,860;   -0,114;    1,500
568,370;17079,490;   -1,841;   -0,500
568,951;16851,507;   -0,569;    0,227
569,533;17626,376;    0,977;   -0,500
570,114;17967,613;   -0,296;    0,682
570,695;18367,425;   -0,478;   -1,318
571,277;18766,080;   -0,205;   -1,682
571,858;19361,678;    2,704;   -1,136
572,439;20077,748;    0,795;   -1,045
573,021;20157,833;    0,432;   -2,773
573,602;20575,017;    1,795;    0,318
574,183;21326,719;   -0,114;    2,227
574,764;21379,668;    2,068;    0,409
575,345;21783,708;    0,250;   -0,136
575,926;22317,327;    2,704;    0,136
576,507;22271,129;    2,704;   -0,227
577,088;23351,651;    1,704;    1,682
577,669;23248,953;    1,704;    1,955
578,250;23843,537;   -0,750;   -1,045
578,831;24348,704;   -0,841;   -2,227
579,412;24510,615;   -1,205;    0,955
579,993;25357,528;    1,432;    0,227
580,573;25615,167;   -0,023;   -0,955
581,154;24669,955;    1,613;   -0,591
581,735;25455,406;    0,341;    0,773
582,315;24979,042;    0,523;    2,136
582,896;25298,668;   -1,750;    1,227
583,477;24804,524;    0,614;    1,227
584,057;24938,141;    1,159;    0,955
584,638;25202,528;   -2,750;    2,318
585,218;25219,275;    2,886;    2,682
585,799;25390,376;    1,977;   -0,227
586,379;25385,014;    1,250;    1,591
586,959;24338,401;    2,613;    0,318
587,540;23786,334;    0,432;    2,227
588,120;23389,038;   -1,113;   -0,045
588,700;22544,729;    2,977;    2,136
589,281;22864,393;    1,250;   -0,955
589,861;22786,744;   -0,296;   -1,682
590,441;22636,805;   -1,477;   -2,682
591,021;21712,186;    1,432;   -2,591
591,601;21944,004;    0,431;    0,500
592,181;22041,112;   -1,296;   -0,773
592,761;21407,127;    2,250;    1,409
593,341;21350,672;    1,522;    0,045
593,921;21326,082;   -0,569;    1,591
594,501;21211,516;    1,250;    1,318
595,081;21083,875;    0,522;   -0,318
595,661;21431,346;    1,068;    0,955
596,240;21921,391;   -1,023;    0,136
596,820;21512,997;    2,613;    1,955
597,400;21608,160;    1,977;    0,773
597,980;21837,674;   -0,750;    1,045
598,559;21871,769;    0,341;   -0,227
599,139;21629,461;   -0,750;   -1,227
599,718;21499,370;    0,795;   -0,409
600,298;21767,429;   -2,387;    0,682
600,877;21976,520;    4,795;    1,409
601,457;22240,672;    0,340;    1,136
602,036;22153,843;    1,795;    2,045
602,616;22308,059;    2,250;    1,682
603,195;22596,420;    0,431;    3,500
603,774;22107,907;   -0,296;    2,045
604,354;21983,659;    2,522;   -0,500
604,933;21577,340;    0,250;    1,864
605,512;21735,936;    2,340;    0,591
606,091;21778,818;    1,886;    3,773
606,671;22499,628;    0,249;    0,773
607,250;21717,585;    1,431;    3,136
607,829;21885,435;    1,158;    3,227
608,408;21782,473;    4,613;    2,591
608,987;20897,038;    2,704;    3,409
609,566;21188,416;    0,341;   -2,500
610,145;21309,202;    2,885;    0,682
610,723;21701,777;    1,613;    6,864
611,302;20974,410;    1,067;    1,682
611,881;20547,513;    5,158;   11,227
612,460;21305,972;    0,795;    3,955
613,039;21711,327;    1,703;    2,045
613,617;20540,010;    0,886;    4,773
614,196;20699,813;    1,613;    1,227
614,775;20974,801;    1,249;    2,409
615,353;20925,737;   -1,660;    0,864
615,932;20711,287;    0,249;    2,409
616,510;21283,095;    0,158;    0,591
617,089;20871,200;    8,794;   17,591
617,667;20670,993;    4,885;    6,136
618,246;20511,361;   -1,115;    1,318
618,824;20671,708;    1,612;   -0,955
619,402;20250,414;    0,431;   -1,773
619,981;20689,143;    1,067;   -1,045
620,559;20560,401;    0,794;    1,682
621,137;20151,705;    3,067;    1,864
621,715;20129,190;    3,703;   -0,682
622,293;20063,521;    1,885;   -0,773
622,871;20530,048;    0,340;    0,500
623,450;20138,170;    0,430;   -0,864
624,028;20065,445;   -0,388;   -0,955
624,606;19706,519;    2,339;    1,682
625,183;20092,428;   -0,661;   -1,136
625,761;19731,449;    1,885;    1,136
626,339;20002,572;    2,339;    2,591
626,917;20333,893;    0,339;   -0,045
627,495;20397,944;    2,794;    1,318
628,073;19901,557;    5,248;    2,864
628,650;19588,027;    3,067;    2,136
629,228;20008,460;    1,248;    4,409
629,806;19485,984;   -0,024;    1,136
630,383;19691,957;    0,066;   -0,318
630,961;19526,644;   -2,206;   -0,955
631,539;19324,158;   -2,479;    0,227
632,116;18778,280;   12,703;   15,409
632,694;19273,915;    4,885;    6,500
633,271;19495,796;    1,975;    2,682
633,848;19454,227;    1,430;    2,045
634,426;19464,802;    1,521;    1,773
635,003;18697,176;   -0,207;   -0,409
635,580;18937,170;    1,884;    3,682
636,158;19434,646;    3,793;    1,227
636,735;19406,183;    3,339;   -0,500
637,312;19486,644;    0,521;   -0,682
637,889;19542,794;    2,248;   -0,682
638,466;19145,751;    0,066;   -0,409
639,043;19120,751;    1,702;   -1,136
639,620;19476,113;    0,611;   -0,955
640,197;19730,155;    1,612;    1,682
640,774;19857,329;    1,430;    1,136
641,351;20191,140;    0,612;    1,136
641,928;19698,314;    2,794;    1,409
642,505;19387,216;    0,794;   -0,500
643,082;19493,208;    1,885;    1,227
643,658;18619,837;    1,157;    1,500
644,235;19262,102;   -2,479;    2,500
644,812;19474,549;    1,794;    0,773
645,388;19259,360;    1,612;    1,409
645,965;19291,625;    1,521;    1,682
646,542;19407,526;    3,430;   -0,227
647,118;19452,246;    3,703;   -0,955
647,695;19679,602;    0,339;    1,136
648,271;19597,140;   -2,115;    0,500
648,848;19856,951;    0,248;    2,227
649,424;19661,943;    0,976;    1,318
650,000;19413,754;   -0,388;   -1,045
650,577;19293,746;    0,158;   -0,955
651,153;19634,011;   -1,115;    0,955
651,729;20538,640;    0,521;    0,864
652,305;20592,360;    1,339;    2,773
652,881;23996,079;   -1,297;    1,136
653,458;29362,617;    0,249;    0,227
654,034;32399,337;    0,703;    1,591
654,610;33490,875;    0,339;    0,773
655,186;34654,595;    1,612;    3,045
655,762;34397,405;   -1,842;    0,409
656,338;34384,579;    0,703;    0,136
656,913;35335,572;   -0,297;    0,409
657,489;34711,201;    0,249;   -0,318
658,065;34653,011;    0,794;   -1,591
658,641;35224,822;    2,158;   -0,864
659,217;34650,451;    2,067;    0,409
659,792;34167,079;   -1,751;   -0,409
660,368;34449,254;   -0,388;   -0,682
660,944;34369,973;    1,794;    1,227
661,519;30793,784;    0,522;    0,409
662,095;26006,140;   -0,206;    0,591
662,670;22207,587;   -0,206;   -0,136
663,246;21260,943;   -0,660;   -0,409
663,821;20672,390;    0,431;    1,682
664,396;20202,383;    0,613;    1,864
664,972;20440,648;   -0,660;   -0,500
665,547;20739,640;    3,794;    0,136
666,122;20765,360;    1,340;    0,318
666,698;20928,352;    2,431;    0,318
667,273;20367,799;    0,885;    0,136
667,848;21081,519;    0,340;    1,500
668,423;20829,511;    1,795;    2,318
668,998;21260,868;    0,976;   -0,682
669,573;21749,678;    2,067;   -1,500
670,148;21618,671;    1,885;   -0,682
670,723;21346,481;   -0,024;    0,318
671,298;21736,292;   -1,296;    1,045
671,873;21820,830;   -0,296;   -0,136
672,448;21820,458;    1,704;    0,136
673,023;22099,451;    0,249;   -0,227
673,597;22423,534;    2,704;    2,318
674,172;22186,890;    2,431;    0,318
674,747;21747,974;   -0,205;   -1,045
675,321;21555,784;   -0,933;    3,318
675,896;21185,231;    2,158;    1,045
676,471;22052,678;    2,522;    1,591
677,045;21845,943;   -0,296;    0,682
677,620;21839,663;    2,158;    1,136
678,194;22158,656;    0,249;    1,136
678,769;21756,375;    0,886;   -0,318
679,343;21989,004;   -0,023;    1,773
679,917;21847,360;    0,340;    1,955
680,492;21891,989;    0,249;    3,227
681,066;21992,709;    0,613;    0,409
681,640;22065,974;    1,795;   -0,318
682,214;22789,693;    2,340;    0,500
682,788;22351,413;    0,613;   -0,773
683,363;22267,860;    1,977;    1,682
683,937;21962,125;    0,886;   -0,318
684,511;22640,118;   -1,023;   -0,591
685,085;22411,201;   -1,478;    0,318
685,659;22112,194;    1,431;    0,864
686,232;22347,913;    1,159;   -0,318
686,806;22121,269;    2,159;    0,409
687,380;22743,989;   -1,932;    0,591
687,954;22921,345;    2,432;    1,136
688,528;22608,974;    2,613;    1,955
689,101;23315,057;    0,432;    1,045
689,675;22933,413;    0,886;   -0,136
690,249;22343,678;    3,432;    0,409
690,822;22672,853;    1,159;    0,318
691,396;22764,209;    2,068;    1,227
691,969;22243,383;    2,523;    0,136
692,543;22675,739;   -0,568;   -1,955
693,116;22363,459;   -0,659;   -1,409
693,690;22285,542;   -0,296;    0,500
694,263;22770,898;    2,341;    2,955
694,836;22750,527;    2,795;    3,591
695,410;21588,065;    1,159;    1,773
695,983;21952,512;    1,614;    0,591
696,556;21926,504;   -0,750;   -1,045
697,129;22280,769;   -1,114;    1,409
697,703;21929,671;    1,341;    1,955
698,276;22028,027;    1,705;   -0,773
698,849;21819,565;   -1,023;    1,409
699,422;22151,285;    1,250;    0,591
699,995;21896,368;   -0,659;    0,136
700,568;22333,906;   -0,204;    3,045
701,140;22357,353;   -1,841;    1,682
701,713;22111,527;    0,341;    2,409
702,286;21855,974;    0,796;    0,864
702,859;21710,967;    0,614;   -0,591
703,432;21062,413;   -0,841;    0,682
704,004;21454,951;    1,978;    0,318
704,577;21332,671;    1,068;    0,136
705,150;21822,300;    0,887;    2,500
705,722;21650,838;    1,523;   -3,227
706,295;21448,376;    1,432;   -0,591
706,867;21311,277;    0,250;    1,955
707,440;21505,906;   -0,113;   -0,409
708,012;21763,626;   -0,022;    0,591
708,584;21691,709;    2,705;    0,227
709,157;21890,792;    1,160;   -0,591
709,729;21642,239;    1,069;    2,045
710,301;22413,595;   -1,204;    0,045
710,874;22442,406;    0,341;   -0,227
711,446;21353,398;   -0,295;    0,864
712,018;21241,755;   -3,022;    0,500
712,590;21035,202;   -0,204;    1,682
713,162;21531,921;   -0,477;    1,318
713,734;21779,823;    1,796;   -2,045
714,306;21669,633;    0,342;   -0,409
714,878;20478,808;   -0,295;    0,864
715,450;21275,891;   -0,113;    0,864
716,022;21458,974;    2,433;    1,318
716,593;21653,239;    0,978;    0,591
717,165;21564,777;    1,796;   -1,227
717,737;21311,133;    0,796;    0,409
718,309;21101,399;    1,160;   -0,045
718,880;21039,027;   -1,295;   -1,409
719,452;21236,111;    0,887;   -1,591
720,024;20879,921;    1,705;   -0,591
720,595;21379,732;    2,978;    0,955
721,167;20974,997;    1,160;   -2,045
721,738;20518,535;    2,069;   -1,045
722,309;20570,709;    1,251;   -1,227
722,881;20370,611;    2,705;    0,773
723,452;20910,512;    1,251;    2,864
724,023;21088,232;    1,524;    2,682
724,595;20911,134;    2,342;    0,682
725,166;20594,671;    1,524;   -0,409
725,737;20258,391;    1,887;    0,227
726,308;20370,747;    0,797;    0,318
726,879;20797,831;    1,069;    1,227
727,450;20651,459;   -2,022;   -0,045
728,021;20583,634;    1,069;    0,682
728,592;20406,444;    1,160;    0,500
729,163;20750,709;    1,433;   -0,136
729,734;20752,156;    2,160;   -0,227
730,305;21040,785;    0,615;    0,136
730,876;21329,868;    0,888;    2,955
731,447;21096,315;    0,797;    2,682
732,017;21172,035;   -0,840;    1,864
732,588;20750,028;   -0,021;    1,227
733,159;20896,656;    3,615;   -1,045
733,729;20728,194;    1,251;    0,409
734,300;20080,641;    0,160;    0,864
734,870;20449,179;   -1,385;    0,591
735,441;20928,172;    0,888;   -0,591
736,011;20759,709;    1,070;   -1,591
736,582;20712,338;    1,251;    0,045
737,152;20174,422;    0,979;   -2,045
737,722;20664,778;    1,070;   -0,682
738,293;20387,134;   -2,021;    1,318
738,863;20275,581;    1,797;    2,318
739,433;20113,664;    4,524;    0,318
740,003;20667,566;    1,524;   -0,682
740,573;20135,376;    2,252;   -1,591
741,143;20129,278;    3,615;    0,318
741,713;20800,452;    0,252;   -0,500
742,283;20542,626;    1,706;    1,591
742,853;20380,255;    0,524;    1,591
743,423;19882,247;    0,161;    0,045
743,993;20003,694;    1,070;    1,500
744,563;19444,596;    2,524;   -0,864
745,133;19382,952;   -0,112;   -0,864
745,702;20053,308;    2,797;    1,773
746,272;19310,028;    0,434;    0,591
746,842;19105,747;   -0,748;   -0,591
747,411;19493,740;   -0,839;   -0,318
747,981;19635,278;   -0,930;    0,500
748,551;19729,088;   -0,021;   -1,045
749,120;19562,263;   -0,112;   -0,227
749,690;19896,346;    2,161;    2,409
750,259;20198,975;    0,979;    2,955
750,828;20095,785;    4,070;   -1,955
751,398;20349,596;   -0,112;   -0,045
751,967;19901,861;    2,888;    0,409
752,536;20134,126;    1,161;   -0,227
753,105;20501,846;   -1,384;    0,227
753,675;20249,748;   -0,112;    1,773
754,244;20194,831;    0,888;    3,591
754,813;20224,551;    0,979;    1,227
755,382;19825,634;    0,798;    0,955
755,951;20265,808;   -0,112;    3,682
756,520;19867,346;    2,525;    1,864
757,089;20390,793;    1,888;    0,500
757,658;20531,240;    2,434;    1,227
758,227;20553,414;   -1,111;    0,318
758,795;20774,316;   -1,021;    1,136
759,364;21033,308;    0,525;   -0,591
759,933;20126,210;    1,343;   -0,045
760,501;19678,475;    0,252;   -1,318
761,070;20127,831;   -0,293;   -1,409
761,639;20825,733;    1,434;    1,318
762,207;20137,270;    0,889;   -0,955
762,776;20066,627;    2,889;    0,864
763,344;20027,255;    0,071;    0,591
763,913;19239,884;    1,616;    1,409
764,481;19934,786;    1,980;   -0,136
765,049;19786,596;    0,616;    1,409
765,618;19700,861;    1,434;    0,318
766,186;19774,672;    2,434;    0,136
766,754;19933,028;    1,798;    1,864
767,322;19031,657;    1,162;    0,409
767,890;19021,104;    0,525;   -1,773
768,459;19443,460;    2,616;   -0,318
769,027;19554,452;    2,525;    3,409
769,595;18666,718;    2,616;    2,591
770,163;19052,074;    3,344;    2,955
770,730;18878,702;    2,525;   -0,136
771,298;18749,968;    1,162;   -1,409
771,866;18848,233;    0,253;    4,955
772,434;19139,225;    1,162;   -1,864
773,002;19291,763;    2,616;    0,682
773,569;18975,392;    1,071;    1,682
774,137;18817,384;    0,889;   -0,045
774,705;19532,649;   -0,747;   -0,136
775,272;19106,369;    0,253;    0,682
775,840;18913,998;   -0,111;    2,682
776,407;18440,172;   -0,293;    1,955
776,975;18094,165;    1,162;    0,318
777,542;19044,612;    2,162;   -0,045
778,110;18917,149;    0,707;   -0,045
778,677;18573,051;    1,071;   -0,864
779,244;18396,316;   -1,020;    1,045
779,812;18507,399;    0,980;    0,864
780,379;18356,483;    2,435;    1,136
780,946;18574,930;    2,617;   -0,773
781,513;18809,195;   -0,565;    0,318
782,080;18279,915;    1,253;    2,864
782,647;18931,907;    1,708;    3,045
783,214;18631,081;   -0,201;    3,864
783,781;18232,892;    1,708;   -0,682
784,348;18134,248;    0,253;    1,500
784,915;18543,877;   -1,474;    0,318
785,482;18363,778;    2,708;    2,591
786,049;18765,225;    1,071;   -0,591
786,615;18848,945;    1,708;   -0,955
787,182;18595,301;   -3,201;   -0,682
787,749;18300,930;   -2,201;    1,409
788,315;17719,195;    0,253;   -0,409
788,882;17991,369;    0,981;   -1,227
789,448;18633,271;    1,435;   -0,955
790,015;18641,081;    1,799;    3,227
790,581;18264,438;    0,708;    0,227
791,148;18133,885;    1,344;    1,045
791,714;18356,059;   -1,019;    3,136
792,280;18103,778;    3,708;    1,591
792,847;17737,316;   -0,928;    2,500
793,413;18177,127;   -0,110;   -0,318
793,979;17781,301;    1,526;   -1,318
794,545;17882,475;    2,981;    2,682
795,111;17387,741;    2,435;    1,318
795,678;17519,824;    3,526;   -1,682
796,244;17179,998;    2,799;    0,136
796,810;17685,718;    0,799;    0,773
797,375;17464,256;   -0,292;   -2,136
797,941;17490,703;   -1,110;    0,591
798,507;17567,877;    0,254;   -0,955
799,073;17176,960;    2,708;    0,591
799,639;17266,044;    1,435;    3,136
800,205;17326,854;   -1,565;    2,682
800,770;16946,029;    1,345;    1,773
801,336;16935,748;    2,981;   -0,955
801,901;16732,013;    6,072;    3,136
802,467;17286,642;    0,526;    2,045
803,033;16638,907;   -0,019;    0,864
803,598;16815,536;    1,072;   -1,045
804,163;16884,710;    0,708;   -0,318
804,729;16811,976;   -0,110;    1,136
805,294;17144,423;    1,072;    2,227
805,859;16950,961;    0,890;   -0,409
806,425;16544,589;    3,890;    2,682
806,990;16261,582;    1,890;    4,318
807,555;16651,938;   -0,110;    2,591
808,120;16615,112;   -1,292;   -0,409
808,685;16667,741;    1,072;   -2,500
809,250;16237,370;    2,072;   -0,500
809,815;16489,726;   -0,201;    0,682
810,380;16953,173;    0,981;    1,591
810,945;17385,801;    2,890;    2,045
811,510;16652,612;   -0,200;    1,591
812,075;16390,877;    2,800;   -1,409
812,640;16443,688;    3,709;    1,409
813,204;16554,771;    2,163;   -0,227
813,769;16979,127;    0,254;   -0,045
814,334;16476,302;    0,527;    0,864
814,898;16502,203;    1,981;    0,591
815,463;16377,377;    0,981;   -0,773
816,027;16363,642;    1,345;   -2,318
816,592;16488,180;    2,163;   -2,045
817,156;16059,991;   -2,200;    1,136
817,721;15914,620;    0,982;    2,318
818,285;15938,612;    0,618;    1,500
818,849;16502,696;   -0,018;    1,682
819,414;16382,779;    0,073;    2,955
819,978;16009,771;   -0,291;    1,773
820,542;16535,946;    2,891;    0,500
821,106;16332,756;    2,800;    0,682
821,670;16379,567;    2,709;    2,591
822,234;16121,287;    1,073;    1,409
822,798;15607,824;   -0,836;    0,500
823,362;15596,908;    1,527;    4,227
823,926;15043,264;   -0,018;    1,136
824,490;15198,802;    3,527;   -0,682
825,054;15605,340;    2,527;   -1,136
825,618;15322,423;   -1,200;   -1,500
826,181;15256,234;    0,982;   -1,318
826,745;15200,226;   -0,745;   -1,045
827,309;15473,673;    2,255;    1,318
827,872;14978,847;    0,527;    0,955
828,436;15874,294;    1,982;   -0,773
828,999;16003,105;    2,436;    1,227
829,563;14971,097;   -0,654;    1,136
830,126;14836,090;   -0,018;   -0,591
830,690;14842,173;    0,709;    2,864
831,253;14385,984;   -0,473;    2,227
831,816;14521,794;   -0,018;    0,500
832,380;14419,514;    1,164;    0,864
832,943;14654,779;    3,073;   -0,500
833,506;14212,772;    0,255;   -1,227
834,069;14918,491;    2,164;   -0,955
834,632;15002,665;   -2,200;    1,318
835,195;14883,931;    1,346;    0,955
835,758;14225,832;    0,709;    1,955
836,321;14054,370;    1,073;   -1,045
836,884;14144,272;   -1,291;   -0,955
837,447;14196,900;    0,528;    1,773
838,010;14430,711;    1,800;    3,227
838,573;14692,885;    0,528;    0,773
839,135;14718,605;   -0,109;   -0,955
839,698;14172,234;    2,528;    0,409
840,261;13776,408;    0,255;   -0,227
840,823;13656,582;   -0,927;    0,864
841,386;13949,938;   -0,018;   -2,409
841,948;13874,022;    0,255;    1,773
842,511;13623,014;    0,255;    1,682
843,073;13708,097;    2,982;    0,227
843,636;13563,363;    0,619;   -0,227
844,198;13506,173;    1,255;    0,591
844,760;13602,347;    0,619;    1,955
845,322;13304,249;    0,164;    1,136
845,885;13680,060;   -0,290;    0,591
846,447;14086,234;    0,710;    0,227
847,009;13726,772;    3,983;   -0,682
847,571;14027,037;    1,346;   -2,045
848,133;14075,029;   -0,199;   -1,864
848,695;13866,931;    2,346;    1,409
849,257;13485,378;    1,346;   -1,682
849,819;13668,279;    2,983;   -0,409
850,381;13693,454;    1,801;   -0,864
850,942;13996,355;    1,892;   -0,591
851,504;13929,529;    0,983;    0,227
852,066;13969,431;    1,619;   -1,591
852,628;13606,514;    0,165;    1,955
853,189;13165,143;    0,256;    2,682
853,751;13276,863;   -0,654;    1,409
854,312;13107,673;    1,256;   -1,682
854,874;13563,120;   -0,108;   -0,773
855,435;13969,840;    0,528;   -1,682
855,997;14156,196;    3,983;   -0,136
856,558;13498,461;    0,801;    1,773
857,119;13588,817;   -0,744;    2,864
857,681;13343,901;   -0,108;    0,318
858,242;13408,439;    1,347;   -2,136
858,803;13754,795;    1,074;   -0,773
859,364;14275,242;    0,892;   -4,773
859,925;13710,780;   -0,290;   -0,955
860,486;13604,045;    0,529;   -0,955
861,047;13357,037;    0,165;   -1,227
861,608;13212,757;    0,165;   -0,773
862,169;13403,749;   -0,562;   -0,045
862,730;13147,833;   -0,290;    1,409
863,291;13349,370;    0,438;   -0,500
863,852;13663,817;   -0,926;    1,955
864,412;13190,628;   -1,835;   -0,864
864,973;11997,166;    1,892;    0,500
865,534;11849,886;    2,074;    0,227
866,094;13145,333;    2,620;    0,227
866,655;12861,234;    4,711;    3,318
867,215;13127,318;    0,074;    0,136
867,776;12980,128;   -1,199;   -0,136
868,336;13088,848;    1,529;    0,136
868,897;12673,113;    3,438;    1,682
869,457;12439,287;    3,256;    0,318
870,017;12697,189;    2,438;   -1,227
870,578;13152,818;    1,893;    0,773
871,138;12776,719;    2,620;   -0,955
871,698;12362,984;   -0,562;   -1,318
872,258;12262,977;    0,711;   -2,864
872,818;12649,878;    2,347;    0,045
873,378;12602,780;   -2,198;    1,045
873,938;12198,045;    4,984;    0,500
874,498;12486,037;    1,256;   -1,955
875,058;12430,302;    4,347;    1,773
875,618;12287,113;    1,438;   -2,682
876,177;12227,015;   -0,471;    0,136
876,737;11870,189;   -0,289;    1,955
877,297;11935,727;    2,711;    1,955
877,856;11953,537;    2,529;    0,318
878,416;11867,348;    2,438;   -0,136
878,976;12076,340;    3,438;    0,409
879,535;12264,696;    4,529;    3,136
880,095;12060,325;    1,347;    0,045
880,654;12143,590;    0,347;    1,318
881,213;12245,947;    2,347;    1,500
881,773;11926,848;    1,984;    2,682
882,332;12243,931;    6,075;    5,136
882,891;12107,287;    0,711;    2,136
883,451;12496,007;   -2,016;    1,682
884,010;11990,545;   -1,107;   -0,409
884,569;12060,901;   -2,289;   -0,045
885,128;12183,348;   -0,743;   -1,864
885,687;12257,886;   -0,743;    0,682
886,246;12006,242;    2,620;    2,136
886,805;11790,689;    1,620;    2,045
887,364;12023,954;    1,166;   -0,500
887,922;12328,128;   -0,016;    0,045
888,481;11828,485;    1,530;    0,591
889,040;12119,113;    3,711;    2,136
889,599;12685,288;    2,166;    1,409
890,157;12745,553;    2,166;    2,409
890,716;12358,363;    2,166;    0,227
891,274;12223,447;    0,075;   -1,136
891,833;12621,894;    1,166;    0,864
892,391;12463,795;    1,802;    0,500
892,950;12538,060;    0,166;   -0,773
893,508;12885,144;    0,984;   -0,409
894,067;12282,500;   -0,379;    0,136
894,625;12200,310;   -1,016;   -1,500
895,183;12384,212;   -0,198;   -0,682
895,741;12364,295;    2,257;   -1,773
896,299;12217,106;    1,621;   -2,409
896,858;12334,553;    1,530;   -1,591
897,416;12483,091;    0,166;   -1,318
897,974;12281,447;   -2,197;    0,318
898,532;12423,985;    6,530;    2,682
899,089;12357,341;    0,621;   -0,682
899,647;12401,151;    0,530;    1,318
900,205;12202,689;    0,257;    1,045
900,763;12366,318;    2,166;    0,227
901,321;12403,856;    3,530;   -1,409
901,878;11872,576;    3,257;   -0,773
902,436;11773,295;    0,257;    1,318
902,994;12168,560;    6,712;    3,682
903,551;11693,826;    1,439;    0,409
904,109;12075,273;    1,530;   -1,409
904,666;11758,447;    1,439;    1,045
905,224;11561,530;    3,894;   -0,409
905,781;11352,795;   -0,470;   -0,318
906,338;11366,333;    0,167;    1,045
906,895;11347,326;    1,894;    2,045
907,453;11307,773;    2,348;    1,136
908,010;11339,311;    3,348;    0,409
908,567;11042,303;   -0,561;    0,591
909,124;10603,114;    2,439;   -1,500
909,681;10654,379;   -1,288;    0,682
910,238;10866,826;   -0,106;   -1,318
910,795;11168,727;   -1,561;   -1,136
911,352;10846,636;   -0,379;   -2,682
911,909;10365,545;    2,803;   -0,864
912,466;10780,273;    1,985;    1,500
913,022;10341,545;   -0,924;    0,500
913,579;10681,636;   -0,470;    2,045
914,136;10475,545;   -2,561;    0,955
914,692;10789,909;    1,530;   -1,227
915,249;10406,273;    0,530;    0,409
915,806;10609,727;    1,803;    1,955
916,362;10453,091;    0,894;    1,864
916,918;10061,182;    2,439;    1,045
917,475;10054,000;    1,621;    0,955
918,031;10107,273;    0,076;   -0,045
918,587; 9669,455;    0,621;   -0,318
919,144; 9906,727;   -0,379;    0,227
919,700;10124,909;    0,167;    0,773
920,256; 9778,909;    0,439;    0,045
920,812; 9470,364;    1,439;   -1,045
921,368; 9518,909;    1,348;   -1,045
921,924; 9228,455;    0,439;   -0,136
922,480; 8862,455;    0,076;    1,227
923,036; 9425,182;   -0,652;    1,955
923,592; 9382,818;    0,621;    0,318
924,148; 9362,273;    1,894;   -0,955
924,704; 8778,273;    0,258;   -0,409
925,259; 9067,818;   -0,561;    0,591
925,815; 8855,455;    3,803;    0,500
926,371; 8441,182;    3,530;    1,409
926,926; 8388,909;    1,621;    0,591
927,482; 8111,909;    1,621;    0,773
928,037; 8046,727;   -0,833;    2,045
928,593; 8311,091;    0,258;    1,045
929,148; 8164,909;    1,167;   -1,500
929,704; 7760,364;    2,439;   -0,500
930,259; 7952,636;    0,894;   -0,136
930,814; 7191,273;    1,803;    1,955
931,369; 6958,545;    0,258;   -0,773
931,925; 6873,091;   -1,924;    0,136
932,480; 6814,091;    3,076;   -2,591
933,035; 6779,545;    3,985;   -0,318
933,590; 6617,636;   -1,742;   -1,773
934,145; 6337,727;   -1,288;   -0,318
934,700; 6621,727;    0,348;   -0,591
935,255; 6461,636;    4,803;    0,045
935,809; 5996,364;    6,258;    0,864
936,364; 5302,273;    2,167;   -0,136
936,919; 5310,545;    2,348;   -1,773
937,474; 5244,455;    1,348;    0,136
938,028; 5049,727;    3,076;    1,136
938,583; 4708,636;    6,348;    4,682
939,138; 4913,091;    0,167;    2,136
939,692; 4464,818;   -1,015;   -1,136
940,247; 4253,636;    1,167;   -1,045
940,801; 3975,182;    0,621;    0,227
941,355; 3907,455;    0,439;    2,591
941,910; 3625,545;    0,712;   -2,136
942,464; 3715,727;    2,712;   -0,318
943,018; 3624,818;    3,258;   -0,227
943,572; 3562,909;    2,803;   -0,682
944,126; 3134,818;   -0,924;   -0,409
944,681; 3020,727;    0,712;    0,227
945,235; 2993,273;    2,167;   -0,591
945,789; 2958,636;    1,258;   -1,864
946,342; 3135,273;   -0,561;   -0,591
946,896; 2899,727;    0,348;    0,955
947,450; 2694,455;   -0,561;   -0,227
948,004; 2959,000;    1,076;   -0,045
948,558; 2915,727;    1,258;   -0,864
949,111; 2837,000;   -1,197;   -0,318
949,665; 2954,545;   -0,106;   -0,682
950,219; 2853,182;    0,621;   -1,045
950,772; 2861,636;    0,258;    1,864
951,326; 2809,636;   -1,106;   -0,955
951,879; 2820,727;    1,076;   -2,318
952,433; 2871,909;    1,348;    2,227
952,986; 2705,364;    0,348;    0,682
953,539; 2650,636;    1,530;    0,591
954,093; 2624,364;    0,985;   -1,318
954,646; 2752,273;   -0,288;    1,318
955,199; 2585,000;    1,258;   -0,500
955,752; 2572,909;    1,985;    1,773
956,305; 2503,182;    0,894;    2,955
956,858; 2623,545;    0,621;   -0,318
957,411; 2768,273;    3,621;    2,136
957,964; 2621,182;    2,076;    2,136
958,517; 2592,182;    0,985;    3,136
959,070; 2456,545;   -1,197;    1,955
959,623; 2622,000;    1,076;    1,500
960,176; 2434,091;    0,712;    2,045
960,728; 2402,727;    1,712;    0,773
961,281; 2453,091;    2,258;    0,500
961,834; 2456,636;   -0,833;    0,864
962,386; 2397,091;    1,258;    1,045
962,939; 2323,818;    3,439;   -0,318
963,491; 2434,182;    2,621;    1,136
964,043; 2322,545;    0,076;    2,409
964,596; 2483,091;    1,712;    2,227
965,148; 2326,545;   -0,379;    1,773
965,700; 2260,182;   -0,015;   -0,227
966,253; 2393,091;   -0,833;    0,318
966,805; 2282,000;    1,894;    0,773
967,357; 2294,545;    0,439;   -1,500
967,909; 2292,636;    1,167;   -1,227
968,461; 2332,000;    0,894;    3,136
969,013; 2264,727;   -1,561;   -0,864
969,565; 2360,364;    1,803;   -1,136
970,117; 2554,636;    3,803;    1,045
970,669; 2298,000;    3,258;   -0,136
971,220; 2127,000;    2,167;   -1,500
971,772; 2117,455;    1,348;   -0,318
972,324; 2238,636;   -1,197;   -0,500
972,876; 2154,091;    0,167;   -0,045
973,427; 2308,273;   -1,197;   -1,045
973,979; 2302,818;    0,076;   -2,500
974,530; 2252,000;    0,803;    1,318
975,082; 2267,273;    2,167;    1,682
975,633; 2185,636;    2,894;    1,682
976,184; 2322,182;    2,076;    0,773
976,736; 2180,909;    0,348;    0,227
977,287; 2034,636;    0,258;   -0,500
977,838; 2166,364;   -0,924;   -0,318
978,389; 2205,455;    0,803;   -0,500
978,940; 2042,909;    1,258;   -0,409
979,491; 2075,091;    2,258;   -0,500
980,042; 2092,364;   -0,652;    3,045
980,593; 2103,727;    1,894;    0,227
981,144; 2192,455;    3,530;   -0,500
981,695; 2221,364;   -0,470;    1,500
982,246; 2155,364;   -1,833;    1,045
982,797; 2221,727;   -0,561;    0,682
983,347; 2337,818;    2,167;    0,591
983,898; 2520,273;    4,167;    0,409
984,449; 2396,727;    2,530;    0,773
984,999; 2224,818;    1,894;   -1,136
985,550; 2082,364;    3,167;   -0,318
986,100; 2053,182;    0,712;   -0,318
986,651; 2068,545;    0,258;    0,045
987,201; 2078,727;    0,894;   -0,591
987,751; 2135,364;   -0,288;    2,864
988,302; 2149,818;   -0,379;    1,500
988,852; 2157,000;    1,985;   -1,136
989,402; 2244,818;    0,985;    0,682
989,952; 2175,545;    1,621;    0,864
990,502; 2199,636;    1,076;    0,682
991,052; 2126,000;   -0,106;    0,045
991,602; 2055,091;    1,167;    1,318
992,152; 2069,091;    2,803;    0,682
992,702; 2055,636;    1,167;   -0,045
993,252; 1987,909;    0,076;   -0,500
993,802; 2101,364;    1,167;    1,318
994,352; 2265,091;   -0,742;    1,136
994,901; 2284,364;    1,076;    3,227
995,451; 2233,091;   -1,197;    0,318
996,000; 2309,091;    1,076;    0,318
996,550; 2094,000;    2,894;    0,227
997,100; 2088,273;   -0,561;   -0,045
997,649; 2347,000;   -0,197;    0,955
998,198; 2050,909;   -0,288;   -1,500
998,748; 2228,000;    0,348;   -2,318
999,297; 2113,182;    0,985;   -0,409
999,846; 2214,636;    1,894;   -0,773
1000,395; 2207,636;    1,530;    0,500
1000,945; 2246,727;    1,076;   -0,773
1001,494; 2314,182;    0,167;    0,682
1002,043; 2265,182;    0,712;    0,864
1002,592; 2085,455;    3,439;    1,955
1003,141; 2224,364;    2,439;   -0,682
1003,690; 2150,091;    1,258;    0,500
1004,238; 2161,818;   -0,106;   -0,045
1004,787; 1857,818;   -1,288;    1,227
1005,336; 2128,545;    1,621;    0,682
1005,885; 2190,455;   -0,197;   -2,773
1006,433; 2252,455;   -0,470;    0,955
1006,982; 2419,091;    2,167;    1,682
1007,531; 2286,273;    2,712;   -0,227
1008,079; 2194,000;    0,258;    0,500
1008,627; 2295,273;    1,621;    0,409
1009,176; 2117,182;    0,076;   -1,955
1009,724; 2135,727;   -2,742;    0,864
1010,273; 2227,545;    1,076;    0,500
1010,821; 2264,545;    1,076;    1,409
1011,369; 2063,182;    0,076;    1,318
1011,917; 2078,727;   -0,833;   -0,591
1012,465; 2295,636;    2,530;   -1,591
1013,013; 2361,818;    0,439;   -1,682
1013,561; 2321,091;   -1,288;   -0,773
1014,109; 2398,273;   -0,833;    1,682
1014,657; 2261,273;    1,348;    0,591
1015,205; 2309,545;    0,894;   -0,955
1015,753; 2299,727;    0,258;   -1,409
1016,301; 2340,636;    2,621;    3,045
1016,848; 2372,273;    2,167;    0,409
1017,396; 2419,818;    1,621;    0,045
1017,944; 2513,818;    2,621;    1,864
1018,491; 2296,182;   -0,197;    1,409
1019,039; 2547,182;   -0,652;    0,591
1019,586; 2385,818;    0,076;    1,682
1020,134; 2426,545;    0,712;    1,500
1020,681; 2453,545;    2,894;   -1,136
1021,228; 2422,455;   -0,561;   -2,227
1021,776; 2276,091;   -0,833;   -1,136
1022,323; 2537,273;    0,803;    0,773
1022,870; 2485,000;   -0,470;   -0,045
1023,417; 2420,727;    2,076;    1,864
1023,964; 2443,545;    0,621;    1,227
1024,511; 2368,364;   -0,652;    0,773
1025,058; 2218,273;    0,439;   -0,045
1025,605; 2223,091;   -1,742;    3,136
1026,152; 2469,636;   -0,106;   -0,591
1026,699; 2202,455;    0,167;    1,318
1027,245; 2321,455;    2,439;    0,318
1027,792; 2475,273;    0,712;    1,409
1028,339; 2459,636;    4,076;   -0,045
1028,885; 2306,000;    3,621;   -0,227
1029,432; 2245,273;   -0,106;    0,227
1029,978; 2329,818;    1,348;   -1,591
1030,525; 2230,273;    1,621;    0,409
1031,071; 2374,000;    0,348;    1,136
1031,618; 2583,455;    1,258;    1,682
1032,164; 2364,364;    2,076;    3,045
1032,710; 2388,636;    0,076;   -1,500
1033,256; 2307,545;    0,712;   -0,136
1033,803; 2240,455;   -0,288;    1,500
1034,349; 2020,727;    1,803;    0,136
1034,895; 2172,455;    2,621;   -0,318
1035,441; 2155,182;    0,439;    0,318
1035,987; 2193,273;   -2,288;   -0,682
1036,533; 2225,273;   -0,197;   -0,955
1037,078; 2432,727;    4,712;    1,682
1037,624; 2251,091;    2,439;   -0,955
1038,170; 2211,818;    1,712;   -0,318
1038,716; 2178,727;    2,167;   -0,409
1039,261; 2076,364;    2,167;   -0,773
1039,807; 2038,364;   -0,015;    3,409
1040,352; 2117,545;   -1,288;   -0,318
1040,898; 2143,273;    0,167;   -0,682
1041,443; 2020,455;    0,803;   -2,591
1041,989; 2174,636;    3,621;    1,591
1042,534; 2013,364;    0,985;    2,591
1043,079; 2064,818;    1,985;    0,955
1043,625; 1936,727;    0,258;    0,500
1044,170; 2000,091;    2,439;    1,045
1044,715; 2253,000;    0,167;    0,955
1045,260; 2075,273;   -0,833;   -0,955
1045,805; 2045,000;    0,258;   -0,591
1046,350; 1988,091;    0,530;   -0,409
1046,895; 2055,727;    0,803;    1,591
1047,440; 2019,818;    1,530;    0,409
1047,985; 1895,182;   -1,197;   -0,955
1048,530; 1808,818;    1,348;    1,227
1049,074; 1890,545;    2,803;    0,318
1049,619; 1833,273;   -0,924;    1,955
1050,164; 1690,636;    1,076;    0,227
1050,708; 1758,909;    2,621;    0,045
1051,253; 2152,636;    3,258;   -2,227
1051,797; 1848,636;   -0,197;   -1,318
1052,342; 1799,182;    1,348;    1,045
1052,886; 1829,273;    1,803;   -1,409
1053,430; 1688,091;    2,167;    0,136
1053,975; 1723,182;    0,894;   -0,318
1054,519; 1722,273;    1,803;    3,227
1055,063; 1791,636;    3,621;    1,318
1055,607; 1708,091;    1,348;    0,227
1056,151; 1706,909;    0,530;    1,682
1056,695; 1596,182;   -1,833;   -1,136
1057,239; 1664,909;   -1,197;   -0,682
1057,783; 1690,182;    2,258;   -1,500
1058,327; 1692,091;    3,076;    1,409
1058,871; 1919,818;    3,985;    1,318
1059,415; 1638,364;   -0,561;   -0,045
1059,958; 1911,545;    2,985;    2,591
1060,502; 1619,091;    1,348;   -0,773
1061,046; 1495,545;    1,712;   -0,955
1061,589; 1460,091;    2,803;   -1,136
1062,133; 1381,727;    0,985;    1,864
1062,676; 1362,727;    1,439;    0,864
1063,220; 1386,273;    0,985;    0,500
1063,763; 1410,636;    2,985;    1,136
1064,306; 1480,909;    0,985;    1,864
1064,849; 1380,545;    2,076;    0,591
1065,393; 1387,364;    2,894;   -1,500
1065,936; 1458,545;    2,530;   -0,409
1066,479; 1341,364;    2,621;    1,318
1067,022; 1378,182;    1,894;   -0,227
1067,565; 1288,818;   -1,197;   -1,318
1068,108; 1309,273;    1,258;   -0,591
1068,651; 1279,727;   -2,470;    1,409
1069,194; 1209,000;   -1,106;   -1,682
1069,736; 1235,909;    3,803;    0,955
1070,279; 1208,091;   -1,652;   -0,500
1070,822; 1282,455;    1,530;   -0,318
1071,364; 1418,364;    0,530;    1,318
1071,907; 1214,364;    0,348;    3,227
1072,450; 1085,636;    0,258;   -0,045
1072,992; 1119,818;   -0,561;    3,136
1073,535; 1261,455;    0,167;    2,136
1074,077; 1055,636;    2,985;    2,045
1074,619; 1047,818;    0,985;    0,591
1075,161; 1077,273;   -0,561;    1,500
1075,704; 1274,545;    0,258;    1,227
1076,246; 1044,818;    1,530;    0,682
1076,788;  971,273;   -1,015;    1,773
1077,330; 1045,727;   -2,106;    2,136
1077,872; 1035,636;   -1,924;    0,955
1078,414; 1256,182;    3,712;    0,773
1078,956; 1012,909;    0,167;   -0,227
1079,498; 1272,091;    0,439;    0,318
1080,040;  997,636;    0,985;   -1,318
1080,581;  940,636;    0,621;   -0,318
1081,123;  847,273;   -0,106;   -0,773
1081,665;  895,273;    3,803;   -0,955
1082,206; 1202,455;    3,258;   -0,500
1082,748; 1070,636;    3,258;    2,045
1083,289;  932,545;    0,167;    1,318
1083,831;  867,091;    0,258;    0,227
1084,372;  910,818;    0,894;    0,591
1084,913;  918,364;    3,348;    0,864
1085,455;  864,636;    1,530;   -2,045
1085,996;  855,000;    0,530;    0,136
1086,537;  892,818;    0,985;    0,864
1087,078;  909,455;    0,439;   -2,136
1087,619;  968,364;   -1,652;    0,227
1088,160;  877,818;    1,439;    1,318
1088,701;  854,000;   -0,742;    0,682
1089,242;  814,545;   -0,561;   -2,227
1089,783;  910,818;   -0,561;    1,409
1090,324;  886,182;   -0,833;    0,682
1090,865;  763,909;   -1,924;   -0,409
1091,405;  720,909;   -0,561;    2,227
1091,946;  756,455;   -0,197;   -0,955
1092,487;  687,273;   -1,288;   -1,409
1093,027;  865,091;    1,803;   -1,500
1093,568;  732,273;    2,258;    1,227
1094,108;  815,909;    0,621;    1,773
1094,649;  755,636;   -0,470;    0,136
1095,189;  702,091;    1,167;   -0,682
1095,729;  667,000;    0,712;    0,955
1096,269;  660,273;    1,258;   -0,955
1096,810;  946,091;   -0,197;    0,500
1097,350;  805,636;   -0,561;   -0,773
1097,890;  705,000;    2,985;    1,227
1098,430;  962,818;    4,985;    2,864
1098,970;  845,273;    1,894;    1,682
1099,510;  692,000;   -0,833;   -2,318
1100,050;  630,091;    0,258;   -1,591
1100,589;  616,545;    0,076;   -0,318
1101,129;  729,273;    0,894;   -0,955
1101,669;  879,364;    2,803;    2,136
1102,209;  705,818;    1,530;    2,227
1102,748;  674,273;    3,439;    0,955
1103,288;  662,636;    0,712;   -1,227
1103,827;  683,091;    3,530;   -2,227
1104,367;  573,182;    1,712;   -2,409
1104,906;  551,545;   -1,015;   -1,136
1105,445;  623,818;    0,985;   -1,136
1105,985;  578,000;   -0,652;    1,500
1106,524;  616,364;    1,530;   -0,682
1107,063;  587,273;    1,167;    1,409
1107,602;  552,000;    1,894;   -1,500
1108,141;  497,636;    1,621;    1,500
1108,680;  611,636;    3,985;   -0,591
1109,219;  539,727;    0,167;   -0,500
1109,758;  531,727;    4,167;    0,682
1110,297;  509,636;   -1,106;   -0,682
1110,836;  458,182;    1,439;    0,955
1111,375;  603,636;    0,348;    0,409
1111,913;  628,182;    0,985;    0,773
1112,452;  569,182;    0,894;    0,136
1112,991;  460,091;    1,076;    1,955
1113,529;  420,818;    0,167;   -0,045
1114,068;  485,545;    0,439;    2,955
1114,606;  403,545;   -0,561;   -0,955
1115,144;  550,909;    1,530;    1,045
1115,683;  492,455;    1,985;    0,318
1116,221;  544,000;    2,076;   -0,864
1116,759;  461,273;    1,621;   -0,864
1117,297;  637,909;    1,621;    1,864
1117,836;  463,182;    1,985;   -1,227
1118,374;  468,909;    0,258;   -0,682
1118,912;  430,182;    0,439;    2,682
1119,450;  416,545;    0,985;    0,864
1119,988;  456,818;    3,348;    2,136
1120,525;  885,273;    7,258;    3,318
1121,063;  598,364;    0,530;    1,864
1121,601;  423,636;    1,076;   -1,227
1122,139;  393,727;    1,076;   -2,045
1122,676;  577,545;   -1,652;    2,773
1123,214;  510,909;    0,712;    4,409
1123,751;  338,273;    0,621;    2,227
1124,289;  442,000;    0,894;   -0,409
1124,826;  343,182;   -0,379;    0,227
1125,364;  259,909;    0,712;   -0,955
1125,901;  453,818;    6,258;    1,227
1126,438;  548,182;    3,530;    0,955
1126,975;  295,545;    2,985;   -0,773
1127,513;  354,818;    2,621;    2,136
1128,050;  277,545;   -0,561;   -0,682
1128,587;  371,000;    1,348;   -0,227
1129,124;  413,182;   -0,015;    1,318
1129,661;  283,455;   -1,924;    0,227
1130,198;  438,636;    2,439;    0,773
1130,734;  379,091;   -0,379;    1,409
1131,271;  266,182;   -1,197;    0,864
1131,808;  426,727;    1,621;    3,045
1132,345;  305,727;    4,530;    0,318
1132,881;  189,727;   -0,561;   -1,864
1133,418;  318,182;    0,348;   -1,136
1133,954;  267,182;    0,712;   -2,682
1134,491;  325,273;    1,712;   -0,773
1135,027;  233,727;    2,167;    0,864
1135,564;  313,182;    1,439;    2,955
1136,100;  307,727;   -0,742;    2,136
1136,636;  209,455;   -1,015;   -1,045
1137,172;  290,273;    0,894;   -1,045
1137,708;  220,636;   -1,561;   -1,045
1138,245;  218,818;    0,803;   -1,227
1138,781;  182,909;    1,803;   -3,318
1139,317;  245,000;    1,894;   -1,409
1139,852;  235,545;    3,076;    0,136
1140,388;  328,545;    2,076;   -0,409
1140,924;  231,182;    1,076;   -2,227
1141,460;  180,455;   -0,288;    0,136
1141,996;  126,182;   -0,652;    2,682
1142,531;  162,182;    1,076;    3,318
1143,067;  356,273;    1,167;    1,045
1143,602;  411,182;    3,439;   -0,318
1144,138;  267,727;    0,803;    1,045
1144,673;  153,727;    1,621;    1,409
1145,209;  214,455;    2,894;   -0,318
1145,744;  142,273;    0,803;    0,864
1146,279;  264,364;    1,530;   -0,136
1146,815;  195,545;    1,530;   -2,682
1147,350;  228,091;   -0,924;    0,045
1147,885;  152,636;   -1,924;   -1,318
1148,420;  152,818;    2,439;    0,773
1148,955;  132,455;   -1,470;    1,864
1149,490;  155,000;   -1,106;   -1,591
1150,025;  141,091;   -1,106;   -1,773
1150,560;  244,091;   -0,288;   -0,955
1151,094;  210,182;    0,258;   -0,591
1151,629;  214,455;   -3,742;    0,864
1152,164;  147,364;   -1,288;    1,318
1152,698;  120,636;    1,258;   -0,136
1153,233;   82,364;   -1,379;   -0,682
1153,767;  114,545;   -0,288;   -2,318
1154,302;  162,636;   -0,379;    1,773
1154,836;  161,545;    0,803;   -2,136
1155,371;  211,364;    2,258;    3,682
1155,905;  166,909;    1,985;    1,682
1156,439;  136,727;    0,530;   -0,500
1156,973;  162,364;    0,439;    0,318
1157,507;  106,545;   -1,742;    0,682
1158,042;  133,727;   -0,652;    1,045
1158,576;  171,091;   -0,561;    1,773
1159,110;  164,182;    0,076;    2,409
1159,643;  146,818;   -2,470;   -0,045
1160,177;   93,273;   -2,015;    1,500

