
Integration time [ms]:   0,050
Averaging Nr. [scans]: 11
Smoothing Nr. [pixels]: 0
Data measured with spectrometer [name]: 7318044SP
Wave   ;Sample   ;Dark     ;Reference
[nm]   ;[counts] ;[counts] ;[counts] 

186,757;  -23,552;   38,161;    1,318
187,357;   -1,166;   26,706;    0,955
187,958;  -22,365;   17,252;   -1,591
188,558;   12,622;   12,979;   -1,227
189,159;   -4,519;   10,070;   -4,500
189,759;  -24,100;    5,797;   -3,591
190,360;  -29,746;    6,797;   -2,136
190,960;   -7,096;    5,706;   -4,136
191,560;   -1,702;    2,614;   -6,591
192,161;  179,023;    5,885;   -3,500
192,761;   59,853;    5,520;   -3,227
193,361;    3,359;    3,065;   -3,773
193,962;   47,346;    1,612;   -2,682
194,562;   -6,759;   -0,114;   -3,955
195,162;    2,260;   -0,567;   -2,227
195,762;   98,057;    2,433;   -0,045
196,362;   53,738;    1,706;   -2,500
196,963;  -11,621;    1,706;   -0,864
197,563;   29,353;    1,252;   -0,955
198,163;  -12,303;   -0,111;   -0,682
198,763;   -7,607;   -0,020;   -0,500
199,363;   40,554;    3,616;   -0,500
199,963;   10,583;    2,162;    0,409
200,563;    3,117;    6,344;   -1,409
201,163;   -6,337;    5,435;   -0,227
201,763;   19,826;    1,435;    0,318
202,363;   -1,808;    0,980;    1,500
202,963;   26,951;    1,526;    1,045
203,563;   66,214;    0,344;    0,500
204,162;    6,411;    1,889;   -1,864
204,762;    7,026;    2,071;    0,591
205,362;   -8,069;    0,708;    1,955
205,962;    3,932;    3,435;    1,955
206,562;    2,201;    1,889;    2,318
207,161;  -16,783;    1,708;    0,318
207,761;   51,324;    4,435;    2,409
208,361;    0,782;    1,889;    1,409
208,960;   17,337;    2,889;    1,500
209,560;   10,582;    0,435;    1,591
210,160;   14,985;    5,071;    1,864
210,759;    4,433;    0,708;    1,227
211,359;   -7,271;   -0,474;    1,045
211,958;   82,359;    3,526;    2,045
212,558;   81,792;    0,799;    1,864
213,157;   24,658;   -0,929;    1,500
213,757;  147,297;    5,617;   -0,227
214,356;   49,632;    1,708;   -0,409
214,956;  126,947;    3,526;    0,409
215,555;   32,225;    0,617;    2,136
216,154;    2,529;   -0,292;   -0,591
216,754;    3,976;    1,253;    0,773
217,353;   11,412;   -0,383;   -1,045
217,952;  -23,547;    2,072;    0,318
218,552;   30,821;    0,254;   -0,773
219,151;    4,170;   -1,110;    0,955
219,750;   -8,424;    0,890;   -0,227
220,349;  -15,647;   -2,292;    1,045
220,948;   35,042;    1,163;    1,136
221,548;   -7,838;    0,617;    1,227
222,147;   10,175;   -1,292;   -0,409
222,746;   69,394;    1,254;   -0,955
223,345;   19,595;   -1,019;    0,500
223,944;   21,583;    1,163;    0,773
224,543;   27,171;    4,072;   -1,409
225,142;    7,001;    1,345;    0,136
225,741;   18,487;    1,163;    1,045
226,340;   13,901;    1,254;   -0,955
226,939;   49,076;    2,708;   -0,136
227,538;    6,053;    1,163;   -0,773
228,137;   54,197;    0,435;    0,864
228,735;   38,375;    0,435;    1,227
229,334;  -25,087;   -0,474;   -0,227
229,933;   61,438;    0,799;    0,591
230,532;   53,666;   -1,201;   -0,409
231,131;   86,850;    1,253;    0,318
231,729;   39,965;    1,163;   -2,318
232,328;   14,013;    0,435;   -1,500
232,927;   14,977;    4,526;   -0,500
233,525;    0,984;    0,981;    0,045
234,124;   20,816;    1,890;   -1,591
234,723;   -6,518;    1,617;   -1,045
235,321;  -12,671;    1,163;    0,136
235,920;    3,696;    2,526;   -1,227
236,518;   58,088;    1,072;    0,318
237,117;   -2,775;    2,890;   -0,227
237,715;   13,521;    1,163;   -0,500
238,314;   16,586;    1,708;   -2,318
238,912;   58,709;    0,526;   -1,409
239,510;   23,603;    1,162;   -1,227
240,109;   70,161;   -0,474;    3,773
240,707;   47,057;   -0,474;    1,227
241,305;   -9,249;   -0,383;    0,136
241,904;   27,297;   -0,292;   -2,045
242,502;   80,399;    3,253;   -0,227
243,100;   35,969;    3,344;   -0,955
243,698;   -1,644;    2,799;    1,682
244,297;   13,826;   -0,656;    0,682
244,895;    7,139;   -0,474;   -2,318
245,493;   70,418;    2,981;   -0,591
246,091;   74,281;    5,163;   -1,318
246,689;   37,368;    2,163;    0,591
247,287;   30,787;   -0,019;   -1,136
247,885;   12,134;   -1,019;    1,227
248,483;    2,752;   -0,201;   -0,500
249,081;   38,810;    0,981;    1,591
249,679;   36,190;   -1,019;    1,682
250,277;   -2,801;   -2,292;    0,864
250,875;   32,245;    0,617;   -1,045
251,473;    7,533;   -0,019;    0,500
252,071;   37,934;   -0,383;    1,045
252,669;    5,856;   -1,565;    0,318
253,267;   -3,563;    1,618;    0,773
253,864;   14,242;    0,617;    0,682
254,462;   54,941;    1,526;    1,591
255,060;    1,468;    0,072;    1,318
255,658;   -3,781;   -3,292;   -0,136
256,255;    9,420;   -0,201;   -2,045
256,853;   25,771;    2,345;    1,409
257,451;    5,229;    1,981;    1,864
258,048;  152,028;    2,072;    1,864
258,646;   57,392;    0,436;   -1,045
259,243;   82,680;    2,981;    2,227
259,841;   37,828;    1,799;    0,318
260,438;    2,743;    0,254;    0,864
261,036;   30,588;    0,617;    1,409
261,633;    1,591;    1,526;    2,227
262,231;  -16,306;   -0,110;   -0,045
262,828;  -18,438;   -0,383;    1,136
263,425;   -4,252;   -1,928;   -0,591
264,023;   -2,623;    1,436;    0,045
264,620;   36,657;    1,526;   -0,318
265,217;   72,223;    2,890;    3,136
265,815;   11,439;    2,527;    2,136
266,412;   27,776;    0,072;    0,136
267,009;   23,316;    0,526;    0,773
267,606;   50,301;    0,345;   -0,955
268,203;    3,362;   -0,383;   -0,591
268,801;    8,975;   -0,474;    0,591
269,398;   -4,005;   -0,564;    2,500
269,995;   26,017;    0,890;    1,591
270,592;   12,126;    0,799;   -0,500
271,189;   -9,973;    1,981;    0,409
271,786;  -17,671;    2,072;    1,227
272,383;   43,596;   -0,383;    0,227
272,980;   14,928;    1,617;    0,318
273,577;   -2,464;    2,162;    1,227
274,174;   -4,508;    1,435;    2,591
274,771;   30,856;    1,890;   -0,773
275,367;  165,987;    3,253;    1,409
275,964;   75,095;   -0,565;   -0,500
276,561;    9,322;   -2,474;   -1,045
277,158;   -9,446;    1,799;   -1,773
277,755;   66,174;   -0,110;    0,409
278,351;   27,843;    0,436;   -1,500
278,948;   42,138;   -0,201;    0,045
279,545;   26,125;    0,527;    2,318
280,141;   63,668;    1,254;   -2,045
280,738;   68,394;    2,435;   -0,136
281,334;   13,813;   -0,383;    0,591
281,931;   -4,459;    2,890;   -1,318
282,528;   35,281;    4,072;   -0,500
283,124;   55,578;    3,345;   -0,500
283,721;   47,163;    0,709;    1,409
284,317;   15,426;    0,163;    2,500
284,913;   59,866;   -0,110;    0,591
285,510;  113,684;    2,890;   -0,318
286,106;   77,422;    2,345;   -0,955
286,703;   36,823;    0,072;    1,955
287,299;   12,010;    1,254;   -0,591
287,895;   -0,675;    0,890;   -1,045
288,491;   -2,732;    0,163;    2,136
289,088;   24,361;    0,163;    2,409
289,684;   31,129;    2,890;    1,500
290,280;   79,384;    1,890;    0,682
290,876;   60,077;    0,163;    5,500
291,472;   47,676;    2,163;    2,227
292,068;   52,339;    1,254;    0,227
292,665;   23,555;   -0,564;    0,773
293,261;   -1,148;   -1,292;    2,136
293,857;   48,559;    4,072;    2,136
294,453;   20,434;   -0,928;    0,955
295,049;   86,201;    0,253;    1,955
295,644;   44,456;   -1,292;    0,136
296,240;   -2,003;    0,162;   -0,136
296,836;   29,734;   -0,747;    0,318
297,432;   68,153;    2,980;   -0,500
298,028;   71,034;    0,435;    0,773
298,624;   26,927;    0,889;    1,864
299,220;   34,771;    0,435;    0,591
299,815;   31,969;    0,526;   -0,409
300,411;   71,292;    0,435;    1,773
301,007;   99,205;    1,889;    0,227
301,602;   44,528;    2,071;   -2,318
302,198;  107,258;    1,435;   -0,773
302,794;   58,182;    1,526;   -0,500
303,389;   22,557;    1,071;    1,045
303,985;   32,628;    1,253;    1,409
304,580;  111,815;    0,889;    1,591
305,176;   60,624;    0,344;    0,136
305,771;    1,599;   -0,929;   -1,227
306,367;  209,230;    3,071;    0,136
306,962;   97,982;    2,889;    1,500
307,558;  128,374;    2,435;    0,136
308,153;  110,719;   -0,383;   -1,136
308,748;   37,483;    0,162;    1,682
309,344;  205,988;    0,253;   -1,318
309,939;  197,077;    2,071;   -1,318
310,534;   66,942;   -2,020;   -1,682
311,130;   46,277;   -0,656;   -2,500
311,725;   35,580;    0,526;   -0,500
312,320;   49,867;    1,253;    0,045
312,915;   93,946;    2,890;   -1,045
313,510;  190,161;    0,526;   -0,500
314,105;   62,674;   -3,565;    1,409
314,700;   13,431;   -1,656;   -1,045
315,295;   28,270;   -0,020;    0,045
315,890;   14,338;   -0,292;    0,864
316,485;   54,951;    0,253;   -0,318
317,080;   12,444;   -0,929;    1,591
317,675;  141,962;    3,071;   -0,682
318,270;  255,913;    6,889;    3,318
318,865;  173,273;    2,435;    3,045
319,460;   97,769;   -1,565;    0,591
320,055;   26,208;   -2,565;   -1,227
320,650;   25,612;   -1,838;   -0,591
321,244;   15,590;    0,889;   -1,409
321,839;   19,351;    0,980;   -0,227
322,434;   34,504;   -0,111;   -1,591
323,029;    6,600;   -0,474;    1,591
323,623;   10,483;    0,798;    0,773
324,218;   87,028;    2,707;    1,409
324,812;   60,641;    0,889;    1,591
325,407;   41,042;   -0,929;    2,045
326,002;  112,654;    0,526;   -0,409
326,596;   80,965;   -0,656;    1,318
327,191;   17,726;   -0,383;   -1,045
327,785;   32,874;   -0,747;   -0,227
328,379;   23,303;   -0,383;    0,136
328,974;   34,971;    1,798;   -3,955
329,568;   56,312;    2,889;   -2,409
330,163;   94,821;    2,435;    1,045
330,757;   31,476;    0,253;    1,591
331,351;    7,921;   -0,292;    0,682
331,945;    6,361;   -0,383;    1,409
332,540;   69,470;    1,617;   -0,591
333,134;   61,725;    3,344;    0,773
333,728;   81,712;    2,799;    0,318
334,322;   35,236;    0,889;   -0,864
334,916;   36,734;    0,344;    0,955
335,510;  131,218;   -0,111;   -0,136
336,105;  119,363;   -0,929;    1,591
336,699;   70,027;   -1,292;    0,591
337,293;  113,968;    1,071;    0,318
337,887;   83,444;    0,071;    1,955
338,481;  195,589;    2,980;    0,591
339,074;  291,185;    2,071;    2,682
339,668;  294,044;   -0,110;    1,227
340,262;  768,124;    7,708;    3,227
340,856;  464,376;    1,708;   -0,682
341,450;  229,197;    0,708;    1,864
342,044;  310,604;    1,799;    0,136
342,637;  444,706;    1,162;   -2,136
343,231;  454,564;   -1,474;    0,682
343,825;  388,023;   -0,747;   -0,591
344,419;  402,837;   -0,474;    0,500
345,012;  957,381;    2,889;    4,045
345,606;  795,509;   -0,656;    1,591
346,199;  514,765;   -0,111;   -0,227
346,793;  670,078;    2,525;    2,045
347,386;  518,515;    0,889;   -1,136
347,980;  431,065;   -0,838;   -0,045
348,573;  583,792;   -1,748;    0,409
349,167;  902,330;    6,161;    4,773
349,760;  836,005;    2,252;    2,682
350,354;  804,043;    1,616;    1,136
350,947;  886,971;    2,798;    1,682
351,540;  729,723;    0,616;   -1,409
352,134;  603,582;   -1,111;    1,136
352,727;  672,683;   -0,657;    1,136
353,320;  719,450;    2,343;    0,591
353,913;  650,322;   -1,929;    1,864
354,507;  893,341;    0,434;   -1,227
355,100;  784,955;    0,071;    0,864
355,693; 1196,817;    4,798;    2,409
356,286;  942,760;    0,980;    2,773
356,879;  800,467;   -0,475;    1,227
357,472;  753,146;    0,980;    1,500
358,065;  825,419;    3,161;    2,500
358,658;  676,827;    0,798;    2,318
359,251;  599,380;    0,252;   -0,591
359,844;  790,589;    0,343;   -1,136
360,437;  892,204;    0,252;    0,045
361,030;  724,803;    0,525;   -0,682
361,623;  688,825;    0,434;    0,318
362,215;  933,803;    0,979;    2,045
362,808;  764,007;   -2,293;   -1,682
363,401;  667,672;    0,798;    0,136
363,994;  909,607;    3,252;   -1,500
364,586;  661,531;    0,888;   -1,500
365,179;  597,313;   -0,203;   -1,136
365,772;  414,444;   -0,930;    2,045
366,364;  563,928;    1,524;   -3,227
366,957;  653,938;    1,342;   -0,045
367,549;  564,834;   -0,203;   -0,864
368,142;  563,922;    0,978;   -1,500
368,734;  514,495;    2,523;   -2,136
369,327;  412,788;    2,341;   -0,500
369,919;  456,633;   -1,659;    0,409
370,512;  479,577;   -1,023;   -0,500
371,104;  743,770;    2,704;    1,591
371,696;  785,058;    1,703;   -0,955
372,289;  619,609;    0,157;    1,136
372,881;  555,066;    1,156;    1,318
373,473;  411,446;    4,064;    1,136
374,066;  511,616;    1,336;    0,500
374,658;  468,493;    0,879;    1,136
375,250;  386,684;   -1,668;   -1,409
375,842;  425,403;   -0,124;   -0,045
376,434;  358,285;   -2,762;   -0,409
377,026;  382,021;   -1,855;   -2,500
377,618;  400,556;    0,779;   -0,682
378,210;  299,018;    3,141;   -1,955
378,802;  262,848;    3,412;   -0,591
379,394;  721,573;    3,411;    0,682
379,986;  463,086;    1,138;   -0,955
380,578;  354,040;    1,410;    0,773
381,170;  606,434;    0,320;    0,045
381,762;  496,824;   -0,224;    1,409
382,354;  459,411;   -0,223;   -1,318
382,945;  362,587;    0,870;    0,318
383,537;  308,806;    1,144;   -1,955
384,129;  337,228;    0,963;   -1,136
384,721;  468,681;    0,418;    0,955
385,312;  375,586;   -1,399;   -0,955
385,904;  489,897;   -0,945;    1,591
386,496;  355,316;    0,691;    1,045
387,087;  511,724;    0,418;    2,500
387,679;  438,253;   -0,401;    0,045
388,270;  435,258;   -2,401;    2,045
388,862;  384,531;   -0,401;   -0,318
389,453;  334,675;    1,054;    1,045
390,045;  378,008;    3,236;   -2,682
390,636;  264,694;    0,144;   -0,591
391,227;  323,275;    2,054;   -0,045
391,819;  309,156;    0,781;    0,773
392,410;  599,305;    0,600;    0,045
393,001;  384,420;    1,600;   -1,591
393,593;  473,507;    0,600;   -0,045
394,184;  518,882;    0,873;   -0,409
394,775;  350,099;    1,146;    2,136
395,366;  306,115;    1,782;    0,773
395,957;  508,890;   -2,400;    0,136
396,548;  372,987;    1,054;    2,682
397,139;  515,019;    2,236;    0,591
397,730;  406,621;    0,873;    0,955
398,321;  408,074;    0,509;    0,955
398,912;  339,863;   -0,764;    0,136
399,503;  364,523;   -1,945;   -1,409
400,094;  398,160;   -1,582;    1,682
400,685;  368,727;    3,600;    0,045
401,276;  283,334;   -0,400;   -0,955
401,867;  284,768;   -1,127;    0,773
402,458;  248,749;    1,509;   -2,318
403,048;  425,794;    0,146;    0,591
403,639;  327,497;    1,509;    0,864
404,230;  466,379;    0,691;    0,318
404,821;  534,433;   -0,127;    0,045
405,411;  414,804;   -0,763;   -2,591
406,002;  292,652;    3,237;   -1,136
406,592;  550,290;    2,691;    0,045
407,183;  377,718;    0,328;   -1,500
407,774;  331,638;    1,419;   -0,136
408,364;  290,572;    2,600;    0,409
408,954;  409,764;   -0,036;    1,227
409,545;  400,843;    1,873;    1,045
410,135;  325,130;   -1,581;    0,500
410,726;  274,348;    0,783;    0,318
411,316;  462,727;    2,237;    0,773
411,906;  262,023;    0,146;   -0,409
412,497;  253,734;   -0,490;   -0,045
413,087;  192,805;    0,783;   -0,227
413,677;  121,834;   -2,490;    3,864
414,267;  102,696;   -1,035;    1,409
414,857;   66,901;    0,419;    4,227
415,448;   58,310;   -0,763;    0,500
416,038;   80,178;   -2,945;   -0,591
416,628;  113,823;    0,965;    0,409
417,218;  167,570;   -1,762;    3,318
417,808;  308,411;    0,965;   -0,409
418,398;  171,355;   -1,035;    2,682
418,988;   47,979;   -2,217;    0,591
419,578;  128,915;    3,601;    1,409
420,168;   61,303;    0,692;   -0,955
420,757;  188,523;    0,964;   -1,500
421,347;   76,515;    1,601;   -0,227
421,937;   37,627;    3,329;    1,409
422,527;  161,402;    2,602;   -0,773
423,116;  272,474;    2,692;   -0,045
423,706;   25,582;    2,965;    0,318
424,296;  -23,607;    1,601;    0,682
424,885;   92,938;    1,510;   -3,045
425,475;   54,539;    1,147;   -2,864
426,065;  -36,527;   -1,489;   -0,318
426,654;  -50,857;    0,329;   -0,318
427,244;  174,040;    1,147;    1,409
427,833;  134,378;    1,056;   -0,500
428,423;   23,343;    0,147;    1,136
429,012;   28,808;    2,420;   -1,136
429,601;  135,437;    2,057;    0,136
430,191;   36,462;    2,511;    4,318
430,780;  -50,681;   -1,671;   -0,409
431,369;  104,622;    1,329;   -0,045
431,959;    9,945;    1,693;    0,500
432,548;  -38,103;   -1,398;   -0,045
433,137;  -91,695;    0,329;   -1,318
433,726;  -28,728;    0,148;    0,500
434,315;  -17,181;    0,148;    2,409
434,905;   82,636;    0,693;    1,409
435,494;   71,139;    3,148;    0,955
436,083;  -37,468;    1,420;   -0,955
436,672;   45,758;    1,148;    0,500
437,261;    2,991;    0,512;   -1,955
437,850;  188,831;   -1,125;    0,682
438,439;  235,937;    2,239;    1,955
439,027;  336,967;    3,421;    1,773
439,616;  260,164;    2,239;    1,227
440,205;   65,153;    0,057;   -2,136
440,794;   27,364;   -0,306;   -0,045
441,383;  -19,210;    1,603;   -0,591
441,971;  -49,407;   -0,306;    0,591
442,560;  -41,377;    0,603;   -1,773
443,149; -112,476;    3,060;   -1,318
443,737;  -81,426;    0,968;   -2,318
444,326;  -59,366;    0,331;    0,318
444,915;  -17,898;   -1,851;    0,864
445,503;  -12,030;    0,058;   -0,318
446,092;  217,909;    7,876;    2,136
446,680;  153,692;    1,876;    0,318
447,269;   63,694;   -1,487;   -0,318
447,857;   50,223;    2,240;   -1,773
448,445;   16,735;    2,149;    1,318
449,034;  -26,256;    0,876;   -1,136
449,622;  -24,979;    1,240;    3,500
450,210;  221,908;    3,149;    2,227
450,799;  137,935;    2,604;   -0,591
451,387;   98,269;    1,786;   -0,591
451,975;   85,319;   -1,305;    0,864
452,563;  151,129;    0,422;    2,318
453,151;    8,964;   -1,032;   -1,227
453,739;   44,995;   -1,577;    0,136
454,328;  137,006;    0,604;   -2,136
454,916;   71,551;    1,150;   -0,136
455,504;   85,891;    3,513;    1,227
456,092;   -5,217;    2,150;   -1,591
456,679;  -35,328;    0,604;    0,682
457,267;  346,655;    3,604;    1,045
457,855;   63,577;    3,241;    1,409
458,443;  -70,606;   -0,304;    1,682
459,031;   45,611;    1,332;    2,409
459,619;   29,440;   -3,577;    2,864
460,206;  -48,767;   -0,759;    2,045
460,794;  -49,502;   -0,668;   -0,227
461,382;  -10,268;    0,878;   -0,864
461,970;   -9,331;    0,605;    1,864
462,557;  -60,488;    0,878;   -0,682
463,145;   32,075;   -0,304;   -1,682
463,732;  239,649;    2,514;   -1,045
464,320;   47,588;    1,514;   -3,045
464,907;  163,614;    0,423;   -0,773
465,495;   82,580;    2,696;   -1,227
466,082;   18,336;    2,060;   -0,045
466,670;   38,715;    2,605;    1,227
467,257;  -44,339;    0,060;    2,045
467,844;   39,817;    1,514;    0,045
468,432;   21,682;   -0,031;    3,500
469,019;   -7,700;    1,606;   -1,773
469,606;   61,027;    0,969;    3,682
470,193;   78,766;    2,151;    0,227
470,780;   28,990;    0,333;    0,864
471,368;  -15,184;   -1,212;   -0,773
471,955;   69,237;    1,060;   -0,682
472,542;   36,911;   -0,303;   -1,136
473,129;  -59,136;   -0,485;    0,136
473,716;  -43,557;    0,060;    0,591
474,303;  -16,459;    1,333;   -0,864
474,890;  -13,616;    2,333;   -0,500
475,477;   74,947;   -0,576;    0,409
476,064;  -12,491;    0,697;   -1,591
476,650;   94,140;    2,152;    0,318
477,237;   14,867;    1,879;    0,955
477,824;    2,193;    3,879;    0,864
478,411;  -68,458;    0,606;   -0,318
478,997;  -78,554;    0,606;   -0,773
479,584; -112,201;   -0,666;   -0,409
480,171;   32,209;    1,243;   -0,773
480,757;   79,068;   -0,848;    0,773
481,344;   -8,179;    0,334;    0,409
481,931;  -84,090;   -0,393;    1,045
482,517;   23,147;    0,425;    0,318
483,104;   89,768;    1,334;    2,864
483,690;  -19,767;    0,243;    0,045
484,276;  -35,017;    0,698;    0,227
484,863;  148,389;    2,152;    1,136
485,449;   12,505;    0,152;    0,318
486,035;  -24,721;   -0,666;   -0,136
486,622;   38,473;   -2,393;    0,045
487,208;  -21,415;    1,334;    1,500
487,794;  -78,313;    0,971;    0,318
488,380;  -80,465;    0,698;   -1,409
488,967;  -81,047;   -1,120;   -0,409
489,553;  -58,620;   -1,029;   -1,409
490,139;   -0,917;    0,971;    0,773
490,725;  -61,080;    0,789;   -0,227
491,311;  -23,222;    1,516;    3,045
491,897;  -43,392;   -0,665;    1,500
492,483;  -25,331;    0,426;    1,227
493,069;  372,864;    5,426;    0,864
493,655;  109,784;    1,789;    0,682
494,241;   -8,629;    1,517;   -0,955
494,826;    0,467;    0,335;   -1,045
495,412;   50,589;    0,335;   -0,682
495,998;  -20,675;    0,971;   -0,318
496,584;   30,035;    2,244;    1,045
497,169;   40,499;    2,335;   -0,682
497,755;  -15,671;    1,244;    1,227
498,341;   89,586;    2,153;    0,318
498,926;  201,614;    2,881;    1,955
499,512;  -17,241;   -0,028;    2,955
500,097;  -11,095;   -0,574;   -0,318
500,683;    1,860;   -0,028;    2,136
501,268;  -47,192;    1,881;   -0,955
501,854;  -19,633;   -0,119;    1,227
502,439;  -29,893;   -0,573;   -1,773
503,024;  -19,726;    1,608;    0,500
503,610;   -4,433;    1,335;   -0,682
504,195;  -36,906;    1,245;    1,955
504,780;   46,096;    2,335;    1,227
505,366;  120,619;    4,063;    2,864
505,951;   64,896;   -1,119;    1,045
506,536;   -1,367;    1,427;   -3,682
507,121;   36,620;    1,699;   -0,318
507,706;    3,358;   -0,392;    1,045
508,291;  -42,009;   -2,937;    1,136
508,876;  -38,954;   -0,482;    2,591
509,461;   -7,851;    1,427;   -0,773
510,046;   33,893;   -0,391;    0,318
510,631;   33,921;   -0,119;   -0,773
511,216;  -28,695;   -0,664;   -0,500
511,801;   18,885;   -0,755;    2,591
512,386;   37,283;    0,972;    0,500
512,971;   51,114;    0,427;    0,955
513,555;   81,739;    1,154;   -1,500
514,140;   56,342;    1,336;   -3,136
514,725;  175,521;    1,791;   -1,136
515,309;  100,498;    1,064;    0,318
515,894;   38,554;   -0,300;   -2,227
516,479;   91,046;    1,973;   -0,955
517,063;  126,921;    0,882;    1,227
517,648;  122,209;    0,155;   -1,136
518,232;  129,242;   -1,300;   -1,409
518,817;  297,399;    1,337;    1,682
519,401;  509,982;    0,700;    0,591
519,985;  520,497;    2,700;    1,136
520,570;  447,960;   -0,118;   -1,955
521,154;  728,526;    0,064;    0,591
521,738; 1123,176;    1,064;    2,409
522,323; 1125,049;   -0,390;    1,682
522,907; 1239,406;    2,428;   -0,136
523,491; 1349,871;    1,155;    0,955
524,075; 1559,665;    0,428;    0,591
524,659; 1991,997;    0,973;    0,591
525,243; 2121,135;    0,883;    0,409
525,827; 2456,638;    0,883;   -0,045
526,411; 3099,815;    1,155;   -0,136
526,995; 3732,003;    0,337;    1,409
527,579; 3967,959;    1,974;   -1,045
528,163; 4526,323;    0,428;   -1,500
528,747; 5065,304;    1,065;   -0,773
529,331; 5673,044;    0,883;   -1,409
529,915; 6167,816;    2,338;    0,955
530,499; 6655,967;    0,247;    1,227
531,082; 6888,042;    1,065;    1,591
531,666; 6964,906;    0,520;    0,773
532,250; 7917,371;    0,428;    2,682
532,833; 8565,038;    0,610;    2,773
533,417; 8912,986;    1,247;    0,864
534,001; 9230,634;    0,429;   -0,318
534,584;10218,471;    1,974;    0,500
535,168;10447,100;    3,247;    1,409
535,751;10832,850;    4,520;    0,045
536,334;10622,338;    4,520;   -0,409
536,918;11511,268;    1,974;    1,591
537,501;11847,047;    1,520;    1,318
538,085;12099,255;    1,702;    1,045
538,668;12504,140;    0,883;    2,409
539,251;13081,843;    3,156;    3,773
539,834;13341,556;    0,156;    0,773
540,418;13474,055;    3,247;    4,318
541,001;13756,630;    2,702;    1,773
541,584;13941,865;    1,429;    2,227
542,167;13765,829;    0,702;    2,955
542,750;14058,349;    0,793;   -0,773
543,333;13795,077;    1,429;    2,136
543,916;14676,208;   -0,298;    2,500
544,499;15384,577;    2,520;    0,227
545,082;15532,557;    0,248;    3,591
545,665;15766,559;   -0,207;    1,500
546,248;16218,713;    0,520;   -0,318
546,830;16003,208;   -1,752;    1,955
547,413;16456,171;    0,157;   -0,773
547,996;17074,461;    0,157;    0,500
548,579;16944,402;   -0,843;    0,955
549,161;16845,382;    0,884;    2,682
549,744;16689,413;    0,612;    0,409
550,326;17251,966;    0,885;   -1,136
550,909;17041,260;    2,339;    0,591
551,492;17502,671;    0,521;    0,227
552,074;17350,321;   -0,024;   -1,318
552,657;17972,748;    2,430;    0,045
553,239;17801,312;   -3,024;   -0,773
553,821;17801,874;   -1,570;    1,045
554,404;17321,985;   -0,024;    1,136
554,986;17706,757;    2,248;    1,045
555,568;18311,594;    0,430;   -0,955
556,151;17534,479;    4,067;   -0,227
556,733;17821,375;   -1,388;   -0,864
557,315;18351,949;    4,703;    0,500
557,897;18160,266;    0,521;   -0,500
558,479;18295,396;    1,703;    1,318
559,061;18450,508;    1,067;   -0,864
559,643;18803,879;   -0,297;    0,045
560,225;19152,574;   -0,388;    2,864
560,807;19197,970;    0,340;    0,318
561,389;18803,324;   -1,206;    2,318
561,971;19507,557;   -0,660;    2,136
562,553;19409,543;    0,613;    1,591
563,135;19536,018;    1,249;    1,136
563,717;19143,346;    3,158;    1,136
564,298;19838,779;    3,976;   -0,045
564,880;19599,453;    0,340;   -1,409
565,462;19783,635;    1,977;    1,318
566,043;20993,907;   -0,933;    2,318
566,625;20489,358;    4,067;    1,227
567,207;20330,970;    0,704;    1,682
567,788;21514,080;   -0,114;    1,500
568,370;22368,414;   -1,841;   -0,500
568,951;22156,529;   -0,569;    0,227
569,533;23033,921;    0,977;   -0,500
570,114;23565,336;   -0,296;    0,682
570,695;24046,027;   -0,478;   -1,318
571,277;24603,435;   -0,205;   -1,682
571,858;25343,611;    2,704;   -1,136
572,439;26292,986;    0,795;   -1,045
573,021;26496,397;    0,432;   -2,773
573,602;26993,166;    1,795;    0,318
574,183;27963,183;   -0,114;    2,227
574,764;28125,959;    2,068;    0,409
575,345;28682,091;    0,250;   -0,136
575,926;29321,634;    2,704;    0,136
576,507;29346,072;    2,704;   -0,227
577,088;30396,767;    1,704;    1,682
577,669;30446,716;    1,704;    1,955
578,250;31197,638;   -0,750;   -1,045
578,831;31908,642;   -0,841;   -2,227
579,412;32178,146;   -1,205;    0,955
579,993;33152,853;    1,432;    0,227
580,573;33537,707;   -0,023;   -0,955
581,154;32439,842;    1,613;   -0,591
581,735;33341,590;    0,341;    0,773
582,315;32814,680;    0,523;    2,136
582,896;33166,868;   -1,750;    1,227
583,477;32624,775;    0,614;    1,227
584,057;32842,458;    1,159;    0,955
584,638;33099,217;   -2,750;    2,318
585,218;33155,632;    2,886;    2,682
585,799;33309,816;    1,977;   -0,227
586,379;33323,495;    1,250;    1,591
586,959;32120,519;    2,613;    0,318
587,540;31457,809;    0,432;    2,227
588,120;30894,945;   -1,113;   -0,045
588,700;29861,436;    2,977;    2,136
589,281;30193,462;    1,250;   -0,955
589,861;30139,606;   -0,296;   -1,682
590,441;29961,651;   -1,477;   -2,682
591,021;28888,486;    1,432;   -2,591
591,601;29124,591;    0,431;    0,500
592,181;29119,880;   -1,296;   -0,773
592,761;28451,917;    2,250;    1,409
593,341;28389,666;    1,522;    0,045
593,921;28346,645;   -0,569;    1,591
594,501;28263,641;    1,250;    1,318
595,081;28137,487;    0,522;   -0,318
595,661;28454,315;    1,068;    0,955
596,240;29027,986;   -1,023;    0,136
596,820;28603,492;    2,613;    1,955
597,400;28811,153;    1,977;    0,773
597,980;29013,261;   -0,750;    1,045
598,559;29040,415;    0,341;   -0,227
599,139;28820,801;   -0,750;   -1,227
599,718;28687,892;    0,795;   -0,409
600,298;28965,265;   -2,387;    0,682
600,877;29158,908;    4,795;    1,409
601,457;29448,960;    0,340;    1,136
602,036;29380,678;    1,795;    2,045
602,616;29573,439;    2,250;    1,682
603,195;29902,229;    0,431;    3,500
603,774;29403,492;   -0,296;    2,045
604,354;29311,105;    2,522;   -0,500
604,933;28780,125;    0,250;    1,864
605,512;28889,812;    2,340;    0,591
606,091;28975,898;    1,886;    3,773
606,671;29791,023;    0,249;    0,773
607,250;28882,121;    1,431;    3,136
607,829;29089,581;    1,158;    3,227
608,408;28972,678;    4,613;    2,591
608,987;28052,744;    2,704;    3,409
609,566;28332,046;    0,341;   -2,500
610,145;28388,454;    2,885;    0,682
610,723;28828,410;    1,613;    6,864
611,302;28035,619;    1,067;    1,682
611,881;27530,649;    5,158;   11,227
612,460;28426,720;    0,795;    3,955
613,039;28869,313;    1,703;    2,045
613,617;27561,718;    0,886;    4,773
614,196;27775,751;    1,613;    1,227
614,775;28135,001;    1,249;    2,409
615,353;28033,202;   -1,660;    0,864
615,932;27711,090;    0,249;    2,409
616,510;28298,452;    0,158;    0,591
617,089;27776,343;    8,794;   17,591
617,667;27580,821;    4,885;    6,136
618,246;27381,263;   -1,115;    1,318
618,824;27574,610;    1,612;   -0,955
619,402;27131,886;    0,431;   -1,773
619,981;27653,565;    1,067;   -1,045
620,559;27532,409;    0,794;    1,682
621,137;27068,763;    3,067;    1,864
621,715;27037,537;    3,703;   -0,682
622,293;26937,910;    1,885;   -0,773
622,871;27459,403;    0,340;    0,500
623,450;26984,136;    0,430;   -0,864
624,028;26910,891;   -0,388;   -0,955
624,606;26513,245;    2,339;    1,682
625,183;26922,162;   -0,661;   -1,136
625,761;26554,703;    1,885;    1,136
626,339;26861,414;    2,339;    2,591
626,917;27219,080;    0,339;   -0,045
627,495;27301,213;    2,794;    1,318
628,073;26775,916;    5,248;    2,864
628,650;26421,792;    3,067;    2,136
629,228;26847,880;    1,248;    4,409
629,806;26183,073;   -0,024;    1,136
630,383;26480,250;    0,066;   -0,318
630,961;26250,377;   -2,206;   -0,955
631,539;25982,302;   -2,479;    0,227
632,116;25288,286;   12,703;   15,409
632,694;25946,894;    4,885;    6,500
633,271;26189,806;    1,975;    2,682
633,848;26101,131;    1,430;    2,045
634,426;26158,010;    1,521;    1,773
635,003;25259,845;   -0,207;   -0,409
635,580;25588,466;    1,884;    3,682
636,158;26167,630;    3,793;    1,227
636,735;26092,383;    3,339;   -0,500
637,312;26204,209;    0,521;   -0,682
637,889;26347,142;    2,248;   -0,682
638,466;25852,353;    0,066;   -0,409
639,043;25850,640;    1,702;   -1,136
639,620;26122,968;    0,611;   -0,955
640,197;26443,663;    1,612;    1,682
640,774;26660,627;    1,430;    1,136
641,351;27074,863;    0,612;    1,136
641,928;26455,918;    2,794;    1,409
642,505;26030,972;    0,794;   -0,500
643,082;26185,209;    1,885;    1,227
643,658;25175,263;    1,157;    1,500
644,235;25896,863;   -2,479;    2,500
644,812;26232,009;    1,794;    0,773
645,388;26023,881;    1,612;    1,409
645,965;26063,299;    1,521;    1,682
646,542;26126,445;    3,430;   -0,227
647,118;26153,045;    3,703;   -0,955
647,695;26441,554;    0,339;    1,136
648,271;26349,336;   -2,115;    0,500
648,848;26676,845;    0,248;    2,227
649,424;26511,627;    0,976;    1,318
650,000;26242,681;   -0,388;   -1,045
650,577;26069,736;    0,158;   -0,955
651,153;26511,699;   -1,115;    0,955
651,729;27521,754;    0,521;    0,864
652,305;27695,354;    1,339;    2,773
652,881;32180,499;   -1,297;    1,136
653,458;39174,645;    0,249;    0,227
654,034;43069,427;    0,703;    1,591
654,610;44572,845;    0,339;    0,773
655,186;45996,627;    1,612;    3,045
655,762;45738,227;   -1,842;    0,409
656,338;45817,190;    0,703;    0,136
656,913;46908,881;   -0,297;    0,409
657,489;46153,845;    0,249;   -0,318
658,065;46155,354;    0,794;   -1,591
658,641;46773,863;    2,158;   -0,864
659,217;46034,736;    2,067;    0,409
659,792;45506,245;   -1,751;   -0,409
660,368;45838,208;   -0,388;   -0,682
660,944;45535,899;    1,794;    1,227
661,519;40887,317;    0,522;    0,409
662,095;34610,099;   -0,206;    0,591
662,670;29738,608;   -0,206;   -0,136
663,246;28487,390;   -0,660;   -0,409
663,821;27736,990;    0,431;    1,682
664,396;27243,954;    0,613;    1,864
664,972;27531,463;   -0,660;   -0,500
665,547;27882,426;    3,794;    0,136
666,122;27861,572;    1,340;    0,318
666,698;28183,626;    2,431;    0,318
667,273;27535,135;    0,885;    0,136
667,848;28315,917;    0,340;    1,500
668,423;28044,426;    1,795;    2,318
668,998;28694,481;    0,976;   -0,682
669,573;29234,263;    2,067;   -1,500
670,148;29082,499;    1,885;   -0,682
670,723;28845,917;   -0,024;    0,318
671,298;29288,154;   -1,296;    1,045
671,873;29444,844;   -0,296;   -0,136
672,448;29405,535;    1,704;    0,136
673,023;29712,135;    0,249;   -0,227
673,597;29982,826;    2,704;    2,318
674,172;29762,881;    2,431;    0,318
674,747;29283,390;   -0,205;   -1,045
675,321;29134,535;   -0,933;    3,318
675,896;28644,953;    2,158;    1,045
676,471;29679,099;    2,522;    1,591
677,045;29455,153;   -0,296;    0,682
677,620;29436,572;    2,158;    1,136
678,194;29861,626;    0,249;    1,136
678,769;29374,135;    0,886;   -0,318
679,343;29632,553;   -0,023;    1,773
679,917;29481,153;    0,340;    1,955
680,492;29562,662;    0,249;    3,227
681,066;29767,081;    0,613;    0,409
681,640;29734,862;    1,795;   -0,318
682,214;30524,735;    2,340;    0,500
682,788;30001,335;    0,613;   -0,773
683,363;29962,026;    1,977;    1,682
683,937;29683,535;    0,886;   -0,318
684,511;30473,772;   -1,023;   -0,591
685,085;30174,553;   -1,478;    0,318
685,659;29920,608;    1,431;    0,864
686,232;30100,481;    1,159;   -0,318
686,806;29888,808;    2,159;    0,409
687,380;30534,499;   -1,932;    0,591
687,954;30762,099;    2,432;    1,136
688,528;30462,608;    2,613;    1,955
689,101;31236,117;    0,432;    1,045
689,675;30792,444;    0,886;   -0,136
690,249;30172,499;    3,432;    0,409
690,822;30474,644;    1,159;    0,318
691,396;30569,426;    2,068;    1,227
691,969;29982,026;    2,523;    0,136
692,543;30457,535;   -0,568;   -1,955
693,116;30109,408;   -0,659;   -1,409
693,690;29946,190;   -0,296;    0,500
694,263;30570,244;    2,341;    2,955
694,836;30560,753;    2,795;    3,591
695,410;29185,808;    1,159;    1,773
695,983;29630,135;    1,614;    0,591
696,556;29602,189;   -0,750;   -1,045
697,129;30020,699;   -1,114;    1,409
697,703;29637,935;    1,341;    1,955
698,276;29720,353;    1,705;   -0,773
698,849;29414,135;   -1,023;    1,409
699,422;29800,644;    1,250;    0,591
699,995;29519,517;   -0,659;    0,136
700,568;30039,389;   -0,204;    3,045
701,140;30072,717;   -1,841;    1,682
701,713;29741,953;    0,341;    2,409
702,286;29506,644;    0,796;    0,864
702,859;29377,426;    0,614;   -0,591
703,432;28541,571;   -0,841;    0,682
704,004;29088,626;    1,978;    0,318
704,577;28937,317;    1,068;    0,136
705,150;29519,189;    0,887;    2,500
705,722;29329,244;    1,523;   -3,227
706,295;29057,753;    1,432;   -0,591
706,867;28848,626;    0,250;    1,955
707,440;29105,953;   -0,113;   -0,409
708,012;29388,280;   -0,022;    0,591
708,584;29199,880;    2,705;    0,227
709,157;29588,753;    1,160;   -0,591
709,729;29245,080;    1,069;    2,045
710,301;30119,589;   -1,204;    0,045
710,874;30113,826;    0,341;   -0,227
711,446;28977,880;   -0,295;    0,864
712,018;28865,571;   -3,022;    0,500
712,590;28567,353;   -0,204;    1,682
713,162;29091,407;   -0,477;    1,318
713,734;29380,371;    1,796;   -2,045
714,306;29219,516;    0,342;   -0,409
714,878;27933,753;   -0,295;    0,864
715,450;28736,807;   -0,113;    0,864
716,022;28988,135;    2,433;    1,318
716,593;29199,007;    0,978;    0,591
717,165;29109,062;    1,796;   -1,227
717,737;28763,753;    0,796;    0,409
718,309;28481,171;    1,160;   -0,045
718,880;28460,044;   -1,295;   -1,409
719,452;28666,098;    0,887;   -1,591
720,024;28224,153;    1,705;   -0,591
720,595;28778,025;    2,978;    0,955
721,167;28297,444;    1,160;   -2,045
721,738;27780,135;    2,069;   -1,045
722,309;27718,553;    1,251;   -1,227
722,881;27529,153;    2,705;    0,773
723,452;28216,116;    1,251;    2,864
724,023;28346,171;    1,524;    2,682
724,595;28157,044;    2,342;    0,682
725,166;27904,825;    1,524;   -0,409
725,737;27482,607;    1,887;    0,227
726,308;27611,571;    0,797;    0,318
726,879;28005,262;    1,069;    1,227
727,450;27849,953;   -2,022;   -0,045
728,021;27839,644;    1,069;    0,682
728,592;27648,607;    1,160;    0,500
729,163;27996,662;    1,433;   -0,136
729,734;27981,353;    2,160;   -0,227
730,305;28329,225;    0,615;    0,136
730,876;28593,462;    0,888;    2,955
731,447;28363,971;    0,797;    2,682
732,017;28467,843;   -0,840;    1,864
732,588;27987,716;   -0,021;    1,227
733,159;28160,498;    3,615;   -1,045
733,729;27942,552;    1,251;    0,409
734,300;27223,425;    0,160;    0,864
734,870;27688,480;   -1,385;    0,591
735,441;28258,352;    0,888;   -0,591
736,011;27915,407;    1,070;   -1,591
736,582;27885,189;    1,251;    0,045
737,152;27362,789;    0,979;   -2,045
737,722;27849,843;    1,070;   -0,682
738,293;27567,716;   -2,021;    1,318
738,863;27417,134;    1,797;    2,318
739,433;27247,916;    4,524;    0,318
740,003;27915,789;    1,524;   -0,682
740,573;27281,571;    2,252;   -1,591
741,143;27248,352;    3,615;    0,318
741,713;28026,861;    0,252;   -0,500
742,283;27716,643;    1,706;    1,591
742,853;27451,425;    0,524;    1,591
743,423;26911,116;    0,161;    0,045
743,993;27010,898;    1,070;    1,500
744,563;26408,407;    2,524;   -0,864
745,133;26350,461;   -0,112;   -0,864
745,702;27075,243;    2,797;    1,773
746,272;26257,752;    0,434;    0,591
746,842;26037,261;   -0,748;   -0,591
747,411;26443,680;   -0,839;   -0,318
747,981;26590,007;   -0,930;    0,500
748,551;26689,607;   -0,021;   -1,045
749,120;26506,661;   -0,112;   -0,227
749,690;26918,080;    2,161;    2,409
750,259;27238,952;    0,979;    2,955
750,828;27122,461;    4,070;   -1,955
751,398;27407,425;   -0,112;   -0,045
751,967;26921,298;    2,888;    0,409
752,536;27069,261;    1,161;   -0,227
753,105;27502,589;   -1,384;    0,227
753,675;27295,461;   -0,112;    1,773
754,244;27298,698;    0,888;    3,591
754,813;27367,934;    0,979;    1,227
755,382;26936,170;    0,798;    0,955
755,951;27447,407;   -0,112;    3,682
756,520;26998,461;    2,525;    1,864
757,089;27528,334;    1,888;    0,500
757,658;27684,479;    2,434;    1,227
758,227;27703,352;   -1,111;    0,318
758,795;28018,225;   -1,021;    1,136
759,364;28230,734;    0,525;   -0,591
759,933;27195,698;    1,343;   -0,045
760,501;26750,207;    0,252;   -1,318
761,070;27231,261;   -0,293;   -1,409
761,639;27999,861;    1,434;    1,318
762,207;27251,825;    0,889;   -0,955
762,776;27178,970;    2,889;    0,864
763,344;27098,570;    0,071;    0,591
763,913;26212,988;    1,616;    1,409
764,481;27003,134;    1,980;   -0,136
765,049;26824,552;    0,616;    1,409
765,618;26692,697;    1,434;    0,318
766,186;26812,934;    2,434;    0,136
766,754;26958,079;    1,798;    1,864
767,322;25921,952;    1,162;    0,409
767,890;25956,006;    0,525;   -1,773
768,459;26350,697;    2,616;   -0,318
769,027;26495,934;    2,525;    3,409
769,595;25501,170;    2,616;    2,591
770,163;25909,043;    3,344;    2,955
770,730;25650,461;    2,525;   -0,136
771,298;25512,243;    1,162;   -1,409
771,866;25649,115;    0,253;    4,955
772,434;25951,352;    1,162;   -1,864
773,002;26145,952;    2,616;    0,682
773,569;25748,188;    1,071;    1,682
774,137;25569,152;    0,889;   -0,045
774,705;26318,115;   -0,747;   -0,136
775,272;25811,352;    0,253;    0,682
775,840;25619,861;   -0,111;    2,682
776,407;25122,279;   -0,293;    1,955
776,975;24697,334;    1,162;    0,318
777,542;25764,752;    2,162;   -0,045
778,110;25567,534;    0,707;   -0,045
778,677;25200,770;    1,071;   -0,864
779,244;25007,279;   -1,020;    1,045
779,812;25146,061;    0,980;    0,864
780,379;24953,843;    2,435;    1,136
780,946;25180,715;    2,617;   -0,773
781,513;25491,043;   -0,565;    0,318
782,080;24766,188;    1,253;    2,864
782,647;25561,697;    1,708;    3,045
783,214;25207,933;   -0,201;    3,864
783,781;24792,261;    1,708;   -0,682
784,348;24659,952;    0,253;    1,500
784,915;25131,370;   -1,474;    0,318
785,482;24906,697;    2,708;    2,591
786,049;25366,843;    1,071;   -0,591
786,615;25424,624;    1,708;   -0,955
787,182;25196,043;   -3,201;   -0,682
787,749;24851,279;   -2,201;    1,409
788,315;24151,333;    0,253;   -0,409
788,882;24456,661;    0,981;   -1,227
789,448;25144,624;    1,435;   -0,955
790,015;25185,406;    1,799;    3,227
790,581;24717,097;    0,708;    0,227
791,148;24625,788;    1,344;    1,045
791,714;24837,024;   -1,019;    3,136
792,280;24522,624;    3,708;    1,591
792,847;24114,406;   -0,928;    2,500
793,413;24663,188;   -0,110;   -0,318
793,979;24175,424;    1,526;   -1,318
794,545;24228,933;    2,981;    2,682
795,111;23608,715;    2,435;    1,318
795,678;23779,042;    3,526;   -1,682
796,244;23471,551;    2,799;    0,136
796,810;24019,970;    0,799;    0,773
797,375;23753,751;   -0,292;   -2,136
797,941;23786,988;   -1,110;    0,591
798,507;23874,042;    0,254;   -0,955
799,073;23400,642;    2,708;    0,591
799,639;23519,879;    1,435;    3,136
800,205;23558,933;   -1,565;    2,682
800,770;23110,170;    1,345;    1,773
801,336;23134,133;    2,981;   -0,955
801,901;22813,188;    6,072;    3,136
802,467;23362,060;    0,526;    2,045
803,033;22762,206;   -0,019;    0,864
803,598;22930,624;    1,072;   -1,045
804,163;22969,860;    0,708;   -0,318
804,729;22927,551;   -0,110;    1,136
805,294;23347,242;    1,072;    2,227
805,859;23138,751;    0,890;   -0,409
806,425;22560,715;    3,890;    2,682
806,990;22244,860;    1,890;    4,318
807,555;22749,279;   -0,110;    2,591
808,120;22647,424;   -1,292;   -0,409
808,685;22706,751;    1,072;   -2,500
809,250;22221,169;    2,072;   -0,500
809,815;22500,951;   -0,201;    0,682
810,380;23026,642;    0,981;    1,591
810,945;23502,515;    2,890;    2,045
811,510;22774,933;   -0,200;    1,591
812,075;22408,078;    2,800;   -1,409
812,640;22467,224;    3,709;    1,409
813,204;22538,551;    2,163;   -0,227
813,769;23056,697;    0,254;   -0,045
814,334;22457,660;    0,527;    0,864
814,898;22469,169;    1,981;    0,591
815,463;22305,224;    0,981;   -0,773
816,027;22279,460;    1,345;   -2,318
816,592;22387,697;    2,163;   -2,045
817,156;21899,024;   -2,200;    1,136
817,721;21686,078;    0,982;    2,318
818,285;21684,860;    0,618;    1,500
818,849;22410,551;   -0,018;    1,682
819,414;22240,242;    0,073;    2,955
819,978;21820,478;   -0,291;    1,773
820,542;22423,715;    2,891;    0,500
821,106;22139,406;    2,800;    0,682
821,670;22196,733;    2,709;    2,591
822,234;21899,151;    1,073;    1,409
822,798;21328,842;   -0,836;    0,500
823,362;21295,260;    1,527;    4,227
823,926;20564,587;   -0,018;    1,136
824,490;20777,551;    3,527;   -0,682
825,054;21260,878;    2,527;   -1,136
825,618;20882,478;   -1,200;   -1,500
826,181;20820,260;    0,982;   -1,318
826,745;20708,315;   -0,745;   -1,045
827,309;21049,187;    2,255;    1,318
827,872;20442,787;    0,527;    0,955
828,436;21456,842;    1,982;   -0,773
828,999;21551,533;    2,436;    1,227
829,563;20329,042;   -0,654;    1,136
830,126;20166,096;   -0,018;   -0,591
830,690;20156,696;    0,709;    2,864
831,253;19702,296;   -0,473;    2,227
831,816;19867,169;   -0,018;    0,500
832,380;19752,405;    1,164;    0,864
832,943;19954,187;    3,073;   -0,500
833,506;19488,969;    0,255;   -1,227
834,069;20276,569;    2,164;   -0,955
834,632;20307,078;   -2,200;    1,318
835,195;20174,951;    1,346;    0,955
835,758;19398,551;    0,709;    1,955
836,321;19201,333;    1,073;   -1,045
836,884;19348,660;   -1,291;   -0,955
837,447;19376,078;    0,528;    1,773
838,010;19644,951;    1,800;    3,227
838,573;19964,278;    0,528;    0,773
839,135;19900,696;   -0,109;   -0,955
839,698;19334,478;    2,528;    0,409
840,261;18845,896;    0,255;   -0,227
840,823;18726,769;   -0,927;    0,864
841,386;18988,005;   -0,018;   -2,409
841,948;18856,332;    0,255;    1,773
842,511;18597,569;    0,255;    1,682
843,073;18714,987;    2,982;    0,227
843,636;18567,678;    0,619;   -0,227
844,198;18465,460;    1,255;    0,591
844,760;18586,242;    0,619;    1,955
845,322;18189,842;    0,164;    1,136
845,885;18639,078;   -0,290;    0,591
846,447;19119,314;    0,710;    0,227
847,009;18648,641;    3,983;   -0,682
847,571;19034,151;    1,346;   -2,045
848,133;19079,387;   -0,199;   -1,864
848,695;18907,078;    2,346;    1,409
849,257;18461,132;    1,346;   -1,682
849,819;18646,096;    2,983;   -0,409
850,381;18680,514;    1,801;   -0,864
850,942;19049,387;    1,892;   -0,591
851,504;18932,260;    0,983;    0,227
852,066;18976,496;    1,619;   -1,591
852,628;18591,096;    0,165;    1,955
853,189;18074,332;    0,256;    2,682
853,751;18258,023;   -0,654;    1,409
854,312;18074,623;    1,256;   -1,682
854,874;18580,587;   -0,108;   -0,773
855,435;19057,369;    0,528;   -1,682
855,997;19171,787;    3,983;   -0,136
856,558;18451,114;    0,801;    1,773
857,119;18606,896;   -0,744;    2,864
857,681;18233,405;   -0,108;    0,318
858,242;18246,823;    1,347;   -2,136
858,803;18732,969;    1,074;   -0,773
859,364;19304,841;    0,892;   -4,773
859,925;18664,078;   -0,290;   -0,955
860,486;18569,132;    0,529;   -0,955
861,047;18281,914;    0,165;   -1,227
861,608;18070,423;    0,165;   -0,773
862,169;18281,569;   -0,562;   -0,045
862,730;18073,441;   -0,290;    1,409
863,291;18271,405;    0,438;   -0,500
863,852;18560,005;   -0,926;    1,955
864,412;18033,968;   -1,835;   -0,864
864,973;16615,568;    1,892;    0,500
865,534;16456,168;    2,074;    0,227
866,094;17934,768;    2,620;    0,227
866,655;17598,914;    4,711;    3,318
867,215;17889,241;    0,074;    0,136
867,776;17763,841;   -1,199;   -0,136
868,336;17850,805;    1,529;    0,136
868,897;17275,768;    3,438;    1,682
869,457;17060,641;    3,256;    0,318
870,017;17344,696;    2,438;   -1,227
870,578;17864,932;    1,893;    0,773
871,138;17469,077;    2,620;   -0,955
871,698;17025,677;   -0,562;   -1,318
872,258;16893,096;    0,711;   -2,864
872,818;17263,968;    2,347;    0,045
873,378;17251,568;   -2,198;    1,045
873,938;16796,441;    4,984;    0,500
874,498;17108,586;    1,256;   -1,955
875,058;17011,368;    4,347;    1,773
875,618;16847,514;    1,438;   -2,682
876,177;16798,841;   -0,471;    0,136
876,737;16367,714;   -0,289;    1,955
877,297;16354,496;    2,711;    1,955
877,856;16395,914;    2,529;    0,318
878,416;16324,059;    2,438;   -0,136
878,976;16560,750;    3,438;    0,409
879,535;16724,259;    4,529;    3,136
880,095;16448,041;    1,347;    0,045
880,654;16577,823;    0,347;    1,318
881,213;16670,332;    2,347;    1,500
881,773;16339,477;    1,984;    2,682
882,332;16677,441;    6,075;    5,136
882,891;16540,768;    0,711;    2,136
883,451;16991,823;   -2,016;    1,682
884,010;16470,059;   -1,107;   -0,409
884,569;16550,386;   -2,289;   -0,045
885,128;16669,895;   -0,743;   -1,864
885,687;16767,404;   -0,743;    0,682
886,246;16459,550;    2,620;    2,136
886,805;16176,423;    1,620;    2,045
887,364;16500,841;    1,166;   -0,500
887,922;16841,441;   -0,016;    0,045
888,481;16342,404;    1,530;    0,591
889,040;16619,823;    3,711;    2,136
889,599;17335,968;    2,166;    1,409
890,157;17456,295;    2,166;    2,409
890,716;17127,986;    2,166;    0,227
891,274;16868,677;    0,075;   -1,136
891,833;17285,641;    1,166;    0,864
892,391;17211,241;    1,802;    0,500
892,950;17309,386;    0,166;   -0,773
893,508;17623,350;    0,984;   -0,409
894,067;16964,404;   -0,379;    0,136
894,625;16858,004;   -1,016;   -1,500
895,183;17058,422;   -0,198;   -0,682
895,741;16986,204;    2,257;   -1,773
896,299;16813,986;    1,621;   -2,409
896,858;16987,677;    1,530;   -1,591
897,416;17125,277;    0,166;   -1,318
897,974;16902,241;   -2,197;    0,318
898,532;16999,750;    6,530;    2,682
899,089;16857,895;    0,621;   -0,682
899,647;16962,313;    0,530;    1,318
900,205;16723,731;    0,257;    1,045
900,763;16931,150;    2,166;    0,227
901,321;16941,386;    3,530;   -1,409
901,878;16366,077;    3,257;   -0,773
902,436;16194,586;    0,257;    1,318
902,994;16629,004;    6,712;    3,682
903,551;16042,786;    1,439;    0,409
904,109;16471,022;    1,530;   -1,409
904,666;16053,441;    1,439;    1,045
905,224;15853,677;    3,894;   -0,409
905,781;15595,731;   -0,470;   -0,318
906,338;15698,331;    0,167;    1,045
906,895;15599,659;    1,894;    2,045
907,453;15503,804;    2,348;    1,136
908,010;15511,586;    3,348;    0,409
908,567;15180,640;   -0,561;    0,591
909,124;14738,968;    2,439;   -1,500
909,681;14783,477;   -1,288;    0,682
910,238;14940,168;   -0,106;   -1,318
910,795;15230,404;   -1,561;   -1,136
911,352;14854,949;   -0,379;   -2,682
911,909;14282,495;    2,803;   -0,864
912,466;14785,222;    1,985;    1,500
913,022;14324,495;   -0,924;    0,500
913,579;14658,222;   -0,470;    2,045
914,136;14353,677;   -2,561;    0,955
914,692;14725,040;    1,530;   -1,227
915,249;14290,313;    0,530;    0,409
915,806;14522,040;    1,803;    1,955
916,362;14228,586;    0,894;    1,864
916,918;13769,404;    2,439;    1,045
917,475;13752,495;    1,621;    0,955
918,031;13847,495;    0,076;   -0,045
918,587;13335,949;    0,621;   -0,318
919,144;13566,222;   -0,379;    0,227
919,700;13937,949;    0,167;    0,773
920,256;13489,313;    0,439;    0,045
920,812;13085,586;    1,439;   -1,045
921,368;13087,859;    1,348;   -1,045
921,924;12763,495;    0,439;   -0,136
922,480;12331,495;    0,076;    1,227
923,036;12923,404;   -0,652;    1,955
923,592;12859,949;    0,621;    0,318
924,148;12796,222;    1,894;   -0,955
924,704;12127,131;    0,258;   -0,409
925,259;12409,949;   -0,561;    0,591
925,815;12149,859;    3,803;    0,500
926,371;11694,677;    3,530;    1,409
926,926;11553,768;    1,621;    0,591
927,482;11178,859;    1,621;    0,773
928,037;11063,131;   -0,833;    2,045
928,593;11384,586;    0,258;    1,045
929,148;11151,313;    1,167;   -1,500
929,704;10714,222;    2,439;   -0,500
930,259;10896,949;    0,894;   -0,136
930,814; 9991,859;    1,803;    1,955
931,369; 9695,495;    0,258;   -0,773
931,925; 9570,586;   -1,924;    0,136
932,480; 9482,313;    3,076;   -2,591
933,035; 9364,313;    3,985;   -0,318
933,590; 9128,495;   -1,742;   -1,773
934,145; 8776,404;   -1,288;   -0,318
934,700; 9135,495;    0,348;   -0,591
935,255; 8923,313;    4,803;    0,045
935,809; 8180,768;    6,258;    0,864
936,364; 7334,404;    2,167;   -0,136
936,919; 7349,404;    2,348;   -1,773
937,474; 7241,949;    1,348;    0,136
938,028; 6994,768;    3,076;    1,136
938,583; 6452,949;    6,348;    4,682
939,138; 6756,586;    0,167;    2,136
939,692; 6234,404;   -1,015;   -1,136
940,247; 5885,313;    1,167;   -1,045
940,801; 5445,404;    0,621;    0,227
941,355; 5371,586;    0,439;    2,591
941,910; 5063,040;    0,712;   -2,136
942,464; 5137,222;    2,712;   -0,318
943,018; 4932,040;    3,258;   -0,227
943,572; 4881,949;    2,803;   -0,682
944,126; 4299,677;   -0,924;   -0,409
944,681; 4180,677;    0,712;    0,227
945,235; 4164,040;    2,167;   -0,591
945,789; 4112,586;    1,258;   -1,864
946,342; 4202,677;   -0,561;   -0,591
946,896; 4012,404;    0,348;    0,955
947,450; 3768,222;   -0,561;   -0,227
948,004; 3957,949;    1,076;   -0,045
948,558; 3968,949;    1,258;   -0,864
949,111; 3898,495;   -1,197;   -0,318
949,665; 3921,222;   -0,106;   -0,682
950,219; 3784,313;    0,621;   -1,045
950,772; 3865,586;    0,258;    1,864
951,326; 3783,404;   -1,106;   -0,955
951,879; 3875,040;    1,076;   -2,318
952,433; 3911,131;    1,348;    2,227
952,986; 3748,404;    0,348;    0,682
953,539; 3682,131;    1,530;    0,591
954,093; 3624,949;    0,985;   -1,318
954,646; 3759,495;   -0,288;    1,318
955,199; 3563,040;    1,258;   -0,500
955,752; 3446,949;    1,985;    1,773
956,305; 3423,768;    0,894;    2,955
956,858; 3588,131;    0,621;   -0,318
957,411; 3763,040;    3,621;    2,136
957,964; 3568,313;    2,076;    2,136
958,517; 3570,404;    0,985;    3,136
959,070; 3402,313;   -1,197;    1,955
959,623; 3484,040;    1,076;    1,500
960,176; 3271,677;    0,712;    2,045
960,728; 3231,222;    1,712;    0,773
961,281; 3295,040;    2,258;    0,500
961,834; 3329,949;   -0,833;    0,864
962,386; 3243,677;    1,258;    1,045
962,939; 3168,586;    3,439;   -0,318
963,491; 3328,404;    2,621;    1,136
964,043; 3197,586;    0,076;    2,409
964,596; 3302,859;    1,712;    2,227
965,148; 3134,040;   -0,379;    1,773
965,700; 3082,404;   -0,015;   -0,227
966,253; 3254,040;   -0,833;    0,318
966,805; 3085,222;    1,894;    0,773
967,357; 3128,768;    0,439;   -1,500
967,909; 3051,677;    1,167;   -1,227
968,461; 3173,313;    0,894;    3,136
969,013; 3110,586;   -1,561;   -0,864
969,565; 3182,768;    1,803;   -1,136
970,117; 3260,222;    3,803;    1,045
970,669; 3086,131;    3,258;   -0,136
971,220; 2944,859;    2,167;   -1,500
971,772; 2865,768;    1,348;   -0,318
972,324; 2999,040;   -1,197;   -0,500
972,876; 2952,040;    0,167;   -0,045
973,427; 3082,586;   -1,197;   -1,045
973,979; 3043,495;    0,076;   -2,500
974,530; 3057,949;    0,803;    1,318
975,082; 3078,859;    2,167;    1,682
975,633; 2975,313;    2,894;    1,682
976,184; 3144,313;    2,076;    0,773
976,736; 2933,404;    0,348;    0,227
977,287; 2713,586;    0,258;   -0,500
977,838; 2899,949;   -0,924;   -0,318
978,389; 2947,404;    0,803;   -0,500
978,940; 2831,859;    1,258;   -0,409
979,491; 2859,404;    2,258;   -0,500
980,042; 2807,586;   -0,652;    3,045
980,593; 2861,313;    1,894;    0,227
981,144; 2934,131;    3,530;   -0,500
981,695; 2893,040;   -0,470;    1,500
982,246; 2864,131;   -1,833;    1,045
982,797; 3001,768;   -0,561;    0,682
983,347; 3130,677;    2,167;    0,591
983,898; 3286,677;    4,167;    0,409
984,449; 3101,495;    2,530;    0,773
984,999; 3021,313;    1,894;   -1,136
985,550; 2785,222;    3,167;   -0,318
986,100; 2836,949;    0,712;   -0,318
986,651; 2865,768;    0,258;    0,045
987,201; 2841,495;    0,894;   -0,591
987,751; 2930,586;   -0,288;    2,864
988,302; 2893,313;   -0,379;    1,500
988,852; 2907,404;    1,985;   -1,136
989,402; 2956,495;    0,985;    0,682
989,952; 2881,768;    1,621;    0,864
990,502; 2984,222;    1,076;    0,682
991,052; 2951,859;   -0,106;    0,045
991,602; 2816,131;    1,167;    1,318
992,152; 2812,949;    2,803;    0,682
992,702; 2798,040;    1,167;   -0,045
993,252; 2698,677;    0,076;   -0,500
993,802; 2794,040;    1,167;    1,318
994,352; 3040,949;   -0,742;    1,136
994,901; 3134,859;    1,076;    3,227
995,451; 3056,313;   -1,197;    0,318
996,000; 3129,131;    1,076;    0,318
996,550; 2835,313;    2,894;    0,227
997,100; 2846,859;   -0,561;   -0,045
997,649; 3147,222;   -0,197;    0,955
998,198; 2769,859;   -0,288;   -1,500
998,748; 2940,131;    0,348;   -2,318
999,297; 2852,222;    0,985;   -0,409
999,846; 2939,404;    1,894;   -0,773
1000,395; 2982,677;    1,530;    0,500
1000,945; 2923,949;    1,076;   -0,773
1001,494; 2994,768;    0,167;    0,682
1002,043; 2982,040;    0,712;    0,864
1002,592; 2816,131;    3,439;    1,955
1003,141; 2983,222;    2,439;   -0,682
1003,690; 2824,222;    1,258;    0,500
1004,238; 2903,768;   -0,106;   -0,045
1004,787; 2543,222;   -1,288;    1,227
1005,336; 2762,404;    1,621;    0,682
1005,885; 2911,404;   -0,197;   -2,773
1006,433; 3045,313;   -0,470;    0,955
1006,982; 3117,859;    2,167;    1,682
1007,531; 3036,677;    2,712;   -0,227
1008,079; 2996,586;    0,258;    0,500
1008,627; 3135,586;    1,621;    0,409
1009,176; 2863,768;    0,076;   -1,955
1009,724; 2908,040;   -2,742;    0,864
1010,273; 2966,222;    1,076;    0,500
1010,821; 3090,949;    1,076;    1,409
1011,369; 2824,495;    0,076;    1,318
1011,917; 2804,677;   -0,833;   -0,591
1012,465; 3089,949;    2,530;   -1,591
1013,013; 3207,677;    0,439;   -1,682
1013,561; 3068,131;   -1,288;   -0,773
1014,109; 3110,859;   -0,833;    1,682
1014,657; 2988,859;    1,348;    0,591
1015,205; 3103,949;    0,894;   -0,955
1015,753; 3124,677;    0,258;   -1,409
1016,301; 3173,768;    2,621;    3,045
1016,848; 3193,313;    2,167;    0,409
1017,396; 3217,222;    1,621;    0,045
1017,944; 3339,404;    2,621;    1,864
1018,491; 3111,040;   -0,197;    1,409
1019,039; 3275,586;   -0,652;    0,591
1019,586; 3184,222;    0,076;    1,682
1020,134; 3267,404;    0,712;    1,500
1020,681; 3263,040;    2,894;   -1,136
1021,228; 3281,040;   -0,561;   -2,227
1021,776; 3135,949;   -0,833;   -1,136
1022,323; 3361,131;    0,803;    0,773
1022,870; 3292,949;   -0,470;   -0,045
1023,417; 3181,859;    2,076;    1,864
1023,964; 3339,313;    0,621;    1,227
1024,511; 3168,949;   -0,652;    0,773
1025,058; 2962,768;    0,439;   -0,045
1025,605; 2999,404;   -1,742;    3,136
1026,152; 3220,949;   -0,106;   -0,591
1026,699; 2962,131;    0,167;    1,318
1027,245; 3127,131;    2,439;    0,318
1027,792; 3340,586;    0,712;    1,409
1028,339; 3223,222;    4,076;   -0,045
1028,885; 3072,768;    3,621;   -0,227
1029,432; 3008,586;   -0,106;    0,227
1029,978; 3060,949;    1,348;   -1,591
1030,525; 2976,313;    1,621;    0,409
1031,071; 3237,313;    0,348;    1,136
1031,618; 3316,040;    1,258;    1,682
1032,164; 3088,586;    2,076;    3,045
1032,710; 3143,677;    0,076;   -1,500
1033,256; 3069,859;    0,712;   -0,136
1033,803; 3051,768;   -0,288;    1,500
1034,349; 2813,222;    1,803;    0,136
1034,895; 2966,586;    2,621;   -0,318
1035,441; 2929,768;    0,439;    0,318
1035,987; 2931,313;   -2,288;   -0,682
1036,533; 2945,949;   -0,197;   -0,955
1037,078; 3154,495;    4,712;    1,682
1037,624; 2979,949;    2,439;   -0,955
1038,170; 2988,495;    1,712;   -0,318
1038,716; 2880,313;    2,167;   -0,409
1039,261; 2797,677;    2,167;   -0,773
1039,807; 2745,222;   -0,015;    3,409
1040,352; 2811,040;   -1,288;   -0,318
1040,898; 2834,859;    0,167;   -0,682
1041,443; 2768,677;    0,803;   -2,591
1041,989; 2798,495;    3,621;    1,591
1042,534; 2665,131;    0,985;    2,591
1043,079; 2779,404;    1,985;    0,955
1043,625; 2570,586;    0,258;    0,500
1044,170; 2603,586;    2,439;    1,045
1044,715; 2868,949;    0,167;    0,955
1045,260; 2682,586;   -0,833;   -0,955
1045,805; 2735,404;    0,258;   -0,591
1046,350; 2690,949;    0,530;   -0,409
1046,895; 2651,768;    0,803;    1,591
1047,440; 2582,586;    1,530;    0,409
1047,985; 2474,495;   -1,197;   -0,955
1048,530; 2410,495;    1,348;    1,227
1049,074; 2484,313;    2,803;    0,318
1049,619; 2459,404;   -0,924;    1,955
1050,164; 2238,586;    1,076;    0,227
1050,708; 2290,222;    2,621;    0,045
1051,253; 2675,313;    3,258;   -2,227
1051,797; 2384,859;   -0,197;   -1,318
1052,342; 2394,131;    1,348;    1,045
1052,886; 2384,040;    1,803;   -1,409
1053,430; 2275,677;    2,167;    0,136
1053,975; 2289,495;    0,894;   -0,318
1054,519; 2263,040;    1,803;    3,227
1055,063; 2270,313;    3,621;    1,318
1055,607; 2161,404;    1,348;    0,227
1056,151; 2188,859;    0,530;    1,682
1056,695; 2106,859;   -1,833;   -1,136
1057,239; 2152,313;   -1,197;   -0,682
1057,783; 2172,040;    2,258;   -1,500
1058,327; 2134,404;    3,076;    1,409
1058,871; 2352,313;    3,985;    1,318
1059,415; 2063,768;   -0,561;   -0,045
1059,958; 2304,313;    2,985;    2,591
1060,502; 2035,586;    1,348;   -0,773
1061,046; 1957,131;    1,712;   -0,955
1061,589; 1928,131;    2,803;   -1,136
1062,133; 1806,677;    0,985;    1,864
1062,676; 1749,040;    1,439;    0,864
1063,220; 1755,495;    0,985;    0,500
1063,763; 1774,222;    2,985;    1,136
1064,306; 1854,677;    0,985;    1,864
1064,849; 1746,859;    2,076;    0,591
1065,393; 1752,404;    2,894;   -1,500
1065,936; 1858,859;    2,530;   -0,409
1066,479; 1743,495;    2,621;    1,318
1067,022; 1779,131;    1,894;   -0,227
1067,565; 1681,131;   -1,197;   -1,318
1068,108; 1705,768;    1,258;   -0,591
1068,651; 1688,949;   -2,470;    1,409
1069,194; 1611,768;   -1,106;   -1,682
1069,736; 1595,586;    3,803;    0,955
1070,279; 1585,586;   -1,652;   -0,500
1070,822; 1636,313;    1,530;   -0,318
1071,364; 1702,040;    0,530;    1,318
1071,907; 1534,222;    0,348;    3,227
1072,450; 1451,768;    0,258;   -0,045
1072,992; 1441,768;   -0,561;    3,136
1073,535; 1581,586;    0,167;    2,136
1074,077; 1381,949;    2,985;    2,045
1074,619; 1340,859;    0,985;    0,591
1075,161; 1373,040;   -0,561;    1,500
1075,704; 1553,495;    0,258;    1,227
1076,246; 1358,677;    1,530;    0,682
1076,788; 1280,677;   -1,015;    1,773
1077,330; 1362,949;   -2,106;    2,136
1077,872; 1323,222;   -1,924;    0,955
1078,414; 1549,222;    3,712;    0,773
1078,956; 1283,404;    0,167;   -0,227
1079,498; 1518,677;    0,439;    0,318
1080,040; 1236,404;    0,985;   -1,318
1080,581; 1189,404;    0,621;   -0,318
1081,123; 1122,222;   -0,106;   -0,773
1081,665; 1169,677;    3,803;   -0,955
1082,206; 1432,768;    3,258;   -0,500
1082,748; 1323,586;    3,258;    2,045
1083,289; 1214,313;    0,167;    1,318
1083,831; 1118,404;    0,258;    0,227
1084,372; 1142,040;    0,894;    0,591
1084,913; 1129,222;    3,348;    0,864
1085,455; 1118,222;    1,530;   -2,045
1085,996; 1078,768;    0,530;    0,136
1086,537; 1092,859;    0,985;    0,864
1087,078; 1133,768;    0,439;   -2,136
1087,619; 1181,222;   -1,652;    0,227
1088,160; 1090,677;    1,439;    1,318
1088,701; 1072,040;   -0,742;    0,682
1089,242; 1020,131;   -0,561;   -2,227
1089,783; 1102,222;   -0,561;    1,409
1090,324; 1083,949;   -0,833;    0,682
1090,865;  960,859;   -1,924;   -0,409
1091,405;  937,586;   -0,561;    2,227
1091,946;  968,949;   -0,197;   -0,955
1092,487;  905,677;   -1,288;   -1,409
1093,027; 1057,495;    1,803;   -1,500
1093,568;  916,586;    2,258;    1,227
1094,108;  993,677;    0,621;    1,773
1094,649;  949,859;   -0,470;    0,136
1095,189;  885,859;    1,167;   -0,682
1095,729;  826,677;    0,712;    0,955
1096,269;  848,677;    1,258;   -0,955
1096,810; 1138,677;   -0,197;    0,500
1097,350;  971,131;   -0,561;   -0,773
1097,890;  877,768;    2,985;    1,227
1098,430; 1112,131;    4,985;    2,864
1098,970;  998,859;    1,894;    1,682
1099,510;  874,677;   -0,833;   -2,318
1100,050;  799,586;    0,258;   -1,591
1100,589;  771,859;    0,076;   -0,318
1101,129;  891,586;    0,894;   -0,955
1101,669; 1026,768;    2,803;    2,136
1102,209;  857,222;    1,530;    2,227
1102,748;  807,040;    3,439;    0,955
1103,288;  799,495;    0,712;   -1,227
1103,827;  812,404;    3,530;   -2,227
1104,367;  709,131;    1,712;   -2,409
1104,906;  675,495;   -1,015;   -1,136
1105,445;  737,040;    0,985;   -1,136
1105,985;  691,222;   -0,652;    1,500
1106,524;  724,313;    1,530;   -0,682
1107,063;  696,313;    1,167;    1,409
1107,602;  688,404;    1,894;   -1,500
1108,141;  615,768;    1,621;    1,500
1108,680;  700,495;    3,985;   -0,591
1109,219;  649,131;    0,167;   -0,500
1109,758;  654,040;    4,167;    0,682
1110,297;  636,404;   -1,106;   -0,682
1110,836;  573,222;    1,439;    0,955
1111,375;  720,404;    0,348;    0,409
1111,913;  727,677;    0,985;    0,773
1112,452;  672,677;    0,894;    0,136
1112,991;  569,404;    1,076;    1,955
1113,529;  530,586;    0,167;   -0,045
1114,068;  591,040;    0,439;    2,955
1114,606;  493,040;   -0,561;   -0,955
1115,144;  648,859;    1,530;    1,045
1115,683;  588,586;    1,985;    0,318
1116,221;  631,131;    2,076;   -0,864
1116,759;  557,495;    1,621;   -0,864
1117,297;  733,495;    1,621;    1,864
1117,836;  553,495;    1,985;   -1,227
1118,374;  544,768;    0,258;   -0,682
1118,912;  508,131;    0,439;    2,682
1119,450;  496,313;    0,985;    0,864
1119,988;  536,677;    3,348;    2,136
1120,525;  979,404;    7,258;    3,318
1121,063;  681,949;    0,530;    1,864
1121,601;  501,313;    1,076;   -1,227
1122,139;  456,313;    1,076;   -2,045
1122,676;  646,859;   -1,652;    2,773
1123,214;  589,677;    0,712;    4,409
1123,751;  403,677;    0,621;    2,227
1124,289;  525,768;    0,894;   -0,409
1124,826;  416,495;   -0,379;    0,227
1125,364;  334,222;    0,712;   -0,955
1125,901;  511,040;    6,258;    1,227
1126,438;  615,768;    3,530;    0,955
1126,975;  358,495;    2,985;   -0,773
1127,513;  409,313;    2,621;    2,136
1128,050;  333,949;   -0,561;   -0,682
1128,587;  423,495;    1,348;   -0,227
1129,124;  459,222;   -0,015;    1,318
1129,661;  347,586;   -1,924;    0,227
1130,198;  500,222;    2,439;    0,773
1130,734;  442,859;   -0,379;    1,409
1131,271;  316,677;   -1,197;    0,864
1131,808;  476,949;    1,621;    3,045
1132,345;  347,404;    4,530;    0,318
1132,881;  236,495;   -0,561;   -1,864
1133,418;  366,949;    0,348;   -1,136
1133,954;  312,222;    0,712;   -2,682
1134,491;  371,495;    1,712;   -0,773
1135,027;  280,222;    2,167;    0,864
1135,564;  350,495;    1,439;    2,955
1136,100;  335,313;   -0,742;    2,136
1136,636;  251,404;   -1,015;   -1,045
1137,172;  325,495;    0,894;   -1,045
1137,708;  258,859;   -1,561;   -1,045
1138,245;  261,586;    0,803;   -1,227
1138,781;  224,859;    1,803;   -3,318
1139,317;  280,949;    1,894;   -1,409
1139,852;  269,949;    3,076;    0,136
1140,388;  367,313;    2,076;   -0,409
1140,924;  263,040;    1,076;   -2,227
1141,460;  210,495;   -0,288;    0,136
1141,996;  161,313;   -0,652;    2,682
1142,531;  195,859;    1,076;    3,318
1143,067;  400,768;    1,167;    1,045
1143,602;  448,677;    3,439;   -0,318
1144,138;  302,222;    0,803;    1,045
1144,673;  180,495;    1,621;    1,409
1145,209;  243,586;    2,894;   -0,318
1145,744;  171,586;    0,803;    0,864
1146,279;  293,313;    1,530;   -0,136
1146,815;  212,404;    1,530;   -2,682
1147,350;  245,768;   -0,924;    0,045
1147,885;  170,586;   -1,924;   -1,318
1148,420;  171,040;    2,439;    0,773
1148,955;  155,404;   -1,470;    1,864
1149,490;  178,859;   -1,106;   -1,591
1150,025;  159,495;   -1,106;   -1,773
1150,560;  253,768;   -0,288;   -0,955
1151,094;  229,677;    0,258;   -0,591
1151,629;  233,040;   -3,742;    0,864
1152,164;  171,586;   -1,288;    1,318
1152,698;  129,586;    1,258;   -0,136
1153,233;   94,949;   -1,379;   -0,682
1153,767;  135,586;   -0,288;   -2,318
1154,302;  183,495;   -0,379;    1,773
1154,836;  180,040;    0,803;   -2,136
1155,371;  216,404;    2,258;    3,682
1155,905;  181,222;    1,985;    1,682
1156,439;  163,768;    0,530;   -0,500
1156,973;  187,222;    0,439;    0,318
1157,507;  126,677;   -1,742;    0,682
1158,042;  153,495;   -0,652;    1,045
1158,576;  192,949;   -0,561;    1,773
1159,110;  186,586;    0,076;    2,409
1159,643;  158,040;   -2,470;   -0,045
1160,177;  111,677;   -2,015;    1,500

