
Integration time [ms]:   0,050
Averaging Nr. [scans]: 11
Smoothing Nr. [pixels]: 0
Data measured with spectrometer [name]: 7318044SP
Wave   ;Sample   ;Dark     ;Reference
[nm]   ;[counts] ;[counts] ;[counts] 

186,757;  -26,646;   38,161;    1,318
187,357;   -6,256;   26,706;    0,955
187,958;  -12,261;   17,252;   -1,591
188,558;   15,522;   12,979;   -1,227
189,159;   -5,780;   10,070;   -4,500
189,759;  -26,729;    5,797;   -3,591
190,360;  -28,517;    6,797;   -2,136
190,960;   -4,922;    5,706;   -4,136
191,560;    0,972;    2,614;   -6,591
192,161;  179,580;    5,885;   -3,500
192,761;   53,512;    5,520;   -3,227
193,361;   10,048;    3,065;   -3,773
193,962;   48,485;    1,612;   -2,682
194,562;   -3,331;   -0,114;   -3,955
195,162;    1,920;   -0,567;   -2,227
195,762;  105,274;    2,433;   -0,045
196,362;   49,721;    1,706;   -2,500
196,963;  -19,037;    1,706;   -0,864
197,563;   25,711;    1,252;   -0,955
198,163;  -16,921;   -0,111;   -0,682
198,763;   -7,280;   -0,020;   -0,500
199,363;   35,345;    3,616;   -0,500
199,963;   21,478;    2,162;    0,409
200,563;    9,146;    6,344;   -1,409
201,163;   -9,436;    5,435;   -0,227
201,763;   16,438;    1,435;    0,318
202,363;  -12,714;    0,980;    1,500
202,963;   21,827;    1,526;    1,045
203,563;   64,237;    0,344;    0,500
204,162;    7,538;    1,889;   -1,864
204,762;    1,020;    2,071;    0,591
205,362;   -6,859;    0,708;    1,955
205,962;   12,375;    3,435;    1,955
206,562;    3,111;    1,889;    2,318
207,161;   -6,572;    1,708;    0,318
207,761;   55,325;    4,435;    2,409
208,361;    0,279;    1,889;    1,409
208,960;   17,869;    2,889;    1,500
209,560;   18,768;    0,435;    1,591
210,160;   25,670;    5,071;    1,864
210,759;    3,906;    0,708;    1,227
211,359;   -5,582;   -0,474;    1,045
211,958;   88,964;    3,526;    2,045
212,558;   87,922;    0,799;    1,864
213,157;   28,286;   -0,929;    1,500
213,757;  154,642;    5,617;   -0,227
214,356;   50,927;    1,708;   -0,409
214,956;  133,055;    3,526;    0,409
215,555;   33,222;    0,617;    2,136
216,154;    0,982;   -0,292;   -0,591
216,754;    1,423;    1,253;    0,773
217,353;   11,516;   -0,383;   -1,045
217,952;  -19,209;    2,072;    0,318
218,552;   32,162;    0,254;   -0,773
219,151;    1,369;   -1,110;    0,955
219,750;   -5,160;    0,890;   -0,227
220,349;  -14,018;   -2,292;    1,045
220,948;   38,262;    1,163;    1,136
221,548;   -4,153;    0,617;    1,227
222,147;    8,117;   -1,292;   -0,409
222,746;   75,059;    1,254;   -0,955
223,345;   21,730;   -1,019;    0,500
223,944;   20,383;    1,163;    0,773
224,543;   31,383;    4,072;   -1,409
225,142;   14,837;    1,345;    0,136
225,741;   17,763;    1,163;    1,045
226,340;    7,103;    1,254;   -0,955
226,939;   55,013;    2,708;   -0,136
227,538;    3,047;    1,163;   -0,773
228,137;   62,833;    0,435;    0,864
228,735;   36,826;    0,435;    1,227
229,334;  -20,006;   -0,474;   -0,227
229,933;   70,073;    0,799;    0,591
230,532;   57,989;   -1,201;   -0,409
231,131;   91,330;    1,253;    0,318
231,729;   26,766;    1,163;   -2,318
232,328;   -3,379;    0,435;   -1,500
232,927;   14,437;    4,526;   -0,500
233,525;   11,672;    0,981;    0,045
234,124;   23,230;    1,890;   -1,591
234,723;   -5,806;    1,617;   -1,045
235,321;   -8,726;    1,163;    0,136
235,920;   -2,318;    2,526;   -1,227
236,518;   60,488;    1,072;    0,318
237,117;    0,912;    2,890;   -0,227
237,715;    8,877;    1,163;   -0,500
238,314;   23,465;    1,708;   -2,318
238,912;   72,407;    0,526;   -1,409
239,510;   34,561;    1,162;   -1,227
240,109;   74,232;   -0,474;    3,773
240,707;   49,053;   -0,474;    1,227
241,305;   -6,321;   -0,383;    0,136
241,904;   24,589;   -0,292;   -2,045
242,502;   85,428;    3,253;   -0,227
243,100;   34,773;    3,344;   -0,955
243,698;   -5,262;    2,799;    1,682
244,297;   12,274;   -0,656;    0,682
244,895;    5,987;   -0,474;   -2,318
245,493;   71,842;    2,981;   -0,591
246,091;   85,509;    5,163;   -1,318
246,689;   37,866;    2,163;    0,591
247,287;   29,826;   -0,019;   -1,136
247,885;   18,784;   -1,019;    1,227
248,483;    2,514;   -0,201;   -0,500
249,081;   35,884;    0,981;    1,591
249,679;   40,616;   -1,019;    1,682
250,277;    1,735;   -2,292;    0,864
250,875;   30,234;    0,617;   -1,045
251,473;    2,588;   -0,019;    0,500
252,071;   42,695;   -0,383;    1,045
252,669;   12,019;   -1,565;    0,318
253,267;    1,439;    1,618;    0,773
253,864;    5,644;    0,617;    0,682
254,462;   49,490;    1,526;    1,591
255,060;    1,910;    0,072;    1,318
255,658;   -3,526;   -3,292;   -0,136
256,255;   10,455;   -0,201;   -2,045
256,853;   30,420;    2,345;    1,409
257,451;    4,010;    1,981;    1,864
258,048;  156,066;    2,072;    1,864
258,646;   59,665;    0,436;   -1,045
259,243;   93,511;    2,981;    2,227
259,841;   44,266;    1,799;    0,318
260,438;   -1,514;    0,254;    0,864
261,036;   40,404;    0,617;    1,409
261,633;   14,033;    1,526;    2,227
262,231;   -6,787;   -0,110;   -0,045
262,828;  -15,099;   -0,383;    1,136
263,425;   -5,675;   -1,928;   -0,591
264,023;    3,728;    1,436;    0,045
264,620;   42,015;    1,526;   -0,318
265,217;   85,390;    2,890;    3,136
265,815;   12,961;    2,527;    2,136
266,412;   34,859;    0,072;    0,136
267,009;   32,730;    0,526;    0,773
267,606;   59,756;    0,345;   -0,955
268,203;   15,465;   -0,383;   -0,591
268,801;   17,954;   -0,474;    0,591
269,398;    4,565;   -0,564;    2,500
269,995;   37,810;    0,890;    1,591
270,592;   26,572;    0,799;   -0,500
271,189;   -7,312;    1,981;    0,409
271,786;  -16,726;    2,072;    1,227
272,383;   46,327;   -0,383;    0,227
272,980;   10,894;    1,617;    0,318
273,577;   -6,330;    2,162;    1,227
274,174;   -5,451;    1,435;    2,591
274,771;   35,928;    1,890;   -0,773
275,367;  186,572;    3,253;    1,409
275,964;   82,358;   -0,565;   -0,500
276,561;   13,859;   -2,474;   -1,045
277,158;  -10,657;    1,799;   -1,773
277,755;   77,520;   -0,110;    0,409
278,351;   40,931;    0,436;   -1,500
278,948;   49,390;   -0,201;    0,045
279,545;   32,157;    0,527;    2,318
280,141;   82,164;    1,254;   -2,045
280,738;   90,369;    2,435;   -0,136
281,334;   24,019;   -0,383;    0,591
281,931;   11,126;    2,890;   -1,318
282,528;   61,669;    4,072;   -0,500
283,124;   72,581;    3,345;   -0,500
283,721;   66,644;    0,709;    1,409
284,317;   28,653;    0,163;    2,500
284,913;   87,443;   -0,110;    0,591
285,510;  146,171;    2,890;   -0,318
286,106;   94,411;    2,345;   -0,955
286,703;   46,791;    0,072;    1,955
287,299;   21,903;    1,254;   -0,591
287,895;   15,866;    0,890;   -1,045
288,491;    9,019;    0,163;    2,136
289,088;   43,413;    0,163;    2,409
289,684;   52,928;    2,890;    1,500
290,280;  124,416;    1,890;    0,682
290,876;  100,157;    0,163;    5,500
291,472;   77,012;    2,163;    2,227
292,068;   95,425;    1,254;    0,227
292,665;   57,903;   -0,564;    0,773
293,261;   22,975;   -1,292;    2,136
293,857;  100,856;    4,072;    2,136
294,453;   68,430;   -0,928;    0,955
295,049;  174,656;    0,253;    1,955
295,644;  103,365;   -1,292;    0,136
296,240;   50,668;    0,162;   -0,136
296,836;  105,242;   -0,747;    0,318
297,432;  166,058;    2,980;   -0,500
298,028;  184,214;    0,435;    0,773
298,624;  133,717;    0,889;    1,864
299,220;  137,622;    0,435;    0,591
299,815;  130,953;    0,526;   -0,409
300,411;  196,838;    0,435;    1,773
301,007;  264,920;    1,889;    0,227
301,602;  170,041;    2,071;   -2,318
302,198;  278,669;    1,435;   -0,773
302,794;  189,295;    1,526;   -0,500
303,389;  141,225;    1,071;    1,045
303,985;  172,305;    1,253;    1,409
304,580;  286,379;    0,889;    1,591
305,176;  212,624;    0,344;    0,136
305,771;  121,538;   -0,929;   -1,227
306,367;  433,463;    3,071;    0,136
306,962;  261,314;    2,889;    1,500
307,558;  301,340;    2,435;    0,136
308,153;  327,267;   -0,383;   -1,136
308,748;  173,556;    0,162;    1,682
309,344;  454,041;    0,253;   -1,318
309,939;  446,647;    2,071;   -1,318
310,534;  226,617;   -2,020;   -1,682
311,130;  205,629;   -0,656;   -2,500
311,725;  165,230;    0,526;   -0,500
312,320;  192,113;    1,253;    0,045
312,915;  264,078;    2,890;   -1,045
313,510;  414,815;    0,526;   -0,500
314,105;  207,675;   -3,565;    1,409
314,700;  111,913;   -1,656;   -1,045
315,295;  161,288;   -0,020;    0,045
315,890;  118,300;   -0,292;    0,864
316,485;  182,426;    0,253;   -0,318
317,080;  123,146;   -0,929;    1,591
317,675;  311,120;    3,071;   -0,682
318,270;  463,067;    6,889;    3,318
318,865;  352,787;    2,435;    3,045
319,460;  231,463;   -1,565;    0,591
320,055;  125,328;   -2,565;   -1,227
320,650;  124,624;   -1,838;   -0,591
321,244;  123,727;    0,889;   -1,409
321,839;  121,661;    0,980;   -0,227
322,434;  137,659;   -0,111;   -1,591
323,029;  103,498;   -0,474;    1,591
323,623;   91,465;    0,798;    0,773
324,218;  206,631;    2,707;    1,409
324,812;  164,211;    0,889;    1,591
325,407;  148,099;   -0,929;    2,045
326,002;  249,354;    0,526;   -0,409
326,596;  208,347;   -0,656;    1,318
327,191;  117,864;   -0,383;   -1,045
327,785;  122,347;   -0,747;   -0,227
328,379;  111,533;   -0,383;    0,136
328,974;  151,111;    1,798;   -3,955
329,568;  187,433;    2,889;   -2,409
330,163;  258,636;    2,435;    1,045
330,757;  146,959;    0,253;    1,591
331,351;  115,097;   -0,292;    0,682
331,945;  114,743;   -0,383;    1,409
332,540;  233,013;    1,617;   -0,591
333,134;  233,850;    3,344;    0,773
333,728;  262,253;    2,799;    0,318
334,322;  187,097;    0,889;   -0,864
334,916;  195,349;    0,344;    0,955
335,510;  350,934;   -0,111;   -0,136
336,105;  368,137;   -0,929;    1,591
336,699;  300,761;   -1,292;    0,591
337,293;  351,393;    1,071;    0,318
337,887;  316,782;    0,071;    1,955
338,481;  480,584;    2,980;    0,591
339,074;  612,705;    2,071;    2,682
339,668;  626,092;   -0,110;    1,227
340,262; 1263,162;    7,708;    3,227
340,856;  875,386;    1,708;   -0,682
341,450;  558,598;    0,708;    1,864
342,044;  687,484;    1,799;    0,136
342,637;  870,596;    1,162;   -2,136
343,231;  929,712;   -1,474;    0,682
343,825;  796,573;   -0,747;   -0,591
344,419;  817,512;   -0,474;    0,500
345,012; 1460,846;    2,889;    4,045
345,606; 1294,226;   -0,656;    1,591
346,199;  999,986;   -0,111;   -0,227
346,793; 1164,100;    2,525;    2,045
347,386; 1038,990;    0,889;   -1,136
347,980;  931,867;   -0,838;   -0,045
348,573; 1105,268;   -1,748;    0,409
349,167; 1404,473;    6,161;    4,773
349,760; 1425,702;    2,252;    2,682
350,354; 1361,042;    1,616;    1,136
350,947; 1432,222;    2,798;    1,682
351,540; 1250,149;    0,616;   -1,409
352,134; 1137,189;   -1,111;    1,136
352,727; 1232,650;   -0,657;    1,136
353,320; 1276,438;    2,343;    0,591
353,913; 1157,240;   -1,929;    1,864
354,507; 1425,548;    0,434;   -1,227
355,100; 1371,778;    0,071;    0,864
355,693; 1691,066;    4,798;    2,409
356,286; 1432,818;    0,980;    2,773
356,879; 1314,170;   -0,475;    1,227
357,472; 1213,496;    0,980;    1,500
358,065; 1314,352;    3,161;    2,500
358,658; 1207,800;    0,798;    2,318
359,251; 1074,632;    0,252;   -0,591
359,844; 1207,149;    0,343;   -1,136
360,437; 1332,305;    0,252;    0,045
361,030; 1207,690;    0,525;   -0,682
361,623; 1114,989;    0,434;    0,318
362,215; 1339,818;    0,979;    2,045
362,808; 1173,860;   -2,293;   -1,682
363,401; 1096,627;    0,798;    0,136
363,994; 1330,895;    3,252;   -1,500
364,586; 1071,816;    0,888;   -1,500
365,179; 1001,905;   -0,203;   -1,136
365,772;  788,075;   -0,930;    2,045
366,364;  922,644;    1,524;   -3,227
366,957; 1059,232;    1,342;   -0,045
367,549;  942,908;   -0,203;   -0,864
368,142;  920,279;    0,978;   -1,500
368,734;  892,599;    2,523;   -2,136
369,327;  788,102;    2,341;   -0,500
369,919;  825,112;   -1,659;    0,409
370,512;  849,991;   -1,023;   -0,500
371,104; 1082,813;    2,704;    1,591
371,696; 1129,133;    1,703;   -0,955
372,289;  967,660;    0,157;    1,136
372,881;  907,929;    1,156;    1,318
373,473;  758,189;    4,064;    1,136
374,066;  860,065;    1,336;    0,500
374,658;  782,745;    0,879;    1,136
375,250;  726,230;   -1,668;   -1,409
375,842;  764,602;   -0,124;   -0,045
376,434;  683,579;   -2,762;   -0,409
377,026;  750,175;   -1,855;   -2,500
377,618;  760,700;    0,779;   -0,682
378,210;  642,154;    3,141;   -1,955
378,802;  567,466;    3,412;   -0,591
379,394; 1051,402;    3,411;    0,682
379,986;  818,321;    1,138;   -0,955
380,578;  704,547;    1,410;    0,773
381,170;  927,348;    0,320;    0,045
381,762;  803,795;   -0,224;    1,409
382,354;  776,884;   -0,223;   -1,318
382,945;  688,481;    0,870;    0,318
383,537;  648,913;    1,144;   -1,955
384,129;  680,772;    0,963;   -1,136
384,721;  803,501;    0,418;    0,955
385,312;  689,351;   -1,399;   -0,955
385,904;  831,745;   -0,945;    1,591
386,496;  638,690;    0,691;    1,045
387,087;  812,627;    0,418;    2,500
387,679;  740,334;   -0,401;    0,045
388,270;  750,810;   -2,401;    2,045
388,862;  696,227;   -0,401;   -0,318
389,453;  625,157;    1,054;    1,045
390,045;  676,124;    3,236;   -2,682
390,636;  590,449;    0,144;   -0,591
391,227;  621,868;    2,054;   -0,045
391,819;  633,532;    0,781;    0,773
392,410;  920,849;    0,600;    0,045
393,001;  709,377;    1,600;   -1,591
393,593;  796,151;    0,600;   -0,045
394,184;  849,391;    0,873;   -0,409
394,775;  648,885;    1,146;    2,136
395,366;  640,238;    1,782;    0,773
395,957;  845,986;   -2,400;    0,136
396,548;  736,895;    1,054;    2,682
397,139;  896,434;    2,236;    0,591
397,730;  759,100;    0,873;    0,955
398,321;  766,541;    0,509;    0,955
398,912;  686,265;   -0,764;    0,136
399,503;  716,648;   -1,945;   -1,409
400,094;  720,701;   -1,582;    1,682
400,685;  698,273;    3,600;    0,045
401,276;  595,944;   -0,400;   -0,955
401,867;  616,531;   -1,127;    0,773
402,458;  572,897;    1,509;   -2,318
403,048;  753,853;    0,146;    0,591
403,639;  625,091;    1,509;    0,864
404,230;  815,536;    0,691;    0,318
404,821;  868,193;   -0,127;    0,045
405,411;  735,079;   -0,763;   -2,591
406,002;  578,808;    3,237;   -1,136
406,592;  850,347;    2,691;    0,045
407,183;  672,064;    0,328;   -1,500
407,774;  593,395;    1,419;   -0,136
408,364;  581,573;    2,600;    0,409
408,954;  703,617;   -0,036;    1,227
409,545;  677,141;    1,873;    1,045
410,135;  568,064;   -1,581;    0,500
410,726;  521,355;    0,783;    0,318
411,316;  737,071;    2,237;    0,773
411,906;  500,621;    0,146;   -0,409
412,497;  476,486;   -0,490;   -0,045
413,087;  407,565;    0,783;   -0,227
413,677;  342,751;   -2,490;    3,864
414,267;  297,873;   -1,035;    1,409
414,857;  254,551;    0,419;    4,227
415,448;  237,724;   -0,763;    0,500
416,038;  253,155;   -2,945;   -0,591
416,628;  296,276;    0,965;    0,409
417,218;  348,432;   -1,762;    3,318
417,808;  506,019;    0,965;   -0,409
418,398;  335,423;   -1,035;    2,682
418,988;  190,789;   -2,217;    0,591
419,578;  286,306;    3,601;    1,409
420,168;  216,726;    0,692;   -0,955
420,757;  350,484;    0,964;   -1,500
421,347;  212,306;    1,601;   -0,227
421,937;  159,499;    3,329;    1,409
422,527;  300,226;    2,602;   -0,773
423,116;  424,448;    2,692;   -0,045
423,706;  122,052;    2,965;    0,318
424,296;   64,947;    1,601;    0,682
424,885;  209,220;    1,510;   -3,045
425,475;  163,143;    1,147;   -2,864
426,065;   41,616;   -1,489;   -0,318
426,654;   19,240;    0,329;   -0,318
427,244;  281,840;    1,147;    1,409
427,833;  233,154;    1,056;   -0,500
428,423;   90,949;    0,147;    1,136
429,012;   92,683;    2,420;   -1,136
429,601;  198,631;    2,057;    0,136
430,191;   94,028;    2,511;    4,318
430,780;   -4,433;   -1,671;   -0,409
431,369;  163,184;    1,329;   -0,045
431,959;   53,615;    1,693;    0,500
432,548;   -9,968;   -1,398;   -0,045
433,137;  -60,520;    0,329;   -1,318
433,726;    7,690;    0,148;    0,500
434,315;   29,538;    0,148;    2,409
434,905;  126,032;    0,693;    1,409
435,494;  115,107;    3,148;    0,955
436,083;   -2,217;    1,420;   -0,955
436,672;   70,412;    1,148;    0,500
437,261;   22,533;    0,512;   -1,955
437,850;  227,976;   -1,125;    0,682
438,439;  272,293;    2,239;    1,955
439,027;  372,076;    3,421;    1,773
439,616;  292,794;    2,239;    1,227
440,205;   85,719;    0,057;   -2,136
440,794;   43,465;   -0,306;   -0,045
441,383;  -20,211;    1,603;   -0,591
441,971;  -53,785;   -0,306;    0,591
442,560;  -34,039;    0,603;   -1,773
443,149; -109,310;    3,060;   -1,318
443,737;  -77,657;    0,968;   -2,318
444,326;  -46,382;    0,331;    0,318
444,915;  -10,566;   -1,851;    0,864
445,503;   -7,552;    0,058;   -0,318
446,092;  229,595;    7,876;    2,136
446,680;  159,791;    1,876;    0,318
447,269;   65,821;   -1,487;   -0,318
447,857;   56,870;    2,240;   -1,773
448,445;   20,769;    2,149;    1,318
449,034;  -26,785;    0,876;   -1,136
449,622;  -18,506;    1,240;    3,500
450,210;  217,340;    3,149;    2,227
450,799;  141,389;    2,604;   -0,591
451,387;  107,478;    1,786;   -0,591
451,975;   92,310;   -1,305;    0,864
452,563;  158,152;    0,422;    2,318
453,151;   13,627;   -1,032;   -1,227
453,739;   45,244;   -1,577;    0,136
454,328;  140,030;    0,604;   -2,136
454,916;   84,174;    1,150;   -0,136
455,504;  101,466;    3,513;    1,227
456,092;    4,771;    2,150;   -1,591
456,679;  -30,695;    0,604;    0,682
457,267;  351,899;    3,604;    1,045
457,855;   64,950;    3,241;    1,409
458,443;  -64,337;   -0,304;    1,682
459,031;   56,468;    1,332;    2,409
459,619;   29,890;   -3,577;    2,864
460,206;  -43,560;   -0,759;    2,045
460,794;  -44,066;   -0,668;   -0,227
461,382;   -7,824;    0,878;   -0,864
461,970;  -12,798;    0,605;    1,864
462,557;  -66,052;    0,878;   -0,682
463,145;   34,384;   -0,304;   -1,682
463,732;  252,243;    2,514;   -1,045
464,320;   53,535;    1,514;   -3,045
464,907;  163,348;    0,423;   -0,773
465,495;   78,560;    2,696;   -1,227
466,082;   26,092;    2,060;   -0,045
466,670;   46,574;    2,605;    1,227
467,257;  -39,083;    0,060;    2,045
467,844;   39,649;    1,514;    0,045
468,432;   15,709;   -0,031;    3,500
469,019;  -10,128;    1,606;   -1,773
469,606;   59,728;    0,969;    3,682
470,193;   78,037;    2,151;    0,227
470,780;   42,893;    0,333;    0,864
471,368;  -17,767;   -1,212;   -0,773
471,955;   74,534;    1,060;   -0,682
472,542;   36,385;   -0,303;   -1,136
473,129;  -56,366;   -0,485;    0,136
473,716;  -39,447;    0,060;    0,591
474,303;  -12,524;    1,333;   -0,864
474,890;   -6,254;    2,333;   -0,500
475,477;   78,622;   -0,576;    0,409
476,064;   -5,266;    0,697;   -1,591
476,650;  101,370;    2,152;    0,318
477,237;   16,552;    1,879;    0,955
477,824;    0,081;    3,879;    0,864
478,411;  -59,765;    0,606;   -0,318
478,997;  -75,059;    0,606;   -0,773
479,584; -114,246;   -0,666;   -0,409
480,171;   32,671;    1,243;   -0,773
480,757;   81,983;   -0,848;    0,773
481,344;  -10,530;    0,334;    0,409
481,931;  -84,633;   -0,393;    1,045
482,517;   20,129;    0,425;    0,318
483,104;   99,085;    1,334;    2,864
483,690;  -24,712;    0,243;    0,045
484,276;  -32,616;    0,698;    0,227
484,863;  155,475;    2,152;    1,136
485,449;   17,782;    0,152;    0,318
486,035;  -27,430;   -0,666;   -0,136
486,622;   45,150;   -2,393;    0,045
487,208;  -16,512;    1,334;    1,500
487,794;  -81,165;    0,971;    0,318
488,380;  -76,654;    0,698;   -1,409
488,967;  -78,654;   -1,120;   -0,409
489,553;  -69,279;   -1,029;   -1,409
490,139;    5,611;    0,971;    0,773
490,725;  -59,445;    0,789;   -0,227
491,311;  -16,330;    1,516;    3,045
491,897;  -35,491;   -0,665;    1,500
492,483;  -26,857;    0,426;    1,227
493,069;  380,595;    5,426;    0,864
493,655;  115,488;    1,789;    0,682
494,241;   -3,489;    1,517;   -0,955
494,826;   -5,013;    0,335;   -1,045
495,412;   58,474;    0,335;   -0,682
495,998;  -14,079;    0,971;   -0,318
496,584;   27,317;    2,244;    1,045
497,169;   44,271;    2,335;   -0,682
497,755;  -14,783;    1,244;    1,227
498,341;  101,900;    2,153;    0,318
498,926;  218,343;    2,881;    1,955
499,512;  -13,891;   -0,028;    2,955
500,097;  -13,765;   -0,574;   -0,318
500,683;    4,151;   -0,028;    2,136
501,268;  -33,893;    1,881;   -0,955
501,854;  -11,024;   -0,119;    1,227
502,439;  -16,464;   -0,573;   -1,773
503,024;   -8,455;    1,608;    0,500
503,610;    8,011;    1,335;   -0,682
504,195;  -36,607;    1,245;    1,955
504,780;   53,862;    2,335;    1,227
505,366;  124,093;    4,063;    2,864
505,951;   63,041;   -1,119;    1,045
506,536;    4,123;    1,427;   -3,682
507,121;   51,890;    1,699;   -0,318
507,706;    9,183;   -0,392;    1,045
508,291;  -34,497;   -2,937;    1,136
508,876;  -44,081;   -0,482;    2,591
509,461;   -1,318;    1,427;   -0,773
510,046;   46,777;   -0,391;    0,318
510,631;   60,295;   -0,119;   -0,773
511,216;   -7,640;   -0,664;   -0,500
511,801;   54,202;   -0,755;    2,591
512,386;   87,318;    0,972;    0,500
512,971;  116,332;    0,427;    0,955
513,555;  172,712;    1,154;   -1,500
514,140;  161,066;    1,336;   -3,136
514,725;  323,985;    1,791;   -1,136
515,309;  262,943;    1,064;    0,318
515,894;  201,267;   -0,300;   -2,227
516,479;  297,973;    1,973;   -0,955
517,063;  382,819;    0,882;    1,227
517,648;  413,847;    0,155;   -1,136
518,232;  458,858;   -1,300;   -1,409
518,817;  700,567;    1,337;    1,682
519,401; 1029,856;    0,700;    0,591
519,985; 1018,982;    2,700;    1,136
520,570; 1058,322;   -0,118;   -1,955
521,154; 1441,842;    0,064;    0,591
521,738; 1950,765;    1,064;    2,409
522,323; 2241,345;   -0,390;    1,682
522,907; 2400,529;    2,428;   -0,136
523,491; 2646,641;    1,155;    0,955
524,075; 3002,986;    0,428;    0,591
524,659; 3532,082;    0,973;    0,591
525,243; 3713,324;    0,883;    0,409
525,827; 4225,779;    0,883;   -0,045
526,411; 5124,536;    1,155;   -0,136
526,995; 5840,483;    0,337;    1,409
527,579; 6111,832;    1,974;   -1,045
528,163; 6784,522;    0,428;   -1,500
528,747; 7299,760;    1,065;   -0,773
529,331; 7981,394;    0,883;   -1,409
529,915; 8562,386;    2,338;    0,955
530,499; 9022,263;    0,247;    1,227
531,082; 9236,454;    1,065;    1,591
531,666; 9284,009;    0,520;    0,773
532,250;10265,832;    0,428;    2,682
532,833;10930,305;    0,610;    2,773
533,417;11196,897;    1,247;    0,864
534,001;11479,971;    0,429;   -0,318
534,584;12487,423;    1,974;    0,500
535,168;12622,318;    3,247;    1,409
535,751;12952,957;    4,520;    0,045
536,334;12702,384;    4,520;   -0,409
536,918;13588,214;    1,974;    1,591
537,501;13896,311;    1,520;    1,318
538,085;14088,815;    1,702;    1,045
538,668;14438,887;    0,883;    2,409
539,251;14969,414;    3,156;    3,773
539,834;15201,750;    0,156;    0,773
540,418;15262,432;    3,247;    4,318
541,001;15503,798;    2,702;    1,773
541,584;15661,185;    1,429;    2,227
542,167;15500,311;    0,702;    2,955
542,750;15770,770;    0,793;   -0,773
543,333;15428,968;    1,429;    2,136
543,916;16336,120;   -0,298;    2,500
544,499;17048,248;    2,520;    0,227
545,082;17146,054;    0,248;    3,591
545,665;17380,031;   -0,207;    1,500
546,248;17814,604;    0,520;   -0,318
546,830;17540,537;   -1,752;    1,955
547,413;18038,210;    0,157;   -0,773
547,996;18668,359;    0,157;    0,500
548,579;18515,536;   -0,843;    0,955
549,161;18356,252;    0,884;    2,682
549,744;18175,884;    0,612;    0,409
550,326;18766,898;    0,885;   -1,136
550,909;18524,872;    2,339;    0,591
551,492;18993,128;    0,521;    0,227
552,074;18778,506;   -0,024;   -1,318
552,657;19436,116;    2,430;    0,045
553,239;19203,697;   -3,024;   -0,773
553,821;19161,193;   -1,570;    1,045
554,404;18654,077;   -0,024;    1,136
554,986;19077,797;    2,248;    1,045
555,568;19747,196;    0,430;   -0,955
556,151;18922,359;    4,067;   -0,227
556,733;19165,944;   -1,388;   -0,864
557,315;19663,531;    4,703;    0,500
557,897;19489,925;    0,521;   -0,500
558,479;19643,881;    1,703;    1,318
559,061;19757,999;    1,067;   -0,864
559,643;20126,869;   -0,297;    0,045
560,225;20526,729;   -0,388;    2,864
560,807;20592,687;    0,340;    0,318
561,389;20103,515;   -1,206;    2,318
561,971;20824,598;   -0,660;    2,136
562,553;20686,221;    0,613;    1,591
563,135;20847,414;    1,249;    1,136
563,717;20376,193;    3,158;    1,136
564,298;21159,295;    3,976;   -0,045
564,880;20869,472;    0,340;   -1,409
565,462;21082,745;    1,977;    1,318
566,043;22297,365;   -0,933;    2,318
566,625;21815,904;    4,067;    1,227
567,207;21652,029;    0,704;    1,682
567,788;22834,973;   -0,114;    1,500
568,370;23731,933;   -1,841;   -0,500
568,951;23505,990;   -0,569;    0,227
569,533;24459,213;    0,977;   -0,500
570,114;24924,733;   -0,296;    0,682
570,695;25446,915;   -0,478;   -1,318
571,277;26023,726;   -0,205;   -1,682
571,858;26785,870;    2,704;   -1,136
572,439;27762,474;    0,795;   -1,045
573,021;27949,968;    0,432;   -2,773
573,602;28507,423;    1,795;    0,318
574,183;29426,935;   -0,114;    2,227
574,764;29660,064;    2,068;    0,409
575,345;30208,686;    0,250;   -0,136
575,926;30817,602;    2,704;    0,136
576,507;30853,234;    2,704;   -0,227
577,088;31964,656;    1,704;    1,682
577,669;32000,029;    1,704;    1,955
578,250;32773,481;   -0,750;   -1,045
578,831;33499,867;   -0,841;   -2,227
579,412;33770,373;   -1,205;    0,955
579,993;34808,635;    1,432;    0,227
580,573;35108,674;   -0,023;   -0,955
581,154;34040,704;    1,613;   -0,591
581,735;34921,171;    0,341;    0,773
582,315;34381,353;    0,523;    2,136
582,896;34740,154;   -1,750;    1,227
583,477;34211,231;    0,614;    1,227
584,057;34415,511;    1,159;    0,955
584,638;34709,816;   -2,750;    2,318
585,218;34670,315;    2,886;    2,682
585,799;34860,928;    1,977;   -0,227
586,379;34840,565;    1,250;    1,591
586,959;33580,092;    2,613;    0,318
587,540;32937,930;    0,432;    2,227
588,120;32399,068;   -1,113;   -0,045
588,700;31325,849;    2,977;    2,136
589,281;31663,518;    1,250;   -0,955
589,861;31605,865;   -0,296;   -1,682
590,441;31398,441;   -1,477;   -2,682
591,021;30254,537;    1,432;   -2,591
591,601;30524,912;    0,431;    0,500
592,181;30532,099;   -1,296;   -0,773
592,761;29762,079;    2,250;    1,409
593,341;29683,506;    1,522;    0,045
593,921;29645,805;   -0,569;    1,591
594,501;29535,033;    1,250;    1,318
595,081;29379,642;    0,522;   -0,318
595,661;29755,231;    1,068;    0,955
596,240;30300,218;   -1,023;    0,136
596,820;29865,845;    2,613;    1,955
597,400;30079,970;    1,977;    0,773
597,980;30375,103;   -0,750;    1,045
598,559;30330,859;    0,341;   -0,227
599,139;30104,446;   -0,750;   -1,227
599,718;30004,537;    0,795;   -0,409
600,298;30218,528;   -2,387;    0,682
600,877;30461,124;    4,795;    1,409
601,457;30761,752;    0,340;    1,136
602,036;30643,178;    1,795;    2,045
602,616;30887,824;    2,250;    1,682
603,195;31228,290;    0,431;    3,500
603,774;30700,299;   -0,296;    2,045
604,354;30642,190;    2,522;   -0,500
604,933;30077,255;    0,250;    1,864
605,512;30223,633;    2,340;    0,591
606,091;30241,118;    1,886;    3,773
606,671;31064,908;    0,249;    0,773
607,250;30136,922;    1,431;    3,136
607,829;30400,670;    1,158;    3,227
608,408;30221,435;    4,613;    2,591
608,987;29228,945;    2,704;    3,409
609,566;29563,511;    0,341;   -2,500
610,145;29645,941;    2,885;    0,682
610,723;30116,274;    1,613;    6,864
611,302;29281,064;    1,067;    1,682
611,881;28765,848;    5,158;   11,227
612,460;29628,563;    0,795;    3,955
613,039;30046,092;    1,703;    2,045
613,617;28756,549;    0,886;    4,773
614,196;28999,323;    1,613;    1,227
614,775;29285,500;    1,249;    2,409
615,353;29226,209;   -1,660;    0,864
615,932;28907,016;    0,249;    2,409
616,510;29517,039;    0,158;    0,591
617,089;29010,459;    8,794;   17,591
617,667;28771,023;    4,885;    6,136
618,246;28592,426;   -1,115;    1,318
618,824;28731,785;    1,612;   -0,955
619,402;28331,428;    0,431;   -1,773
619,981;28895,974;    1,067;   -1,045
620,559;28732,242;    0,794;    1,682
621,137;28232,433;    3,067;    1,864
621,715;28232,675;    3,703;   -0,682
622,293;28150,757;    1,885;   -0,773
622,871;28586,804;    0,340;    0,500
623,450;28134,279;    0,430;   -0,864
624,028;28088,631;   -0,388;   -0,955
624,606;27654,769;    2,339;    1,682
625,183;28042,184;   -0,661;   -1,136
625,761;27665,632;    1,885;    1,136
626,339;27999,135;    2,339;    2,591
626,917;28401,212;    0,339;   -0,045
627,495;28414,266;    2,794;    1,318
628,073;27823,194;    5,248;    2,864
628,650;27510,783;    3,067;    2,136
629,228;27959,921;    1,248;    4,409
629,806;27339,070;   -0,024;    1,136
630,383;27574,100;    0,066;   -0,318
630,961;27350,102;   -2,206;   -0,955
631,539;27125,417;   -2,479;    0,227
632,116;26324,193;   12,703;   15,409
632,694;26972,387;    4,885;    6,500
633,271;27272,196;    1,975;    2,682
633,848;27190,385;    1,430;    2,045
634,426;27241,185;    1,521;    1,773
635,003;26358,810;   -0,207;   -0,409
635,580;26659,782;    1,884;    3,682
636,158;27242,945;    3,793;    1,227
636,735;27227,411;    3,339;   -0,500
637,312;27386,296;    0,521;   -0,682
637,889;27485,390;    2,248;   -0,682
638,466;26954,103;    0,066;   -0,409
639,043;26978,661;    1,702;   -1,136
639,620;27256,258;    0,611;   -0,955
640,197;27545,537;    1,612;    1,682
640,774;27763,781;    1,430;    1,136
641,351;28160,844;    0,612;    1,136
641,928;27485,543;    2,794;    1,409
642,505;27157,060;    0,794;   -0,500
643,082;27290,668;    1,885;    1,227
643,658;26283,822;    1,157;    1,500
644,235;27025,157;   -2,479;    2,500
644,812;27285,856;    1,794;    0,773
645,388;27045,374;    1,612;    1,409
645,965;27123,073;    1,521;    1,682
646,542;27184,499;    3,430;   -0,227
647,118;27241,289;    3,703;   -0,955
647,695;27537,715;    0,339;    1,136
648,271;27415,869;   -2,115;    0,500
648,848;27708,386;    0,248;    2,227
649,424;27572,721;    0,976;    1,318
650,000;27346,602;   -0,388;   -1,045
650,577;27208,029;    0,158;   -0,955
651,153;27625,546;   -1,115;    0,955
651,729;28599,154;    0,521;    0,864
652,305;28825,489;    1,339;    2,773
652,881;33375,097;   -1,297;    1,136
653,458;40488,251;    0,249;    0,227
654,034;44501,223;    0,703;    1,591
654,610;46087,831;    0,339;    0,773
655,186;47449,530;    1,612;    3,045
655,762;47166,774;   -1,842;    0,409
656,338;47221,473;    0,703;    0,136
656,913;48368,445;   -0,297;    0,409
657,489;47661,508;    0,249;   -0,318
658,065;47633,752;    0,794;   -1,591
658,641;48249,542;    2,158;   -0,864
659,217;47425,878;    2,067;    0,409
659,792;46873,759;   -1,751;   -0,409
660,368;47268,458;   -0,388;   -0,682
660,944;46940,338;    1,794;    1,227
661,519;42213,401;    0,522;    0,409
662,095;35825,464;   -0,206;    0,591
662,670;30855,890;   -0,206;   -0,136
663,246;29603,771;   -0,660;   -0,409
663,821;28882,197;    0,431;    1,682
664,396;28408,987;    0,613;    1,864
664,972;28634,232;   -0,660;   -0,500
665,547;28955,294;    3,794;    0,136
666,122;28962,539;    1,340;    0,318
666,698;29290,056;    2,431;    0,318
667,273;28601,210;    0,885;    0,136
667,848;29455,181;    0,340;    1,500
668,423;29124,244;    1,795;    2,318
668,998;29776,488;    0,976;   -0,682
669,573;30323,097;    2,067;   -1,500
670,148;30178,250;    1,885;   -0,682
670,723;29957,949;   -0,024;    0,318
671,298;30453,103;   -1,296;    1,045
671,873;30626,802;   -0,296;   -0,136
672,448;30534,319;    1,704;    0,136
673,023;30920,382;    0,249;   -0,227
673,597;31134,990;    2,704;    2,318
674,172;30873,689;    2,431;    0,318
674,747;30459,115;   -0,205;   -1,045
675,321;30272,451;   -0,933;    3,318
675,896;29795,695;    2,158;    1,045
676,471;30847,667;    2,522;    1,591
677,045;30585,911;   -0,296;    0,682
677,620;30626,610;    2,158;    1,136
678,194;30935,491;    0,249;    1,136
678,769;30440,372;    0,886;   -0,318
679,343;30638,616;   -0,023;    1,773
679,917;30557,952;    0,340;    1,955
680,492;30602,651;    0,249;    3,227
681,066;30820,077;    0,613;    0,409
681,640;30838,685;    1,795;   -0,318
682,214;31576,203;    2,340;    0,500
682,788;31063,083;    0,613;   -0,773
683,363;31080,964;    1,977;    1,682
683,937;30822,572;    0,886;   -0,318
684,511;31642,271;   -1,023;   -0,591
685,085;31299,061;   -1,478;    0,318
685,659;31043,033;    1,431;    0,864
686,232;31249,641;    1,159;   -0,318
686,806;30985,613;    2,159;    0,409
687,380;31654,403;   -1,932;    0,591
687,954;31899,738;    2,432;    1,136
688,528;31529,619;    2,613;    1,955
689,101;32353,773;    0,432;    1,045
689,675;31921,654;    0,886;   -0,136
690,249;31333,534;    3,432;    0,409
690,822;31641,415;    1,159;    0,318
691,396;31712,569;    2,068;    1,227
691,969;31135,086;    2,523;    0,136
692,543;31653,512;   -0,568;   -1,955
693,116;31242,757;   -0,659;   -1,409
693,690;31037,638;   -0,296;    0,500
694,263;31686,791;    2,341;    2,955
694,836;31710,763;    2,795;    3,591
695,410;30259,280;    1,159;    1,773
695,983;30723,252;    1,614;    0,591
696,556;30710,497;   -0,750;   -1,045
697,129;31136,286;   -1,114;    1,409
697,703;30700,349;    1,341;    1,955
698,276;30756,230;    1,705;   -0,773
698,849;30500,929;   -1,023;    1,409
699,422;30932,719;    1,250;    0,591
699,995;30584,600;   -0,659;    0,136
700,568;31072,662;   -0,204;    3,045
701,140;31069,089;   -1,841;    1,682
701,713;30840,061;    0,341;    2,409
702,286;30606,760;    0,796;    0,864
702,859;30480,549;    0,614;   -0,591
703,432;29606,612;   -0,841;    0,682
704,004;30166,038;    1,978;    0,318
704,577;29973,828;    1,068;    0,136
705,150;30577,527;    0,887;    2,500
705,722;30383,317;    1,523;   -3,227
706,295;30115,289;    1,432;   -0,591
706,867;29920,352;    0,250;    1,955
707,440;30126,778;   -0,113;   -0,409
708,012;30377,932;   -0,022;    0,591
708,584;30319,813;    2,705;    0,227
709,157;30652,239;    1,160;   -0,591
709,729;30314,483;    1,069;    2,045
710,301;31160,091;   -1,204;    0,045
710,874;31175,063;    0,341;   -0,227
711,446;30077,762;   -0,295;    0,864
712,018;29936,189;   -3,022;    0,500
712,590;29613,251;   -0,204;    1,682
713,162;30164,132;   -0,477;    1,318
713,734;30473,558;    1,796;   -2,045
714,306;30280,166;    0,342;   -0,409
714,878;28937,956;   -0,295;    0,864
715,450;29780,655;   -0,113;    0,864
716,022;30059,991;    2,433;    1,318
716,593;30190,781;    0,978;    0,591
717,165;30084,480;    1,796;   -1,227
717,737;29829,633;    0,796;    0,409
718,309;29512,878;    1,160;   -0,045
718,880;29441,395;   -1,295;   -1,409
719,452;29696,185;    0,887;   -1,591
720,024;29231,339;    1,705;   -0,591
720,595;29782,674;    2,978;    0,955
721,167;29273,191;    1,160;   -2,045
721,738;28759,072;    2,069;   -1,045
722,309;28669,771;    1,251;   -1,227
722,881;28457,288;    2,705;    0,773
723,452;29174,987;    1,251;    2,864
724,023;29455,505;    1,524;    2,682
724,595;29192,022;    2,342;    0,682
725,166;28886,539;    1,524;   -0,409
725,737;28489,147;    1,887;    0,227
726,308;28587,846;    0,797;    0,318
726,879;28980,909;    1,069;    1,227
727,450;28860,881;   -2,022;   -0,045
728,021;28874,398;    1,069;    0,682
728,592;28659,733;    1,160;    0,500
729,163;28997,705;    1,433;   -0,136
729,734;28941,404;    2,160;   -0,227
730,305;29271,467;    0,615;    0,136
730,876;29721,257;    0,888;    2,955
731,447;29403,956;    0,797;    2,682
732,017;29483,564;   -0,840;    1,864
732,588;28974,354;   -0,021;    1,227
733,159;29136,325;    3,615;   -1,045
733,729;29001,843;    1,251;    0,409
734,300;28262,178;    0,160;    0,864
734,870;28715,241;   -1,385;    0,591
735,441;29232,667;    0,888;   -0,591
736,011;28918,911;    1,070;   -1,591
736,582;28886,974;    1,251;    0,045
737,152;28314,219;    0,979;   -2,045
737,722;28838,463;    1,070;   -0,682
738,293;28584,980;   -2,021;    1,318
738,863;28425,134;    1,797;    2,318
739,433;28190,651;    4,524;    0,318
740,003;28838,623;    1,524;   -0,682
740,573;28211,049;    2,252;   -1,591
741,143;28210,657;    3,615;    0,318
741,713;28992,447;    0,252;   -0,500
742,283;28736,510;    1,706;    1,591
742,853;28449,573;    0,524;    1,591
743,423;27884,363;    0,161;    0,045
743,993;28000,243;    1,070;    1,500
744,563;27325,124;    2,524;   -0,864
745,133;27306,187;   -0,112;   -0,864
745,702;28001,068;    2,797;    1,773
746,272;27181,676;    0,434;    0,591
746,842;26969,375;   -0,748;   -0,591
747,411;27390,892;   -0,839;   -0,318
747,981;27537,409;   -0,930;    0,500
748,551;27643,381;   -0,021;   -1,045
749,120;27503,262;   -0,112;   -0,227
749,690;27879,506;    2,161;    2,409
750,259;28189,660;    0,979;    2,955
750,828;28083,904;    4,070;   -1,955
751,398;28385,513;   -0,112;   -0,045
751,967;27791,303;    2,888;    0,409
752,536;27998,002;    1,161;   -0,227
753,105;28409,610;   -1,384;    0,227
753,675;28237,491;   -0,112;    1,773
754,244;28168,644;    0,888;    3,591
754,813;28232,252;    0,979;    1,227
755,382;27847,406;    0,798;    0,955
755,951;28379,559;   -0,112;    3,682
756,520;27906,167;    2,525;    1,864
757,089;28502,594;    1,888;    0,500
757,658;28635,566;    2,434;    1,227
758,227;28600,446;   -1,111;    0,318
758,795;28868,327;   -1,021;    1,136
759,364;29137,572;    0,525;   -0,591
759,933;28161,725;    1,343;   -0,045
760,501;27740,697;    0,252;   -1,318
761,070;28125,578;   -0,293;   -1,409
761,639;28857,459;    1,434;    1,318
762,207;28091,794;    0,889;   -0,955
762,776;28059,584;    2,889;    0,864
763,344;28063,920;    0,071;    0,591
763,913;27151,346;    1,616;    1,409
764,481;27903,136;    1,980;   -0,136
765,049;27722,108;    0,616;    1,409
765,618;27606,261;    1,434;    0,318
766,186;27688,415;    2,434;    0,136
766,754;27861,750;    1,798;    1,864
767,322;26808,449;    1,162;    0,409
767,890;26828,421;    0,525;   -1,773
768,459;27225,211;    2,616;   -0,318
769,027;27384,637;    2,525;    3,409
769,595;26400,336;    2,616;    2,591
770,163;26817,217;    3,344;    2,955
770,730;26485,916;    2,525;   -0,136
771,298;26423,160;    1,162;   -1,409
771,866;26486,496;    0,253;    4,955
772,434;26804,740;    1,162;   -1,864
773,002;27000,076;    2,616;    0,682
773,569;26583,775;    1,071;    1,682
774,137;26380,565;    0,889;   -0,045
774,705;27157,355;   -0,747;   -0,136
775,272;26624,054;    0,253;    0,682
775,840;26463,207;   -0,111;    2,682
776,407;25980,724;   -0,293;    1,955
776,975;25552,605;    1,162;    0,318
777,542;26588,850;    2,162;   -0,045
778,110;26434,731;    0,707;   -0,045
778,677;26114,066;    1,071;   -0,864
779,244;25849,947;   -1,020;    1,045
779,812;25958,646;    0,980;    0,864
780,379;25790,618;    2,435;    1,136
780,946;26019,408;    2,617;   -0,773
781,513;26333,288;   -0,565;    0,318
782,080;25647,897;    1,253;    2,864
782,647;26420,868;    1,708;    3,045
783,214;25968,749;   -0,201;    3,864
783,781;25549,357;    1,708;   -0,682
784,348;25495,602;    0,253;    1,500
784,915;25907,665;   -1,474;    0,318
785,482;25692,000;    2,708;    2,591
786,049;26212,881;    1,071;   -0,591
786,615;26259,216;    1,708;   -0,955
787,182;26052,733;   -3,201;   -0,682
787,749;25720,614;   -2,201;    1,409
788,315;25004,950;    0,253;   -0,409
788,882;25345,740;    0,981;   -1,227
789,448;25999,348;    1,435;   -0,955
790,015;25985,319;    1,799;    3,227
790,581;25558,564;    0,708;    0,227
791,148;25438,445;    1,344;    1,045
791,714;25722,144;   -1,019;    3,136
792,280;25355,479;    3,708;    1,591
792,847;24912,087;   -0,928;    2,500
793,413;25424,695;   -0,110;   -0,318
793,979;24940,122;    1,526;   -1,318
794,545;25046,912;    2,981;    2,682
795,111;24428,065;    2,435;    1,318
795,678;24639,582;    3,526;   -1,682
796,244;24282,009;    2,799;    0,136
796,810;24821,981;    0,799;    0,773
797,375;24508,225;   -0,292;   -2,136
797,941;24580,379;   -1,110;    0,591
798,507;24754,259;    0,254;   -0,955
799,073;24279,686;    2,708;    0,591
799,639;24398,112;    1,435;    3,136
800,205;24414,993;   -1,565;    2,682
800,770;23893,510;    1,345;    1,773
801,336;23910,391;    2,981;   -0,955
801,901;23603,726;    6,072;    3,136
802,467;24145,607;    0,526;    2,045
803,033;23483,670;   -0,019;    0,864
803,598;23714,187;    1,072;   -1,045
804,163;23788,341;    0,708;   -0,318
804,729;23735,949;   -0,110;    1,136
805,294;24120,739;    1,072;    2,227
805,859;23931,801;    0,890;   -0,409
806,425;23368,500;    3,890;    2,682
806,990;23031,927;    1,890;    4,318
807,555;23547,989;   -0,110;    2,591
808,120;23470,416;   -1,292;   -0,409
808,685;23518,206;    1,072;   -2,500
809,250;22963,541;    2,072;   -0,500
809,815;23303,058;   -0,201;    0,682
810,380;23862,485;    0,981;    1,591
810,945;24320,547;    2,890;    2,045
811,510;23571,155;   -0,200;    1,591
812,075;23259,763;    2,800;   -1,409
812,640;23282,190;    3,709;    1,409
813,204;23324,889;    2,163;   -0,227
813,769;23835,224;    0,254;   -0,045
814,334;23208,560;    0,527;    0,864
814,898;23234,895;    1,981;    0,591
815,463;23115,321;    0,981;   -0,773
816,027;23097,293;    1,345;   -2,318
816,592;23205,356;    2,163;   -2,045
817,156;22640,146;   -2,200;    1,136
817,721;22479,845;    0,982;    2,318
818,285;22433,907;    0,618;    1,500
818,849;23126,061;   -0,018;    1,682
819,414;22990,487;    0,073;    2,955
819,978;22519,095;   -0,291;    1,773
820,542;23136,703;    2,891;    0,500
821,106;22898,584;    2,800;    0,682
821,670;22957,556;    2,709;    2,591
822,234;22679,437;    1,073;    1,409
822,798;22080,136;   -0,836;    0,500
823,362;22041,108;    1,527;    4,227
823,926;21296,079;   -0,018;    1,136
824,490;21539,597;    3,527;   -0,682
825,054;21957,114;    2,527;   -1,136
825,618;21609,358;   -1,200;   -1,500
826,181;21507,785;    0,982;   -1,318
826,745;21401,484;   -0,745;   -1,045
827,309;21776,819;    2,255;    1,318
827,872;21173,700;    0,527;    0,955
828,436;22148,763;    1,982;   -0,773
828,999;22248,825;    2,436;    1,227
829,563;21077,161;   -0,654;    1,136
830,126;20892,223;   -0,018;   -0,591
830,690;20854,559;    0,709;    2,864
831,253;20328,349;   -0,473;    2,227
831,816;20536,048;   -0,018;    0,500
832,380;20449,019;    1,164;    0,864
832,943;20621,264;    3,073;   -0,500
833,506;20155,327;    0,255;   -1,227
834,069;20927,844;    2,164;   -0,955
834,632;20992,907;   -2,200;    1,318
835,195;20872,060;    1,346;    0,955
835,758;20077,214;    0,709;    1,955
836,321;19904,822;    1,073;   -1,045
836,884;19980,612;   -1,291;   -0,955
837,447;20045,129;    0,528;    1,773
838,010;20288,283;    1,800;    3,227
838,573;20642,618;    0,528;    0,773
839,135;20540,408;   -0,109;   -0,955
839,698;19989,743;    2,528;    0,409
840,261;19534,806;    0,255;   -0,227
840,823;19372,141;   -0,927;    0,864
841,386;19680,477;   -0,018;   -2,409
841,948;19529,358;    0,255;    1,773
842,511;19238,238;    0,255;    1,682
843,073;19395,665;    2,982;    0,227
843,636;19222,818;    0,619;   -0,227
844,198;19113,881;    1,255;    0,591
844,760;19281,489;    0,619;    1,955
845,322;18881,370;    0,164;    1,136
845,885;19314,978;   -0,290;    0,591
846,447;19745,768;    0,710;    0,227
847,009;19319,740;    3,983;   -0,682
847,571;19665,348;    1,346;   -2,045
848,133;19771,501;   -0,199;   -1,864
848,695;19583,928;    2,346;    1,409
849,257;19115,718;    1,346;   -1,682
849,819;19296,689;    2,983;   -0,409
850,381;19364,570;    1,801;   -0,864
850,942;19707,178;    1,892;   -0,591
851,504;19615,787;    0,983;    0,227
852,066;19661,122;    1,619;   -1,591
852,628;19196,912;    0,165;    1,955
853,189;18760,520;    0,256;    2,682
853,751;18885,583;   -0,654;    1,409
854,312;18700,282;    1,256;   -1,682
854,874;19159,981;   -0,108;   -0,773
855,435;19667,771;    0,528;   -1,682
855,997;19876,379;    3,983;   -0,136
856,558;19167,805;    0,801;    1,773
857,119;19283,140;   -0,744;    2,864
857,681;18878,203;   -0,108;    0,318
858,242;18906,811;    1,347;   -2,136
858,803;19374,692;    1,074;   -0,773
859,364;19957,664;    0,892;   -4,773
859,925;19312,363;   -0,290;   -0,955
860,486;19186,244;    0,529;   -0,955
861,047;18900,670;    0,165;   -1,227
861,608;18708,915;    0,165;   -0,773
862,169;18830,886;   -0,562;   -0,045
862,730;18610,404;   -0,290;    1,409
863,291;18888,284;    0,438;   -0,500
863,852;19222,074;   -0,926;    1,955
864,412;18686,501;   -1,835;   -0,864
864,973;17186,200;    1,892;    0,500
865,534;17041,262;    2,074;    0,227
866,094;18584,870;    2,620;    0,227
866,655;18201,388;    4,711;    3,318
867,215;18543,450;    0,074;    0,136
867,776;18406,513;   -1,199;   -0,136
868,336;18470,212;    1,529;    0,136
868,897;17918,093;    3,438;    1,682
869,457;17686,610;    3,256;    0,318
870,017;17946,400;    2,438;   -1,227
870,578;18449,190;    1,893;    0,773
871,138;18094,162;    2,620;   -0,955
871,698;17611,497;   -0,562;   -1,318
872,258;17452,287;    0,711;   -2,864
872,818;17861,350;    2,347;    0,045
873,378;17808,503;   -2,198;    1,045
873,938;17336,748;    4,984;    0,500
874,498;17687,356;    1,256;   -1,955
875,058;17579,328;    4,347;    1,773
875,618;17462,754;    1,438;   -2,682
876,177;17387,089;   -0,471;    0,136
876,737;16926,697;   -0,289;    1,955
877,297;16920,306;    2,711;    1,955
877,856;16944,005;    2,529;    0,318
878,416;16876,522;    2,438;   -0,136
878,976;17099,039;    3,438;    0,409
879,535;17292,465;    4,529;    3,136
880,095;17068,528;    1,347;    0,045
880,654;17167,227;    0,347;    1,318
881,213;17259,926;    2,347;    1,500
881,773;16904,716;    1,984;    2,682
882,332;17220,870;    6,075;    5,136
882,891;17095,205;    0,711;    2,136
883,451;17530,904;   -2,016;    1,682
884,010;17021,058;   -1,107;   -0,409
884,569;17120,029;   -2,289;   -0,045
885,128;17213,728;   -0,743;   -1,864
885,687;17278,700;   -0,743;    0,682
886,246;16978,399;    2,620;    2,136
886,805;16728,280;    1,620;    2,045
887,364;17072,070;    1,166;   -0,500
887,922;17437,769;   -0,016;    0,045
888,481;16888,468;    1,530;    0,591
889,040;17214,167;    3,711;    2,136
889,599;17940,593;    2,166;    1,409
890,157;18013,838;    2,166;    2,409
890,716;17638,991;    2,166;    0,227
891,274;17429,690;    0,075;   -1,136
891,833;17846,299;    1,166;    0,864
892,391;17750,543;    1,802;    0,500
892,950;17835,515;    0,166;   -0,773
893,508;18158,850;    0,984;   -0,409
894,067;17534,277;   -0,379;    0,136
894,625;17489,976;   -1,016;   -1,500
895,183;17666,584;   -0,198;   -0,682
895,741;17573,010;    2,257;   -1,773
896,299;17437,164;    1,621;   -2,409
896,858;17584,317;    1,530;   -1,591
897,416;17643,198;    0,166;   -1,318
897,974;17443,079;   -2,197;    0,318
898,532;17563,687;    6,530;    2,682
899,089;17454,750;    0,621;   -0,682
899,647;17532,994;    0,530;    1,318
900,205;17260,148;    0,257;    1,045
900,763;17479,483;    2,166;    0,227
901,321;17432,182;    3,530;   -1,409
901,878;16875,972;    3,257;   -0,773
902,436;16723,217;    0,257;    1,318
902,994;17174,916;    6,712;    3,682
903,551;16599,342;    1,439;    0,409
904,109;16970,950;    1,530;   -1,409
904,666;16557,194;    1,439;    1,045
905,224;16336,803;    3,894;   -0,409
905,781;16091,047;   -0,470;   -0,318
906,338;16197,928;    0,167;    1,045
906,895;16158,263;    1,894;    2,045
907,453;16039,508;    2,348;    1,136
908,010;16012,298;    3,348;    0,409
908,567;15650,360;   -0,561;    0,591
909,124;15176,696;    2,439;   -1,500
909,681;15240,395;   -1,288;    0,682
910,238;15417,821;   -0,106;   -1,318
910,795;15748,793;   -1,561;   -1,136
911,352;15359,884;   -0,379;   -2,682
911,909;14707,702;    2,803;   -0,864
912,466;15201,702;    1,985;    1,500
913,022;14799,793;   -0,924;    0,500
913,579;15172,702;   -0,470;    2,045
914,136;14857,520;   -2,561;    0,955
914,692;15237,975;    1,530;   -1,227
915,249;14821,611;    0,530;    0,409
915,806;15055,157;    1,803;    1,955
916,362;14732,429;    0,894;    1,864
916,918;14295,247;    2,439;    1,045
917,475;14266,247;    1,621;    0,955
918,031;14344,884;    0,076;   -0,045
918,587;13809,611;    0,621;   -0,318
919,144;14023,338;   -0,379;    0,227
919,700;14339,247;    0,167;    0,773
920,256;13912,702;    0,439;    0,045
920,812;13508,066;    1,439;   -1,045
921,368;13511,338;    1,348;   -1,045
921,924;13184,066;    0,439;   -0,136
922,480;12759,520;    0,076;    1,227
923,036;13368,157;   -0,652;    1,955
923,592;13313,520;    0,621;    0,318
924,148;13219,611;    1,894;   -0,955
924,704;12529,975;    0,258;   -0,409
925,259;12839,157;   -0,561;    0,591
925,815;12549,066;    3,803;    0,500
926,371;12096,702;    3,530;    1,409
926,926;11968,157;    1,621;    0,591
927,482;11566,702;    1,621;    0,773
928,037;11437,793;   -0,833;    2,045
928,593;11775,611;    0,258;    1,045
929,148;11592,520;    1,167;   -1,500
929,704;11111,429;    2,439;   -0,500
930,259;11282,520;    0,894;   -0,136
930,814;10318,066;    1,803;    1,955
931,369;10023,429;    0,258;   -0,773
931,925; 9932,884;   -1,924;    0,136
932,480; 9813,520;    3,076;   -2,591
933,035; 9645,247;    3,985;   -0,318
933,590; 9443,702;   -1,742;   -1,773
934,145; 9103,520;   -1,288;   -0,318
934,700; 9461,975;    0,348;   -0,591
935,255; 9227,975;    4,803;    0,045
935,809; 8473,157;    6,258;    0,864
936,364; 7587,702;    2,167;   -0,136
936,919; 7599,338;    2,348;   -1,773
937,474; 7493,429;    1,348;    0,136
938,028; 7251,520;    3,076;    1,136
938,583; 6671,066;    6,348;    4,682
939,138; 6995,338;    0,167;    2,136
939,692; 6462,066;   -1,015;   -1,136
940,247; 6122,520;    1,167;   -1,045
940,801; 5674,520;    0,621;    0,227
941,355; 5570,884;    0,439;    2,591
941,910; 5220,338;    0,712;   -2,136
942,464; 5317,338;    2,712;   -0,318
943,018; 5093,793;    3,258;   -0,227
943,572; 5041,429;    2,803;   -0,682
944,126; 4436,157;   -0,924;   -0,409
944,681; 4331,429;    0,712;    0,227
945,235; 4334,429;    2,167;   -0,591
945,789; 4247,884;    1,258;   -1,864
946,342; 4329,611;   -0,561;   -0,591
946,896; 4144,066;    0,348;    0,955
947,450; 3905,338;   -0,561;   -0,227
948,004; 4091,611;    1,076;   -0,045
948,558; 4129,611;    1,258;   -0,864
949,111; 4044,520;   -1,197;   -0,318
949,665; 4054,157;   -0,106;   -0,682
950,219; 3918,793;    0,621;   -1,045
950,772; 3997,884;    0,258;    1,864
951,326; 3935,884;   -1,106;   -0,955
951,879; 4037,793;    1,076;   -2,318
952,433; 4049,520;    1,348;    2,227
952,986; 3874,157;    0,348;    0,682
953,539; 3829,975;    1,530;    0,591
954,093; 3773,338;    0,985;   -1,318
954,646; 3884,793;   -0,288;    1,318
955,199; 3683,611;    1,258;   -0,500
955,752; 3566,247;    1,985;    1,773
956,305; 3537,702;    0,894;    2,955
956,858; 3713,611;    0,621;   -0,318
957,411; 3890,702;    3,621;    2,136
957,964; 3690,702;    2,076;    2,136
958,517; 3700,702;    0,985;    3,136
959,070; 3524,157;   -1,197;    1,955
959,623; 3594,702;    1,076;    1,500
960,176; 3382,429;    0,712;    2,045
960,728; 3359,611;    1,712;    0,773
961,281; 3427,247;    2,258;    0,500
961,834; 3443,702;   -0,833;    0,864
962,386; 3366,157;    1,258;    1,045
962,939; 3304,702;    3,439;   -0,318
963,491; 3444,157;    2,621;    1,136
964,043; 3284,157;    0,076;    2,409
964,596; 3402,793;    1,712;    2,227
965,148; 3241,975;   -0,379;    1,773
965,700; 3183,429;   -0,015;   -0,227
966,253; 3350,066;   -0,833;    0,318
966,805; 3160,793;    1,894;    0,773
967,357; 3229,247;    0,439;   -1,500
967,909; 3155,611;    1,167;   -1,227
968,461; 3284,702;    0,894;    3,136
969,013; 3200,157;   -1,561;   -0,864
969,565; 3272,247;    1,803;   -1,136
970,117; 3328,429;    3,803;    1,045
970,669; 3187,338;    3,258;   -0,136
971,220; 3051,429;    2,167;   -1,500
971,772; 2973,338;    1,348;   -0,318
972,324; 3091,247;   -1,197;   -0,500
972,876; 3053,429;    0,167;   -0,045
973,427; 3165,793;   -1,197;   -1,045
973,979; 3140,429;    0,076;   -2,500
974,530; 3172,793;    0,803;    1,318
975,082; 3199,702;    2,167;    1,682
975,633; 3093,611;    2,894;    1,682
976,184; 3238,702;    2,076;    0,773
976,736; 3025,793;    0,348;    0,227
977,287; 2798,793;    0,258;   -0,500
977,838; 2991,884;   -0,924;   -0,318
978,389; 3050,247;    0,803;   -0,500
978,940; 2932,429;    1,258;   -0,409
979,491; 2949,975;    2,258;   -0,500
980,042; 2894,611;   -0,652;    3,045
980,593; 2976,157;    1,894;    0,227
981,144; 3013,338;    3,530;   -0,500
981,695; 2980,247;   -0,470;    1,500
982,246; 2950,884;   -1,833;    1,045
982,797; 3117,520;   -0,561;    0,682
983,347; 3232,975;    2,167;    0,591
983,898; 3359,702;    4,167;    0,409
984,449; 3182,702;    2,530;    0,773
984,999; 3095,702;    1,894;   -1,136
985,550; 2868,520;    3,167;   -0,318
986,100; 2929,338;    0,712;   -0,318
986,651; 2954,793;    0,258;    0,045
987,201; 2937,520;    0,894;   -0,591
987,751; 3019,338;   -0,288;    2,864
988,302; 2975,611;   -0,379;    1,500
988,852; 3026,975;    1,985;   -1,136
989,402; 3067,975;    0,985;    0,682
989,952; 2970,157;    1,621;    0,864
990,502; 3078,247;    1,076;    0,682
991,052; 3044,975;   -0,106;    0,045
991,602; 2899,429;    1,167;    1,318
992,152; 2895,429;    2,803;    0,682
992,702; 2889,520;    1,167;   -0,045
993,252; 2799,884;    0,076;   -0,500
993,802; 2880,429;    1,167;    1,318
994,352; 3130,611;   -0,742;    1,136
994,901; 3236,702;    1,076;    3,227
995,451; 3163,338;   -1,197;    0,318
996,000; 3243,884;    1,076;    0,318
996,550; 2935,429;    2,894;    0,227
997,100; 2947,066;   -0,561;   -0,045
997,649; 3240,975;   -0,197;    0,955
998,198; 2869,702;   -0,288;   -1,500
998,748; 3026,066;    0,348;   -2,318
999,297; 2965,702;    0,985;   -0,409
999,846; 3044,066;    1,894;   -0,773
1000,395; 3080,884;    1,530;    0,500
1000,945; 3031,247;    1,076;   -0,773
1001,494; 3091,520;    0,167;    0,682
1002,043; 3089,611;    0,712;    0,864
1002,592; 2937,520;    3,439;    1,955
1003,141; 3079,611;    2,439;   -0,682
1003,690; 2922,247;    1,258;    0,500
1004,238; 3000,066;   -0,106;   -0,045
1004,787; 2620,429;   -1,288;    1,227
1005,336; 2866,247;    1,621;    0,682
1005,885; 3020,975;   -0,197;   -2,773
1006,433; 3178,702;   -0,470;    0,955
1006,982; 3227,247;    2,167;    1,682
1007,531; 3134,884;    2,712;   -0,227
1008,079; 3114,066;    0,258;    0,500
1008,627; 3257,247;    1,621;    0,409
1009,176; 2959,793;    0,076;   -1,955
1009,724; 3003,884;   -2,742;    0,864
1010,273; 3060,247;    1,076;    0,500
1010,821; 3200,611;    1,076;    1,409
1011,369; 2928,247;    0,076;    1,318
1011,917; 2908,884;   -0,833;   -0,591
1012,465; 3183,338;    2,530;   -1,591
1013,013; 3313,975;    0,439;   -1,682
1013,561; 3171,157;   -1,288;   -0,773
1014,109; 3215,066;   -0,833;    1,682
1014,657; 3087,247;    1,348;    0,591
1015,205; 3219,702;    0,894;   -0,955
1015,753; 3247,520;    0,258;   -1,409
1016,301; 3270,520;    2,621;    3,045
1016,848; 3302,157;    2,167;    0,409
1017,396; 3331,884;    1,621;    0,045
1017,944; 3450,066;    2,621;    1,864
1018,491; 3215,702;   -0,197;    1,409
1019,039; 3359,611;   -0,652;    0,591
1019,586; 3287,520;    0,076;    1,682
1020,134; 3393,157;    0,712;    1,500
1020,681; 3405,247;    2,894;   -1,136
1021,228; 3418,247;   -0,561;   -2,227
1021,776; 3240,520;   -0,833;   -1,136
1022,323; 3442,338;    0,803;    0,773
1022,870; 3392,066;   -0,470;   -0,045
1023,417; 3292,066;    2,076;    1,864
1023,964; 3439,702;    0,621;    1,227
1024,511; 3264,338;   -0,652;    0,773
1025,058; 3052,520;    0,439;   -0,045
1025,605; 3115,520;   -1,742;    3,136
1026,152; 3315,066;   -0,106;   -0,591
1026,699; 3045,157;    0,167;    1,318
1027,245; 3232,429;    2,439;    0,318
1027,792; 3465,247;    0,712;    1,409
1028,339; 3298,247;    4,076;   -0,045
1028,885; 3178,429;    3,621;   -0,227
1029,432; 3103,066;   -0,106;    0,227
1029,978; 3159,429;    1,348;   -1,591
1030,525; 3062,793;    1,621;    0,409
1031,071; 3339,429;    0,348;    1,136
1031,618; 3427,520;    1,258;    1,682
1032,164; 3205,611;    2,076;    3,045
1032,710; 3242,247;    0,076;   -1,500
1033,256; 3186,975;    0,712;   -0,136
1033,803; 3172,975;   -0,288;    1,500
1034,349; 2900,338;    1,803;    0,136
1034,895; 3072,793;    2,621;   -0,318
1035,441; 3035,884;    0,439;    0,318
1035,987; 3026,611;   -2,288;   -0,682
1036,533; 3037,975;   -0,197;   -0,955
1037,078; 3237,520;    4,712;    1,682
1037,624; 3047,157;    2,439;   -0,955
1038,170; 3087,611;    1,712;   -0,318
1038,716; 2972,429;    2,167;   -0,409
1039,261; 2893,793;    2,167;   -0,773
1039,807; 2843,702;   -0,015;    3,409
1040,352; 2877,066;   -1,288;   -0,318
1040,898; 2926,793;    0,167;   -0,682
1041,443; 2857,611;    0,803;   -2,591
1041,989; 2875,429;    3,621;    1,591
1042,534; 2748,157;    0,985;    2,591
1043,079; 2880,338;    1,985;    0,955
1043,625; 2653,884;    0,258;    0,500
1044,170; 2694,338;    2,439;    1,045
1044,715; 2949,611;    0,167;    0,955
1045,260; 2773,338;   -0,833;   -0,955
1045,805; 2842,884;    0,258;   -0,591
1046,350; 2786,520;    0,530;   -0,409
1046,895; 2719,338;    0,803;    1,591
1047,440; 2656,793;    1,530;    0,409
1047,985; 2559,793;   -1,197;   -0,955
1048,530; 2483,066;    1,348;    1,227
1049,074; 2547,157;    2,803;    0,318
1049,619; 2529,066;   -0,924;    1,955
1050,164; 2326,884;    1,076;    0,227
1050,708; 2378,066;    2,621;    0,045
1051,253; 2737,884;    3,258;   -2,227
1051,797; 2469,429;   -0,197;   -1,318
1052,342; 2491,793;    1,348;    1,045
1052,886; 2456,611;    1,803;   -1,409
1053,430; 2334,157;    2,167;    0,136
1053,975; 2343,975;    0,894;   -0,318
1054,519; 2337,157;    1,803;    3,227
1055,063; 2339,520;    3,621;    1,318
1055,607; 2215,157;    1,348;    0,227
1056,151; 2259,066;    0,530;    1,682
1056,695; 2185,975;   -1,833;   -1,136
1057,239; 2238,793;   -1,197;   -0,682
1057,783; 2233,975;    2,258;   -1,500
1058,327; 2192,793;    3,076;    1,409
1058,871; 2405,611;    3,985;    1,318
1059,415; 2118,884;   -0,561;   -0,045
1059,958; 2358,247;    2,985;    2,591
1060,502; 2106,884;    1,348;   -0,773
1061,046; 2009,975;    1,712;   -0,955
1061,589; 1979,429;    2,803;   -1,136
1062,133; 1870,338;    0,985;    1,864
1062,676; 1815,793;    1,439;    0,864
1063,220; 1812,338;    0,985;    0,500
1063,763; 1826,975;    2,985;    1,136
1064,306; 1906,429;    0,985;    1,864
1064,849; 1789,884;    2,076;    0,591
1065,393; 1794,157;    2,894;   -1,500
1065,936; 1911,884;    2,530;   -0,409
1066,479; 1809,157;    2,621;    1,318
1067,022; 1829,066;    1,894;   -0,227
1067,565; 1726,066;   -1,197;   -1,318
1068,108; 1748,157;    1,258;   -0,591
1068,651; 1728,338;   -2,470;    1,409
1069,194; 1671,520;   -1,106;   -1,682
1069,736; 1653,157;    3,803;    0,955
1070,279; 1632,611;   -1,652;   -0,500
1070,822; 1680,429;    1,530;   -0,318
1071,364; 1750,429;    0,530;    1,318
1071,907; 1575,884;    0,348;    3,227
1072,450; 1498,247;    0,258;   -0,045
1072,992; 1480,793;   -0,561;    3,136
1073,535; 1603,157;    0,167;    2,136
1074,077; 1425,793;    2,985;    2,045
1074,619; 1377,975;    0,985;    0,591
1075,161; 1411,066;   -0,561;    1,500
1075,704; 1576,066;    0,258;    1,227
1076,246; 1393,429;    1,530;    0,682
1076,788; 1331,520;   -1,015;    1,773
1077,330; 1427,611;   -2,106;    2,136
1077,872; 1369,338;   -1,924;    0,955
1078,414; 1575,793;    3,712;    0,773
1078,956; 1312,975;    0,167;   -0,227
1079,498; 1551,429;    0,439;    0,318
1080,040; 1262,247;    0,985;   -1,318
1080,581; 1217,429;    0,621;   -0,318
1081,123; 1162,611;   -0,106;   -0,773
1081,665; 1209,157;    3,803;   -0,955
1082,206; 1477,975;    3,258;   -0,500
1082,748; 1350,611;    3,258;    2,045
1083,289; 1240,520;    0,167;    1,318
1083,831; 1141,157;    0,258;    0,227
1084,372; 1166,429;    0,894;    0,591
1084,913; 1178,702;    3,348;    0,864
1085,455; 1155,884;    1,530;   -2,045
1085,996; 1110,793;    0,530;    0,136
1086,537; 1124,157;    0,985;    0,864
1087,078; 1158,247;    0,439;   -2,136
1087,619; 1204,793;   -1,652;    0,227
1088,160; 1122,884;    1,439;    1,318
1088,701; 1105,702;   -0,742;    0,682
1089,242; 1052,793;   -0,561;   -2,227
1089,783; 1143,429;   -0,561;    1,409
1090,324; 1106,793;   -0,833;    0,682
1090,865;  988,429;   -1,924;   -0,409
1091,405;  979,066;   -0,561;    2,227
1091,946; 1006,975;   -0,197;   -0,955
1092,487;  934,702;   -1,288;   -1,409
1093,027; 1096,247;    1,803;   -1,500
1093,568;  940,975;    2,258;    1,227
1094,108; 1017,611;    0,621;    1,773
1094,649;  967,066;   -0,470;    0,136
1095,189;  910,975;    1,167;   -0,682
1095,729;  845,975;    0,712;    0,955
1096,269;  864,975;    1,258;   -0,955
1096,810; 1174,884;   -0,197;    0,500
1097,350; 1002,520;   -0,561;   -0,773
1097,890;  892,520;    2,985;    1,227
1098,430; 1142,066;    4,985;    2,864
1098,970; 1026,975;    1,894;    1,682
1099,510;  899,884;   -0,833;   -2,318
1100,050;  819,066;    0,258;   -1,591
1100,589;  784,611;    0,076;   -0,318
1101,129;  902,611;    0,894;   -0,955
1101,669; 1040,066;    2,803;    2,136
1102,209;  883,157;    1,530;    2,227
1102,748;  833,611;    3,439;    0,955
1103,288;  809,157;    0,712;   -1,227
1103,827;  850,884;    3,530;   -2,227
1104,367;  727,611;    1,712;   -2,409
1104,906;  694,611;   -1,015;   -1,136
1105,445;  765,157;    0,985;   -1,136
1105,985;  701,884;   -0,652;    1,500
1106,524;  746,975;    1,530;   -0,682
1107,063;  717,611;    1,167;    1,409
1107,602;  700,066;    1,894;   -1,500
1108,141;  634,429;    1,621;    1,500
1108,680;  728,338;    3,985;   -0,591
1109,219;  664,066;    0,167;   -0,500
1109,758;  674,157;    4,167;    0,682
1110,297;  652,429;   -1,106;   -0,682
1110,836;  601,247;    1,439;    0,955
1111,375;  740,884;    0,348;    0,409
1111,913;  750,884;    0,985;    0,773
1112,452;  702,338;    0,894;    0,136
1112,991;  590,793;    1,076;    1,955
1113,529;  549,520;    0,167;   -0,045
1114,068;  615,429;    0,439;    2,955
1114,606;  508,702;   -0,561;   -0,955
1115,144;  660,702;    1,530;    1,045
1115,683;  594,066;    1,985;    0,318
1116,221;  649,611;    2,076;   -0,864
1116,759;  562,157;    1,621;   -0,864
1117,297;  748,157;    1,621;    1,864
1117,836;  555,157;    1,985;   -1,227
1118,374;  557,884;    0,258;   -0,682
1118,912;  521,793;    0,439;    2,682
1119,450;  503,520;    0,985;    0,864
1119,988;  546,338;    3,348;    2,136
1120,525;  997,157;    7,258;    3,318
1121,063;  710,429;    0,530;    1,864
1121,601;  520,338;    1,076;   -1,227
1122,139;  465,338;    1,076;   -2,045
1122,676;  652,066;   -1,652;    2,773
1123,214;  601,429;    0,712;    4,409
1123,751;  416,793;    0,621;    2,227
1124,289;  543,793;    0,894;   -0,409
1124,826;  415,247;   -0,379;    0,227
1125,364;  345,793;    0,712;   -0,955
1125,901;  534,975;    6,258;    1,227
1126,438;  621,338;    3,530;    0,955
1126,975;  361,884;    2,985;   -0,773
1127,513;  426,975;    2,621;    2,136
1128,050;  351,066;   -0,561;   -0,682
1128,587;  436,247;    1,348;   -0,227
1129,124;  478,338;   -0,015;    1,318
1129,661;  360,338;   -1,924;    0,227
1130,198;  522,793;    2,439;    0,773
1130,734;  460,975;   -0,379;    1,409
1131,271;  323,793;   -1,197;    0,864
1131,808;  480,702;    1,621;    3,045
1132,345;  355,066;    4,530;    0,318
1132,881;  244,793;   -0,561;   -1,864
1133,418;  371,338;    0,348;   -1,136
1133,954;  322,157;    0,712;   -2,682
1134,491;  378,338;    1,712;   -0,773
1135,027;  284,975;    2,167;    0,864
1135,564;  366,702;    1,439;    2,955
1136,100;  346,338;   -0,742;    2,136
1136,636;  255,793;   -1,015;   -1,045
1137,172;  333,157;    0,894;   -1,045
1137,708;  263,157;   -1,561;   -1,045
1138,245;  268,793;    0,803;   -1,227
1138,781;  234,884;    1,803;   -3,318
1139,317;  287,520;    1,894;   -1,409
1139,852;  274,793;    3,076;    0,136
1140,388;  388,247;    2,076;   -0,409
1140,924;  271,520;    1,076;   -2,227
1141,460;  216,793;   -0,288;    0,136
1141,996;  166,793;   -0,652;    2,682
1142,531;  205,702;    1,076;    3,318
1143,067;  400,702;    1,167;    1,045
1143,602;  449,702;    3,439;   -0,318
1144,138;  303,884;    0,803;    1,045
1144,673;  192,793;    1,621;    1,409
1145,209;  249,066;    2,894;   -0,318
1145,744;  171,338;    0,803;    0,864
1146,279;  294,247;    1,530;   -0,136
1146,815;  217,520;    1,530;   -2,682
1147,350;  251,520;   -0,924;    0,045
1147,885;  171,247;   -1,924;   -1,318
1148,420;  179,157;    2,439;    0,773
1148,955;  158,884;   -1,470;    1,864
1149,490;  182,975;   -1,106;   -1,591
1150,025;  163,157;   -1,106;   -1,773
1150,560;  259,066;   -0,288;   -0,955
1151,094;  232,884;    0,258;   -0,591
1151,629;  236,793;   -3,742;    0,864
1152,164;  170,520;   -1,288;    1,318
1152,698;  142,157;    1,258;   -0,136
1153,233;  104,975;   -1,379;   -0,682
1153,767;  145,157;   -0,288;   -2,318
1154,302;  190,611;   -0,379;    1,773
1154,836;  184,338;    0,803;   -2,136
1155,371;  240,338;    2,258;    3,682
1155,905;  192,520;    1,985;    1,682
1156,439;  165,157;    0,530;   -0,500
1156,973;  192,338;    0,439;    0,318
1157,507;  130,429;   -1,742;    0,682
1158,042;  158,520;   -0,652;    1,045
1158,576;  194,611;   -0,561;    1,773
1159,110;  192,066;    0,076;    2,409
1159,643;  160,429;   -2,470;   -0,045
1160,177;  105,702;   -2,015;    1,500

