
Integration time [ms]:   0,040
Averaging Nr. [scans]: 11
Smoothing Nr. [pixels]: 0
Data measured with spectrometer [name]: 7318044SP
Wave   ;Sample   ;Dark     ;Reference
[nm]   ;[counts] ;[counts] ;[counts] 

186,757;   32,151;   38,161;    1,318
187,357;   55,198;   26,706;    0,955
187,958;   28,545;   17,252;   -1,591
188,558;   72,193;   12,979;   -1,227
189,159;   46,408;   10,070;   -4,500
189,759;   16,497;    5,797;   -3,591
190,360;   12,926;    6,797;   -2,136
190,960;   48,694;    5,706;   -4,136
191,560;   63,603;    2,614;   -6,591
192,161;  284,112;    5,885;   -3,500
192,761;  137,163;    5,520;   -3,227
193,361;   91,132;    3,065;   -3,773
193,962;  140,380;    1,612;   -2,682
194,562;   75,548;   -0,114;   -3,955
195,162;  106,777;   -0,567;   -2,227
195,762;  254,919;    2,433;   -0,045
196,362;  202,303;    1,706;   -2,500
196,963;   80,967;    1,706;   -0,864
197,563;  152,263;    1,252;   -0,955
198,163;  105,548;   -0,111;   -0,682
198,763;  120,839;   -0,020;   -0,500
199,363;  217,479;    3,616;   -0,500
199,963;  180,168;    2,162;    0,409
200,563;  154,644;    6,344;   -1,409
201,163;  135,057;    5,435;   -0,227
201,763;  217,254;    1,435;    0,318
202,363;  159,768;    0,980;    1,500
202,963;  260,386;    1,526;    1,045
203,563;  368,005;    0,344;    0,500
204,162;  217,193;    1,889;   -1,864
204,762;  204,104;    2,071;    0,591
205,362;  167,076;    0,708;    1,955
205,962;  267,896;    3,435;    1,955
206,562;  271,289;    1,889;    2,318
207,161;  233,849;    1,708;    0,318
207,761;  388,221;    4,435;    2,409
208,361;  264,605;    1,889;    1,409
208,960;  359,986;    2,889;    1,500
209,560;  421,041;    0,435;    1,591
210,160;  406,063;    5,071;    1,864
210,759;  360,207;    0,708;    1,227
211,359;  373,815;   -0,474;    1,045
211,958;  625,182;    3,526;    2,045
212,558;  700,490;    0,799;    1,864
213,157;  538,125;   -0,929;    1,500
213,757;  958,961;    5,617;   -0,227
214,356;  664,958;    1,708;   -0,409
214,956;  970,638;    3,526;    0,409
215,555;  613,219;    0,617;    2,136
216,154;  563,515;   -0,292;   -0,591
216,754;  564,285;    1,253;    0,773
217,353;  677,159;   -0,383;   -1,045
217,952;  534,753;    2,072;    0,318
218,552;  777,005;    0,254;   -0,773
219,151;  667,411;   -1,110;    0,955
219,750;  666,420;    0,890;   -0,227
220,349;  754,967;   -2,292;    1,045
220,948;  843,308;    1,163;    1,136
221,548;  821,768;    0,617;    1,227
222,147;  933,806;   -1,292;   -0,409
222,746; 1210,826;    1,254;   -0,955
223,345; 1087,811;   -1,019;    0,500
223,944; 1093,007;    1,163;    0,773
224,543; 1240,099;    4,072;   -1,409
225,142; 1359,820;    1,345;    0,136
225,741; 1256,563;    1,163;    1,045
226,340; 1277,026;    1,254;   -0,955
226,939; 1690,939;    2,708;   -0,136
227,538; 1600,922;    1,163;   -0,773
228,137; 1774,630;    0,435;    0,864
228,735; 1857,651;    0,435;    1,227
229,334; 1632,147;   -0,474;   -0,227
229,933; 2014,788;    0,799;    0,591
230,532; 2122,405;   -1,201;   -0,409
231,131; 2188,233;    1,253;    0,318
231,729; 2275,348;    1,163;   -2,318
232,328; 2349,297;    0,435;   -1,500
232,927; 2406,519;    4,526;   -0,500
233,525; 2519,110;    0,981;    0,045
234,124; 2711,291;    1,890;   -1,591
234,723; 2700,577;    1,617;   -1,045
235,321; 2845,943;    1,163;    0,136
235,920; 3028,782;    2,526;   -1,227
236,518; 3290,421;    1,072;    0,318
237,117; 3433,814;    2,890;   -0,227
237,715; 3577,012;    1,163;   -0,500
238,314; 3603,796;    1,708;   -2,318
238,912; 3711,092;    0,526;   -1,409
239,510; 3732,449;    1,162;   -1,227
240,109; 3920,620;   -0,474;    3,773
240,707; 3929,491;   -0,474;    1,227
241,305; 4244,185;   -0,383;    0,136
241,904; 4443,730;   -0,292;   -2,045
242,502; 4411,667;    3,253;   -0,227
243,100; 4350,327;    3,344;   -0,955
243,698; 4569,070;    2,799;    1,682
244,297; 4724,763;   -0,656;    0,682
244,895; 4583,440;   -0,474;   -2,318
245,493; 4873,842;    2,981;   -0,591
246,091; 4898,085;    5,163;   -1,318
246,689; 4878,106;    2,163;    0,591
247,287; 5035,013;   -0,019;   -1,136
247,885; 5298,954;   -1,019;    1,227
248,483; 5379,738;   -0,201;   -0,500
249,081; 5482,076;    0,981;    1,591
249,679; 5639,183;   -1,019;    1,682
250,277; 5854,829;   -2,292;    0,864
250,875; 5837,851;    0,617;   -1,045
251,473; 5817,635;   -0,019;    0,500
252,071; 6015,556;   -0,383;    1,045
252,669; 6180,552;   -1,565;    0,318
253,267; 6413,380;    1,618;    0,773
253,864; 6338,467;    0,617;    0,682
254,462; 6235,290;    1,526;    1,591
255,060; 6182,032;    0,072;    1,318
255,658; 6485,643;   -3,292;   -0,136
256,255; 6871,216;   -0,201;   -2,045
256,853; 6752,500;    2,345;    1,409
257,451; 6732,793;    1,981;    1,864
258,048; 6989,808;    2,072;    1,864
258,646; 6729,130;    0,436;   -1,045
259,243; 6896,954;    2,981;    2,227
259,841; 6976,235;    1,799;    0,318
260,438; 6871,546;    0,254;    0,864
261,036; 7507,583;    0,617;    1,409
261,633; 7408,510;    1,526;    2,227
262,231; 7199,912;   -0,110;   -0,045
262,828; 7283,549;   -0,383;    1,136
263,425; 7331,395;   -1,928;   -0,591
264,023; 7580,396;    1,436;    0,045
264,620; 7148,899;    1,526;   -0,318
265,217; 7483,440;    2,890;    3,136
265,815; 7601,754;    2,527;    2,136
266,412; 7375,671;    0,072;    0,136
267,009; 7399,632;    0,526;    0,773
267,606; 7319,493;    0,345;   -0,955
268,203; 7287,886;   -0,383;   -0,591
268,801; 7555,597;   -0,474;    0,591
269,398; 7850,187;   -0,564;    2,500
269,995; 7845,549;    0,890;    1,591
270,592; 7624,989;    0,799;   -0,500
271,189; 7786,847;    1,981;    0,409
271,786; 7888,125;    2,072;    1,227
272,383; 7763,450;   -0,383;    0,227
272,980; 7911,840;    1,617;    0,318
273,577; 8339,515;    2,162;    1,227
274,174; 7935,090;    1,435;    2,591
274,771; 7914,916;    1,890;   -0,773
275,367; 8064,172;    3,253;    1,409
275,964; 8053,693;   -0,565;   -0,500
276,561; 8142,216;   -2,474;   -1,045
277,158; 8310,274;    1,799;   -1,773
277,755; 8462,076;   -0,110;    0,409
278,351; 7893,969;    0,436;   -1,500
278,948; 8176,164;   -0,201;    0,045
279,545; 8163,168;    0,527;    2,318
280,141; 8762,787;    1,254;   -2,045
280,738; 8625,231;    2,435;   -0,136
281,334; 8809,733;   -0,383;    0,591
281,931; 8223,286;    2,890;   -1,318
282,528; 8334,415;    4,072;   -0,500
283,124; 8978,563;    3,345;   -0,500
283,721; 8867,643;    0,709;    1,409
284,317; 8694,766;    0,163;    2,500
284,913; 9194,668;   -0,110;    0,591
285,510; 9389,032;    2,890;   -0,318
286,106; 9414,647;    2,345;   -0,955
286,703; 9041,568;    0,072;    1,955
287,299; 9210,235;    1,254;   -0,591
287,895; 9412,741;    0,890;   -1,045
288,491; 9954,733;    0,163;    2,136
289,088; 9720,429;    0,163;    2,409
289,684; 9760,552;    2,890;    1,500
290,280; 9764,395;    1,890;    0,682
290,876; 9802,806;    0,163;    5,500
291,472; 9721,298;    2,163;    2,227
292,068; 9809,877;    1,254;    0,227
292,665; 9528,235;   -0,564;    0,773
293,261; 9196,986;   -1,292;    2,136
293,857; 9580,710;    4,072;    2,136
294,453; 9496,809;   -0,928;    0,955
295,049; 9391,653;    0,253;    1,955
295,644; 9411,857;   -1,292;    0,136
296,240; 9315,556;    0,162;   -0,136
296,836; 9386,929;   -0,747;    0,318
297,432; 9638,968;    2,980;   -0,500
298,028; 9694,197;    0,435;    0,773
298,624;10036,502;    0,889;    1,864
299,220;10258,123;    0,435;    0,591
299,815; 9918,553;    0,526;   -0,409
300,411; 9729,289;    0,435;    1,773
301,007; 9747,624;    1,889;    0,227
301,602; 9781,773;    2,071;   -2,318
302,198; 9947,107;    1,435;   -0,773
302,794;10248,709;    1,526;   -0,500
303,389;10329,464;    1,071;    1,045
303,985;10387,013;    1,253;    1,409
304,580;10372,275;    0,889;    1,591
305,176;10385,266;    0,344;    0,136
305,771;10307,008;   -0,929;   -1,227
306,367;10175,928;    3,071;    0,136
306,962;10508,864;    2,889;    1,500
307,558;10226,453;    2,435;    0,136
308,153;10148,608;   -0,383;   -1,136
308,748;10365,802;    0,162;    1,682
309,344;10349,133;    0,253;   -1,318
309,939;10452,892;    2,071;   -1,318
310,534;10715,012;   -2,020;   -1,682
311,130;10637,282;   -0,656;   -2,500
311,725;10380,205;    0,526;   -0,500
312,320;10664,616;    1,253;    0,045
312,915;10540,173;    2,890;   -1,045
313,510;10595,479;    0,526;   -0,500
314,105;11087,812;   -3,565;    1,409
314,700;10516,007;   -1,656;   -1,045
315,295;10201,821;   -0,020;    0,045
315,890; 9799,088;   -0,292;    0,864
316,485;10085,526;    0,253;   -0,318
317,080;10214,185;   -0,929;    1,591
317,675;10689,232;    3,071;   -0,682
318,270;10161,547;    6,889;    3,318
318,865;10153,659;    2,435;    3,045
319,460; 9997,931;   -1,565;    0,591
320,055;10234,553;   -2,565;   -1,227
320,650; 9931,726;   -1,838;   -0,591
321,244; 9983,993;    0,889;   -1,409
321,839;10860,762;    0,980;   -0,227
322,434;10705,344;   -0,111;   -1,591
323,029;10387,920;   -0,474;    1,591
323,623;10267,621;    0,798;    0,773
324,218;10066,522;    2,707;    1,409
324,812; 9951,051;    0,889;    1,591
325,407; 9790,113;   -0,929;    2,045
326,002; 9728,320;    0,526;   -0,409
326,596;10041,070;   -0,656;    1,318
327,191;10224,062;   -0,383;   -1,045
327,785; 9863,707;   -0,747;   -0,227
328,379;10093,904;   -0,383;    0,136
328,974; 9843,654;    1,798;   -3,955
329,568;10095,599;    2,889;   -2,409
330,163; 9932,174;    2,435;    1,045
330,757;10256,621;    0,253;    1,591
331,351; 9614,422;   -0,292;    0,682
331,945; 9901,821;   -0,383;    1,409
332,540; 9531,037;    1,617;   -0,591
333,134; 9685,010;    3,344;    0,773
333,728; 9890,014;    2,799;    0,318
334,322;10196,151;    0,889;   -0,864
334,916; 9509,391;    0,344;    0,955
335,510; 9835,397;   -0,111;   -0,136
336,105;10078,062;   -0,929;    1,591
336,699; 9775,519;   -1,292;    0,591
337,293; 9718,865;    1,071;    0,318
337,887; 9820,912;    0,071;    1,955
338,481; 9898,627;    2,980;    0,591
339,074;10064,958;    2,071;    2,682
339,668; 9915,131;   -0,110;    1,227
340,262;10166,649;    7,708;    3,227
340,856; 9665,793;    1,708;   -0,682
341,450; 9052,217;    0,708;    1,864
342,044; 9845,774;    1,799;    0,136
342,637; 9650,438;    1,162;   -2,136
343,231; 9534,476;   -1,474;    0,682
343,825; 9466,086;   -0,747;   -0,591
344,419; 9456,694;   -0,474;    0,500
345,012; 9267,271;    2,889;    4,045
345,606; 9271,465;   -0,656;    1,591
346,199; 9154,126;   -0,111;   -0,227
346,793; 8723,118;    2,525;    2,045
347,386; 8932,958;    0,889;   -1,136
347,980; 8914,940;   -0,838;   -0,045
348,573; 8732,708;   -1,748;    0,409
349,167; 8444,519;    6,161;    4,773
349,760; 8787,773;    2,252;    2,682
350,354; 8734,788;    1,616;    1,136
350,947; 8483,550;    2,798;    1,682
351,540; 8212,797;    0,616;   -1,409
352,134; 8163,433;   -1,111;    1,136
352,727; 8251,136;   -0,657;    1,136
353,320; 8061,714;    2,343;    0,591
353,913; 7897,702;   -1,929;    1,864
354,507; 8106,960;    0,434;   -1,227
355,100; 8100,268;    0,071;    0,864
355,693; 7427,776;    4,798;    2,409
356,286; 7482,090;    0,980;    2,773
356,879; 7804,277;   -0,475;    1,227
357,472; 7442,782;    0,980;    1,500
358,065; 7635,278;    3,161;    2,500
358,658; 7562,025;    0,798;    2,318
359,251; 7235,255;    0,252;   -0,591
359,844; 6791,160;    0,343;   -1,136
360,437; 6968,476;    0,252;    0,045
361,030; 7232,869;    0,525;   -0,682
361,623; 6848,461;    0,434;    0,318
362,215; 6894,001;    0,979;    2,045
362,808; 6747,693;   -2,293;   -1,682
363,401; 6908,789;    0,798;    0,136
363,994; 6724,319;    3,252;   -1,500
364,586; 6626,681;    0,888;   -1,500
365,179; 6792,448;   -0,203;   -1,136
365,772; 6313,172;   -0,930;    2,045
366,364; 6610,169;    1,524;   -3,227
366,957; 6807,504;    1,342;   -0,045
367,549; 6805,598;   -0,203;   -0,864
368,142; 6493,762;    0,978;   -1,500
368,734; 6661,931;    2,523;   -2,136
369,327; 6622,605;    2,341;   -0,500
369,919; 6572,187;   -1,659;    0,409
370,512; 6410,314;   -1,023;   -0,500
371,104; 6176,832;    2,704;    1,591
371,696; 6337,280;    1,703;   -0,955
372,289; 6390,950;    0,157;    1,136
372,881; 6533,402;    1,156;    1,318
373,473; 6429,637;    4,064;    1,136
374,066; 6281,944;    1,336;    0,500
374,658; 6121,482;    0,879;    1,136
375,250; 6463,060;   -1,668;   -1,409
375,842; 6317,796;   -0,124;   -0,045
376,434; 6206,957;   -2,762;   -0,409
377,026; 6707,569;   -1,855;   -2,500
377,618; 6619,427;    0,779;   -0,682
378,210; 6493,945;    3,141;   -1,955
378,802; 6351,095;    3,412;   -0,591
379,394; 6342,519;    3,411;    0,682
379,986; 6860,836;    1,138;   -0,955
380,578; 6926,130;    1,410;    0,773
381,170; 6323,471;    0,320;    0,045
381,762; 6271,204;   -0,224;    1,409
382,354; 6446,909;   -0,223;   -1,318
382,945; 6560,211;    0,870;    0,318
383,537; 6662,613;    1,144;   -1,955
384,129; 6677,559;    0,963;   -1,136
384,721; 6849,515;    0,418;    0,955
385,312; 6774,806;   -1,399;   -0,955
385,904; 6866,234;   -0,945;    1,591
386,496; 6292,133;    0,691;    1,045
387,087; 6457,693;    0,418;    2,500
387,679; 6482,577;   -0,401;    0,045
388,270; 6592,608;   -2,401;    2,045
388,862; 6692,567;   -0,401;   -0,318
389,453; 6541,596;    1,054;    1,045
390,045; 6790,754;    3,236;   -2,682
390,636; 6770,119;    0,144;   -0,591
391,227; 6607,947;    2,054;   -0,045
391,819; 6700,134;    0,781;    0,773
392,410; 6755,150;    0,600;    0,045
393,001; 6688,675;    1,600;   -1,591
393,593; 6960,109;    0,600;   -0,045
394,184; 6828,633;    0,873;   -0,409
394,775; 6715,998;    1,146;    2,136
395,366; 6927,644;    1,782;    0,773
395,957; 6887,403;   -2,400;    0,136
396,548; 7190,764;    1,054;    2,682
397,139; 7473,517;    2,236;    0,591
397,730; 7212,481;    0,873;    0,955
398,321; 7255,247;    0,509;    0,955
398,912; 7267,465;   -0,764;    0,136
399,503; 7367,713;   -1,945;   -1,409
400,094; 6863,217;   -1,582;    1,682
400,685; 6716,719;    3,600;    0,045
401,276; 6769,796;   -0,400;   -0,955
401,867; 7076,577;   -1,127;    0,773
402,458; 7130,724;    1,509;   -2,318
403,048; 7141,702;    0,146;    0,591
403,639; 6798,175;    1,509;    0,864
404,230; 7056,138;    0,691;    0,318
404,821; 6974,622;   -0,127;    0,045
405,411; 7088,265;   -0,763;   -2,591
406,002; 6706,865;    3,237;   -1,136
406,592; 6584,611;    2,691;    0,045
407,183; 6840,847;    0,328;   -1,500
407,774; 6766,280;    1,419;   -0,136
408,364; 7076,628;    2,600;    0,409
408,954; 6716,645;   -0,036;    1,227
409,545; 6771,709;    1,873;    1,045
410,135; 6313,300;   -1,581;    0,500
410,726; 6469,632;    0,783;    0,318
411,316; 6845,459;    2,237;    0,773
411,906; 6521,745;    0,146;   -0,409
412,497; 6076,004;   -0,490;   -0,045
413,087; 6600,463;    0,783;   -0,227
413,677; 6973,200;   -2,490;    3,864
414,267; 6812,989;   -1,035;    1,409
414,857; 6847,044;    0,419;    4,227
415,448; 7089,199;   -0,763;    0,500
416,038; 6800,571;   -2,945;   -0,591
416,628; 6760,991;    0,965;    0,409
417,218; 6321,036;   -1,762;    3,318
417,808; 6540,091;    0,965;   -0,409
418,398; 6946,912;   -1,035;    2,682
418,988; 6940,146;   -2,217;    0,591
419,578; 7142,505;    3,601;    1,409
420,168; 7479,249;    0,692;   -0,955
420,757; 7081,767;    0,964;   -1,500
421,347; 6774,500;    1,601;   -0,227
421,937; 6927,860;    3,329;    1,409
422,527; 6893,495;    2,602;   -0,773
423,116; 6713,320;    2,692;   -0,045
423,706; 7033,204;    2,965;    0,318
424,296; 6984,519;    1,601;    0,682
424,885; 7393,337;    1,510;   -3,045
425,475; 7635,657;    1,147;   -2,864
426,065; 7541,359;   -1,489;   -0,318
426,654; 7192,631;    0,329;   -0,318
427,244; 7309,050;    1,147;    1,409
427,833; 6829,289;    1,056;   -0,500
428,423; 7236,022;    0,147;    1,136
429,012; 7929,361;    2,420;   -1,136
429,601; 7442,998;    2,057;    0,136
430,191; 7684,570;    2,511;    4,318
430,780; 7334,502;   -1,671;   -0,409
431,369; 7267,886;    1,329;   -0,045
431,959; 7841,168;    1,693;    0,500
432,548; 7620,037;   -1,398;   -0,045
433,137; 7728,238;    0,329;   -1,318
433,726; 8219,882;    0,148;    0,500
434,315; 7646,396;    0,148;    2,409
434,905; 7705,212;    0,693;    1,409
435,494; 7652,021;    3,148;    0,955
436,083; 8061,663;    1,420;   -0,955
436,672; 7945,591;    1,148;    0,500
437,261; 7556,286;    0,512;   -1,955
437,850; 7672,928;   -1,125;    0,682
438,439; 7625,579;    2,239;    1,955
439,027; 7509,228;    3,421;    1,773
439,616; 7819,738;    2,239;    1,227
440,205; 7667,934;    0,057;   -2,136
440,794; 7703,633;   -0,306;   -0,045
441,383; 7938,355;    1,603;   -0,591
441,971; 7821,894;   -0,306;    0,591
442,560; 7654,138;    0,603;   -1,773
443,149; 7409,484;    3,060;   -1,318
443,737; 7574,558;    0,968;   -2,318
444,326; 7819,620;    0,331;    0,318
444,915; 7878,113;   -1,851;    0,864
445,503; 8217,708;    0,058;   -0,318
446,092; 7540,176;    7,876;    2,136
446,680; 8048,678;    1,876;    0,318
447,269; 8194,737;   -1,487;   -0,318
447,857; 7974,952;    2,240;   -1,773
448,445; 8084,827;    2,149;    1,318
449,034; 8311,613;    0,876;   -1,136
449,622; 8401,683;    1,240;    3,500
450,210; 7728,321;    3,149;    2,227
450,799; 8236,810;    2,604;   -0,591
451,387; 8175,574;    1,786;   -0,591
451,975; 7865,169;   -1,305;    0,864
452,563; 7946,617;    0,422;    2,318
453,151; 7932,459;   -1,032;   -1,227
453,739; 7868,389;   -1,577;    0,136
454,328; 7776,004;    0,604;   -2,136
454,916; 7517,690;    1,150;   -0,136
455,504; 7677,575;    3,513;    1,227
456,092; 7828,691;    2,150;   -1,591
456,679; 7782,331;    0,604;    0,682
457,267; 7811,364;    3,604;    1,045
457,855; 7895,360;    3,241;    1,409
458,443; 7640,854;   -0,304;    1,682
459,031; 7824,898;    1,332;    2,409
459,619; 8182,603;   -3,577;    2,864
460,206; 8262,891;   -0,759;    2,045
460,794; 8386,346;   -0,668;   -0,227
461,382; 8588,191;    0,878;   -0,864
461,970; 8185,690;    0,605;    1,864
462,557; 8243,210;    0,878;   -0,682
463,145; 8397,146;   -0,304;   -1,682
463,732; 8517,198;    2,514;   -1,045
464,320; 8439,351;    1,514;   -3,045
464,907; 8146,882;    0,423;   -0,773
465,495; 8020,846;    2,696;   -1,227
466,082; 8146,620;    2,060;   -0,045
466,670; 8080,990;    2,605;    1,227
467,257; 8478,324;    0,060;    2,045
467,844; 8636,703;    1,514;    0,045
468,432; 8622,188;   -0,031;    3,500
469,019; 8181,483;    1,606;   -1,773
469,606; 8603,706;    0,969;    3,682
470,193; 8456,741;    2,151;    0,227
470,780; 8062,603;    0,333;    0,864
471,368; 8385,883;   -1,212;   -0,773
471,955; 8172,891;    1,060;   -0,682
472,542; 7848,093;   -0,303;   -1,136
473,129; 8082,014;   -0,485;    0,136
473,716; 7866,593;    0,060;    0,591
474,303; 8010,641;    1,333;   -0,864
474,890; 8277,218;    2,333;   -0,500
475,477; 8307,648;   -0,576;    0,409
476,064; 8213,218;    0,697;   -1,591
476,650; 8127,312;    2,152;    0,318
477,237; 7956,948;    1,879;    0,955
477,824; 8112,754;    3,879;    0,864
478,411; 8105,748;    0,606;   -0,318
478,997; 8295,899;    0,606;   -0,773
479,584; 8372,697;   -0,666;   -0,409
480,171; 8994,405;    1,243;   -0,773
480,757; 8702,677;   -0,848;    0,773
481,344; 8962,612;    0,334;    0,409
481,931; 8445,516;   -0,393;    1,045
482,517; 9309,870;    0,425;    0,318
483,104; 9785,583;    1,334;    2,864
483,690;10019,701;    0,243;    0,045
484,276;10317,715;    0,698;    0,227
484,863;10059,353;    2,152;    1,136
485,449;10581,335;    0,152;    0,318
486,035;10568,001;   -0,666;   -0,136
486,622;10980,535;   -2,393;    0,045
487,208;10902,853;    1,334;    1,500
487,794;10773,657;    0,971;    0,318
488,380;10850,489;    0,698;   -1,409
488,967;10945,666;   -1,120;   -0,409
489,553;10992,481;   -1,029;   -1,409
490,139;11189,416;    0,971;    0,773
490,725;10692,310;    0,789;   -0,227
491,311;10319,665;    1,516;    3,045
491,897; 9705,420;   -0,665;    1,500
492,483; 9560,911;    0,426;    1,227
493,069; 9462,858;    5,426;    0,864
493,655; 9369,844;    1,789;    0,682
494,241; 9324,290;    1,517;   -0,955
494,826; 9680,866;    0,335;   -1,045
495,412; 9181,889;    0,335;   -0,682
495,998; 9314,540;    0,971;   -0,318
496,584; 9414,565;    2,244;    1,045
497,169; 9401,583;    2,335;   -0,682
497,755; 9375,163;    1,244;    1,227
498,341; 9880,058;    2,153;    0,318
498,926; 9488,697;    2,881;    1,955
499,512; 9626,418;   -0,028;    2,955
500,097; 9692,680;   -0,574;   -0,318
500,683; 9651,297;   -0,028;    2,136
501,268; 9996,005;    1,881;   -0,955
501,854; 9724,911;   -0,119;    1,227
502,439; 9671,502;   -0,573;   -1,773
503,024; 9826,355;    1,608;    0,500
503,610; 9867,624;    1,335;   -0,682
504,195; 9883,051;    1,245;    1,955
504,780; 9994,557;    2,335;    1,227
505,366; 9845,229;    4,063;    2,864
505,951; 9611,860;   -1,119;    1,045
506,536; 9640,010;    1,427;   -3,682
507,121; 9607,196;    1,699;   -0,318
507,706;10077,678;   -0,392;    1,045
508,291;10377,566;   -2,937;    1,136
508,876; 9879,975;   -0,482;    2,591
509,461; 9416,691;    1,427;   -0,773
510,046; 9804,253;   -0,391;    0,318
510,631; 9971,339;   -0,119;   -0,773
511,216; 9705,656;   -0,664;   -0,500
511,801;10076,924;   -0,755;    2,591
512,386;10297,601;    0,972;    0,500
512,971;10214,920;    0,427;    0,955
513,555; 9842,206;    1,154;   -1,500
514,140;10557,355;    1,336;   -3,136
514,725;10509,111;    1,791;   -1,136
515,309;10589,692;    1,064;    0,318
515,894;10143,235;   -0,300;   -2,227
516,479;10556,297;    1,973;   -0,955
517,063;10388,578;    0,882;    1,227
517,648;10516,130;    0,155;   -1,136
518,232;10159,301;   -1,300;   -1,409
518,817;10490,144;    1,337;    1,682
519,401;10668,975;    0,700;    0,591
519,985;10202,235;    2,700;    1,136
520,570;10111,242;   -0,118;   -1,955
521,154;10354,287;    0,064;    0,591
521,738;10502,060;    1,064;    2,409
522,323;11064,413;   -0,390;    1,682
522,907;10782,100;    2,428;   -0,136
523,491;10501,673;    1,155;    0,955
524,075;10483,880;    0,428;    0,591
524,659;10607,717;    0,973;    0,591
525,243;10155,746;    0,883;    0,409
525,827;10342,290;    0,883;   -0,045
526,411;11053,898;    1,155;   -0,136
526,995;11281,210;    0,337;    1,409
527,579;10872,793;    1,974;   -1,045
528,163;11135,478;    0,428;   -1,500
528,747;11075,766;    1,065;   -0,773
529,331;11342,167;    0,883;   -1,409
529,915;11494,732;    2,338;    0,955
530,499;11444,982;    0,247;    1,227
531,082;11204,017;    1,065;    1,591
531,666;10706,771;    0,520;    0,773
532,250;11277,246;    0,428;    2,682
532,833;11541,853;    0,610;    2,773
533,417;11427,562;    1,247;    0,864
534,001;11401,366;    0,429;   -0,318
534,584;11998,037;    1,974;    0,500
535,168;11865,170;    3,247;    1,409
535,751;11854,046;    4,520;    0,045
536,334;11346,311;    4,520;   -0,409
536,918;11938,034;    1,974;    1,591
537,501;12010,284;    1,520;    1,318
538,085;11982,318;    1,702;    1,045
538,668;12109,707;    0,883;    2,409
539,251;12390,641;    3,156;    3,773
539,834;12418,817;    0,156;    0,773
540,418;12341,704;    3,247;    4,318
541,001;12410,122;    2,702;    1,773
541,584;12399,471;    1,429;    2,227
542,167;12088,825;    0,702;    2,955
542,750;12223,385;    0,793;   -0,773
543,333;11855,757;    1,429;    2,136
543,916;12520,880;   -0,298;    2,500
544,499;13021,192;    2,520;    0,227
545,082;13029,287;    0,248;    3,591
545,665;13152,933;   -0,207;    1,500
546,248;13424,120;    0,520;   -0,318
546,830;13116,657;   -1,752;    1,955
547,413;13484,603;    0,157;   -0,773
547,996;13947,487;    0,157;    0,500
548,579;13746,287;   -0,843;    0,955
549,161;13553,837;    0,884;    2,682
549,744;13342,455;    0,612;    0,409
550,326;13831,595;    0,885;   -1,136
550,909;13619,276;    2,339;    0,591
551,492;13965,267;    0,521;    0,227
552,074;13749,585;   -0,024;   -1,318
552,657;14244,086;    2,430;    0,045
553,239;14033,435;   -3,024;   -0,773
553,821;13976,584;   -1,570;    1,045
554,404;13514,448;   -0,024;    1,136
554,986;13862,649;    2,248;    1,045
555,568;14374,998;    0,430;   -0,955
556,151;13682,751;    4,067;   -0,227
556,733;13845,300;   -1,388;   -0,864
557,315;14240,443;    4,703;    0,500
557,897;14004,049;    0,521;   -0,500
558,479;14163,121;    1,703;    1,318
559,061;14303,670;    1,067;   -0,864
559,643;14552,488;   -0,297;    0,045
560,225;14827,820;   -0,388;    2,864
560,807;14849,033;    0,340;    0,318
561,389;14451,974;   -1,206;    2,318
561,971;15079,900;   -0,660;    2,136
562,553;14942,854;    0,613;    1,591
563,135;15029,214;    1,249;    1,136
563,717;14628,666;    3,158;    1,136
564,298;15189,206;    3,976;   -0,045
564,880;14957,366;    0,340;   -1,409
565,462;15094,275;    1,977;    1,318
566,043;16096,449;   -0,933;    2,318
566,625;15673,561;    4,067;    1,227
567,207;15475,454;    0,704;    1,682
567,788;16415,258;   -0,114;    1,500
568,370;17124,798;   -1,841;   -0,500
568,951;16904,450;   -0,569;    0,227
569,533;17614,321;    0,977;   -0,500
570,114;17997,646;   -0,296;    0,682
570,695;18388,369;   -0,478;   -1,318
571,277;18727,025;   -0,205;   -1,682
571,858;19332,804;    2,704;   -1,136
572,439;20109,328;    0,795;   -1,045
573,021;20186,779;    0,432;   -2,773
573,602;20585,053;    1,795;    0,318
574,183;21367,573;   -0,114;    2,227
574,764;21394,704;    2,068;    0,409
575,345;21787,018;    0,250;   -0,136
575,926;22324,727;    2,704;    0,136
576,507;22285,529;    2,704;   -0,227
577,088;23273,414;    1,704;    1,682
577,669;23247,536;    1,704;    1,955
578,250;23924,028;   -0,750;   -1,045
578,831;24426,833;   -0,841;   -2,227
579,412;24554,925;   -1,205;    0,955
579,993;25398,747;    1,432;    0,227
580,573;25672,477;   -0,023;   -0,955
581,154;24703,174;    1,613;   -0,591
581,735;25519,988;    0,341;    0,773
582,315;24998,897;    0,523;    2,136
582,896;25284,250;   -1,750;    1,227
583,477;24821,653;    0,614;    1,227
584,057;24977,179;    1,159;    0,955
584,638;25231,656;   -2,750;    2,318
585,218;25210,857;    2,886;    2,682
585,799;25420,231;    1,977;   -0,227
586,379;25470,869;    1,250;    1,591
586,959;24384,438;    2,613;    0,318
587,540;23810,554;    0,432;    2,227
588,120;23447,713;   -1,113;   -0,045
588,700;22632,495;    2,977;    2,136
589,281;22925,612;    1,250;   -0,955
589,861;22824,690;   -0,296;   -1,682
590,441;22650,570;   -1,477;   -2,682
591,021;21766,496;    1,432;   -2,591
591,601;21979,494;    0,431;    0,500
592,181;22054,875;   -1,296;   -0,773
592,761;21449,165;    2,250;    1,409
593,341;21347,891;    1,522;    0,045
593,921;21389,300;   -0,569;    1,591
594,501;21284,643;    1,250;    1,318
595,081;21109,457;    0,522;   -0,318
595,661;21441,838;    1,068;    0,955
596,240;21877,518;   -1,023;    0,136
596,820;21495,669;    2,613;    1,955
597,400;21635,833;    1,977;    0,773
597,980;21859,710;   -0,750;    1,045
598,559;21914,260;    0,341;   -0,227
599,139;21664,497;   -0,750;   -1,227
599,718;21554,224;    0,795;   -0,409
600,298;21799,102;   -2,387;    0,682
600,877;21988,192;    4,795;    1,409
601,457;22252,525;    0,340;    1,136
602,036;22149,425;    1,795;    2,045
602,616;22304,458;    2,250;    1,682
603,195;22646,728;    0,431;    3,500
603,774;22159,215;   -0,296;    2,045
604,354;22032,422;    2,522;   -0,500
604,933;21623,376;    0,250;    1,864
605,512;21727,608;    2,340;    0,591
606,091;21756,034;    1,886;    3,773
606,671;22508,390;    0,249;    0,773
607,250;21723,529;    1,431;    3,136
607,829;21917,015;    1,158;    3,227
608,408;21812,508;    4,613;    2,591
608,987;20912,707;    2,704;    3,409
609,566;21182,907;    0,341;   -2,500
610,145;21301,236;    2,885;    0,682
610,723;21664,629;    1,613;    6,864
611,302;21017,897;    1,067;    1,682
611,881;20595,819;    5,158;   11,227
612,460;21337,460;    0,795;    3,955
613,039;21712,087;    1,703;    2,045
613,617;20541,317;    0,886;    4,773
614,196;20686,574;    1,613;    1,227
614,775;21006,651;    1,249;    2,409
615,353;20958,042;   -1,660;    0,864
615,932;20721,228;    0,249;    2,409
616,510;21321,945;    0,158;    0,591
617,089;20901,687;    8,794;   17,591
617,667;20728,934;    4,885;    6,136
618,246;20538,756;   -1,115;    1,318
618,824;20673,012;    1,612;   -0,955
619,402;20274,900;    0,431;   -1,773
619,981;20661,902;    1,067;   -1,045
620,559;20562,068;    0,794;    1,682
621,137;20180,555;    3,067;    1,864
621,715;20153,857;    3,703;   -0,682
622,293;20120,916;    1,885;   -0,773
622,871;20591,170;    0,340;    0,500
623,450;20190,019;    0,430;   -0,864
624,028;20137,749;   -0,388;   -0,955
624,606;19767,004;    2,339;    1,682
625,183;20113,458;   -0,661;   -1,136
625,761;19753,479;    1,885;    1,136
626,339;20037,148;    2,339;    2,591
626,917;20383,832;    0,339;   -0,045
627,495;20442,428;    2,794;    1,318
628,073;19947,950;    5,248;    2,864
628,650;19662,329;    3,067;    2,136
629,228;20024,127;    1,248;    4,409
629,806;19509,741;   -0,024;    1,136
630,383;19730,350;    0,066;   -0,318
630,961;19577,946;   -2,206;   -0,955
631,539;19350,005;   -2,479;    0,227
632,116;18752,765;   12,703;   15,409
632,694;19268,580;    4,885;    6,500
633,271;19460,188;    1,975;    2,682
633,848;19424,710;    1,430;    2,045
634,426;19471,193;    1,521;    1,773
635,003;18714,930;   -0,207;   -0,409
635,580;18984,469;    1,884;    3,682
636,158;19488,491;    3,793;    1,227
636,735;19450,302;    3,339;   -0,500
637,312;19591,491;    0,521;   -0,682
637,889;19623,094;    2,248;   -0,682
638,466;19180,413;    0,066;   -0,409
639,043;19211,139;    1,702;   -1,136
639,620;19447,592;    0,611;   -0,955
640,197;19699,274;    1,612;    1,682
640,774;19884,085;    1,430;    1,136
641,351;20214,623;    0,612;    1,136
641,928;19716,433;    2,794;    1,409
642,505;19368,335;    0,794;   -0,500
643,082;19526,055;    1,885;    1,227
643,658;18645,502;    1,157;    1,500
644,235;19261,495;   -2,479;    2,500
644,812;19492,033;    1,794;    0,773
645,388;19297,207;    1,612;    1,409
645,965;19359,109;    1,521;    1,682
646,542;19432,919;    3,430;   -0,227
647,118;19444,639;    3,703;   -0,955
647,695;19676,359;    0,339;    1,136
648,271;19599,442;   -2,115;    0,500
648,848;19818,162;    0,248;    2,227
649,424;19727,518;    0,976;    1,318
650,000;19499,784;   -0,388;   -1,045
650,577;19330,412;    0,158;   -0,955
651,153;19703,859;   -1,115;    0,955
651,729;20512,125;    0,521;    0,864
652,305;20645,481;    1,339;    2,773
652,881;23997,473;   -1,297;    1,136
653,458;29345,739;    0,249;    0,227
654,034;32345,822;    0,703;    1,591
654,610;33575,451;    0,339;    0,773
655,186;34755,080;    1,612;    3,045
655,762;34406,982;   -1,842;    0,409
656,338;34465,247;    0,703;    0,136
656,913;35370,239;   -0,297;    0,409
657,489;34727,232;    0,249;   -0,318
658,065;34682,315;    0,794;   -1,591
658,641;35253,217;    2,158;   -0,864
659,217;34639,209;    2,067;    0,409
659,792;34140,838;   -1,751;   -0,409
660,368;34456,467;   -0,388;   -0,682
660,944;34416,642;    1,794;    1,227
661,519;30815,998;    0,522;    0,409
662,095;25983,081;   -0,206;    0,591
662,670;22182,346;   -0,206;   -0,136
663,246;21310,884;   -0,660;   -0,409
663,821;20744,332;    0,431;    1,682
664,396;20205,233;    0,613;    1,864
664,972;20450,771;   -0,660;   -0,500
665,547;20732,764;    3,794;    0,136
666,122;20747,211;    1,340;    0,318
666,698;20991,931;    2,431;    0,318
667,273;20369,559;    0,885;    0,136
667,848;21076,188;    0,340;    1,500
668,423;20931,635;    1,795;    2,318
668,998;21336,992;    0,976;   -0,682
669,573;21818,439;    2,067;   -1,500
670,148;21627,977;    1,885;   -0,682
670,723;21417,969;   -0,024;    0,318
671,298;21809,871;   -1,296;    1,045
671,873;21833,227;   -0,296;   -0,136
672,448;21821,038;    1,704;    0,136
673,023;22115,394;    0,249;   -0,227
673,597;22388,750;    2,704;    2,318
674,172;22232,834;    2,431;    0,318
674,747;21782,190;   -0,205;   -1,045
675,321;21584,000;   -0,933;    3,318
675,896;21244,902;    2,158;    1,045
676,471;22078,349;    2,522;    1,591
677,045;21854,433;   -0,296;    0,682
677,620;21867,425;    2,158;    1,136
678,194;22197,327;    0,249;    1,136
678,769;21783,592;    0,886;   -0,318
679,343;22015,403;   -0,023;    1,773
679,917;21890,759;    0,340;    1,955
680,492;21920,933;    0,249;    3,227
681,066;22023,108;    0,613;    0,409
681,640;22089,009;    1,795;   -0,318
682,214;22785,365;    2,340;    0,500
682,788;22330,721;    0,613;   -0,773
683,363;22236,714;    1,977;    1,682
683,937;22012,888;    0,886;   -0,318
684,511;22695,608;   -1,023;   -0,591
685,085;22406,055;   -1,478;    0,318
685,659;22123,230;    1,431;    0,864
686,232;22376,131;    1,159;   -0,318
686,806;22086,124;    2,159;    0,409
687,380;22729,480;   -1,932;    0,591
687,954;22941,018;    2,432;    1,136
688,528;22591,738;    2,613;    1,955
689,101;23380,821;    0,432;    1,045
689,675;22959,268;    0,886;   -0,136
690,249;22350,352;    3,432;    0,409
690,822;22710,526;    1,159;    0,318
691,396;22809,337;    2,068;    1,227
691,969;22317,875;    2,523;    0,136
692,543;22738,776;   -0,568;   -1,955
693,116;22409,769;   -0,659;   -1,409
693,690;22299,580;   -0,296;    0,500
694,263;22820,299;    2,341;    2,955
694,836;22817,019;    2,795;    3,591
695,410;21618,921;    1,159;    1,773
695,983;21960,641;    1,614;    0,591
696,556;21956,542;   -0,750;   -1,045
697,129;22284,535;   -1,114;    1,409
697,703;21951,891;    1,341;    1,955
698,276;21970,429;    1,705;   -0,773
698,849;21822,603;   -1,023;    1,409
699,422;22184,687;    1,250;    0,591
699,995;21911,679;   -0,659;    0,136
700,568;22329,854;   -0,204;    3,045
701,140;22342,210;   -1,841;    1,682
701,713;22081,202;    0,341;    2,409
702,286;21859,195;    0,796;    0,864
702,859;21766,824;    0,614;   -0,591
703,432;21075,271;   -0,841;    0,682
704,004;21501,536;    1,978;    0,318
704,577;21349,165;    1,068;    0,136
705,150;21864,430;    0,887;    2,500
705,722;21680,059;    1,523;   -3,227
706,295;21479,961;    1,432;   -0,591
706,867;21356,772;    0,250;    1,955
707,440;21589,037;   -0,113;   -0,409
708,012;21801,757;   -0,022;    0,591
708,584;21689,295;    2,705;    0,227
709,157;21958,833;    1,160;   -0,591
709,729;21711,916;    1,069;    2,045
710,301;22513,181;   -1,204;    0,045
710,874;22415,265;    0,341;   -0,227
711,446;21386,803;   -0,295;    0,864
712,018;21247,795;   -3,022;    0,500
712,590;21044,242;   -0,204;    1,682
713,162;21532,326;   -0,477;    1,318
713,734;21748,136;    1,796;   -2,045
714,306;21719,311;    0,342;   -0,409
714,878;20473,849;   -0,295;    0,864
715,450;21281,114;   -0,113;    0,864
716,022;21534,652;    2,433;    1,318
716,593;21702,735;    0,978;    0,591
717,165;21599,001;    1,796;   -1,227
717,737;21375,539;    0,796;    0,409
718,309;21062,349;    1,160;   -0,045
718,880;21038,797;   -1,295;   -1,409
719,452;21259,062;    0,887;   -1,591
720,024;20901,418;    1,705;   -0,591
720,595;21392,592;    2,978;    0,955
721,167;20993,676;    1,160;   -2,045
721,738;20552,850;    2,069;   -1,045
722,309;20563,752;    1,251;   -1,227
722,881;20305,835;    2,705;    0,773
723,452;20902,009;    1,251;    2,864
724,023;21124,275;    1,524;    2,682
724,595;20882,813;    2,342;    0,682
725,166;20625,714;    1,524;   -0,409
725,737;20305,434;    1,887;    0,227
726,308;20403,245;    0,797;    0,318
726,879;20768,147;    1,069;    1,227
727,450;20642,048;   -2,022;   -0,045
728,021;20628,132;    1,069;    0,682
728,592;20432,306;    1,160;    0,500
729,163;20753,117;    1,433;   -0,136
729,734;20717,473;    2,160;   -0,227
730,305;21053,647;    0,615;    0,136
730,876;21336,912;    0,888;    2,955
731,447;21094,359;    0,797;    2,682
732,017;21229,170;   -0,840;    1,864
732,588;20772,072;   -0,021;    1,227
733,159;20892,428;    3,615;   -1,045
733,729;20691,693;    1,251;    0,409
734,300;20069,686;    0,160;    0,864
734,870;20479,133;   -1,385;    0,591
735,441;20986,944;    0,888;   -0,591
736,011;20778,663;    1,070;   -1,591
736,582;20758,929;    1,251;    0,045
737,152;20206,830;    0,979;   -2,045
737,722;20645,005;    1,070;   -0,682
738,293;20434,634;   -2,021;    1,318
738,863;20294,899;    1,797;    2,318
739,433;20140,073;    4,524;    0,318
740,003;20706,702;    1,524;   -0,682
740,573;20148,695;    2,252;   -1,591
741,143;20163,960;    3,615;    0,318
741,713;20823,407;    0,252;   -0,500
742,283;20579,309;    1,706;    1,591
742,853;20406,301;    0,524;    1,591
743,423;19951,294;    0,161;    0,045
743,993;20015,650;    1,070;    1,500
744,563;19454,370;    2,524;   -0,864
745,133;19409,271;   -0,112;   -0,864
745,702;19996,809;    2,797;    1,773
746,272;19280,893;    0,434;    0,591
746,842;19183,885;   -0,748;   -0,591
747,411;19573,241;   -0,839;   -0,318
747,981;19705,416;   -0,930;    0,500
748,551;19734,045;   -0,021;   -1,045
749,120;19613,401;   -0,112;   -0,227
749,690;19916,302;    2,161;    2,409
750,259;20169,840;    0,979;    2,955
750,828;20104,015;    4,070;   -1,955
751,398;20392,007;   -0,112;   -0,045
751,967;19949,000;    2,888;    0,409
752,536;20136,720;    1,161;   -0,227
753,105;20501,985;   -1,384;    0,227
753,675;20248,614;   -0,112;    1,773
754,244;20221,334;    0,888;    3,591
754,813;20245,326;    0,979;    1,227
755,382;19889,682;    0,798;    0,955
755,951;20335,220;   -0,112;    3,682
756,520;19971,940;    2,525;    1,864
757,089;20429,660;    1,888;    0,500
757,658;20488,743;    2,434;    1,227
758,227;20549,372;   -1,111;    0,318
758,795;20772,001;   -1,021;    1,136
759,364;21086,903;    0,525;   -0,591
759,933;20153,259;    1,343;   -0,045
760,501;19730,524;    0,252;   -1,318
761,070;20164,335;   -0,293;   -1,409
761,639;20800,327;    1,434;    1,318
762,207;20171,956;    0,889;   -0,955
762,776;20128,676;    2,889;    0,864
763,344;20111,123;    0,071;    0,591
763,913;19257,388;    1,616;    1,409
764,481;19961,017;    1,980;   -0,136
765,049;19811,828;    0,616;    1,409
765,618;19699,911;    1,434;    0,318
766,186;19761,540;    2,434;    0,136
766,754;20000,260;    1,798;    1,864
767,322;19100,253;    1,162;    0,409
767,890;19020,700;    0,525;   -1,773
768,459;19423,783;    2,616;   -0,318
769,027;19567,503;    2,525;    3,409
769,595;18639,496;    2,616;    2,591
770,163;19075,943;    3,344;    2,955
770,730;18924,390;    2,525;   -0,136
771,298;18805,655;    1,162;   -1,409
771,866;18835,738;    0,253;    4,955
772,434;19096,913;    1,162;   -1,864
773,002;19262,451;    2,616;    0,682
773,569;18997,261;    1,071;    1,682
774,137;18810,709;    0,889;   -0,045
774,705;19559,974;   -0,747;   -0,136
775,272;19122,148;    0,253;    0,682
775,840;18906,595;   -0,111;    2,682
776,407;18466,133;   -0,293;    1,955
776,975;18089,671;    1,162;    0,318
777,542;19053,209;    2,162;   -0,045
778,110;18911,020;    0,707;   -0,045
778,677;18624,285;    1,071;   -0,864
779,244;18409,278;   -1,020;    1,045
779,812;18509,179;    0,980;    0,864
780,379;18376,354;    2,435;    1,136
780,946;18585,164;    2,617;   -0,773
781,513;18885,884;   -0,565;    0,318
782,080;18271,513;    1,253;    2,864
782,647;18942,778;    1,708;    3,045
783,214;18576,316;   -0,201;    3,864
783,781;18272,036;    1,708;   -0,682
784,348;18188,483;    0,253;    1,500
784,915;18527,294;   -1,474;    0,318
785,482;18294,741;    2,708;    2,591
786,049;18740,734;    1,071;   -0,591
786,615;18863,362;    1,708;   -0,955
787,182;18657,173;   -3,201;   -0,682
787,749;18391,711;   -2,201;    1,409
788,315;17752,522;    0,253;   -0,409
788,882;18034,514;    0,981;   -1,227
789,448;18639,234;    1,435;   -0,955
790,015;18685,499;    1,799;    3,227
790,581;18301,947;    0,708;    0,227
791,148;18146,030;    1,344;    1,045
791,714;18342,113;   -1,019;    3,136
792,280;18068,924;    3,708;    1,591
792,847;17726,371;   -0,928;    2,500
793,413;18210,000;   -0,110;   -0,318
793,979;17842,265;    1,526;   -1,318
794,545;17890,712;    2,981;    2,682
795,111;17363,705;    2,435;    1,318
795,678;17520,152;    3,526;   -1,682
796,244;17244,508;    2,799;    0,136
796,810;17729,046;    0,799;    0,773
797,375;17488,948;   -0,292;   -2,136
797,941;17499,486;   -1,110;    0,591
798,507;17557,842;    0,254;   -0,955
799,073;17214,925;    2,708;    0,591
799,639;17346,827;    1,435;    3,136
800,205;17410,365;   -1,565;    2,682
800,770;16967,358;    1,345;    1,773
801,336;17002,168;    2,981;   -0,955
801,901;16751,888;    6,072;    3,136
802,467;17272,062;    0,526;    2,045
803,033;16651,146;   -0,019;    0,864
803,598;16825,320;    1,072;   -1,045
804,163;16910,767;    0,708;   -0,318
804,729;16866,578;   -0,110;    1,136
805,294;17130,934;    1,072;    2,227
805,859;16967,199;    0,890;   -0,409
806,425;16570,919;    3,890;    2,682
806,990;16268,548;    1,890;    4,318
807,555;16668,450;   -0,110;    2,591
808,120;16637,260;   -1,292;   -0,409
808,685;16677,798;    1,072;   -2,500
809,250;16251,427;    2,072;   -0,500
809,815;16491,602;   -0,201;    0,682
810,380;16978,049;    0,981;    1,591
810,945;17444,769;    2,890;    2,045
811,510;16737,852;   -0,200;    1,591
812,075;16425,299;    2,800;   -1,409
812,640;16498,110;    3,709;    1,409
813,204;16570,830;    2,163;   -0,227
813,769;16997,913;    0,254;   -0,045
814,334;16521,087;    0,527;    0,864
814,898;16549,716;    1,981;    0,591
815,463;16370,436;    0,981;   -0,773
816,027;16347,792;    1,345;   -2,318
816,592;16514,876;    2,163;   -2,045
817,156;16049,414;   -2,200;    1,136
817,721;15920,315;    0,982;    2,318
818,285;15944,217;    0,618;    1,500
818,849;16485,846;   -0,018;    1,682
819,414;16401,384;    0,073;    2,955
819,978;16041,376;   -0,291;    1,773
820,542;16549,187;    2,891;    0,500
821,106;16336,543;    2,800;    0,682
821,670;16430,809;    2,709;    2,591
822,234;16138,074;    1,073;    1,409
822,798;15641,885;   -0,836;    0,500
823,362;15638,422;    1,527;    4,227
823,926;15055,688;   -0,018;    1,136
824,490;15252,498;    3,527;   -0,682
825,054;15646,127;    2,527;   -1,136
825,618;15337,484;   -1,200;   -1,500
826,181;15300,749;    0,982;   -1,318
826,745;15252,923;   -0,745;   -1,045
827,309;15542,461;    2,255;    1,318
827,872;15016,545;    0,527;    0,955
828,436;15876,264;    1,982;   -0,773
828,999;15940,075;    2,436;    1,227
829,563;14981,431;   -0,654;    1,136
830,126;14796,606;   -0,018;   -0,591
830,690;14834,416;    0,709;    2,864
831,253;14396,136;   -0,473;    2,227
831,816;14511,674;   -0,018;    0,500
832,380;14448,121;    1,164;    0,864
832,943;14671,386;    3,073;   -0,500
833,506;14236,288;    0,255;   -1,227
834,069;14928,190;    2,164;   -0,955
834,632;14998,819;   -2,200;    1,318
835,195;14916,084;    1,346;    0,955
835,758;14219,895;    0,709;    1,955
836,321;14057,069;    1,073;   -1,045
836,884;14175,061;   -1,291;   -0,955
837,447;14208,963;    0,528;    1,773
838,010;14432,228;    1,800;    3,227
838,573;14691,494;    0,528;    0,773
839,135;14722,941;   -0,109;   -0,955
839,698;14205,024;    2,528;    0,409
840,261;13788,471;    0,255;   -0,227
840,823;13670,100;   -0,927;    0,864
841,386;13942,547;   -0,018;   -2,409
841,948;13841,176;    0,255;    1,773
842,511;13611,441;    0,255;    1,682
843,073;13739,979;    2,982;    0,227
843,636;13546,335;    0,619;   -0,227
844,198;13491,419;    1,255;    0,591
844,760;13639,411;    0,619;    1,955
845,322;13261,768;    0,164;    1,136
845,885;13635,215;   -0,290;    0,591
846,447;14064,207;    0,710;    0,227
847,009;13729,836;    3,983;   -0,682
847,571;13998,283;    1,346;   -2,045
848,133;14073,730;   -0,199;   -1,864
848,695;13908,723;    2,346;    1,409
849,257;13520,352;    1,346;   -1,682
849,819;13660,072;    2,983;   -0,409
850,381;13671,791;    1,801;   -0,864
850,942;13976,602;    1,892;   -0,591
851,504;13952,776;    0,983;    0,227
852,066;13968,223;    1,619;   -1,591
852,628;13623,216;    0,165;    1,955
853,189;13170,754;    0,256;    2,682
853,751;13294,656;   -0,654;    1,409
854,312;13110,103;    1,256;   -1,682
854,874;13546,004;   -0,108;   -0,773
855,435;13968,179;    0,528;   -1,682
855,997;14153,717;    3,983;   -0,136
856,558;13526,255;    0,801;    1,773
857,119;13623,611;   -0,744;    2,864
857,681;13335,694;   -0,108;    0,318
858,242;13375,323;    1,347;   -2,136
858,803;13806,679;    1,074;   -0,773
859,364;14316,672;    0,892;   -4,773
859,925;13730,392;   -0,290;   -0,955
860,486;13652,021;    0,529;   -0,955
861,047;13373,195;    0,165;   -1,227
861,608;13224,006;    0,165;   -0,773
862,169;13397,180;   -0,562;   -0,045
862,730;13120,173;   -0,290;    1,409
863,291;13358,074;    0,438;   -0,500
863,852;13653,248;   -0,926;    1,955
864,412;13184,241;   -1,835;   -0,864
864,973;12004,415;    1,892;    0,500
865,534;11865,772;    2,074;    0,227
866,094;13181,400;    2,620;    0,227
866,655;12911,120;    4,711;    3,318
867,215;13158,658;    0,074;    0,136
867,776;13020,287;   -1,199;   -0,136
868,336;13085,734;    1,529;    0,136
868,897;12708,545;    3,438;    1,682
869,457;12468,265;    3,256;    0,318
870,017;12709,985;    2,438;   -1,227
870,578;13142,977;    1,893;    0,773
871,138;12767,151;    2,620;   -0,955
871,698;12374,508;   -0,562;   -1,318
872,258;12276,864;    0,711;   -2,864
872,818;12643,765;    2,347;    0,045
873,378;12620,576;   -2,198;    1,045
873,938;12219,478;    4,984;    0,500
874,498;12497,925;    1,256;   -1,955
875,058;12410,917;    4,347;    1,773
875,618;12269,910;    1,438;   -2,682
876,177;12219,357;   -0,471;    0,136
876,737;11862,440;   -0,289;    1,955
877,297;11922,797;    2,711;    1,955
877,856;11934,062;    2,529;    0,318
878,416;11908,782;    2,438;   -0,136
878,976;12095,865;    3,438;    0,409
879,535;12286,221;    4,529;    3,136
880,095;12066,214;    1,347;    0,045
880,654;12139,752;    0,347;    1,318
881,213;12260,290;    2,347;    1,500
881,773;11930,191;    1,984;    2,682
882,332;12247,729;    6,075;    5,136
882,891;12112,267;    0,711;    2,136
883,451;12476,896;   -2,016;    1,682
884,010;11985,525;   -1,107;   -0,409
884,569;12072,154;   -2,289;   -0,045
885,128;12206,147;   -0,743;   -1,864
885,687;12293,775;   -0,743;    0,682
886,246;12039,586;    2,620;    2,136
886,805;11787,851;    1,620;    2,045
887,364;12023,662;    1,166;   -0,500
887,922;12345,927;   -0,016;    0,045
888,481;11913,556;    1,530;    0,591
889,040;12171,276;    3,711;    2,136
889,599;12710,996;    2,166;    1,409
890,157;12764,443;    2,166;    2,409
890,716;12394,890;    2,166;    0,227
891,274;12257,428;    0,075;   -1,136
891,833;12640,875;    1,166;    0,864
892,391;12489,140;    1,802;    0,500
892,950;12534,678;    0,166;   -0,773
893,508;12916,944;    0,984;   -0,409
894,067;12283,391;   -0,379;    0,136
894,625;12240,474;   -1,016;   -1,500
895,183;12417,648;   -0,198;   -0,682
895,741;12327,277;    2,257;   -1,773
896,299;12179,906;    1,621;   -2,409
896,858;12341,808;    1,530;   -1,591
897,416;12471,346;    0,166;   -1,318
897,974;12276,520;   -2,197;    0,318
898,532;12425,967;    6,530;    2,682
899,089;12343,233;    0,621;   -0,682
899,647;12406,498;    0,530;    1,318
900,205;12202,127;    0,257;    1,045
900,763;12361,028;    2,166;    0,227
901,321;12387,112;    3,530;   -1,409
901,878;11899,377;    3,257;   -0,773
902,436;11794,097;    0,257;    1,318
902,994;12186,544;    6,712;    3,682
903,551;11687,900;    1,439;    0,409
904,109;12034,165;    1,530;   -1,409
904,666;11703,612;    1,439;    1,045
905,224;11548,969;    3,894;   -0,409
905,781;11377,688;   -0,470;   -0,318
906,338;11412,772;    0,167;    1,045
906,895;11367,219;    1,894;    2,045
907,453;11299,666;    2,348;    1,136
908,010;11317,113;    3,348;    0,409
908,567;11051,287;   -0,561;    0,591
909,124;10583,462;    2,439;   -1,500
909,681;10670,545;   -1,288;    0,682
910,238;10890,720;   -0,106;   -1,318
910,795;11151,348;   -1,561;   -1,136
911,352;10841,258;   -0,379;   -2,682
911,909;10323,076;    2,803;   -0,864
912,466;10792,894;    1,985;    1,500
913,022;10396,530;   -0,924;    0,500
913,579;10717,076;   -0,470;    2,045
914,136;10456,530;   -2,561;    0,955
914,692;10777,712;    1,530;   -1,227
915,249;10420,621;    0,530;    0,409
915,806;10607,894;    1,803;    1,955
916,362;10445,167;    0,894;    1,864
916,918;10030,894;    2,439;    1,045
917,475;10042,076;    1,621;    0,955
918,031;10135,439;    0,076;   -0,045
918,587; 9675,894;    0,621;   -0,318
919,144; 9919,439;   -0,379;    0,227
919,700;10154,348;    0,167;    0,773
920,256; 9795,348;    0,439;    0,045
920,812; 9528,894;    1,439;   -1,045
921,368; 9558,258;    1,348;   -1,045
921,924; 9206,712;    0,439;   -0,136
922,480; 8857,621;    0,076;    1,227
923,036; 9438,803;   -0,652;    1,955
923,592; 9370,985;    0,621;    0,318
924,148; 9330,348;    1,894;   -0,955
924,704; 8781,712;    0,258;   -0,409
925,259; 9094,712;   -0,561;    0,591
925,815; 8856,530;    3,803;    0,500
926,371; 8443,439;    3,530;    1,409
926,926; 8408,803;    1,621;    0,591
927,482; 8087,348;    1,621;    0,773
928,037; 8026,621;   -0,833;    2,045
928,593; 8289,712;    0,258;    1,045
929,148; 8170,985;    1,167;   -1,500
929,704; 7758,258;    2,439;   -0,500
930,259; 7936,258;    0,894;   -0,136
930,814; 7179,803;    1,803;    1,955
931,369; 6942,439;    0,258;   -0,773
931,925; 6895,894;   -1,924;    0,136
932,480; 6817,439;    3,076;   -2,591
933,035; 6785,985;    3,985;   -0,318
933,590; 6622,439;   -1,742;   -1,773
934,145; 6328,894;   -1,288;   -0,318
934,700; 6611,258;    0,348;   -0,591
935,255; 6477,076;    4,803;    0,045
935,809; 5979,530;    6,258;    0,864
936,364; 5266,530;    2,167;   -0,136
936,919; 5292,439;    2,348;   -1,773
937,474; 5229,530;    1,348;    0,136
938,028; 5048,530;    3,076;    1,136
938,583; 4697,985;    6,348;    4,682
939,138; 4912,167;    0,167;    2,136
939,692; 4468,167;   -1,015;   -1,136
940,247; 4243,076;    1,167;   -1,045
940,801; 3949,712;    0,621;    0,227
941,355; 3888,621;    0,439;    2,591
941,910; 3608,985;    0,712;   -2,136
942,464; 3713,439;    2,712;   -0,318
943,018; 3619,258;    3,258;   -0,227
943,572; 3551,985;    2,803;   -0,682
944,126; 3129,258;   -0,924;   -0,409
944,681; 3028,439;    0,712;    0,227
945,235; 3009,621;    2,167;   -0,591
945,789; 2946,530;    1,258;   -1,864
946,342; 3161,348;   -0,561;   -0,591
946,896; 2912,894;    0,348;    0,955
947,450; 2698,894;   -0,561;   -0,227
948,004; 2944,621;    1,076;   -0,045
948,558; 2896,712;    1,258;   -0,864
949,111; 2835,712;   -1,197;   -0,318
949,665; 2950,439;   -0,106;   -0,682
950,219; 2849,894;    0,621;   -1,045
950,772; 2851,803;    0,258;    1,864
951,326; 2785,894;   -1,106;   -0,955
951,879; 2822,530;    1,076;   -2,318
952,433; 2879,894;    1,348;    2,227
952,986; 2730,530;    0,348;    0,682
953,539; 2678,076;    1,530;    0,591
954,093; 2633,258;    0,985;   -1,318
954,646; 2766,985;   -0,288;    1,318
955,199; 2586,348;    1,258;   -0,500
955,752; 2570,348;    1,985;    1,773
956,305; 2507,712;    0,894;    2,955
956,858; 2635,167;    0,621;   -0,318
957,411; 2781,712;    3,621;    2,136
957,964; 2610,258;    2,076;    2,136
958,517; 2594,348;    0,985;    3,136
959,070; 2464,167;   -1,197;    1,955
959,623; 2621,803;    1,076;    1,500
960,176; 2431,348;    0,712;    2,045
960,728; 2411,894;    1,712;    0,773
961,281; 2462,167;    2,258;    0,500
961,834; 2463,076;   -0,833;    0,864
962,386; 2395,803;    1,258;    1,045
962,939; 2306,894;    3,439;   -0,318
963,491; 2429,621;    2,621;    1,136
964,043; 2343,348;    0,076;    2,409
964,596; 2473,439;    1,712;    2,227
965,148; 2314,985;   -0,379;    1,773
965,700; 2229,803;   -0,015;   -0,227
966,253; 2389,894;   -0,833;    0,318
966,805; 2278,621;    1,894;    0,773
967,357; 2284,530;    0,439;   -1,500
967,909; 2272,348;    1,167;   -1,227
968,461; 2311,348;    0,894;    3,136
969,013; 2266,439;   -1,561;   -0,864
969,565; 2349,348;    1,803;   -1,136
970,117; 2545,167;    3,803;    1,045
970,669; 2293,076;    3,258;   -0,136
971,220; 2132,712;    2,167;   -1,500
971,772; 2092,985;    1,348;   -0,318
972,324; 2226,530;   -1,197;   -0,500
972,876; 2156,985;    0,167;   -0,045
973,427; 2315,985;   -1,197;   -1,045
973,979; 2302,076;    0,076;   -2,500
974,530; 2247,348;    0,803;    1,318
975,082; 2245,348;    2,167;    1,682
975,633; 2172,258;    2,894;    1,682
976,184; 2319,348;    2,076;    0,773
976,736; 2175,439;    0,348;    0,227
977,287; 2033,439;    0,258;   -0,500
977,838; 2160,439;   -0,924;   -0,318
978,389; 2217,348;    0,803;   -0,500
978,940; 2057,621;    1,258;   -0,409
979,491; 2069,985;    2,258;   -0,500
980,042; 2078,258;   -0,652;    3,045
980,593; 2092,167;    1,894;    0,227
981,144; 2185,258;    3,530;   -0,500
981,695; 2209,985;   -0,470;    1,500
982,246; 2145,803;   -1,833;    1,045
982,797; 2218,894;   -0,561;    0,682
983,347; 2338,076;    2,167;    0,591
983,898; 2527,985;    4,167;    0,409
984,449; 2376,985;    2,530;    0,773
984,999; 2220,894;    1,894;   -1,136
985,550; 2064,621;    3,167;   -0,318
986,100; 2052,439;    0,712;   -0,318
986,651; 2084,712;    0,258;    0,045
987,201; 2092,348;    0,894;   -0,591
987,751; 2136,621;   -0,288;    2,864
988,302; 2138,985;   -0,379;    1,500
988,852; 2146,530;    1,985;   -1,136
989,402; 2240,803;    0,985;    0,682
989,952; 2176,621;    1,621;    0,864
990,502; 2209,712;    1,076;    0,682
991,052; 2134,167;   -0,106;    0,045
991,602; 2032,530;    1,167;    1,318
992,152; 2071,258;    2,803;    0,682
992,702; 2060,167;    1,167;   -0,045
993,252; 1989,258;    0,076;   -0,500
993,802; 2099,712;    1,167;    1,318
994,352; 2252,439;   -0,742;    1,136
994,901; 2286,530;    1,076;    3,227
995,451; 2236,530;   -1,197;    0,318
996,000; 2304,621;    1,076;    0,318
996,550; 2077,803;    2,894;    0,227
997,100; 2094,803;   -0,561;   -0,045
997,649; 2343,530;   -0,197;    0,955
998,198; 2044,348;   -0,288;   -1,500
998,748; 2223,894;    0,348;   -2,318
999,297; 2116,985;    0,985;   -0,409
999,846; 2223,076;    1,894;   -0,773
1000,395; 2209,894;    1,530;    0,500
1000,945; 2236,167;    1,076;   -0,773
1001,494; 2291,348;    0,167;    0,682
1002,043; 2260,894;    0,712;    0,864
1002,592; 2074,530;    3,439;    1,955
1003,141; 2200,985;    2,439;   -0,682
1003,690; 2143,621;    1,258;    0,500
1004,238; 2165,712;   -0,106;   -0,045
1004,787; 1871,076;   -1,288;    1,227
1005,336; 2126,530;    1,621;    0,682
1005,885; 2195,803;   -0,197;   -2,773
1006,433; 2257,621;   -0,470;    0,955
1006,982; 2414,712;    2,167;    1,682
1007,531; 2267,621;    2,712;   -0,227
1008,079; 2194,439;    0,258;    0,500
1008,627; 2297,167;    1,621;    0,409
1009,176; 2109,712;    0,076;   -1,955
1009,724; 2136,348;   -2,742;    0,864
1010,273; 2252,439;    1,076;    0,500
1010,821; 2276,258;    1,076;    1,409
1011,369; 2056,985;    0,076;    1,318
1011,917; 2049,439;   -0,833;   -0,591
1012,465; 2289,076;    2,530;   -1,591
1013,013; 2357,985;    0,439;   -1,682
1013,561; 2302,258;   -1,288;   -0,773
1014,109; 2382,803;   -0,833;    1,682
1014,657; 2257,258;    1,348;    0,591
1015,205; 2311,258;    0,894;   -0,955
1015,753; 2306,348;    0,258;   -1,409
1016,301; 2354,076;    2,621;    3,045
1016,848; 2373,167;    2,167;    0,409
1017,396; 2404,348;    1,621;    0,045
1017,944; 2485,894;    2,621;    1,864
1018,491; 2265,167;   -0,197;    1,409
1019,039; 2542,530;   -0,652;    0,591
1019,586; 2386,076;    0,076;    1,682
1020,134; 2429,621;    0,712;    1,500
1020,681; 2482,348;    2,894;   -1,136
1021,228; 2422,076;   -0,561;   -2,227
1021,776; 2296,439;   -0,833;   -1,136
1022,323; 2542,621;    0,803;    0,773
1022,870; 2468,439;   -0,470;   -0,045
1023,417; 2424,258;    2,076;    1,864
1023,964; 2464,712;    0,621;    1,227
1024,511; 2362,712;   -0,652;    0,773
1025,058; 2210,530;    0,439;   -0,045
1025,605; 2241,621;   -1,742;    3,136
1026,152; 2478,348;   -0,106;   -0,591
1026,699; 2225,167;    0,167;    1,318
1027,245; 2318,803;    2,439;    0,318
1027,792; 2461,894;    0,712;    1,409
1028,339; 2454,621;    4,076;   -0,045
1028,885; 2290,985;    3,621;   -0,227
1029,432; 2239,530;   -0,106;    0,227
1029,978; 2335,530;    1,348;   -1,591
1030,525; 2234,167;    1,621;    0,409
1031,071; 2396,985;    0,348;    1,136
1031,618; 2590,985;    1,258;    1,682
1032,164; 2361,803;    2,076;    3,045
1032,710; 2397,167;    0,076;   -1,500
1033,256; 2314,621;    0,712;   -0,136
1033,803; 2258,348;   -0,288;    1,500
1034,349; 2029,167;    1,803;    0,136
1034,895; 2154,348;    2,621;   -0,318
1035,441; 2154,530;    0,439;    0,318
1035,987; 2183,258;   -2,288;   -0,682
1036,533; 2213,803;   -0,197;   -0,955
1037,078; 2438,258;    4,712;    1,682
1037,624; 2241,985;    2,439;   -0,955
1038,170; 2197,258;    1,712;   -0,318
1038,716; 2171,985;    2,167;   -0,409
1039,261; 2061,439;    2,167;   -0,773
1039,807; 2020,076;   -0,015;    3,409
1040,352; 2113,348;   -1,288;   -0,318
1040,898; 2119,712;    0,167;   -0,682
1041,443; 2031,167;    0,803;   -2,591
1041,989; 2170,076;    3,621;    1,591
1042,534; 1998,258;    0,985;    2,591
1043,079; 2043,076;    1,985;    0,955
1043,625; 1929,712;    0,258;    0,500
1044,170; 1997,985;    2,439;    1,045
1044,715; 2249,985;    0,167;    0,955
1045,260; 2081,894;   -0,833;   -0,955
1045,805; 2073,167;    0,258;   -0,591
1046,350; 1985,621;    0,530;   -0,409
1046,895; 2034,621;    0,803;    1,591
1047,440; 2028,530;    1,530;    0,409
1047,985; 1891,712;   -1,197;   -0,955
1048,530; 1811,258;    1,348;    1,227
1049,074; 1892,348;    2,803;    0,318
1049,619; 1839,439;   -0,924;    1,955
1050,164; 1688,530;    1,076;    0,227
1050,708; 1752,167;    2,621;    0,045
1051,253; 2141,712;    3,258;   -2,227
1051,797; 1853,894;   -0,197;   -1,318
1052,342; 1778,167;    1,348;    1,045
1052,886; 1820,530;    1,803;   -1,409
1053,430; 1690,894;    2,167;    0,136
1053,975; 1723,167;    0,894;   -0,318
1054,519; 1724,803;    1,803;    3,227
1055,063; 1787,985;    3,621;    1,318
1055,607; 1700,439;    1,348;    0,227
1056,151; 1704,894;    0,530;    1,682
1056,695; 1594,985;   -1,833;   -1,136
1057,239; 1650,167;   -1,197;   -0,682
1057,783; 1681,348;    2,258;   -1,500
1058,327; 1684,076;    3,076;    1,409
1058,871; 1908,621;    3,985;    1,318
1059,415; 1644,712;   -0,561;   -0,045
1059,958; 1925,167;    2,985;    2,591
1060,502; 1625,985;    1,348;   -0,773
1061,046; 1479,894;    1,712;   -0,955
1061,589; 1465,803;    2,803;   -1,136
1062,133; 1373,894;    0,985;    1,864
1062,676; 1341,439;    1,439;    0,864
1063,220; 1375,348;    0,985;    0,500
1063,763; 1409,258;    2,985;    1,136
1064,306; 1488,894;    0,985;    1,864
1064,849; 1396,076;    2,076;    0,591
1065,393; 1378,167;    2,894;   -1,500
1065,936; 1464,076;    2,530;   -0,409
1066,479; 1345,258;    2,621;    1,318
1067,022; 1387,530;    1,894;   -0,227
1067,565; 1299,076;   -1,197;   -1,318
1068,108; 1304,167;    1,258;   -0,591
1068,651; 1272,530;   -2,470;    1,409
1069,194; 1211,167;   -1,106;   -1,682
1069,736; 1230,076;    3,803;    0,955
1070,279; 1209,258;   -1,652;   -0,500
1070,822; 1292,530;    1,530;   -0,318
1071,364; 1403,439;    0,530;    1,318
1071,907; 1210,076;    0,348;    3,227
1072,450; 1080,167;    0,258;   -0,045
1072,992; 1109,439;   -0,561;    3,136
1073,535; 1248,894;    0,167;    2,136
1074,077; 1056,803;    2,985;    2,045
1074,619; 1036,985;    0,985;    0,591
1075,161; 1071,803;   -0,561;    1,500
1075,704; 1271,712;    0,258;    1,227
1076,246; 1036,167;    1,530;    0,682
1076,788;  965,348;   -1,015;    1,773
1077,330; 1032,621;   -2,106;    2,136
1077,872; 1022,985;   -1,924;    0,955
1078,414; 1257,894;    3,712;    0,773
1078,956; 1014,530;    0,167;   -0,227
1079,498; 1274,712;    0,439;    0,318
1080,040; 1001,985;    0,985;   -1,318
1080,581;  932,167;    0,621;   -0,318
1081,123;  850,167;   -0,106;   -0,773
1081,665;  890,439;    3,803;   -0,955
1082,206; 1201,258;    3,258;   -0,500
1082,748; 1061,167;    3,258;    2,045
1083,289;  920,985;    0,167;    1,318
1083,831;  858,621;    0,258;    0,227
1084,372;  915,348;    0,894;    0,591
1084,913;  915,894;    3,348;    0,864
1085,455;  861,348;    1,530;   -2,045
1085,996;  844,894;    0,530;    0,136
1086,537;  896,348;    0,985;    0,864
1087,078;  908,621;    0,439;   -2,136
1087,619;  961,530;   -1,652;    0,227
1088,160;  877,712;    1,439;    1,318
1088,701;  858,803;   -0,742;    0,682
1089,242;  806,985;   -0,561;   -2,227
1089,783;  904,348;   -0,561;    1,409
1090,324;  880,621;   -0,833;    0,682
1090,865;  758,167;   -1,924;   -0,409
1091,405;  723,803;   -0,561;    2,227
1091,946;  759,076;   -0,197;   -0,955
1092,487;  664,894;   -1,288;   -1,409
1093,027;  858,621;    1,803;   -1,500
1093,568;  723,076;    2,258;    1,227
1094,108;  816,803;    0,621;    1,773
1094,649;  754,258;   -0,470;    0,136
1095,189;  685,076;    1,167;   -0,682
1095,729;  652,894;    0,712;    0,955
1096,269;  653,167;    1,258;   -0,955
1096,810;  953,894;   -0,197;    0,500
1097,350;  812,076;   -0,561;   -0,773
1097,890;  700,439;    2,985;    1,227
1098,430;  962,621;    4,985;    2,864
1098,970;  840,439;    1,894;    1,682
1099,510;  686,348;   -0,833;   -2,318
1100,050;  638,530;    0,258;   -1,591
1100,589;  606,985;    0,076;   -0,318
1101,129;  724,439;    0,894;   -0,955
1101,669;  870,167;    2,803;    2,136
1102,209;  705,348;    1,530;    2,227
1102,748;  661,167;    3,439;    0,955
1103,288;  658,530;    0,712;   -1,227
1103,827;  677,439;    3,530;   -2,227
1104,367;  562,348;    1,712;   -2,409
1104,906;  548,894;   -1,015;   -1,136
1105,445;  623,894;    0,985;   -1,136
1105,985;  565,985;   -0,652;    1,500
1106,524;  601,803;    1,530;   -0,682
1107,063;  575,076;    1,167;    1,409
1107,602;  546,167;    1,894;   -1,500
1108,141;  491,258;    1,621;    1,500
1108,680;  601,258;    3,985;   -0,591
1109,219;  526,348;    0,167;   -0,500
1109,758;  526,621;    4,167;    0,682
1110,297;  506,803;   -1,106;   -0,682
1110,836;  461,712;    1,439;    0,955
1111,375;  600,348;    0,348;    0,409
1111,913;  619,985;    0,985;    0,773
1112,452;  562,167;    0,894;    0,136
1112,991;  444,258;    1,076;    1,955
1113,529;  428,076;    0,167;   -0,045
1114,068;  485,167;    0,439;    2,955
1114,606;  395,167;   -0,561;   -0,955
1115,144;  552,348;    1,530;    1,045
1115,683;  483,985;    1,985;    0,318
1116,221;  528,167;    2,076;   -0,864
1116,759;  451,894;    1,621;   -0,864
1117,297;  642,167;    1,621;    1,864
1117,836;  464,530;    1,985;   -1,227
1118,374;  467,803;    0,258;   -0,682
1118,912;  414,348;    0,439;    2,682
1119,450;  407,803;    0,985;    0,864
1119,988;  452,167;    3,348;    2,136
1120,525;  885,348;    7,258;    3,318
1121,063;  597,894;    0,530;    1,864
1121,601;  428,348;    1,076;   -1,227
1122,139;  389,076;    1,076;   -2,045
1122,676;  564,348;   -1,652;    2,773
1123,214;  501,348;    0,712;    4,409
1123,751;  329,712;    0,621;    2,227
1124,289;  445,258;    0,894;   -0,409
1124,826;  336,803;   -0,379;    0,227
1125,364;  264,258;    0,712;   -0,955
1125,901;  444,803;    6,258;    1,227
1126,438;  537,348;    3,530;    0,955
1126,975;  286,439;    2,985;   -0,773
1127,513;  357,167;    2,621;    2,136
1128,050;  267,894;   -0,561;   -0,682
1128,587;  367,167;    1,348;   -0,227
1129,124;  397,894;   -0,015;    1,318
1129,661;  282,712;   -1,924;    0,227
1130,198;  433,439;    2,439;    0,773
1130,734;  377,348;   -0,379;    1,409
1131,271;  254,894;   -1,197;    0,864
1131,808;  417,985;    1,621;    3,045
1132,345;  299,985;    4,530;    0,318
1132,881;  180,530;   -0,561;   -1,864
1133,418;  308,167;    0,348;   -1,136
1133,954;  256,894;    0,712;   -2,682
1134,491;  330,076;    1,712;   -0,773
1135,027;  237,348;    2,167;    0,864
1135,564;  312,803;    1,439;    2,955
1136,100;  299,712;   -0,742;    2,136
1136,636;  203,985;   -1,015;   -1,045
1137,172;  284,258;    0,894;   -1,045
1137,708;  228,167;   -1,561;   -1,045
1138,245;  222,530;    0,803;   -1,227
1138,781;  174,348;    1,803;   -3,318
1139,317;  242,439;    1,894;   -1,409
1139,852;  236,803;    3,076;    0,136
1140,388;  330,348;    2,076;   -0,409
1140,924;  229,894;    1,076;   -2,227
1141,460;  173,712;   -0,288;    0,136
1141,996;  119,712;   -0,652;    2,682
1142,531;  163,530;    1,076;    3,318
1143,067;  357,530;    1,167;    1,045
1143,602;  404,803;    3,439;   -0,318
1144,138;  268,803;    0,803;    1,045
1144,673;  147,530;    1,621;    1,409
1145,209;  210,348;    2,894;   -0,318
1145,744;  136,712;    0,803;    0,864
1146,279;  257,076;    1,530;   -0,136
1146,815;  182,167;    1,530;   -2,682
1147,350;  214,258;   -0,924;    0,045
1147,885;  138,803;   -1,924;   -1,318
1148,420;  140,348;    2,439;    0,773
1148,955;  126,894;   -1,470;    1,864
1149,490;  144,258;   -1,106;   -1,591
1150,025;  129,985;   -1,106;   -1,773
1150,560;  233,076;   -0,288;   -0,955
1151,094;  204,712;    0,258;   -0,591
1151,629;  204,439;   -3,742;    0,864
1152,164;  141,348;   -1,288;    1,318
1152,698;  106,621;    1,258;   -0,136
1153,233;   76,803;   -1,379;   -0,682
1153,767;  119,530;   -0,288;   -2,318
1154,302;  164,167;   -0,379;    1,773
1154,836;  162,258;    0,803;   -2,136
1155,371;  201,621;    2,258;    3,682
1155,905;  158,348;    1,985;    1,682
1156,439;  134,803;    0,530;   -0,500
1156,973;  164,530;    0,439;    0,318
1157,507;  106,439;   -1,742;    0,682
1158,042;  127,621;   -0,652;    1,045
1158,576;  169,258;   -0,561;    1,773
1159,110;  163,348;    0,076;    2,409
1159,643;  128,894;   -2,470;   -0,045
1160,177;   80,348;   -2,015;    1,500

