
Integration time [ms]:   0,040
Averaging Nr. [scans]: 11
Smoothing Nr. [pixels]: 0
Data measured with spectrometer [name]: 7318044SP
Wave   ;Sample   ;Dark     ;Reference
[nm]   ;[counts] ;[counts] ;[counts] 

186,757;   32,260;   38,161;    1,318
187,357;   62,761;   26,706;    0,955
187,958;   42,381;   17,252;   -1,591
188,558;   78,666;   12,979;   -1,227
189,159;   47,334;   10,070;   -4,500
189,759;   22,150;    5,797;   -3,591
190,360;   21,578;    6,797;   -2,136
190,960;   59,344;    5,706;   -4,136
191,560;   69,885;    2,614;   -6,591
192,161;  287,750;    5,885;   -3,500
192,761;  143,430;    5,520;   -3,227
193,361;   92,035;    3,065;   -3,773
193,962;  143,742;    1,612;   -2,682
194,562;   74,192;   -0,114;   -3,955
195,162;  108,427;   -0,567;   -2,227
195,762;  258,208;    2,433;   -0,045
196,362;  209,137;    1,706;   -2,500
196,963;   85,529;    1,706;   -0,864
197,563;  147,554;    1,252;   -0,955
198,163;   98,295;   -0,111;   -0,682
198,763;  118,767;   -0,020;   -0,500
199,363;  212,408;    3,616;   -0,500
199,963;  184,916;    2,162;    0,409
200,563;  160,120;    6,344;   -1,409
201,163;  142,170;    5,435;   -0,227
201,763;  217,548;    1,435;    0,318
202,363;  157,971;    0,980;    1,500
202,963;  262,681;    1,526;    1,045
203,563;  363,754;    0,344;    0,500
204,162;  219,670;    1,889;   -1,864
204,762;  208,128;    2,071;    0,591
205,362;  179,008;    0,708;    1,955
205,962;  266,645;    3,435;    1,955
206,562;  263,585;    1,889;    2,318
207,161;  233,146;    1,708;    0,318
207,761;  392,699;    4,435;    2,409
208,361;  268,355;    1,889;    1,409
208,960;  355,100;    2,889;    1,500
209,560;  414,792;    0,435;    1,591
210,160;  401,178;    5,071;    1,864
210,759;  368,684;    0,708;    1,227
211,359;  379,203;   -0,474;    1,045
211,958;  620,205;    3,526;    2,045
212,558;  693,059;    0,799;    1,864
213,157;  542,331;   -0,929;    1,500
213,757;  956,623;    5,617;   -0,227
214,356;  668,346;    1,708;   -0,409
214,956;  989,934;    3,526;    0,409
215,555;  615,608;    0,617;    2,136
216,154;  558,540;   -0,292;   -0,591
216,754;  560,674;    1,253;    0,773
217,353;  688,638;   -0,383;   -1,045
217,952;  547,143;    2,072;    0,318
218,552;  783,940;    0,254;   -0,773
219,151;  672,256;   -1,110;    0,955
219,750;  673,357;    0,890;   -0,227
220,349;  759,993;   -2,292;    1,045
220,948;  849,880;    1,163;    1,136
221,548;  825,793;    0,617;    1,227
222,147;  938,376;   -1,292;   -0,409
222,746; 1219,580;    1,254;   -0,955
223,345; 1093,565;   -1,019;    0,500
223,944; 1100,306;    1,163;    0,773
224,543; 1242,761;    4,072;   -1,409
225,142; 1357,666;    1,345;    0,136
225,741; 1260,771;    1,163;    1,045
226,340; 1275,780;    1,254;   -0,955
226,939; 1703,691;    2,708;   -0,136
227,538; 1610,676;    1,163;   -0,773
228,137; 1779,473;    0,435;    0,864
228,735; 1860,948;    0,435;    1,227
229,334; 1647,809;   -0,474;   -0,227
229,933; 2028,177;    0,799;    0,591
230,532; 2128,702;   -1,201;   -0,409
231,131; 2176,076;    1,253;    0,318
231,729; 2281,828;    1,163;   -2,318
232,328; 2350,322;    0,435;   -1,500
232,927; 2411,088;    4,526;   -0,500
233,525; 2517,863;    0,981;    0,045
234,124; 2704,406;    1,890;   -1,591
234,723; 2722,238;    1,617;   -1,045
235,321; 2829,787;    1,163;    0,136
235,920; 3031,534;    2,526;   -1,227
236,518; 3296,537;    1,072;    0,318
237,117; 3421,294;    2,890;   -0,227
237,715; 3586,219;    1,163;   -0,500
238,314; 3612,094;    1,708;   -2,318
238,912; 3726,662;    0,526;   -1,409
239,510; 3753,383;    1,162;   -1,227
240,109; 3917,916;   -0,474;    3,773
240,707; 3942,060;   -0,474;    1,227
241,305; 4228,482;   -0,383;    0,136
241,904; 4426,663;   -0,292;   -2,045
242,502; 4407,328;    3,253;   -0,227
243,100; 4352,352;    3,344;   -0,955
243,698; 4594,913;    2,799;    1,682
244,297; 4737,424;   -0,656;    0,682
244,895; 4577,192;   -0,474;   -2,318
245,493; 4889,595;    2,981;   -0,591
246,091; 4923,747;    5,163;   -1,318
246,689; 4892,131;    2,163;    0,591
247,287; 5033,584;   -0,019;   -1,136
247,885; 5276,254;   -1,019;    1,227
248,483; 5367,127;   -0,201;   -0,500
249,081; 5468,467;    0,981;    1,591
249,679; 5607,756;   -1,019;    1,682
250,277; 5853,765;   -2,292;    0,864
250,875; 5846,058;    0,617;   -1,045
251,473; 5852,660;   -0,019;    0,500
252,071; 6046,218;   -0,383;    1,045
252,669; 6172,487;   -1,565;    0,318
253,267; 6392,499;    1,618;    0,773
253,864; 6326,584;    0,617;    0,682
254,462; 6227,953;    1,526;    1,591
255,060; 6178,967;    0,072;    1,318
255,658; 6495,124;   -3,292;   -0,136
256,255; 6881,514;   -0,201;   -2,045
256,853; 6741,799;    2,345;    1,409
257,451; 6750,637;    1,981;    1,864
258,048; 7010,742;    2,072;    1,864
258,646; 6757,883;    0,436;   -1,045
259,243; 6926,799;    2,981;    2,227
259,841; 6963,534;    1,799;    0,318
260,438; 6869,391;    0,254;    0,864
261,036; 7524,063;    0,617;    1,409
261,633; 7425,082;    1,526;    2,227
262,231; 7230,574;   -0,110;   -0,045
262,828; 7300,028;   -0,383;    1,136
263,425; 7323,694;   -1,928;   -0,591
264,023; 7570,149;    1,436;    0,045
264,620; 7122,016;    1,526;   -0,318
265,217; 7459,375;    2,890;    3,136
265,815; 7559,054;    2,527;    2,136
266,412; 7385,152;    0,072;    0,136
267,009; 7407,567;    0,526;    0,773
267,606; 7327,065;    0,345;   -0,955
268,203; 7305,820;   -0,383;   -0,591
268,801; 7554,168;   -0,474;    0,591
269,398; 7828,668;   -0,564;    2,500
269,995; 7801,846;    0,890;    1,591
270,592; 7613,105;    0,799;   -0,500
271,189; 7776,964;    1,981;    0,409
271,786; 7901,878;    2,072;    1,227
272,383; 7776,293;   -0,383;    0,227
272,980; 7903,411;    1,617;    0,318
273,577; 8383,721;    2,162;    1,227
274,174; 7953,115;    1,435;    2,591
274,771; 7906,669;    1,890;   -0,773
275,367; 8065,560;    3,253;    1,409
275,964; 8039,082;   -0,565;   -0,500
276,561; 8137,333;   -2,474;   -1,045
277,158; 8306,574;    1,799;   -1,773
277,755; 8421,194;   -0,110;    0,409
278,351; 7878,904;    0,436;   -1,500
278,948; 8171,282;   -0,201;    0,045
279,545; 8153,649;    0,527;    2,318
280,141; 8761,721;    1,254;   -2,045
280,738; 8609,348;    2,435;   -0,136
281,334; 8816,214;   -0,383;    0,591
281,931; 8244,041;    2,890;   -1,318
282,528; 8333,533;    4,072;   -0,500
283,124; 8997,680;    3,345;   -0,500
283,721; 8895,852;    0,709;    1,409
284,317; 8698,248;    0,163;    2,500
284,913; 9239,423;   -0,110;    0,591
285,510; 9364,514;    2,890;   -0,318
286,106; 9402,947;    2,345;   -0,955
286,703; 9038,777;    0,072;    1,955
287,299; 9220,443;    1,254;   -0,591
287,895; 9408,494;    0,890;   -1,045
288,491; 9967,395;    0,163;    2,136
289,088; 9695,274;    0,163;    2,409
289,684; 9770,851;    2,890;    1,500
290,280; 9761,784;    1,890;    0,682
290,876; 9837,287;    0,163;    5,500
291,472; 9750,961;    2,163;    2,227
292,068; 9837,177;    1,254;    0,227
292,665; 9550,625;   -0,564;    0,773
293,261; 9225,468;   -1,292;    2,136
293,857; 9574,281;    4,072;    2,136
294,453; 9535,107;   -0,928;    0,955
295,049; 9389,039;    0,253;    1,955
295,644; 9414,608;   -1,292;    0,136
296,240; 9339,852;    0,162;   -0,136
296,836; 9361,951;   -0,747;    0,318
297,432; 9635,536;    2,980;   -0,500
298,028; 9656,037;    0,435;    0,773
298,624;10005,797;    0,889;    1,864
299,220;10266,054;    0,435;    0,591
299,815; 9932,757;    0,526;   -0,409
300,411; 9753,766;    0,435;    1,773
301,007; 9739,827;    1,889;    0,227
301,602; 9765,250;    2,071;   -2,318
302,198; 9912,310;    1,435;   -0,773
302,794;10257,640;    1,526;   -0,500
303,389;10356,849;    1,071;    1,045
303,985;10432,763;    1,253;    1,409
304,580;10379,025;    0,889;    1,591
305,176;10371,289;    0,344;    0,136
305,771;10286,031;   -0,929;   -1,227
306,367;10185,679;    3,071;    0,136
306,962;10496,613;    2,889;    1,500
307,558;10219,476;    2,435;    0,136
308,153;10169,813;   -0,383;   -1,136
308,748;10365,098;    0,162;    1,682
309,344;10316,975;    0,253;   -1,318
309,939;10473,642;    2,071;   -1,318
310,534;10702,399;   -2,020;   -1,682
311,130;10643,123;   -0,656;   -2,500
311,725;10378,955;    0,526;   -0,500
312,320;10690,912;    1,253;    0,045
312,915;10593,197;    2,890;   -1,045
313,510;10632,866;    0,526;   -0,500
314,105;11107,016;   -3,565;    1,409
314,700;10506,393;   -1,656;   -1,045
315,295;10160,206;   -0,020;    0,045
315,890; 9749,837;   -0,292;    0,864
316,485;10079,276;    0,253;   -0,318
317,080;10210,480;   -0,929;    1,591
317,675;10711,981;    3,071;   -0,682
318,270;10156,660;    6,889;    3,318
318,865;10162,681;    2,435;    3,045
319,460; 9987,954;   -1,565;    0,591
320,055;10245,847;   -2,565;   -1,227
320,650; 9936,020;   -1,838;   -0,591
321,244; 9942,651;    0,889;   -1,409
321,839;10852,875;    0,980;   -0,227
322,434;10730,184;   -0,111;   -1,591
323,029;10398,032;   -0,474;    1,591
323,623;10255,189;    0,798;    0,773
324,218;10067,907;    2,707;    1,409
324,812; 9992,710;    0,889;    1,591
325,407; 9835,226;   -0,929;    2,045
326,002; 9722,343;    0,526;   -0,409
326,596;10022,274;   -0,656;    1,318
327,191;10218,539;   -0,383;   -1,045
327,785; 9880,274;   -0,747;   -0,227
328,379;10064,835;   -0,383;    0,136
328,974; 9860,222;    1,798;   -3,955
329,568;10106,166;    2,889;   -2,409
330,163; 9895,650;    2,435;    1,045
330,757;10258,008;    0,253;    1,591
331,351; 9628,445;   -0,292;    0,682
331,945; 9912,297;   -0,383;    1,409
332,540; 9543,515;    1,617;   -0,591
333,134; 9663,215;    3,344;    0,773
333,728; 9913,128;    2,799;    0,318
334,322;10215,809;    0,889;   -0,864
334,916; 9523,142;    0,344;    0,955
335,510; 9853,147;   -0,111;   -0,136
336,105;10053,448;   -0,929;    1,591
336,699; 9762,906;   -1,292;    0,591
337,293; 9692,252;    1,071;    0,318
337,887; 9849,844;    0,071;    1,955
338,481; 9945,559;    2,980;    0,591
339,074;10083,527;    2,071;    2,682
339,668; 9886,336;   -0,110;    1,227
340,262;10137,854;    7,708;    3,227
340,856; 9629,636;    1,708;   -0,682
341,450; 9088,241;    0,708;    1,864
342,044; 9899,161;    1,799;    0,136
342,637; 9652,552;    1,162;   -2,136
343,231; 9524,138;   -1,474;    0,682
343,825; 9475,291;   -0,747;   -0,591
344,419; 9440,353;   -0,474;    0,500
345,012; 9287,293;    2,889;    4,045
345,606; 9283,396;   -0,656;    1,591
346,199; 9152,966;   -0,111;   -0,227
346,793; 8724,593;    2,525;    2,045
347,386; 8904,980;    0,889;   -1,136
347,980; 8873,051;   -0,838;   -0,045
348,573; 8694,728;   -1,748;    0,409
349,167; 8426,175;    6,161;    4,773
349,760; 8778,338;    2,252;    2,682
350,354; 8763,896;    1,616;    1,136
350,947; 8513,387;    2,798;    1,682
351,540; 8220,270;    0,616;   -1,409
352,134; 8146,543;   -1,111;    1,136
352,727; 8243,429;   -0,657;    1,136
353,320; 8067,188;    2,343;    0,591
353,913; 7919,631;   -1,929;    1,864
354,507; 8084,162;    0,434;   -1,227
355,100; 8126,106;    0,071;    0,864
355,693; 7460,976;    4,798;    2,409
356,286; 7481,473;    0,980;    2,773
356,879; 7800,114;   -0,475;    1,227
357,472; 7435,801;    0,980;    1,500
358,065; 7635,206;    3,161;    2,500
358,658; 7563,135;    0,798;    2,318
359,251; 7256,275;    0,252;   -0,591
359,844; 6792,633;    0,343;   -1,136
360,437; 6950,041;    0,252;    0,045
361,030; 7196,251;    0,525;   -0,682
361,623; 6849,298;    0,434;    0,318
362,215; 6905,111;    0,979;    2,045
362,808; 6738,711;   -2,293;   -1,682
363,401; 6932,898;    0,798;    0,136
363,994; 6702,882;    3,252;   -1,500
364,586; 6644,243;    0,888;   -1,500
365,179; 6825,100;   -0,203;   -1,136
365,772; 6319,099;   -0,930;    2,045
366,364; 6612,822;    1,524;   -3,227
366,957; 6814,791;    1,342;   -0,045
367,549; 6790,976;   -0,203;   -0,864
368,142; 6502,593;    0,978;   -1,500
368,734; 6685,215;    2,523;   -2,136
369,327; 6646,251;    2,341;   -0,500
369,919; 6545,650;   -1,659;    0,409
370,512; 6390,321;   -1,023;   -0,500
371,104; 6187,472;    2,704;    1,591
371,696; 6336,734;    1,703;   -0,955
372,289; 6411,038;    0,157;    1,136
372,881; 6533,485;    1,156;    1,318
373,473; 6429,625;    4,064;    1,136
374,066; 6269,107;    1,336;    0,500
374,658; 6154,363;    0,879;    1,136
375,250; 6466,206;   -1,668;   -1,409
375,842; 6352,841;   -0,124;   -0,045
376,434; 6221,357;   -2,762;   -0,409
377,026; 6734,232;   -1,855;   -2,500
377,618; 6630,534;    0,779;   -0,682
378,210; 6496,589;    3,141;   -1,955
378,802; 6330,460;    3,412;   -0,591
379,394; 6314,151;    3,411;    0,682
379,986; 6842,828;    1,138;   -0,955
380,578; 6928,939;    1,410;    0,773
381,170; 6355,102;    0,320;    0,045
381,762; 6282,203;   -0,224;    1,409
382,354; 6472,280;   -0,223;   -1,318
382,945; 6563,953;    0,870;    0,318
383,537; 6696,999;    1,144;   -1,955
384,129; 6704,770;    0,963;   -1,136
384,721; 6861,001;    0,418;    0,955
385,312; 6780,657;   -1,399;   -0,955
385,904; 6869,266;   -0,945;    1,591
386,496; 6304,800;    0,691;    1,045
387,087; 6445,448;    0,418;    2,500
387,679; 6455,331;   -0,401;    0,045
388,270; 6583,907;   -2,401;    2,045
388,862; 6676,957;   -0,401;   -0,318
389,453; 6552,258;    1,054;    1,045
390,045; 6801,144;    3,236;   -2,682
390,636; 6734,689;    0,144;   -0,591
391,227; 6618,882;    2,054;   -0,045
391,819; 6710,433;    0,781;    0,773
392,410; 6775,178;    0,600;    0,045
393,001; 6723,069;    1,600;   -1,591
393,593; 6962,959;    0,600;   -0,045
394,184; 6796,300;    0,873;   -0,409
394,775; 6738,484;    1,146;    2,136
395,366; 6938,673;    1,782;    0,773
395,957; 6900,068;   -2,400;    0,136
396,548; 7168,884;    1,054;    2,682
397,139; 7465,999;    2,236;    0,591
397,730; 7212,783;    0,873;    0,955
398,321; 7278,459;    0,509;    0,955
398,912; 7283,496;   -0,764;    0,136
399,503; 7401,743;   -1,945;   -1,409
400,094; 6852,793;   -1,582;    1,682
400,685; 6703,112;    3,600;    0,045
401,276; 6799,099;   -0,400;   -0,955
401,867; 7070,154;   -1,127;    0,773
402,458; 7158,936;    1,509;   -2,318
403,048; 7147,552;    0,146;    0,591
403,639; 6792,841;    1,509;    0,864
404,230; 7022,169;    0,691;    0,318
404,821; 6962,198;   -0,127;    0,045
405,411; 7082,024;   -0,763;   -2,591
406,002; 6693,169;    3,237;   -1,136
406,592; 6588,097;    2,691;    0,045
407,183; 6855,335;    0,328;   -1,500
407,774; 6761,585;    1,419;   -0,136
408,364; 7067,660;    2,600;    0,409
408,954; 6700,951;   -0,036;    1,227
409,545; 6763,287;    1,873;    1,045
410,135; 6326,697;   -1,581;    0,500
410,726; 6471,031;    0,783;    0,318
411,316; 6815,766;    2,237;    0,773
411,906; 6533,417;    0,146;   -0,409
412,497; 6076,128;   -0,490;   -0,045
413,087; 6662,315;    0,783;   -0,227
413,677; 6984,236;   -2,490;    3,864
414,267; 6817,570;   -1,035;    1,409
414,857; 6811,353;    0,419;    4,227
415,448; 7103,960;   -0,763;    0,500
416,038; 6818,060;   -2,945;   -0,591
416,628; 6796,027;    0,965;    0,409
417,218; 6317,981;   -1,762;    3,318
417,808; 6545,946;    0,965;   -0,409
418,398; 6932,403;   -1,035;    2,682
418,988; 6948,911;   -2,217;    0,591
419,578; 7126,268;    3,601;    1,409
420,168; 7476,375;    0,692;   -0,955
420,757; 7087,529;    0,964;   -1,500
421,347; 6770,447;    1,601;   -0,227
421,937; 6931,170;    3,329;    1,409
422,527; 6898,260;    2,602;   -0,773
423,116; 6751,993;    2,692;   -0,045
423,706; 7048,514;    2,965;    0,318
424,296; 6997,647;    1,601;    0,682
424,885; 7370,374;    1,510;   -3,045
425,475; 7619,240;    1,147;   -2,864
426,065; 7529,487;   -1,489;   -0,318
426,654; 7214,398;    0,329;   -0,318
427,244; 7325,361;    1,147;    1,409
427,833; 6842,599;    1,056;   -0,500
428,423; 7234,879;    0,147;    1,136
429,012; 7918,310;    2,420;   -1,136
429,601; 7430,402;    2,057;    0,136
430,191; 7645,700;    2,511;    4,318
430,780; 7320,631;   -1,671;   -0,409
431,369; 7261,654;    1,329;   -0,045
431,959; 7838,663;    1,693;    0,500
432,548; 7637,532;   -1,398;   -0,045
433,137; 7734,279;    0,329;   -1,318
433,726; 8199,469;    0,148;    0,500
434,315; 7631,620;    0,148;    2,409
434,905; 7742,619;    0,693;    1,409
435,494; 7681,063;    3,148;    0,955
436,083; 8060,613;    1,420;   -0,955
436,672; 7951,360;    1,148;    0,500
437,261; 7567,692;    0,512;   -1,955
437,850; 7675,879;   -1,125;    0,682
438,439; 7636,713;    2,239;    1,955
439,027; 7491,454;    3,421;    1,773
439,616; 7828,692;    2,239;    1,227
440,205; 7680,342;    0,057;   -2,136
440,794; 7726,405;   -0,306;   -0,045
441,383; 7941,037;    1,603;   -0,591
441,971; 7814,394;   -0,306;    0,591
442,560; 7672,003;    0,603;   -1,773
443,149; 7449,542;    3,060;   -1,318
443,737; 7582,335;    0,968;   -2,318
444,326; 7819,576;    0,331;    0,318
444,915; 7896,705;   -1,851;    0,864
445,503; 8222,936;    0,058;   -0,318
446,092; 7565,859;    7,876;    2,136
446,680; 8049,816;    1,876;    0,318
447,269; 8197,512;   -1,487;   -0,318
447,857; 8007,363;    2,240;   -1,773
448,445; 8084,148;    2,149;    1,318
449,034; 8293,480;    0,876;   -1,136
449,622; 8399,368;    1,240;    3,500
450,210; 7741,553;    3,149;    2,227
450,799; 8220,497;    2,604;   -0,591
451,387; 8130,170;    1,786;   -0,591
451,975; 7836,129;   -1,305;    0,864
452,563; 7952,757;    0,422;    2,318
453,151; 7996,965;   -1,032;   -1,227
453,739; 7887,532;   -1,577;    0,136
454,328; 7767,601;    0,604;   -2,136
454,916; 7517,833;    1,150;   -0,136
455,504; 7697,445;    3,513;    1,227
456,092; 7843,742;    2,150;   -1,591
456,679; 7781,837;    0,604;    0,682
457,267; 7784,143;    3,604;    1,045
457,855; 7918,322;    3,241;    1,409
458,443; 7647,998;   -0,304;    1,682
459,031; 7804,587;    1,332;    2,409
459,619; 8223,201;   -3,577;    2,864
460,206; 8277,944;   -0,759;    2,045
460,794; 8366,854;   -0,668;   -0,227
461,382; 8586,155;    0,878;   -0,864
461,970; 8193,017;    0,605;    1,864
462,557; 8240,174;    0,878;   -0,682
463,145; 8390,109;   -0,304;   -1,682
463,732; 8518,254;    2,514;   -1,045
464,320; 8448,862;    1,514;   -3,045
464,907; 8137,119;    0,423;   -0,773
465,495; 8035,085;    2,696;   -1,227
466,082; 8183,312;    2,060;   -0,045
466,670; 8070,410;    2,605;    1,227
467,257; 8485,199;    0,060;    2,045
467,844; 8632,215;    1,514;    0,045
468,432; 8628,063;   -0,031;    3,500
469,019; 8211,359;    1,606;   -1,773
469,606; 8607,673;    0,969;    3,682
470,193; 8459,346;    2,151;    0,227
470,780; 8092,388;    0,333;    0,864
471,368; 8405,396;   -1,212;   -0,773
471,955; 8205,222;    1,060;   -0,682
472,542; 7858,607;   -0,303;   -1,136
473,129; 8076,163;   -0,485;    0,136
473,716; 7837,105;    0,060;    0,591
474,303; 8028,518;    1,333;   -0,864
474,890; 8284,279;    2,333;   -0,500
475,477; 8312,800;   -0,576;    0,409
476,064; 8213,280;    0,697;   -1,591
476,650; 8096,282;    2,152;    0,318
477,237; 7975,373;    1,879;    0,955
477,824; 8103,997;    3,879;    0,864
478,411; 8099,990;    0,606;   -0,318
478,997; 8328,597;    0,606;   -0,773
479,584; 8348,851;   -0,666;   -0,409
480,171; 8985,104;    1,243;   -0,773
480,757; 8683,195;   -0,848;    0,773
481,344; 8904,675;    0,334;    0,409
481,931; 8434,400;   -0,393;    1,045
482,517; 9287,753;    0,425;    0,318
483,104; 9748,282;    1,334;    2,864
483,690;10023,674;    0,243;    0,045
484,276;10305,325;    0,698;    0,227
484,863;10062,053;    2,152;    1,136
485,449;10590,309;    0,152;    0,318
486,035;10571,157;   -0,666;   -0,136
486,622;11010,781;   -2,393;    0,045
487,208;10913,009;    1,334;    1,500
487,794;10788,814;    0,971;    0,318
488,380;10889,100;    0,698;   -1,409
488,967;10925,279;   -1,120;   -0,409
489,553;10982,548;   -1,029;   -1,409
490,139;11165,392;    0,971;    0,773
490,725;10678,014;    0,789;   -0,227
491,311;10346,096;    1,516;    3,045
491,897; 9736,396;   -0,665;    1,500
492,483; 9591,069;    0,426;    1,227
493,069; 9470,107;    5,426;    0,864
493,655; 9395,639;    1,789;    0,682
494,241; 9312,175;    1,517;   -0,955
494,826; 9680,569;    0,335;   -1,045
495,412; 9172,319;    0,335;   -0,682
495,998; 9333,518;    0,971;   -0,318
496,584; 9410,815;    2,244;    1,045
497,169; 9368,560;    2,335;   -0,682
497,755; 9352,415;    1,244;    1,227
498,341; 9844,854;    2,153;    0,318
498,926; 9469,585;    2,881;    1,955
499,512; 9607,944;   -0,028;    2,955
500,097; 9701,297;   -0,574;   -0,318
500,683; 9679,731;   -0,028;    2,136
501,268;10015,622;    1,881;   -0,955
501,854; 9767,436;   -0,119;    1,227
502,439; 9691,756;   -0,573;   -1,773
503,024; 9855,608;    1,608;    0,500
503,610; 9895,968;    1,335;   -0,682
504,195; 9896,396;    1,245;    1,955
504,780;10025,992;    2,335;    1,227
505,366; 9877,936;    4,063;    2,864
505,951; 9631,297;   -1,119;    1,045
506,536; 9650,810;    1,427;   -3,682
507,121; 9606,814;    1,699;   -0,318
507,706;10087,478;   -0,392;    1,045
508,291;10405,640;   -2,937;    1,136
508,876; 9910,959;   -0,482;    2,591
509,461; 9435,947;    1,427;   -0,773
510,046; 9831,873;   -0,391;    0,318
510,631;10041,412;   -0,119;   -0,773
511,216; 9732,094;   -0,664;   -0,500
511,801;10077,451;   -0,755;    2,591
512,386;10305,221;    0,972;    0,500
512,971;10231,267;    0,427;    0,955
513,555; 9818,372;    1,154;   -1,500
514,140;10566,793;    1,336;   -3,136
514,725;10533,823;    1,791;   -1,136
515,309;10638,404;    1,064;    0,318
515,894;10160,038;   -0,300;   -2,227
516,479;10576,100;    1,973;   -0,955
517,063;10378,290;    0,882;    1,227
517,648;10528,024;    0,155;   -1,136
518,232;10160,379;   -1,300;   -1,409
518,817;10480,859;    1,337;    1,682
519,401;10695,871;    0,700;    0,591
519,985;10206,221;    2,700;    1,136
520,570;10093,956;   -0,118;   -1,955
521,154;10383,820;    0,064;    0,591
521,738;10540,140;    1,064;    2,409
522,323;11038,219;   -0,390;    1,682
522,907;10774,452;    2,428;   -0,136
523,491;10527,298;    1,155;    0,955
524,075;10484,869;    0,428;    0,591
524,659;10584,068;    0,973;    0,591
525,243;10118,371;    0,883;    0,409
525,827;10369,552;    0,883;   -0,045
526,411;11114,705;    1,155;   -0,136
526,995;11251,835;    0,337;    1,409
527,579;10858,783;    1,974;   -1,045
528,163;11159,651;    0,428;   -1,500
528,747;11089,029;    1,065;   -0,773
529,331;11367,339;    0,883;   -1,409
529,915;11536,723;    2,338;    0,955
530,499;11446,609;    0,247;    1,227
531,082;11185,098;    1,065;    1,591
531,666;10665,036;    0,520;    0,773
532,250;11258,054;    0,428;    2,682
532,833;11555,118;    0,610;    2,773
533,417;11448,190;    1,247;    0,864
534,001;11410,631;    0,429;   -0,318
534,584;12048,758;    1,974;    0,500
535,168;11892,618;    3,247;    1,409
535,751;11898,674;    4,520;    0,045
536,334;11387,121;    4,520;   -0,409
536,918;11937,480;    1,974;    1,591
537,501;12041,549;    1,520;    1,318
538,085;12008,765;    1,702;    1,045
538,668;12110,791;    0,883;    2,409
539,251;12400,725;    3,156;    3,773
539,834;12410,719;    0,156;    0,773
540,418;12329,789;    3,247;    4,318
541,001;12392,207;    2,702;    1,773
541,584;12405,921;    1,429;    2,227
542,167;12124,546;    0,702;    2,955
542,750;12222,107;    0,793;   -0,773
543,333;11800,480;    1,429;    2,136
543,916;12536,512;   -0,298;    2,500
544,499;13046,369;    2,520;    0,227
545,082;13050,373;    0,248;    3,591
545,665;13154,292;   -0,207;    1,500
546,248;13428,752;    0,520;   -0,318
546,830;13132,925;   -1,752;    1,955
547,413;13507,872;    0,157;   -0,773
547,996;13982,757;    0,157;    0,500
548,579;13759,467;   -0,843;    0,955
549,161;13566,198;    0,884;    2,682
549,744;13379,999;    0,612;    0,409
550,326;13801,048;    0,885;   -1,136
550,909;13616,366;    2,339;    0,591
551,492;13992,629;    0,521;    0,227
552,074;13777,766;   -0,024;   -1,318
552,657;14256,995;    2,430;    0,045
553,239;14068,344;   -3,024;   -0,773
553,821;14015,947;   -1,570;    1,045
554,404;13510,265;   -0,024;    1,136
554,986;13846,194;    2,248;    1,045
555,568;14364,089;    0,430;   -0,955
556,151;13655,205;    4,067;   -0,227
556,733;13856,754;   -1,388;   -0,864
557,315;14272,080;    4,703;    0,500
557,897;14043,414;    0,521;   -0,500
558,479;14139,213;    1,703;    1,318
559,061;14335,036;    1,067;   -0,864
559,643;14591,035;   -0,297;    0,045
560,225;14836,275;   -0,388;    2,864
560,807;14858,126;    0,340;    0,318
561,389;14436,794;   -1,206;    2,318
561,971;15033,721;   -0,660;    2,136
562,553;14892,129;    0,613;    1,591
563,135;14993,125;    1,249;    1,136
563,717;14648,304;    3,158;    1,136
564,298;15222,935;    3,976;   -0,045
564,880;14915,097;    0,340;   -1,409
565,462;15070,643;    1,977;    1,318
566,043;16111,452;   -0,933;    2,318
566,625;15675,200;    4,067;    1,227
567,207;15460,912;    0,704;    1,682
567,788;16413,716;   -0,114;    1,500
568,370;17151,348;   -1,841;   -0,500
568,951;16925,272;   -0,569;    0,227
569,533;17663,417;    0,977;   -0,500
570,114;18067,377;   -0,296;    0,682
570,695;18466,101;   -0,478;   -1,318
571,277;18757,848;   -0,205;   -1,682
571,858;19344,627;    2,704;   -1,136
572,439;20045,696;    0,795;   -1,045
573,021;20200,058;    0,432;   -2,773
573,602;20604,695;    1,795;    0,318
574,183;21440,580;   -0,114;    2,227
574,764;21434,711;    2,068;    0,409
575,345;21850,297;    0,250;   -0,136
575,926;22382,278;    2,704;    0,136
576,507;22297,898;    2,704;   -0,227
577,088;23276,966;    1,704;    1,682
577,669;23255,179;    1,704;    1,955
578,250;23909,580;   -0,750;   -1,045
578,831;24354,022;   -0,841;   -2,227
579,412;24496,568;   -1,205;    0,955
579,993;25374,027;    1,432;    0,227
580,573;25654,756;   -0,023;   -0,955
581,154;24662,363;    1,613;   -0,591
581,735;25458,176;    0,341;    0,773
582,315;24987,176;    0,523;    2,136
582,896;25263,802;   -1,750;    1,227
583,477;24823,387;    0,614;    1,227
584,057;24992,822;    1,159;    0,955
584,638;25216,663;   -2,750;    2,318
585,218;25237,227;    2,886;    2,682
585,799;25355,601;    1,977;   -0,227
586,379;25396,784;    1,250;    1,591
586,959;24351,172;    2,613;    0,318
587,540;23804,198;    0,432;    2,227
588,120;23439,177;   -1,113;   -0,045
588,700;22581,684;    2,977;    2,136
589,281;22910,528;    1,250;   -0,955
589,861;22824,243;   -0,296;   -1,682
590,441;22697,577;   -1,477;   -2,682
591,021;21769,411;    1,432;   -2,591
591,601;21989,318;    0,431;    0,500
592,181;22043,244;   -1,296;   -0,773
592,761;21397,810;    2,250;    1,409
593,341;21382,533;    1,522;    0,045
593,921;21378,579;   -0,569;    1,591
594,501;21291,286;    1,250;    1,318
595,081;21142,190;    0,522;   -0,318
595,661;21438,026;    1,068;    0,955
596,240;21921,887;   -1,023;    0,136
596,820;21486,765;    2,613;    1,955
597,400;21591,203;    1,977;    0,773
597,980;21822,442;   -0,750;    1,045
598,559;21876,175;    0,341;   -0,227
599,139;21662,413;   -0,750;   -1,227
599,718;21535,413;    0,795;   -0,409
600,298;21770,289;   -2,387;    0,682
600,877;21984,016;    4,795;    1,409
601,457;22257,621;    0,340;    1,136
602,036;22174,157;    1,795;    2,045
602,616;22328,282;    2,250;    1,682
603,195;22600,096;    0,431;    3,500
603,774;22174,219;   -0,296;    2,045
604,354;22070,518;    2,522;   -0,500
604,933;21611,381;    0,250;    1,864
605,512;21760,886;    2,340;    0,591
606,091;21778,493;    1,886;    3,773
606,671;22524,667;    0,249;    0,773
607,250;21747,989;    1,431;    3,136
607,829;21951,110;    1,158;    3,227
608,408;21794,239;    4,613;    2,591
608,987;20953,710;    2,704;    3,409
609,566;21212,641;    0,341;   -2,500
610,145;21294,239;    2,885;    0,682
610,723;21722,360;    1,613;    6,864
611,302;21024,445;    1,067;    1,682
611,881;20551,640;    5,158;   11,227
612,460;21320,827;    0,795;    3,955
613,039;21691,271;    1,703;    2,045
613,617;20523,049;    0,886;    4,773
614,196;20718,305;    1,613;    1,227
614,775;21043,290;    1,249;    2,409
615,353;20996,135;   -1,660;    0,864
615,932;20772,048;    0,249;    2,409
616,510;21306,766;    0,158;    0,591
617,089;20841,962;    8,794;   17,591
617,667;20681,027;    4,885;    6,136
618,246;20561,212;   -1,115;    1,318
618,824;20697,105;    1,612;   -0,955
619,402;20277,266;    0,431;   -1,773
619,981;20710,539;    1,067;   -1,045
620,559;20584,796;    0,794;    1,682
621,137;20217,647;    3,067;    1,864
621,715;20095,404;    3,703;   -0,682
622,293;20084,463;    1,885;   -0,773
622,871;20589,717;    0,340;    0,500
623,450;20200,019;    0,430;   -0,864
624,028;20095,295;   -0,388;   -0,955
624,606;19778,459;    2,339;    1,682
625,183;20109,276;   -0,661;   -1,136
625,761;19771,843;    1,885;    1,136
626,339;20059,876;    2,339;    2,591
626,917;20375,740;    0,339;   -0,045
627,495;20442,518;    2,794;    1,318
628,073;19937,312;    5,248;    2,864
628,650;19665,874;    3,067;    2,136
629,228;20029,218;    1,248;    4,409
629,806;19479,286;   -0,024;    1,136
630,383;19718,439;    0,066;   -0,318
630,961;19587,855;   -2,206;   -0,955
631,539;19293,367;   -2,479;    0,227
632,116;18756,582;   12,703;   15,409
632,694;19267,033;    4,885;    6,500
633,271;19482,640;    1,975;    2,682
633,848;19445,799;    1,430;    2,045
634,426;19435,918;    1,521;    1,773
635,003;18708,925;   -0,207;   -0,409
635,580;18973,010;    1,884;    3,682
636,158;19469,033;    3,793;    1,227
636,735;19449,936;    3,339;   -0,500
637,312;19544,580;    0,521;   -0,682
637,889;19663,364;    2,248;   -0,682
638,466;19226,863;    0,066;   -0,409
639,043;19196,861;    1,702;   -1,136
639,620;19452,222;    0,611;   -0,955
640,197;19740,272;    1,612;    1,682
640,774;19896,537;    1,430;    1,136
641,351;20249,621;    0,612;    1,136
641,928;19739,432;    2,794;    1,409
642,505;19383,879;    0,794;   -0,500
643,082;19514,235;    1,885;    1,227
643,658;18646,955;    1,157;    1,500
644,235;19305,493;   -2,479;    2,500
644,812;19538,486;    1,794;    0,773
645,388;19301,569;    1,612;    1,409
645,965;19328,926;    1,521;    1,682
646,542;19409,191;    3,430;   -0,227
647,118;19447,820;    3,703;   -0,955
647,695;19662,722;    0,339;    1,136
648,271;19580,078;   -2,115;    0,500
648,848;19878,525;    0,248;    2,227
649,424;19703,700;    0,976;    1,318
650,000;19479,510;   -0,388;   -1,045
650,577;19315,594;    0,158;   -0,955
651,153;19692,859;   -1,115;    0,955
651,729;20558,216;    0,521;    0,864
652,305;20647,572;    1,339;    2,773
652,881;23966,110;   -1,297;    1,136
653,458;29397,648;    0,249;    0,227
654,034;32414,277;    0,703;    1,591
654,610;33539,361;    0,339;    0,773
655,186;34720,444;    1,612;    3,045
655,762;34383,891;   -1,842;    0,409
656,338;34442,157;    0,703;    0,136
656,913;35423,877;   -0,297;    0,409
657,489;34703,596;    0,249;   -0,318
658,065;34687,680;    0,794;   -1,591
658,641;35273,036;    2,158;   -0,864
659,217;34648,483;    2,067;    0,409
659,792;34135,931;   -1,751;   -0,409
660,368;34505,741;   -0,388;   -0,682
660,944;34431,370;    1,794;    1,227
661,519;30816,363;    0,522;    0,409
662,095;26008,719;   -0,206;    0,591
662,670;22220,985;   -0,206;   -0,136
663,246;21288,795;   -0,660;   -0,409
663,821;20737,970;    0,431;    1,682
664,396;20209,872;    0,613;    1,864
664,972;20412,773;   -0,660;   -0,500
665,547;20741,311;    3,794;    0,136
666,122;20788,304;    1,340;    0,318
666,698;20987,388;    2,431;    0,318
667,273;20353,562;    0,885;    0,136
667,848;21120,191;    0,340;    1,500
668,423;20918,729;    1,795;    2,318
668,998;21318,085;    0,976;   -0,682
669,573;21789,442;    2,067;   -1,500
670,148;21611,162;    1,885;   -0,682
670,723;21388,791;   -0,024;    0,318
671,298;21795,329;   -1,296;    1,045
671,873;21865,594;   -0,296;   -0,136
672,448;21824,950;    1,704;    0,136
673,023;22115,761;    0,249;   -0,227
673,597;22431,845;    2,704;    2,318
674,172;22233,928;    2,431;    0,318
674,747;21738,921;   -0,205;   -1,045
675,321;21538,823;   -0,933;    3,318
675,896;21184,815;    2,158;    1,045
676,471;22095,990;    2,522;    1,591
677,045;21845,437;   -0,296;    0,682
677,620;21844,157;    2,158;    1,136
678,194;22200,058;    0,249;    1,136
678,769;21850,687;    0,886;   -0,318
679,343;22030,862;   -0,023;    1,773
679,917;21903,582;    0,340;    1,955
680,492;21943,211;    0,249;    3,227
681,066;22049,840;    0,613;    0,409
681,640;22070,105;    1,795;   -0,318
682,214;22807,916;    2,340;    0,500
682,788;22367,727;    0,613;   -0,773
683,363;22259,083;    1,977;    1,682
683,937;21987,985;    0,886;   -0,318
684,511;22691,159;   -1,023;   -0,591
685,085;22407,061;   -1,478;    0,318
685,659;22124,963;    1,431;    0,864
686,232;22406,046;    1,159;   -0,318
686,806;22138,493;    2,159;    0,409
687,380;22716,031;   -1,932;    0,591
687,954;22929,206;    2,432;    1,136
688,528;22567,926;    2,613;    1,955
689,101;23365,918;    0,432;    1,045
689,675;23009,547;    0,886;   -0,136
690,249;22374,086;    3,432;    0,409
690,822;22697,805;    1,159;    0,318
691,396;22773,707;    2,068;    1,227
691,969;22286,427;    2,523;    0,136
692,543;22762,329;   -0,568;   -1,955
693,116;22434,958;   -0,659;   -1,409
693,690;22288,132;   -0,296;    0,500
694,263;22810,489;    2,341;    2,955
694,836;22819,936;    2,795;    3,591
695,410;21604,110;    1,159;    1,773
695,983;22005,376;    1,614;    0,591
696,556;21959,368;   -0,750;   -1,045
697,129;22336,179;   -1,114;    1,409
697,703;21997,081;    1,341;    1,955
698,276;21994,982;    1,705;   -0,773
698,849;21815,248;   -1,023;    1,409
699,422;22158,877;    1,250;    0,591
699,995;21959,051;   -0,659;    0,136
700,568;22333,589;   -0,204;    3,045
701,140;22354,764;   -1,841;    1,682
701,713;22127,029;    0,341;    2,409
702,286;21885,204;    0,796;    0,864
702,859;21754,196;    0,614;   -0,591
703,432;21082,371;   -0,841;    0,682
704,004;21459,636;    1,978;    0,318
704,577;21381,447;    1,068;    0,136
705,150;21893,258;    0,887;    2,500
705,722;21736,159;    1,523;   -3,227
706,295;21535,879;    1,432;   -0,591
706,867;21369,326;    0,250;    1,955
707,440;21554,865;   -0,113;   -0,409
708,012;21783,766;   -0,022;    0,591
708,584;21708,304;    2,705;    0,227
709,157;21962,933;    1,160;   -0,591
709,729;21679,290;    1,069;    2,045
710,301;22460,191;   -1,204;    0,045
710,874;22465,366;    0,341;   -0,227
711,446;21372,086;   -0,295;    0,864
712,018;21268,169;   -3,022;    0,500
712,590;21128,980;   -0,204;    1,682
713,162;21577,427;   -0,477;    1,318
713,734;21763,056;    1,796;   -2,045
714,306;21684,412;    0,342;   -0,409
714,878;20498,496;   -0,295;    0,864
715,450;21260,398;   -0,113;    0,864
716,022;21511,209;    2,433;    1,318
716,593;21651,565;    0,978;    0,591
717,165;21580,012;    1,796;   -1,227
717,737;21365,641;    0,796;    0,409
718,309;21068,088;    1,160;   -0,045
718,880;21033,172;   -1,295;   -1,409
719,452;21260,073;    0,887;   -1,591
720,024;20901,339;    1,705;   -0,591
720,595;21399,695;    2,978;    0,955
721,167;20966,506;    1,160;   -2,045
721,738;20550,135;    2,069;   -1,045
722,309;20563,400;    1,251;   -1,227
722,881;20383,302;    2,705;    0,773
723,452;20898,476;    1,251;    2,864
724,023;21114,924;    1,524;    2,682
724,595;20939,916;    2,342;    0,682
725,166;20638,363;    1,524;   -0,409
725,737;20277,811;    1,887;    0,227
726,308;20417,621;    0,797;    0,318
726,879;20843,432;    1,069;    1,227
727,450;20663,607;   -2,022;   -0,045
728,021;20621,599;    1,069;    0,682
728,592;20439,592;    1,160;    0,500
729,163;20808,675;    1,433;   -0,136
729,734;20756,668;    2,160;   -0,227
730,305;21138,297;    0,615;    0,136
730,876;21378,744;    0,888;    2,955
731,447;21063,101;    0,797;    2,682
732,017;21182,911;   -0,840;    1,864
732,588;20768,722;   -0,021;    1,227
733,159;20872,078;    3,615;   -1,045
733,729;20733,798;    1,251;    0,409
734,300;20126,155;    0,160;    0,864
734,870;20488,784;   -1,385;    0,591
735,441;20967,231;    0,888;   -0,591
736,011;20755,860;    1,070;   -1,591
736,582;20745,580;    1,251;    0,045
737,152;20230,300;    0,979;   -2,045
737,722;20687,565;    1,070;   -0,682
738,293;20397,921;   -2,021;    1,318
738,863;20307,459;    1,797;    2,318
739,433;20158,634;    4,524;    0,318
740,003;20677,263;    1,524;   -0,682
740,573;20117,801;    2,252;   -1,591
741,143;20158,521;    3,615;    0,318
741,713;20851,422;    0,252;   -0,500
742,283;20587,870;    1,706;    1,591
742,853;20432,226;    0,524;    1,591
743,423;19899,946;    0,161;    0,045
743,993;19993,575;    1,070;    1,500
744,563;19488,022;    2,524;   -0,864
745,133;19411,469;   -0,112;   -0,864
745,702;20057,007;    2,797;    1,773
746,272;19327,000;    0,434;    0,591
746,842;19127,629;   -0,748;   -0,591
747,411;19517,258;   -0,839;   -0,318
747,981;19703,251;   -0,930;    0,500
748,551;19739,243;   -0,021;   -1,045
749,120;19595,418;   -0,112;   -0,227
749,690;19957,865;    2,161;    2,409
750,259;20241,221;    0,979;    2,955
750,828;20107,668;    4,070;   -1,955
751,398;20355,570;   -0,112;   -0,045
751,967;19946,835;    2,888;    0,409
752,536;20122,646;    1,161;   -0,227
753,105;20520,821;   -1,384;    0,227
753,675;20245,904;   -0,112;    1,773
754,244;20195,897;    0,888;    3,591
754,813;20216,344;    0,979;    1,227
755,382;19826,427;    0,798;    0,955
755,951;20333,602;   -0,112;    3,682
756,520;19930,140;    2,525;    1,864
757,089;20453,496;    1,888;    0,500
757,658;20553,762;    2,434;    1,227
758,227;20585,300;   -1,111;    0,318
758,795;20797,383;   -1,021;    1,136
759,364;21044,467;    0,525;   -0,591
759,933;20203,732;    1,343;   -0,045
760,501;19753,361;    0,252;   -1,318
761,070;20153,081;   -0,293;   -1,409
761,639;20803,074;    1,434;    1,318
762,207;20197,339;    0,889;   -0,955
762,776;20084,332;    2,889;    0,864
763,344;20094,324;    0,071;    0,591
763,913;19242,499;    1,616;    1,409
764,481;19950,582;    1,980;   -0,136
765,049;19851,939;    0,616;    1,409
765,618;19687,749;    1,434;    0,318
766,186;19774,560;    2,434;    0,136
766,754;19960,735;    1,798;    1,864
767,322;19059,273;    1,162;    0,409
767,890;19044,265;    0,525;   -1,773
768,459;19451,531;    2,616;   -0,318
769,027;19625,251;    2,525;    3,409
769,595;18685,061;    2,616;    2,591
770,163;19058,509;    3,344;    2,955
770,730;18938,592;    2,525;   -0,136
771,298;18792,221;    1,162;   -1,409
771,866;18879,759;    0,253;    4,955
772,434;19078,116;    1,162;   -1,864
773,002;19296,926;    2,616;    0,682
773,569;19001,737;    1,071;    1,682
774,137;18822,002;    0,889;   -0,045
774,705;19582,995;   -0,747;   -0,136
775,272;19118,624;    0,253;    0,682
775,840;18942,435;   -0,111;    2,682
776,407;18509,428;   -0,293;    1,955
776,975;18121,147;    1,162;    0,318
777,542;19033,776;    2,162;   -0,045
778,110;18959,042;    0,707;   -0,045
778,677;18689,307;    1,071;   -0,864
779,244;18432,573;   -1,020;    1,045
779,812;18492,020;    0,980;    0,864
780,379;18361,740;    2,435;    1,136
780,946;18563,005;    2,617;   -0,773
781,513;18868,725;   -0,565;    0,318
782,080;18314,081;    1,253;    2,864
782,647;18914,892;    1,708;    3,045
783,214;18588,521;   -0,201;    3,864
783,781;18254,877;    1,708;   -0,682
784,348;18160,234;    0,253;    1,500
784,915;18534,408;   -1,474;    0,318
785,482;18347,764;    2,708;    2,591
786,049;18763,484;    1,071;   -0,591
786,615;18884,386;    1,708;   -0,955
787,182;18645,742;   -3,201;   -0,682
787,749;18345,826;   -2,201;    1,409
788,315;17756,727;    0,253;   -0,409
788,882;18040,356;    0,981;   -1,227
789,448;18638,167;    1,435;   -0,955
790,015;18691,160;    1,799;    3,227
790,581;18278,880;    0,708;    0,227
791,148;18133,145;    1,344;    1,045
791,714;18364,501;   -1,019;    3,136
792,280;18113,403;    3,708;    1,591
792,847;17765,032;   -0,928;    2,500
793,413;18174,934;   -0,110;   -0,318
793,979;17825,836;    1,526;   -1,318
794,545;17905,828;    2,981;    2,682
795,111;17400,912;    2,435;    1,318
795,678;17533,813;    3,526;   -1,682
796,244;17186,079;    2,799;    0,136
796,810;17720,344;    0,799;    0,773
797,375;17486,700;   -0,292;   -2,136
797,941;17504,057;   -1,110;    0,591
798,507;17603,140;    0,254;   -0,955
799,073;17205,406;    2,708;    0,591
799,639;17257,307;    1,435;    3,136
800,205;17323,936;   -1,565;    2,682
800,770;16933,293;    1,345;    1,773
801,336;16998,649;    2,981;   -0,955
801,901;16768,641;    6,072;    3,136
802,467;17291,180;    0,526;    2,045
803,033;16687,536;   -0,019;    0,864
803,598;16843,165;    1,072;   -1,045
804,163;16938,885;    0,708;   -0,318
804,729;16868,241;   -0,110;    1,136
805,294;17201,415;    1,072;    2,227
805,859;17033,590;    0,890;   -0,409
806,425;16612,764;    3,890;    2,682
806,990;16253,575;    1,890;    4,318
807,555;16682,022;   -0,110;    2,591
808,120;16626,288;   -1,292;   -0,409
808,685;16706,644;    1,072;   -2,500
809,250;16251,818;    2,072;   -0,500
809,815;16496,720;   -0,201;    0,682
810,380;16963,985;    0,981;    1,591
810,945;17388,887;    2,890;    2,045
811,510;16713,243;   -0,200;    1,591
812,075;16463,691;    2,800;   -1,409
812,640;16507,774;    3,709;    1,409
813,204;16587,312;    2,163;   -0,227
813,769;16999,941;    0,254;   -0,045
814,334;16504,479;    0,527;    0,864
814,898;16564,745;    1,981;    0,591
815,463;16364,919;    0,981;   -0,773
816,027;16369,457;    1,345;   -2,318
816,592;16488,632;    2,163;   -2,045
817,156;16075,806;   -2,200;    1,136
817,721;15949,981;    0,982;    2,318
818,285;15945,246;    0,618;    1,500
818,849;16497,148;   -0,018;    1,682
819,414;16415,595;    0,073;    2,955
819,978;16040,315;   -0,291;    1,773
820,542;16532,762;    2,891;    0,500
821,106;16321,209;    2,800;    0,682
821,670;16393,293;    2,709;    2,591
822,234;16153,194;    1,073;    1,409
822,798;15641,460;   -0,836;    0,500
823,362;15645,180;    1,527;    4,227
823,926;15115,718;   -0,018;    1,136
824,490;15264,347;    3,527;   -0,682
825,054;15619,248;    2,527;   -1,136
825,618;15339,423;   -1,200;   -1,500
826,181;15334,779;    0,982;   -1,318
826,745;15214,135;   -0,745;   -1,045
827,309;15511,219;    2,255;    1,318
827,872;15032,575;    0,527;    0,955
828,436;15911,477;    1,982;   -0,773
828,999;16011,015;    2,436;    1,227
829,563;14996,644;   -0,654;    1,136
830,126;14792,819;   -0,018;   -0,591
830,690;14840,175;    0,709;    2,864
831,253;14435,804;   -0,473;    2,227
831,816;14541,251;   -0,018;    0,500
832,380;14506,335;    1,164;    0,864
832,943;14713,418;    3,073;   -0,500
833,506;14260,229;    0,255;   -1,227
834,069;14945,040;    2,164;   -0,955
834,632;15016,396;   -2,200;    1,318
835,195;14939,752;    1,346;    0,955
835,758;14249,563;    0,709;    1,955
836,321;14061,919;    1,073;   -1,045
836,884;14179,457;   -1,291;   -0,955
837,447;14247,632;    0,528;    1,773
838,010;14463,443;    1,800;    3,227
838,573;14712,799;    0,528;    0,773
839,135;14721,428;   -0,109;   -0,955
839,698;14218,239;    2,528;    0,409
840,261;13800,231;    0,255;   -0,227
840,823;13685,133;   -0,927;    0,864
841,386;13934,035;   -0,018;   -2,409
841,948;13878,937;    0,255;    1,773
842,511;13636,929;    0,255;    1,682
843,073;13748,376;    2,982;    0,227
843,636;13589,914;    0,619;   -0,227
844,198;13506,634;    1,255;    0,591
844,760;13638,354;    0,619;    1,955
845,322;13325,074;    0,164;    1,136
845,885;13678,158;   -0,290;    0,591
846,447;14078,059;    0,710;    0,227
847,009;13718,325;    3,983;   -0,682
847,571;13973,772;    1,346;   -2,045
848,133;14050,310;   -0,199;   -1,864
848,695;13888,484;    2,346;    1,409
849,257;13518,477;    1,346;   -1,682
849,819;13702,379;    2,983;   -0,409
850,381;13721,735;    1,801;   -0,864
850,942;14011,000;    1,892;   -0,591
851,504;13914,084;    0,983;    0,227
852,066;13966,258;    1,619;   -1,591
852,628;13611,251;    0,165;    1,955
853,189;13190,880;    0,256;    2,682
853,751;13313,964;   -0,654;    1,409
854,312;13098,956;    1,256;   -1,682
854,874;13581,403;   -0,108;   -0,773
855,435;14009,578;    0,528;   -1,682
855,997;14151,752;    3,983;   -0,136
856,558;13503,200;    0,801;    1,773
857,119;13577,192;   -0,744;    2,864
857,681;13307,185;   -0,108;    0,318
858,242;13355,087;    1,347;   -2,136
858,803;13772,988;    1,074;   -0,773
859,364;14299,890;    0,892;   -4,773
859,925;13752,610;   -0,290;   -0,955
860,486;13621,239;    0,529;   -0,955
861,047;13386,322;    0,165;   -1,227
861,608;13231,679;    0,165;   -0,773
862,169;13375,399;   -0,562;   -0,045
862,730;13173,482;   -0,290;    1,409
863,291;13422,202;    0,438;   -0,500
863,852;13687,286;   -0,926;    1,955
864,412;13205,460;   -1,835;   -0,864
864,973;11975,634;    1,892;    0,500
865,534;11862,718;    2,074;    0,227
866,094;13161,711;    2,620;    0,227
866,655;12894,703;    4,711;    3,318
867,215;13190,605;    0,074;    0,136
867,776;13032,598;   -1,199;   -0,136
868,336;13090,408;    1,529;    0,136
868,897;12693,401;    3,438;    1,682
869,457;12474,757;    3,256;    0,318
870,017;12722,114;    2,438;   -1,227
870,578;13158,015;    1,893;    0,773
871,138;12788,372;    2,620;   -0,955
871,698;12394,364;   -0,562;   -1,318
872,258;12281,539;    0,711;   -2,864
872,818;12649,622;    2,347;    0,045
873,378;12655,342;   -2,198;    1,045
873,938;12234,971;    4,984;    0,500
874,498;12515,418;    1,256;   -1,955
875,058;12423,047;    4,347;    1,773
875,618;12297,131;    1,438;   -2,682
876,177;12224,578;   -0,471;    0,136
876,737;11884,752;   -0,289;    1,955
877,297;11950,109;    2,711;    1,955
877,856;11949,283;    2,529;    0,318
878,416;11926,639;    2,438;   -0,136
878,976;12088,996;    3,438;    0,409
879,535;12275,716;    4,529;    3,136
880,095;12076,072;    1,347;    0,045
880,654;12147,065;    0,347;    1,318
881,213;12251,239;    2,347;    1,500
881,773;11940,595;    1,984;    2,682
882,332;12262,497;    6,075;    5,136
882,891;12134,762;    0,711;    2,136
883,451;12477,573;   -2,016;    1,682
884,010;11988,475;   -1,107;   -0,409
884,569;12095,558;   -2,289;   -0,045
885,128;12200,824;   -0,743;   -1,864
885,687;12262,725;   -0,743;    0,682
886,246;12038,809;    2,620;    2,136
886,805;11818,529;    1,620;    2,045
887,364;12014,794;    1,166;   -0,500
887,922;12342,787;   -0,016;    0,045
888,481;11866,961;    1,530;    0,591
889,040;12124,772;    3,711;    2,136
889,599;12684,219;    2,166;    1,409
890,157;12759,576;    2,166;    2,409
890,716;12431,750;    2,166;    0,227
891,274;12272,652;    0,075;   -1,136
891,833;12611,826;    1,166;    0,864
892,391;12512,273;    1,802;    0,500
892,950;12558,630;    0,166;   -0,773
893,508;12889,622;    0,984;   -0,409
894,067;12342,706;   -0,379;    0,136
894,625;12233,880;   -1,016;   -1,500
895,183;12427,237;   -0,198;   -0,682
895,741;12370,229;    2,257;   -1,773
896,299;12214,767;    1,621;   -2,409
896,858;12376,033;    1,530;   -1,591
897,416;12511,662;    0,166;   -1,318
897,974;12293,563;   -2,197;    0,318
898,532;12435,101;    6,530;    2,682
899,089;12369,276;    0,621;   -0,682
899,647;12397,087;    0,530;    1,318
900,205;12202,807;    0,257;    1,045
900,763;12383,527;    2,166;    0,227
901,321;12421,065;    3,530;   -1,409
901,878;11898,785;    3,257;   -0,773
902,436;11802,777;    0,257;    1,318
902,994;12205,861;    6,712;    3,682
903,551;11696,308;    1,439;    0,409
904,109;12036,301;    1,530;   -1,409
904,666;11713,475;    1,439;    1,045
905,224;11559,740;    3,894;   -0,409
905,781;11377,188;   -0,470;   -0,318
906,338;11385,907;    0,167;    1,045
906,895;11373,446;    1,894;    2,045
907,453;11306,802;    2,348;    1,136
908,010;11341,249;    3,348;    0,409
908,567;11037,878;   -0,561;    0,591
909,124;10610,325;    2,439;   -1,500
909,681;10667,227;   -1,288;    0,682
910,238;10856,401;   -0,106;   -1,318
910,795;11163,758;   -1,561;   -1,136
911,352;10857,303;   -0,379;   -2,682
911,909;10359,485;    2,803;   -0,864
912,466;10775,212;    1,985;    1,500
913,022;10379,758;   -0,924;    0,500
913,579;10711,121;   -0,470;    2,045
914,136;10464,121;   -2,561;    0,955
914,692;10762,121;    1,530;   -1,227
915,249;10427,303;    0,530;    0,409
915,806;10661,576;    1,803;    1,955
916,362;10498,667;    0,894;    1,864
916,918;10034,394;    2,439;    1,045
917,475;10037,848;    1,621;    0,955
918,031;10119,394;    0,076;   -0,045
918,587; 9695,212;    0,621;   -0,318
919,144; 9936,121;   -0,379;    0,227
919,700;10168,030;    0,167;    0,773
920,256; 9790,212;    0,439;    0,045
920,812; 9509,030;    1,439;   -1,045
921,368; 9537,758;    1,348;   -1,045
921,924; 9232,667;    0,439;   -0,136
922,480; 8899,939;    0,076;    1,227
923,036; 9410,939;   -0,652;    1,955
923,592; 9387,303;    0,621;    0,318
924,148; 9364,030;    1,894;   -0,955
924,704; 8785,212;    0,258;   -0,409
925,259; 9068,394;   -0,561;    0,591
925,815; 8853,848;    3,803;    0,500
926,371; 8441,485;    3,530;    1,409
926,926; 8376,667;    1,621;    0,591
927,482; 8091,939;    1,621;    0,773
928,037; 8001,212;   -0,833;    2,045
928,593; 8304,576;    0,258;    1,045
929,148; 8190,485;    1,167;   -1,500
929,704; 7771,576;    2,439;   -0,500
930,259; 7947,667;    0,894;   -0,136
930,814; 7168,485;    1,803;    1,955
931,369; 6949,485;    0,258;   -0,773
931,925; 6872,030;   -1,924;    0,136
932,480; 6809,121;    3,076;   -2,591
933,035; 6790,394;    3,985;   -0,318
933,590; 6617,758;   -1,742;   -1,773
934,145; 6340,667;   -1,288;   -0,318
934,700; 6643,212;    0,348;   -0,591
935,255; 6491,303;    4,803;    0,045
935,809; 5985,212;    6,258;    0,864
936,364; 5280,394;    2,167;   -0,136
936,919; 5302,394;    2,348;   -1,773
937,474; 5232,485;    1,348;    0,136
938,028; 5071,394;    3,076;    1,136
938,583; 4716,121;    6,348;    4,682
939,138; 4915,485;    0,167;    2,136
939,692; 4477,212;   -1,015;   -1,136
940,247; 4266,576;    1,167;   -1,045
940,801; 3952,939;    0,621;    0,227
941,355; 3911,576;    0,439;    2,591
941,910; 3617,121;    0,712;   -2,136
942,464; 3718,848;    2,712;   -0,318
943,018; 3639,848;    3,258;   -0,227
943,572; 3576,758;    2,803;   -0,682
944,126; 3154,485;   -0,924;   -0,409
944,681; 3044,121;    0,712;    0,227
945,235; 3001,394;    2,167;   -0,591
945,789; 2949,667;    1,258;   -1,864
946,342; 3127,758;   -0,561;   -0,591
946,896; 2918,667;    0,348;    0,955
947,450; 2701,848;   -0,561;   -0,227
948,004; 2940,667;    1,076;   -0,045
948,558; 2915,576;    1,258;   -0,864
949,111; 2821,303;   -1,197;   -0,318
949,665; 2945,576;   -0,106;   -0,682
950,219; 2848,121;    0,621;   -1,045
950,772; 2858,394;    0,258;    1,864
951,326; 2797,667;   -1,106;   -0,955
951,879; 2832,848;    1,076;   -2,318
952,433; 2899,848;    1,348;    2,227
952,986; 2721,212;    0,348;    0,682
953,539; 2668,030;    1,530;    0,591
954,093; 2624,030;    0,985;   -1,318
954,646; 2779,848;   -0,288;    1,318
955,199; 2595,121;    1,258;   -0,500
955,752; 2581,939;    1,985;    1,773
956,305; 2513,576;    0,894;    2,955
956,858; 2655,030;    0,621;   -0,318
957,411; 2786,394;    3,621;    2,136
957,964; 2633,667;    2,076;    2,136
958,517; 2599,030;    0,985;    3,136
959,070; 2471,848;   -1,197;    1,955
959,623; 2621,758;    1,076;    1,500
960,176; 2429,576;    0,712;    2,045
960,728; 2410,121;    1,712;    0,773
961,281; 2446,394;    2,258;    0,500
961,834; 2458,030;   -0,833;    0,864
962,386; 2399,394;    1,258;    1,045
962,939; 2330,030;    3,439;   -0,318
963,491; 2431,485;    2,621;    1,136
964,043; 2328,121;    0,076;    2,409
964,596; 2463,121;    1,712;    2,227
965,148; 2326,758;   -0,379;    1,773
965,700; 2253,303;   -0,015;   -0,227
966,253; 2403,939;   -0,833;    0,318
966,805; 2263,939;    1,894;    0,773
967,357; 2285,576;    0,439;   -1,500
967,909; 2287,303;    1,167;   -1,227
968,461; 2325,303;    0,894;    3,136
969,013; 2271,667;   -1,561;   -0,864
969,565; 2348,667;    1,803;   -1,136
970,117; 2541,303;    3,803;    1,045
970,669; 2302,939;    3,258;   -0,136
971,220; 2134,667;    2,167;   -1,500
971,772; 2102,667;    1,348;   -0,318
972,324; 2233,758;   -1,197;   -0,500
972,876; 2141,394;    0,167;   -0,045
973,427; 2316,485;   -1,197;   -1,045
973,979; 2303,303;    0,076;   -2,500
974,530; 2247,303;    0,803;    1,318
975,082; 2261,939;    2,167;    1,682
975,633; 2190,939;    2,894;    1,682
976,184; 2327,667;    2,076;    0,773
976,736; 2177,212;    0,348;    0,227
977,287; 2048,667;    0,258;   -0,500
977,838; 2161,030;   -0,924;   -0,318
978,389; 2207,394;    0,803;   -0,500
978,940; 2063,848;    1,258;   -0,409
979,491; 2093,848;    2,258;   -0,500
980,042; 2092,485;   -0,652;    3,045
980,593; 2109,394;    1,894;    0,227
981,144; 2202,303;    3,530;   -0,500
981,695; 2203,848;   -0,470;    1,500
982,246; 2158,576;   -1,833;    1,045
982,797; 2218,576;   -0,561;    0,682
983,347; 2337,212;    2,167;    0,591
983,898; 2523,303;    4,167;    0,409
984,449; 2373,758;    2,530;    0,773
984,999; 2215,576;    1,894;   -1,136
985,550; 2072,576;    3,167;   -0,318
986,100; 2053,212;    0,712;   -0,318
986,651; 2073,485;    0,258;    0,045
987,201; 2065,303;    0,894;   -0,591
987,751; 2133,485;   -0,288;    2,864
988,302; 2142,030;   -0,379;    1,500
988,852; 2161,485;    1,985;   -1,136
989,402; 2240,303;    0,985;    0,682
989,952; 2188,303;    1,621;    0,864
990,502; 2199,394;    1,076;    0,682
991,052; 2153,121;   -0,106;    0,045
991,602; 2048,212;    1,167;    1,318
992,152; 2061,212;    2,803;    0,682
992,702; 2054,212;    1,167;   -0,045
993,252; 1988,394;    0,076;   -0,500
993,802; 2095,576;    1,167;    1,318
994,352; 2250,485;   -0,742;    1,136
994,901; 2281,121;    1,076;    3,227
995,451; 2222,848;   -1,197;    0,318
996,000; 2303,212;    1,076;    0,318
996,550; 2081,848;    2,894;    0,227
997,100; 2093,667;   -0,561;   -0,045
997,649; 2342,121;   -0,197;    0,955
998,198; 2037,394;   -0,288;   -1,500
998,748; 2244,848;    0,348;   -2,318
999,297; 2141,939;    0,985;   -0,409
999,846; 2225,939;    1,894;   -0,773
1000,395; 2211,030;    1,530;    0,500
1000,945; 2234,303;    1,076;   -0,773
1001,494; 2300,758;    0,167;    0,682
1002,043; 2264,394;    0,712;    0,864
1002,592; 2093,485;    3,439;    1,955
1003,141; 2217,212;    2,439;   -0,682
1003,690; 2151,576;    1,258;    0,500
1004,238; 2141,667;   -0,106;   -0,045
1004,787; 1860,576;   -1,288;    1,227
1005,336; 2136,848;    1,621;    0,682
1005,885; 2192,667;   -0,197;   -2,773
1006,433; 2247,303;   -0,470;    0,955
1006,982; 2414,030;    2,167;    1,682
1007,531; 2268,485;    2,712;   -0,227
1008,079; 2190,667;    0,258;    0,500
1008,627; 2304,212;    1,621;    0,409
1009,176; 2114,394;    0,076;   -1,955
1009,724; 2138,303;   -2,742;    0,864
1010,273; 2238,576;    1,076;    0,500
1010,821; 2290,758;    1,076;    1,409
1011,369; 2070,121;    0,076;    1,318
1011,917; 2057,758;   -0,833;   -0,591
1012,465; 2305,758;    2,530;   -1,591
1013,013; 2371,576;    0,439;   -1,682
1013,561; 2323,939;   -1,288;   -0,773
1014,109; 2390,939;   -0,833;    1,682
1014,657; 2234,394;    1,348;    0,591
1015,205; 2307,303;    0,894;   -0,955
1015,753; 2281,939;    0,258;   -1,409
1016,301; 2336,303;    2,621;    3,045
1016,848; 2369,667;    2,167;    0,409
1017,396; 2416,303;    1,621;    0,045
1017,944; 2488,667;    2,621;    1,864
1018,491; 2266,212;   -0,197;    1,409
1019,039; 2543,939;   -0,652;    0,591
1019,586; 2372,030;    0,076;    1,682
1020,134; 2416,485;    0,712;    1,500
1020,681; 2449,485;    2,894;   -1,136
1021,228; 2411,576;   -0,561;   -2,227
1021,776; 2300,212;   -0,833;   -1,136
1022,323; 2560,939;    0,803;    0,773
1022,870; 2470,576;   -0,470;   -0,045
1023,417; 2414,030;    2,076;    1,864
1023,964; 2456,667;    0,621;    1,227
1024,511; 2359,939;   -0,652;    0,773
1025,058; 2207,848;    0,439;   -0,045
1025,605; 2243,121;   -1,742;    3,136
1026,152; 2481,394;   -0,106;   -0,591
1026,699; 2211,030;    0,167;    1,318
1027,245; 2326,121;    2,439;    0,318
1027,792; 2477,303;    0,712;    1,409
1028,339; 2456,030;    4,076;   -0,045
1028,885; 2312,576;    3,621;   -0,227
1029,432; 2246,485;   -0,106;    0,227
1029,978; 2334,303;    1,348;   -1,591
1030,525; 2236,576;    1,621;    0,409
1031,071; 2391,303;    0,348;    1,136
1031,618; 2599,848;    1,258;    1,682
1032,164; 2356,121;    2,076;    3,045
1032,710; 2404,394;    0,076;   -1,500
1033,256; 2305,485;    0,712;   -0,136
1033,803; 2244,485;   -0,288;    1,500
1034,349; 2029,212;    1,803;    0,136
1034,895; 2158,212;    2,621;   -0,318
1035,441; 2153,939;    0,439;    0,318
1035,987; 2184,758;   -2,288;   -0,682
1036,533; 2224,212;   -0,197;   -0,955
1037,078; 2438,576;    4,712;    1,682
1037,624; 2246,303;    2,439;   -0,955
1038,170; 2213,212;    1,712;   -0,318
1038,716; 2178,485;    2,167;   -0,409
1039,261; 2067,121;    2,167;   -0,773
1039,807; 2042,394;   -0,015;    3,409
1040,352; 2125,758;   -1,288;   -0,318
1040,898; 2143,303;    0,167;   -0,682
1041,443; 2033,758;    0,803;   -2,591
1041,989; 2184,667;    3,621;    1,591
1042,534; 2009,758;    0,985;    2,591
1043,079; 2049,667;    1,985;    0,955
1043,625; 1931,667;    0,258;    0,500
1044,170; 1993,394;    2,439;    1,045
1044,715; 2256,212;    0,167;    0,955
1045,260; 2068,212;   -0,833;   -0,955
1045,805; 2055,394;    0,258;   -0,591
1046,350; 1990,485;    0,530;   -0,409
1046,895; 2043,121;    0,803;    1,591
1047,440; 2027,212;    1,530;    0,409
1047,985; 1890,667;   -1,197;   -0,955
1048,530; 1798,939;    1,348;    1,227
1049,074; 1884,576;    2,803;    0,318
1049,619; 1842,394;   -0,924;    1,955
1050,164; 1702,030;    1,076;    0,227
1050,708; 1750,848;    2,621;    0,045
1051,253; 2145,303;    3,258;   -2,227
1051,797; 1857,758;   -0,197;   -1,318
1052,342; 1790,212;    1,348;    1,045
1052,886; 1819,939;    1,803;   -1,409
1053,430; 1700,485;    2,167;    0,136
1053,975; 1723,121;    0,894;   -0,318
1054,519; 1717,758;    1,803;    3,227
1055,063; 1785,212;    3,621;    1,318
1055,607; 1702,576;    1,348;    0,227
1056,151; 1715,485;    0,530;    1,682
1056,695; 1601,303;   -1,833;   -1,136
1057,239; 1657,394;   -1,197;   -0,682
1057,783; 1685,576;    2,258;   -1,500
1058,327; 1678,939;    3,076;    1,409
1058,871; 1905,121;    3,985;    1,318
1059,415; 1638,667;   -0,561;   -0,045
1059,958; 1915,939;    2,985;    2,591
1060,502; 1622,758;    1,348;   -0,773
1061,046; 1504,667;    1,712;   -0,955
1061,589; 1470,758;    2,803;   -1,136
1062,133; 1372,394;    0,985;    1,864
1062,676; 1351,394;    1,439;    0,864
1063,220; 1387,939;    0,985;    0,500
1063,763; 1418,939;    2,985;    1,136
1064,306; 1478,121;    0,985;    1,864
1064,849; 1394,121;    2,076;    0,591
1065,393; 1383,758;    2,894;   -1,500
1065,936; 1469,576;    2,530;   -0,409
1066,479; 1346,121;    2,621;    1,318
1067,022; 1374,212;    1,894;   -0,227
1067,565; 1296,394;   -1,197;   -1,318
1068,108; 1310,030;    1,258;   -0,591
1068,651; 1277,939;   -2,470;    1,409
1069,194; 1223,030;   -1,106;   -1,682
1069,736; 1238,212;    3,803;    0,955
1070,279; 1196,394;   -1,652;   -0,500
1070,822; 1276,758;    1,530;   -0,318
1071,364; 1408,212;    0,530;    1,318
1071,907; 1217,939;    0,348;    3,227
1072,450; 1081,667;    0,258;   -0,045
1072,992; 1110,667;   -0,561;    3,136
1073,535; 1265,303;    0,167;    2,136
1074,077; 1059,848;    2,985;    2,045
1074,619; 1049,939;    0,985;    0,591
1075,161; 1086,303;   -0,561;    1,500
1075,704; 1268,303;    0,258;    1,227
1076,246; 1055,758;    1,530;    0,682
1076,788;  968,030;   -1,015;    1,773
1077,330; 1044,758;   -2,106;    2,136
1077,872; 1035,394;   -1,924;    0,955
1078,414; 1269,121;    3,712;    0,773
1078,956; 1027,939;    0,167;   -0,227
1079,498; 1279,485;    0,439;    0,318
1080,040; 1012,212;    0,985;   -1,318
1080,581;  939,394;    0,621;   -0,318
1081,123;  853,030;   -0,106;   -0,773
1081,665;  895,758;    3,803;   -0,955
1082,206; 1204,576;    3,258;   -0,500
1082,748; 1052,303;    3,258;    2,045
1083,289;  933,667;    0,167;    1,318
1083,831;  863,394;    0,258;    0,227
1084,372;  906,848;    0,894;    0,591
1084,913;  912,758;    3,348;    0,864
1085,455;  863,848;    1,530;   -2,045
1085,996;  859,758;    0,530;    0,136
1086,537;  899,758;    0,985;    0,864
1087,078;  910,121;    0,439;   -2,136
1087,619;  966,121;   -1,652;    0,227
1088,160;  885,667;    1,439;    1,318
1088,701;  852,394;   -0,742;    0,682
1089,242;  805,303;   -0,561;   -2,227
1089,783;  891,212;   -0,561;    1,409
1090,324;  867,212;   -0,833;    0,682
1090,865;  770,939;   -1,924;   -0,409
1091,405;  733,394;   -0,561;    2,227
1091,946;  756,758;   -0,197;   -0,955
1092,487;  681,485;   -1,288;   -1,409
1093,027;  858,212;    1,803;   -1,500
1093,568;  726,939;    2,258;    1,227
1094,108;  822,758;    0,621;    1,773
1094,649;  751,848;   -0,470;    0,136
1095,189;  696,576;    1,167;   -0,682
1095,729;  653,485;    0,712;    0,955
1096,269;  653,848;    1,258;   -0,955
1096,810;  950,576;   -0,197;    0,500
1097,350;  797,121;   -0,561;   -0,773
1097,890;  700,303;    2,985;    1,227
1098,430;  954,303;    4,985;    2,864
1098,970;  847,939;    1,894;    1,682
1099,510;  699,848;   -0,833;   -2,318
1100,050;  633,939;    0,258;   -1,591
1100,589;  618,303;    0,076;   -0,318
1101,129;  733,939;    0,894;   -0,955
1101,669;  878,758;    2,803;    2,136
1102,209;  711,030;    1,530;    2,227
1102,748;  664,212;    3,439;    0,955
1103,288;  658,030;    0,712;   -1,227
1103,827;  682,758;    3,530;   -2,227
1104,367;  567,939;    1,712;   -2,409
1104,906;  543,939;   -1,015;   -1,136
1105,445;  617,485;    0,985;   -1,136
1105,985;  573,576;   -0,652;    1,500
1106,524;  606,485;    1,530;   -0,682
1107,063;  588,121;    1,167;    1,409
1107,602;  545,394;    1,894;   -1,500
1108,141;  491,030;    1,621;    1,500
1108,680;  595,030;    3,985;   -0,591
1109,219;  531,303;    0,167;   -0,500
1109,758;  542,121;    4,167;    0,682
1110,297;  509,212;   -1,106;   -0,682
1110,836;  452,212;    1,439;    0,955
1111,375;  610,848;    0,348;    0,409
1111,913;  622,848;    0,985;    0,773
1112,452;  569,848;    0,894;    0,136
1112,991;  460,303;    1,076;    1,955
1113,529;  427,485;    0,167;   -0,045
1114,068;  485,576;    0,439;    2,955
1114,606;  401,394;   -0,561;   -0,955
1115,144;  552,212;    1,530;    1,045
1115,683;  495,758;    1,985;    0,318
1116,221;  539,121;    2,076;   -0,864
1116,759;  456,394;    1,621;   -0,864
1117,297;  640,667;    1,621;    1,864
1117,836;  464,212;    1,985;   -1,227
1118,374;  472,848;    0,258;   -0,682
1118,912;  432,485;    0,439;    2,682
1119,450;  418,485;    0,985;    0,864
1119,988;  454,667;    3,348;    2,136
1120,525;  886,758;    7,258;    3,318
1121,063;  608,485;    0,530;    1,864
1121,601;  421,758;    1,076;   -1,227
1122,139;  384,848;    1,076;   -2,045
1122,676;  569,394;   -1,652;    2,773
1123,214;  507,758;    0,712;    4,409
1123,751;  337,485;    0,621;    2,227
1124,289;  447,939;    0,894;   -0,409
1124,826;  342,939;   -0,379;    0,227
1125,364;  274,939;    0,712;   -0,955
1125,901;  445,576;    6,258;    1,227
1126,438;  536,394;    3,530;    0,955
1126,975;  294,848;    2,985;   -0,773
1127,513;  355,030;    2,621;    2,136
1128,050;  273,576;   -0,561;   -0,682
1128,587;  361,394;    1,348;   -0,227
1129,124;  400,758;   -0,015;    1,318
1129,661;  281,848;   -1,924;    0,227
1130,198;  433,667;    2,439;    0,773
1130,734;  377,394;   -0,379;    1,409
1131,271;  256,848;   -1,197;    0,864
1131,808;  422,667;    1,621;    3,045
1132,345;  302,939;    4,530;    0,318
1132,881;  190,576;   -0,561;   -1,864
1133,418;  318,667;    0,348;   -1,136
1133,954;  258,667;    0,712;   -2,682
1134,491;  324,485;    1,712;   -0,773
1135,027;  228,848;    2,167;    0,864
1135,564;  314,030;    1,439;    2,955
1136,100;  296,848;   -0,742;    2,136
1136,636;  197,030;   -1,015;   -1,045
1137,172;  285,848;    0,894;   -1,045
1137,708;  220,121;   -1,561;   -1,045
1138,245;  219,394;    0,803;   -1,227
1138,781;  181,758;    1,803;   -3,318
1139,317;  248,030;    1,894;   -1,409
1139,852;  239,212;    3,076;    0,136
1140,388;  328,848;    2,076;   -0,409
1140,924;  225,303;    1,076;   -2,227
1141,460;  174,030;   -0,288;    0,136
1141,996;  127,212;   -0,652;    2,682
1142,531;  164,667;    1,076;    3,318
1143,067;  360,030;    1,167;    1,045
1143,602;  408,303;    3,439;   -0,318
1144,138;  271,212;    0,803;    1,045
1144,673;  147,939;    1,621;    1,409
1145,209;  204,758;    2,894;   -0,318
1145,744;  143,848;    0,803;    0,864
1146,279;  258,394;    1,530;   -0,136
1146,815;  180,576;    1,530;   -2,682
1147,350;  222,758;   -0,924;    0,045
1147,885;  145,030;   -1,924;   -1,318
1148,420;  147,485;    2,439;    0,773
1148,955;  133,576;   -1,470;    1,864
1149,490;  160,848;   -1,106;   -1,591
1150,025;  145,303;   -1,106;   -1,773
1150,560;  239,485;   -0,288;   -0,955
1151,094;  208,576;    0,258;   -0,591
1151,629;  218,485;   -3,742;    0,864
1152,164;  153,121;   -1,288;    1,318
1152,698;  115,394;    1,258;   -0,136
1153,233;   83,303;   -1,379;   -0,682
1153,767;  118,121;   -0,288;   -2,318
1154,302;  154,758;   -0,379;    1,773
1154,836;  156,394;    0,803;   -2,136
1155,371;  198,939;    2,258;    3,682
1155,905;  164,030;    1,985;    1,682
1156,439;  132,848;    0,530;   -0,500
1156,973;  164,030;    0,439;    0,318
1157,507;  114,303;   -1,742;    0,682
1158,042;  130,121;   -0,652;    1,045
1158,576;  172,030;   -0,561;    1,773
1159,110;  168,485;    0,076;    2,409
1159,643;  146,394;   -2,470;   -0,045
1160,177;   97,939;   -2,015;    1,500

