
Integration time [ms]:   0,040
Averaging Nr. [scans]: 11
Smoothing Nr. [pixels]: 0
Data measured with spectrometer [name]: 7318044SP
Wave   ;Sample   ;Dark     ;Reference
[nm]   ;[counts] ;[counts] ;[counts] 

186,757;   36,818;   38,161;    1,318
187,357;   64,136;   26,706;    0,955
187,958;   36,938;   17,252;   -1,591
188,558;   82,587;   12,979;   -1,227
189,159;   43,709;   10,070;   -4,500
189,759;   17,252;    5,797;   -3,591
190,360;   19,587;    6,797;   -2,136
190,960;   57,168;    5,706;   -4,136
191,560;   63,341;    2,614;   -6,591
192,161;  278,103;    5,885;   -3,500
192,761;  142,227;    5,520;   -3,227
193,361;   89,103;    3,065;   -3,773
193,962;  144,635;    1,612;   -2,682
194,562;   65,827;   -0,114;   -3,955
195,162;  100,250;   -0,567;   -2,227
195,762;  245,671;    2,433;   -0,045
196,362;  202,328;    1,706;   -2,500
196,963;   83,721;    1,706;   -0,864
197,563;  153,112;    1,252;   -0,955
198,163;   94,218;   -0,111;   -0,682
198,763;  112,053;   -0,020;   -0,500
199,363;  212,603;    3,616;   -0,500
199,963;  173,658;    2,162;    0,409
200,563;  144,954;    6,344;   -1,409
201,163;  126,641;    5,435;   -0,227
201,763;  212,656;    1,435;    0,318
202,363;  154,443;    0,980;    1,500
202,963;  248,699;    1,526;    1,045
203,563;  352,499;    0,344;    0,500
204,162;  223,597;    1,889;   -1,864
204,762;  209,421;    2,071;    0,591
205,362;  174,482;    0,708;    1,955
205,962;  270,117;    3,435;    1,955
206,562;  257,603;    1,889;    2,318
207,161;  222,439;    1,708;    0,318
207,761;  382,445;    4,435;    2,409
208,361;  265,282;    1,889;    1,409
208,960;  353,573;    2,889;    1,500
209,560;  415,358;    0,435;    1,591
210,160;  390,379;    5,071;    1,864
210,759;  351,431;    0,708;    1,227
211,359;  354,952;   -0,474;    1,045
211,958;  602,316;    3,526;    2,045
212,558;  674,715;    0,799;    1,864
213,157;  534,897;   -0,929;    1,500
213,757;  945,826;    5,617;   -0,227
214,356;  661,731;    1,708;   -0,409
214,956;  977,407;    3,526;    0,409
215,555;  615,357;    0,617;    2,136
216,154;  547,653;   -0,292;   -0,591
216,754;  554,968;    1,253;    0,773
217,353;  679,113;   -0,383;   -1,045
217,952;  530,893;    2,072;    0,318
218,552;  759,963;    0,254;   -0,773
219,151;  655,007;   -1,110;    0,955
219,750;  662,109;    0,890;   -0,227
220,349;  743,471;   -2,292;    1,045
220,948;  836,631;    1,163;    1,136
221,548;  817,907;    0,617;    1,227
222,147;  920,217;   -1,292;   -0,409
222,746; 1190,694;    1,254;   -0,955
223,345; 1058,499;   -1,019;    0,500
223,944; 1064,147;    1,163;    0,773
224,543; 1201,329;    4,072;   -1,409
225,142; 1315,328;    1,345;    0,136
225,741; 1227,431;    1,163;    1,045
226,340; 1240,895;    1,254;   -0,955
226,939; 1652,805;    2,708;   -0,136
227,538; 1558,790;    1,163;   -0,773
228,137; 1718,040;    0,435;    0,864
228,735; 1802,061;    0,435;    1,227
229,334; 1586,649;   -0,474;   -0,227
229,933; 1967,381;    0,799;    0,591
230,532; 2075,451;   -1,201;   -0,409
231,131; 2118,097;    1,253;    0,318
231,729; 2199,213;    1,163;   -2,318
232,328; 2257,071;    0,435;   -1,500
232,927; 2315,290;    4,526;   -0,500
233,525; 2423,341;    0,981;    0,045
234,124; 2611,973;    1,890;   -1,591
234,723; 2631,078;    1,617;   -1,045
235,321; 2739,173;    1,163;    0,136
235,920; 2938,828;    2,526;   -1,227
236,518; 3186,196;    1,072;    0,318
237,117; 3290,954;    2,890;   -0,227
237,715; 3448,423;    1,163;   -0,500
238,314; 3485,933;    1,708;   -2,318
238,912; 3591,048;    0,526;   -1,409
239,510; 3595,859;    1,162;   -1,227
240,109; 3788,209;   -0,474;    3,773
240,707; 3811,899;   -0,474;    1,227
241,305; 4113,775;   -0,383;    0,136
241,904; 4302,593;   -0,292;   -2,045
242,502; 4286,076;    3,253;   -0,227
243,100; 4236,556;    3,344;   -0,955
243,698; 4462,025;    2,799;    1,682
244,297; 4605,264;   -0,656;    0,682
244,895; 4438,488;   -0,474;   -2,318
245,493; 4753,891;    2,981;   -0,591
246,091; 4805,860;    5,163;   -1,318
246,689; 4765,427;    2,163;    0,591
247,287; 4903,152;   -0,019;   -1,136
247,885; 5153,732;   -1,019;    1,227
248,483; 5233,877;   -0,201;   -0,500
249,081; 5368,400;    0,981;    1,591
249,679; 5494,962;   -1,019;    1,682
250,277; 5741,243;   -2,292;    0,864
250,875; 5720,171;    0,617;   -1,045
251,473; 5735,229;   -0,019;    0,500
252,071; 5913,331;   -0,383;    1,045
252,669; 6042,874;   -1,565;    0,318
253,267; 6265,524;    1,618;    0,773
253,864; 6192,243;    0,617;    0,682
254,462; 6130,977;    1,526;    1,591
255,060; 6081,809;    0,072;    1,318
255,658; 6392,783;   -3,292;   -0,136
256,255; 6752,809;   -0,201;   -2,045
256,853; 6607,277;    2,345;    1,409
257,451; 6617,569;    1,981;    1,864
258,048; 6908,856;    2,072;    1,864
258,646; 6631,634;    0,436;   -1,045
259,243; 6801,459;    2,981;    2,227
259,841; 6862,648;    1,799;    0,318
260,438; 6749,597;    0,254;    0,864
261,036; 7405,176;    0,617;    1,409
261,633; 7332,741;    1,526;    2,227
262,231; 7094,597;   -0,110;   -0,045
262,828; 7166,868;   -0,383;    1,136
263,425; 7220,534;   -1,928;   -0,591
264,023; 7463,809;    1,436;    0,045
264,620; 7034,040;    1,526;   -0,318
265,217; 7337,853;    2,890;    3,136
265,815; 7453,442;    2,527;    2,136
266,412; 7259,629;    0,072;    0,136
267,009; 7292,499;    0,526;    0,773
267,606; 7211,089;    0,345;   -0,955
268,203; 7184,478;   -0,383;   -0,591
268,801; 7439,100;   -0,474;    0,591
269,398; 7741,601;   -0,564;    2,500
269,995; 7716,868;    0,890;    1,591
270,592; 7491,672;    0,799;   -0,500
271,189; 7665,079;    1,981;    0,409
271,786; 7760,355;    2,072;    1,227
272,383; 7641,679;   -0,383;    0,227
272,980; 7818,525;    1,617;    0,318
273,577; 8225,651;    2,162;    1,227
274,174; 7795,773;    1,435;    2,591
274,771; 7784,602;    1,890;   -0,773
275,367; 7930,309;    3,253;    1,409
275,964; 7907,740;   -0,565;   -0,500
276,561; 8022,720;   -2,474;   -1,045
277,158; 8199,053;    1,799;   -1,773
277,755; 8364,946;   -0,110;    0,409
278,351; 7781,655;    0,436;   -1,500
278,948; 8028,125;   -0,201;    0,045
279,545; 8004,673;    0,527;    2,318
280,141; 8635,199;    1,254;   -2,045
280,738; 8497,007;    2,435;   -0,136
281,334; 8707,692;   -0,383;    0,591
281,931; 8120,703;    2,890;   -1,318
282,528; 8207,650;    4,072;   -0,500
283,124; 8890,795;    3,345;   -0,500
283,721; 8802,423;    0,709;    1,409
284,317; 8601,183;    0,163;    2,500
284,913; 9151,722;   -0,110;    0,591
285,510; 9307,085;    2,890;   -0,318
286,106; 9317,790;    2,345;   -0,955
286,703; 8962,438;    0,072;    1,955
287,299; 9182,921;    1,254;   -0,591
287,895; 9345,245;    0,890;   -1,045
288,491; 9838,965;    0,163;    2,136
289,088; 9639,753;    0,163;    2,409
289,684; 9675,056;    2,890;    1,500
290,280; 9681,989;    1,890;    0,682
290,876; 9739,401;    0,163;    5,500
291,472; 9650,258;    2,163;    2,227
292,068; 9802,929;    1,254;    0,227
292,665; 9475,103;   -0,564;    0,773
293,261; 9137,855;   -1,292;    2,136
293,857; 9495,485;    4,072;    2,136
294,453; 9445,129;   -0,928;    0,955
295,049; 9338,422;    0,253;    1,955
295,644; 9372,265;   -1,292;    0,136
296,240; 9255,053;    0,162;   -0,136
296,836; 9307,424;   -0,747;    0,318
297,432; 9567,735;    2,980;   -0,500
298,028; 9617,145;    0,435;    0,773
298,624; 9987,725;    0,889;    1,864
299,220;10221,345;    0,435;    0,591
299,815; 9878,685;    0,526;   -0,409
300,411; 9706,967;    0,435;    1,773
301,007; 9697,935;    1,889;    0,227
301,602; 9724,723;    2,071;   -2,318
302,198; 9889,691;    1,435;   -0,773
302,794;10209,567;    1,526;   -0,500
303,389;10295,413;    1,071;    1,045
303,985;10343,508;    1,253;    1,409
304,580;10336,133;    0,889;    1,591
305,176;10313,944;    0,344;    0,136
305,771;10252,051;   -0,929;   -1,227
306,367;10119,971;    3,071;    0,136
306,962;10416,904;    2,889;    1,500
307,558;10144,949;    2,435;    0,136
308,153;10093,832;   -0,383;   -1,136
308,748;10310,298;    0,162;    1,682
309,344;10277,904;    0,253;   -1,318
309,939;10391,662;    2,071;   -1,318
310,534;10646,510;   -2,020;   -1,682
311,130;10570,415;   -0,656;   -2,500
311,725;10316,338;    0,526;   -0,500
312,320;10619,748;    1,253;    0,045
312,915;10486,580;    2,890;   -1,045
313,510;10583,340;    0,526;   -0,500
314,105;11026,942;   -3,565;    1,409
314,700;10465,047;   -1,656;   -1,045
315,295;10150,588;   -0,020;    0,045
315,890; 9738,037;   -0,292;    0,864
316,485;10036,750;    0,253;   -0,318
317,080;10136,681;   -0,929;    1,591
317,675;10618,545;    3,071;   -0,682
318,270;10094,222;    6,889;    3,318
318,865;10124,061;    2,435;    3,045
319,460; 9939,245;   -1,565;    0,591
320,055;10159,227;   -2,565;   -1,227
320,650; 9852,490;   -1,838;   -0,591
321,244; 9888,486;    0,889;   -1,409
321,839;10781,984;    0,980;   -0,227
322,434;10659,021;   -0,111;   -1,591
323,029;10325,322;   -0,474;    1,591
323,623;10196,207;    0,798;    0,773
324,218;10011,469;    2,707;    1,409
324,812; 9923,637;    0,889;    1,591
325,407; 9760,608;   -0,929;    2,045
326,002; 9692,634;    0,526;   -0,409
326,596; 9981,201;   -0,656;    1,318
327,191;10165,830;   -0,383;   -1,045
327,785; 9787,383;   -0,747;   -0,227
328,379;10004,580;   -0,383;    0,136
328,974; 9791,786;    1,798;   -3,955
329,568;10024,002;    2,889;   -2,409
330,163; 9858,576;    2,435;    1,045
330,757;10189,846;    0,253;    1,591
331,351; 9597,282;   -0,292;    0,682
331,945; 9895,042;   -0,383;    1,409
332,540; 9525,534;    1,617;   -0,591
333,134; 9636,508;    3,344;    0,773
333,728; 9842,965;    2,799;    0,318
334,322;10160,555;    0,889;   -0,864
334,916; 9468,526;    0,344;    0,955
335,510; 9789,711;   -0,111;   -0,136
336,105;10036,921;   -0,929;    1,591
336,699; 9725,471;   -1,292;    0,591
337,293; 9688,454;    1,071;    0,318
337,887; 9801,408;    0,071;    1,955
338,481; 9891,578;    2,980;    0,591
339,074;10028,002;    2,071;    2,682
339,668; 9853,992;   -0,110;    1,227
340,262;10089,328;    7,708;    3,227
340,856; 9618,656;    1,708;   -0,682
341,450; 9051,626;    0,708;    1,864
342,044; 9851,545;    1,799;    0,136
342,637; 9618,936;    1,162;   -2,136
343,231; 9444,888;   -1,474;    0,682
343,825; 9406,855;   -0,747;   -0,591
344,419; 9405,462;   -0,474;    0,500
345,012; 9239,674;    2,889;    4,045
345,606; 9247,958;   -0,656;    1,591
346,199; 9108,073;   -0,111;   -0,227
346,793; 8689,246;    2,525;    2,045
347,386; 8879,180;    0,889;   -1,136
347,980; 8850,975;   -0,838;   -0,045
348,573; 8691,652;   -1,748;    0,409
349,167; 8431,279;    6,161;    4,773
349,760; 8727,170;    2,252;    2,682
350,354; 8695,271;    1,616;    1,136
350,947; 8461,490;    2,798;    1,682
351,540; 8184,191;    0,616;   -1,409
352,134; 8135,920;   -1,111;    1,136
352,727; 8217,262;   -0,657;    1,136
353,320; 8029,930;    2,343;    0,591
353,913; 7875,918;   -1,929;    1,864
354,507; 8059,267;    0,434;   -1,227
355,100; 8105,848;    0,071;    0,864
355,693; 7415,261;    4,798;    2,409
356,286; 7458,214;    0,980;    2,773
356,879; 7791,855;   -0,475;    1,227
357,472; 7407,088;    0,980;    1,500
358,065; 7599,037;    3,161;    2,500
358,658; 7552,331;    0,798;    2,318
359,251; 7255,016;    0,252;   -0,591
359,844; 6791,736;    0,343;   -1,136
360,437; 6949,328;    0,252;    0,045
361,030; 7191,720;    0,525;   -0,682
361,623; 6841,128;    0,434;    0,318
362,215; 6872,851;    0,979;    2,045
362,808; 6717,452;   -2,293;   -1,682
363,401; 6912,182;    0,798;    0,136
363,994; 6676,712;    3,252;   -1,500
364,586; 6602,798;    0,888;   -1,500
365,179; 6772,018;   -0,203;   -1,136
365,772; 6290,566;   -0,930;    2,045
366,364; 6557,649;    1,524;   -3,227
366,957; 6766,797;    1,342;   -0,045
367,549; 6762,345;   -0,203;   -0,864
368,142; 6469,870;    0,978;   -1,500
368,734; 6653,217;    2,523;   -2,136
369,327; 6608,979;    2,341;   -0,500
369,919; 6532,285;   -1,659;    0,409
370,512; 6368,681;   -1,023;   -0,500
371,104; 6184,282;    2,704;    1,591
371,696; 6319,265;    1,703;   -0,955
372,289; 6400,656;    0,157;    1,136
372,881; 6493,733;    1,156;    1,318
373,473; 6409,869;    4,064;    1,136
374,066; 6240,250;    1,336;    0,500
374,658; 6122,493;    0,879;    1,136
375,250; 6435,869;   -1,668;   -1,409
375,842; 6287,490;   -0,124;   -0,045
376,434; 6192,996;   -2,762;   -0,409
377,026; 6688,037;   -1,855;   -2,500
377,618; 6579,235;    0,779;   -0,682
378,210; 6438,823;    3,141;   -1,955
378,802; 6324,503;    3,412;   -0,591
379,394; 6275,095;    3,411;    0,682
379,986; 6797,858;    1,138;   -0,955
380,578; 6889,059;    1,410;    0,773
381,170; 6284,772;    0,320;    0,045
381,762; 6226,790;   -0,224;    1,409
382,354; 6416,695;   -0,223;   -1,318
382,945; 6523,014;    0,870;    0,318
383,537; 6655,709;    1,144;   -1,955
384,129; 6669,579;    0,963;   -1,136
384,721; 6811,450;    0,418;    0,955
385,312; 6719,836;   -1,399;   -0,955
385,904; 6843,533;   -0,945;    1,591
386,496; 6269,611;    0,691;    1,045
387,087; 6409,074;    0,418;    2,500
387,679; 6438,774;   -0,401;    0,045
388,270; 6563,530;   -2,401;    2,045
388,862; 6639,126;   -0,401;   -0,318
389,453; 6527,700;    1,054;    1,045
390,045; 6770,222;    3,236;   -2,682
390,636; 6695,493;    0,144;   -0,591
391,227; 6564,415;    2,054;   -0,045
391,819; 6657,967;    0,781;    0,773
392,410; 6747,894;    0,600;    0,045
393,001; 6654,245;    1,600;   -1,591
393,593; 6915,589;    0,600;   -0,045
394,184; 6777,021;    0,873;   -0,409
394,775; 6687,114;    1,146;    2,136
395,366; 6905,301;    1,782;    0,773
395,957; 6832,330;   -2,400;    0,136
396,548; 7129,239;    1,054;    2,682
397,139; 7402,897;    2,236;    0,591
397,730; 7149,775;    0,873;    0,955
398,321; 7217,452;    0,509;    0,955
398,912; 7229,399;   -0,764;    0,136
399,503; 7311,373;   -1,945;   -1,409
400,094; 6826,515;   -1,582;    1,682
400,685; 6707,833;    3,600;    0,045
401,276; 6767,182;   -0,400;   -0,955
401,867; 7027,783;   -1,127;    0,773
402,458; 7113,747;    1,509;   -2,318
403,048; 7085,909;    0,146;    0,591
403,639; 6712,833;    1,509;    0,864
404,230; 6972,163;    0,691;    0,318
404,821; 6920,191;   -0,127;    0,045
405,411; 7040,836;   -0,763;   -2,591
406,002; 6659,436;    3,237;   -1,136
406,592; 6552,274;    2,691;    0,045
407,183; 6811,150;    0,328;   -1,500
407,774; 6753,309;    1,419;   -0,136
408,364; 7040,020;    2,600;    0,409
408,954; 6678,857;   -0,036;    1,227
409,545; 6718,829;    1,873;    1,045
410,135; 6270,059;   -1,581;    0,500
410,726; 6444,668;    0,783;    0,318
411,316; 6799,401;    2,237;    0,773
411,906; 6471,144;    0,146;   -0,409
412,497; 6043,308;   -0,490;   -0,045
413,087; 6598,495;    0,783;   -0,227
413,677; 6914,146;   -2,490;    3,864
414,267; 6775,025;   -1,035;    1,409
414,857; 6780,626;    0,419;    4,227
415,448; 7011,867;   -0,763;    0,500
416,038; 6729,604;   -2,945;   -0,591
416,628; 6681,391;    0,965;    0,409
417,218; 6247,074;   -1,762;    3,318
417,808; 6479,766;    0,965;   -0,409
418,398; 6849,859;   -1,035;    2,682
418,988; 6841,913;   -2,217;    0,591
419,578; 7073,542;    3,601;    1,409
420,168; 7391,011;    0,692;   -0,955
420,757; 7011,163;    0,964;   -1,500
421,347; 6698,541;    1,601;   -0,227
421,937; 6856,628;    3,329;    1,409
422,527; 6845,900;    2,602;   -0,773
423,116; 6656,085;    2,692;   -0,045
423,706; 6947,880;    2,965;    0,318
424,296; 6899,558;    1,601;    0,682
424,885; 7297,740;    1,510;   -3,045
425,475; 7542,788;    1,147;   -2,864
426,065; 7431,854;   -1,489;   -0,318
426,654; 7127,767;    0,329;   -0,318
427,244; 7221,364;    1,147;    1,409
427,833; 6761,057;    1,056;   -0,500
428,423; 7140,974;    0,147;    1,136
429,012; 7806,225;    2,420;   -1,136
429,601; 7325,864;    2,057;    0,136
430,191; 7553,524;    2,511;    4,318
430,780; 7212,454;   -1,671;   -0,409
431,369; 7144,206;    1,329;   -0,045
431,959; 7715,488;    1,693;    0,500
432,548; 7484,630;   -1,398;   -0,045
433,137; 7609,924;    0,329;   -1,318
433,726; 8095,658;    0,148;    0,500
434,315; 7528,719;    0,148;    2,409
434,905; 7599,447;    0,693;    1,409
435,494; 7550,345;    3,148;    0,955
436,083; 7958,803;    1,420;   -0,955
436,672; 7826,642;    1,148;    0,500
437,261; 7424,429;    0,512;   -1,955
437,850; 7534,434;   -1,125;    0,682
438,439; 7518,088;    2,239;    1,955
439,027; 7382,920;    3,421;    1,773
439,616; 7674,069;    2,239;    1,227
440,205; 7525,808;    0,057;   -2,136
440,794; 7566,146;   -0,306;   -0,045
441,383; 7800,961;    1,603;   -0,591
441,971; 7663,863;   -0,306;    0,591
442,560; 7491,655;    0,603;   -1,773
443,149; 7262,574;    3,060;   -1,318
443,737; 7387,264;    0,968;   -2,318
444,326; 7645,228;    0,331;    0,318
444,915; 7675,902;   -1,851;    0,864
445,503; 8033,769;    0,058;   -0,318
446,092; 7374,511;    7,876;    2,136
446,680; 7867,741;    1,876;    0,318
447,269; 7983,529;   -1,487;   -0,318
447,857; 7800,654;    2,240;   -1,773
448,445; 7896,439;    2,149;    1,318
449,034; 8099,861;    0,876;   -1,136
449,622; 8192,931;    1,240;    3,500
450,210; 7540,483;    3,149;    2,227
450,799; 8041,608;    2,604;   -0,591
451,387; 7950,646;    1,786;   -0,591
451,975; 7657,422;   -1,305;    0,864
452,563; 7774,231;    0,422;    2,318
453,151; 7781,168;   -1,032;   -1,227
453,739; 7695,374;   -1,577;    0,136
454,328; 7533,988;    0,604;   -2,136
454,916; 7292,857;    1,150;   -0,136
455,504; 7450,286;    3,513;    1,227
456,092; 7592,946;    2,150;   -1,591
456,679; 7563,132;    0,604;    0,682
457,267; 7562,167;    3,604;    1,045
457,855; 7666,073;    3,241;    1,409
458,443; 7420,206;   -0,304;    1,682
459,031; 7567,339;    1,332;    2,409
459,619; 7979,225;   -3,577;    2,864
460,206; 8041,514;   -0,759;    2,045
460,794; 8126,879;   -0,668;   -0,227
461,382; 8308,727;    0,878;   -0,864
461,970; 7934,044;    0,605;    1,864
462,557; 7997,200;    0,878;   -0,682
463,145; 8151,681;   -0,304;   -1,682
463,732; 8275,554;    2,514;   -1,045
464,320; 8178,983;    1,514;   -3,045
464,907; 7897,330;    0,423;   -0,773
465,495; 7770,662;    2,696;   -1,227
466,082; 7926,796;    2,060;   -0,045
466,670; 7807,530;    2,605;    1,227
467,257; 8217,957;    0,060;    2,045
467,844; 8359,973;    1,514;    0,045
468,432; 8357,821;   -0,031;    3,500
469,019; 7908,210;    1,606;   -1,773
469,606; 8352,068;    0,969;    3,682
470,193; 8203,107;    2,151;    0,227
470,780; 7825,511;    0,333;    0,864
471,368; 8156,338;   -1,212;   -0,773
471,955; 7947,163;    1,060;   -0,682
472,542; 7610,822;   -0,303;   -1,136
473,129; 7803,923;   -0,485;    0,136
473,716; 7589,774;    0,060;    0,591
474,303; 7753,550;    1,333;   -0,864
474,890; 7980,586;    2,333;   -0,500
475,477; 7995,744;   -0,576;    0,409
476,064; 7891,317;    0,697;   -1,591
476,650; 7826,318;    2,152;    0,318
477,237; 7684,227;    1,879;    0,955
477,824; 7806,215;    3,879;    0,864
478,411; 7836,663;    0,606;   -0,318
478,997; 7978,816;    0,606;   -0,773
479,584; 8034,708;   -0,666;   -0,409
480,171; 8684,778;    1,243;   -0,773
480,757; 8385,144;   -0,848;    0,773
481,344; 8597,804;    0,334;    0,409
481,931; 8143,898;   -0,393;    1,045
482,517; 8971,884;    0,425;    0,318
483,104; 9395,594;    1,334;    2,864
483,690; 9628,349;    0,243;    0,045
484,276; 9912,092;    0,698;    0,227
484,863; 9709,002;    2,152;    1,136
485,449;10214,260;    0,152;    0,318
486,035;10171,472;   -0,666;   -0,136
486,622;10591,913;   -2,393;    0,045
487,208;10540,504;    1,334;    1,500
487,794;10388,492;    0,971;    0,318
488,380;10486,688;    0,698;   -1,409
488,967;10544,141;   -1,120;   -0,409
489,553;10611,774;   -1,029;   -1,409
490,139;10796,436;    0,971;    0,773
490,725;10307,331;    0,789;   -0,227
491,311; 9965,321;    1,516;    3,045
491,897; 9421,713;   -0,665;    1,500
492,483; 9276,295;    0,426;    1,227
493,069; 9167,878;    5,426;    0,864
493,655; 9106,866;    1,789;    0,682
494,241; 9020,493;    1,517;   -0,955
494,826; 9376,885;    0,335;   -1,045
495,412; 8899,454;    0,335;   -0,682
495,998; 9056,747;    0,971;   -0,318
496,584; 9156,589;    2,244;    1,045
497,169; 9139,243;    2,335;   -0,682
497,755; 9129,646;    1,244;    1,227
498,341; 9621,719;    2,153;    0,318
498,926; 9225,087;    2,881;    1,955
499,512; 9415,905;   -0,028;    2,955
500,097; 9459,983;   -0,574;   -0,318
500,683; 9446,871;   -0,028;    2,136
501,268; 9807,671;    1,881;   -0,955
501,854; 9563,850;   -0,119;    1,227
502,439; 9495,080;   -0,573;   -1,773
503,024; 9657,477;    1,608;    0,500
503,610; 9728,382;    1,335;   -0,682
504,195; 9761,447;    1,245;    1,955
504,780; 9876,496;    2,335;    1,227
505,366; 9736,986;    4,063;    2,864
505,951; 9506,168;   -1,119;    1,045
506,536; 9565,590;    1,427;   -3,682
507,121; 9533,229;    1,699;   -0,318
507,706; 9979,257;   -0,392;    1,045
508,291;10306,511;   -2,937;    1,136
508,876; 9826,470;   -0,482;    2,591
509,461; 9358,366;    1,427;   -0,773
510,046; 9748,109;   -0,391;    0,318
510,631; 9951,921;   -0,119;   -0,773
511,216; 9664,422;   -0,664;   -0,500
511,801; 9999,868;   -0,755;    2,591
512,386;10251,730;    0,972;    0,500
512,971;10175,323;    0,427;    0,955
513,555; 9811,244;    1,154;   -1,500
514,140;10522,666;    1,336;   -3,136
514,725;10461,062;    1,791;   -1,136
515,309;10583,006;    1,064;    0,318
515,894;10143,822;   -0,300;   -2,227
516,479;10561,794;    1,973;   -0,955
517,063;10365,801;    0,882;    1,227
517,648;10500,626;    0,155;   -1,136
518,232;10123,166;   -1,300;   -1,409
518,817;10466,282;    1,337;    1,682
519,401;10680,112;    0,700;    0,591
519,985;10189,098;    2,700;    1,136
520,570;10077,834;   -0,118;   -1,955
521,154;10358,699;    0,064;    0,591
521,738;10519,929;    1,064;    2,409
522,323;11034,734;   -0,390;    1,682
522,907;10758,241;    2,428;   -0,136
523,491;10527,178;    1,155;    0,955
524,075;10516,931;    0,428;    0,591
524,659;10594,857;    0,973;    0,591
525,243;10101,978;    0,883;    0,409
525,827;10332,251;    0,883;   -0,045
526,411;11080,130;    1,155;   -0,136
526,995;11255,169;    0,337;    1,409
527,579;10878,665;    1,974;   -1,045
528,163;11161,261;    0,428;   -1,500
528,747;11084,912;    1,065;   -0,773
529,331;11345,676;    0,883;   -1,409
529,915;11487,970;    2,338;    0,955
530,499;11474,946;    0,247;    1,227
531,082;11184,798;    1,065;    1,591
531,666;10718,375;    0,520;    0,773
532,250;11312,119;    0,428;    2,682
532,833;11585,366;    0,610;    2,773
533,417;11447,074;    1,247;    0,864
534,001;11398,062;    0,429;   -0,318
534,584;12018,735;    1,974;    0,500
535,168;11880,050;    3,247;    1,409
535,751;11912,013;    4,520;    0,045
536,334;11374,279;    4,520;   -0,409
536,918;11978,547;    1,974;    1,591
537,501;12000,980;    1,520;    1,318
538,085;12014,197;    1,702;    1,045
538,668;12119,950;    0,883;    2,409
539,251;12404,248;    3,156;    3,773
539,834;12406,514;    0,156;    0,773
540,418;12325,404;    3,247;    4,318
541,001;12407,094;    2,702;    1,773
541,584;12451,083;    1,429;    2,227
542,167;12139,434;    0,702;    2,955
542,750;12224,086;    0,793;   -0,773
543,333;11848,188;    1,429;    2,136
543,916;12549,764;   -0,298;    2,500
544,499;13048,258;    2,520;    0,227
545,082;13039,808;    0,248;    3,591
545,665;13139,909;   -0,207;    1,500
546,248;13453,006;    0,520;   -0,318
546,830;13139,634;   -1,752;    1,955
547,413;13507,309;    0,157;   -0,773
547,996;14020,649;    0,157;    0,500
548,579;13778,723;   -0,843;    0,955
549,161;13544,091;    0,884;    2,682
549,744;13355,438;    0,612;    0,409
550,326;13837,942;    0,885;   -1,136
550,909;13633,534;    2,339;    0,591
551,492;14002,341;    0,521;    0,227
552,074;13785,752;   -0,024;   -1,318
552,657;14263,254;    2,430;    0,045
553,239;14054,603;   -3,024;   -0,773
553,821;13982,750;   -1,570;    1,045
554,404;13529,342;   -0,024;    1,136
554,986;13848,999;    2,248;    1,045
555,568;14396,349;    0,430;   -0,955
556,151;13679,829;    4,067;   -0,227
556,733;13866,741;   -1,388;   -0,864
557,315;14263,978;    4,703;    0,500
557,897;14042,220;    0,521;   -0,500
558,479;14172,838;    1,703;    1,318
559,061;14272,571;    1,067;   -0,864
559,643;14594,842;   -0,297;    0,045
560,225;14908,990;   -0,388;    2,864
560,807;14945,024;    0,340;    0,318
561,389;14486,147;   -1,206;    2,318
561,971;15058,804;   -0,660;    2,136
562,553;14925,756;    0,613;    1,591
563,135;15031,205;    1,249;    1,136
563,717;14648,112;    3,158;    1,136
564,298;15233,926;    3,976;   -0,045
564,880;14966,726;    0,340;   -1,409
565,462;15128,817;    1,977;    1,318
566,043;16126,534;   -0,933;    2,318
566,625;15673,737;    4,067;    1,227
567,207;15492,268;    0,704;    1,682
567,788;16429,435;   -0,114;    1,500
568,370;17142,705;   -1,841;   -0,500
568,951;16910,447;   -0,569;    0,227
569,533;17675,957;    0,977;   -0,500
570,114;18022,368;   -0,296;    0,682
570,695;18437,640;   -0,478;   -1,318
571,277;18769,024;   -0,205;   -1,682
571,858;19391,985;    2,704;   -1,136
572,439;20158,053;    0,795;   -1,045
573,021;20238,781;    0,432;   -2,773
573,602;20642,418;    1,795;    0,318
574,183;21402,303;   -0,114;    2,227
574,764;21455,161;    2,068;    0,409
575,345;21837,566;    0,250;   -0,136
575,926;22353,273;    2,704;    0,136
576,507;22334,711;    2,704;   -0,227
577,088;23335,688;    1,704;    1,682
577,669;23288,538;    1,704;    1,955
578,250;23895,212;   -0,750;   -1,045
578,831;24391,202;   -0,841;   -2,227
579,412;24576,928;   -1,205;    0,955
579,993;25401,569;    1,432;    0,227
580,573;25727,389;   -0,023;   -0,955
581,154;24761,904;    1,613;   -0,591
581,735;25572,900;    0,341;    0,773
582,315;25059,536;    0,523;    2,136
582,896;25309,070;   -1,750;    1,227
583,477;24857,748;    0,614;    1,227
584,057;24994,273;    1,159;    0,955
584,638;25257,569;   -2,750;    2,318
585,218;25299,406;    2,886;    2,682
585,799;25441,506;    1,977;   -0,227
586,379;25477,597;    1,250;    1,591
586,959;24395,895;    2,613;    0,318
587,540;23842,013;    0,432;    2,227
588,120;23446,267;   -1,113;   -0,045
588,700;22617,773;    2,977;    2,136
589,281;22924,524;    1,250;   -0,955
589,861;22819,149;   -0,296;   -1,682
590,441;22667,573;   -1,477;   -2,682
591,021;21793,862;    1,432;   -2,591
591,601;22052,949;    0,431;    0,500
592,181;22103,784;   -1,296;   -0,773
592,761;21455,990;    2,250;    1,409
593,341;21414,438;    1,522;    0,045
593,921;21386,301;   -0,569;    1,591
594,501;21342,464;    1,250;    1,318
595,081;21169,003;    0,522;   -0,318
595,661;21484,294;    1,068;    0,955
596,240;21962,973;   -1,023;    0,136
596,820;21548,213;    2,613;    1,955
597,400;21635,744;    1,977;    0,773
597,980;21872,618;   -0,750;    1,045
598,559;21893,352;    0,341;   -0,227
599,139;21660,863;   -0,750;   -1,227
599,718;21559,135;    0,795;   -0,409
600,298;21797,648;   -2,387;    0,682
600,877;22027,828;    4,795;    1,409
601,457;22274,160;    0,340;    1,136
602,036;22183,061;    1,795;    2,045
602,616;22315,094;    2,250;    1,682
603,195;22639,090;    0,431;    3,500
603,774;22169,395;   -0,296;    2,045
604,354;22067,693;    2,522;   -0,500
604,933;21671,558;    0,250;    1,864
605,512;21796,152;    2,340;    0,591
606,091;21806,032;    1,886;    3,773
606,671;22543,115;    0,249;    0,773
607,250;21736,346;    1,431;    3,136
607,829;21946,920;    1,158;    3,227
608,408;21793,869;    4,613;    2,591
608,987;20948,156;    2,704;    3,409
609,566;21204,455;    0,341;   -2,500
610,145;21318,321;    2,885;    0,682
610,723;21700,897;    1,613;    6,864
611,302;21036,163;    1,067;    1,682
611,881;20585,995;    5,158;   11,227
612,460;21327,272;    0,795;    3,955
613,039;21723,716;    1,703;    2,045
613,617;20596,768;    0,886;    4,773
614,196;20706,387;    1,613;    1,227
614,775;21055,098;    1,249;    2,409
615,353;20970,760;   -1,660;    0,864
615,932;20786,674;    0,249;    2,409
616,510;21342,846;    0,158;    0,591
617,089;20898,497;    8,794;   17,591
617,667;20708,108;    4,885;    6,136
618,246;20596,383;   -1,115;    1,318
618,824;20723,003;    1,612;   -0,955
619,402;20280,164;    0,431;   -1,773
619,981;20722,528;    1,067;   -1,045
620,559;20618,784;    0,794;    1,682
621,137;20260,726;    3,067;    1,864
621,715;20205,120;    3,703;   -0,682
622,293;20087,815;    1,885;   -0,773
622,871;20571,796;    0,340;    0,500
623,450;20234,370;    0,430;   -0,864
624,028;20112,465;   -0,388;   -0,955
624,606;19744,083;    2,339;    1,682
625,183;20111,899;   -0,661;   -1,136
625,761;19791,557;    1,885;    1,136
626,339;20063,955;    2,339;    2,591
626,917;20423,907;    0,339;   -0,045
627,495;20482,322;    2,794;    1,318
628,073;19960,933;    5,248;    2,864
628,650;19697,587;    3,067;    2,136
629,228;20045,295;    1,248;    4,409
629,806;19501,000;   -0,024;    1,136
630,383;19726,242;    0,066;   -0,318
630,961;19607,114;   -2,206;   -0,955
631,539;19346,534;   -2,479;    0,227
632,116;18748,841;   12,703;   15,409
632,694;19276,200;    4,885;    6,500
633,271;19537,441;    1,975;    2,682
633,848;19483,147;    1,430;    2,045
634,426;19530,719;    1,521;    1,773
635,003;18719,270;   -0,207;   -0,409
635,580;18939,990;    1,884;    3,682
636,158;19448,743;    3,793;    1,227
636,735;19468,828;    3,339;   -0,500
637,312;19554,292;    0,521;   -0,682
637,889;19683,528;    2,248;   -0,682
638,466;19243,934;    0,066;   -0,409
639,043;19212,567;    1,702;   -1,136
639,620;19456,201;    0,611;   -0,955
640,197;19751,983;    1,612;    1,682
640,774;19891,703;    1,430;    1,136
641,351;20273,151;    0,612;    1,136
641,928;19744,325;    2,794;    1,409
642,505;19413,318;    0,794;   -0,500
643,082;19475,129;    1,885;    1,227
643,658;18650,485;    1,157;    1,500
644,235;19249,114;   -2,479;    2,500
644,812;19523,289;    1,794;    0,773
645,388;19297,373;    1,612;    1,409
645,965;19344,820;    1,521;    1,682
646,542;19413,086;    3,430;   -0,227
647,118;19408,260;    3,703;   -0,955
647,695;19687,253;    0,339;    1,136
648,271;19605,700;   -2,115;    0,500
648,848;19863,057;    0,248;    2,227
649,424;19719,777;    0,976;    1,318
650,000;19501,951;   -0,388;   -1,045
650,577;19328,126;    0,158;   -0,955
651,153;19744,210;   -1,115;    0,955
651,729;20540,839;    0,521;    0,864
652,305;20639,922;    1,339;    2,773
652,881;24018,188;   -1,297;    1,136
653,458;29374,272;    0,249;    0,227
654,034;32440,082;    0,703;    1,591
654,610;33613,348;    0,339;    0,773
655,186;34773,795;    1,612;    3,045
655,762;34444,334;   -1,842;    0,409
656,338;34448,144;    0,703;    0,136
656,913;35469,319;   -0,297;    0,409
657,489;34827,675;    0,249;   -0,318
658,065;34767,759;    0,794;   -1,591
658,641;35308,843;    2,158;   -0,864
659,217;34671,745;    2,067;    0,409
659,792;34198,374;   -1,751;   -0,409
660,368;34510,367;   -0,388;   -0,682
660,944;34498,905;    1,794;    1,227
661,519;30881,716;    0,522;    0,409
662,095;26017,709;   -0,206;    0,591
662,670;22266,974;   -0,206;   -0,136
663,246;21326,876;   -0,660;   -0,409
663,821;20724,505;    0,431;    1,682
664,396;20247,680;    0,613;    1,864
664,972;20479,036;   -0,660;   -0,500
665,547;20782,120;    3,794;    0,136
666,122;20774,203;    1,340;    0,318
666,698;21058,469;    2,431;    0,318
667,273;20438,098;    0,885;    0,136
667,848;21114,545;    0,340;    1,500
668,423;20900,356;    1,795;    2,318
668,998;21350,440;    0,976;   -0,682
669,573;21848,615;    2,067;   -1,500
670,148;21678,880;    1,885;   -0,682
670,723;21411,237;   -0,024;    0,318
671,298;21813,320;   -1,296;    1,045
671,873;21901,404;   -0,296;   -0,136
672,448;21863,851;    1,704;    0,136
673,023;22162,208;    0,249;   -0,227
673,597;22447,291;    2,704;    2,318
674,172;22274,920;    2,431;    0,318
674,747;21772,550;   -0,205;   -1,045
675,321;21589,542;   -0,933;    3,318
675,896;21250,626;    2,158;    1,045
676,471;22109,164;    2,522;    1,591
677,045;21870,066;   -0,296;    0,682
677,620;21913,695;    2,158;    1,136
678,194;22231,688;    0,249;    1,136
678,769;21833,953;    0,886;   -0,318
679,343;22060,492;   -0,023;    1,773
679,917;21928,666;    0,340;    1,955
680,492;21902,477;    0,249;    3,227
681,066;22055,561;    0,613;    0,409
681,640;22105,736;    1,795;   -0,318
682,214;22807,819;    2,340;    0,500
682,788;22361,539;    0,613;   -0,773
683,363;22301,077;    1,977;    1,682
683,937;21989,434;    0,886;   -0,318
684,511;22698,063;   -1,023;   -0,591
685,085;22426,510;   -1,478;    0,318
685,659;22213,230;    1,431;    0,864
686,232;22468,314;    1,159;   -0,318
686,806;22207,580;    2,159;    0,409
687,380;22795,663;   -1,932;    0,591
687,954;22975,838;    2,432;    1,136
688,528;22652,285;    2,613;    1,955
689,101;23374,823;    0,432;    1,045
689,675;22994,362;    0,886;   -0,136
690,249;22391,900;    3,432;    0,409
690,822;22734,165;    1,159;    0,318
691,396;22840,885;    2,068;    1,227
691,969;22336,060;    2,523;    0,136
692,543;22764,144;   -0,568;   -1,955
693,116;22414,318;   -0,659;   -1,409
693,690;22312,311;   -0,296;    0,500
694,263;22820,213;    2,341;    2,955
694,836;22829,842;    2,795;    3,591
695,410;21604,835;    1,159;    1,773
695,983;21963,737;    1,614;    0,591
696,556;21996,184;   -0,750;   -1,045
697,129;22351,722;   -1,114;    1,409
697,703;22009,897;    1,341;    1,955
698,276;22021,708;    1,705;   -0,773
698,849;21862,882;   -1,023;    1,409
699,422;22203,693;    1,250;    0,591
699,995;21965,050;   -0,659;    0,136
700,568;22371,042;   -0,204;    3,045
701,140;22371,581;   -1,841;    1,682
701,713;22159,392;    0,341;    2,409
702,286;21885,203;    0,796;    0,864
702,859;21811,559;    0,614;   -0,591
703,432;21100,006;   -0,841;    0,682
704,004;21500,454;    1,978;    0,318
704,577;21371,901;    1,068;    0,136
705,150;21896,894;    0,887;    2,500
705,722;21711,159;    1,523;   -3,227
706,295;21518,152;    1,432;   -0,591
706,867;21395,327;    0,250;    1,955
707,440;21586,683;   -0,113;   -0,409
708,012;21829,039;   -0,022;    0,591
708,584;21712,214;    2,705;    0,227
709,157;21948,116;    1,160;   -0,591
709,729;21685,563;    1,069;    2,045
710,301;22474,829;   -1,204;    0,045
710,874;22474,367;    0,341;   -0,227
711,446;21417,360;   -0,295;    0,864
712,018;21320,080;   -3,022;    0,500
712,590;21102,254;   -0,204;    1,682
713,162;21553,611;   -0,477;    1,318
713,734;21795,149;    1,796;   -2,045
714,306;21691,687;    0,342;   -0,409
714,878;20507,680;   -0,295;    0,864
715,450;21333,855;   -0,113;    0,864
716,022;21570,120;    2,433;    1,318
716,593;21657,567;    0,978;    0,591
717,165;21573,106;    1,796;   -1,227
717,737;21369,098;    0,796;    0,409
718,309;21090,091;    1,160;   -0,045
718,880;21024,357;   -1,295;   -1,409
719,452;21254,258;    0,887;   -1,591
720,024;20900,888;    1,705;   -0,591
720,595;21427,426;    2,978;    0,955
721,167;21054,328;    1,160;   -2,045
721,738;20554,048;    2,069;   -1,045
722,309;20581,222;    1,251;   -1,227
722,881;20377,306;    2,705;    0,773
723,452;20930,299;    1,251;    2,864
724,023;21104,019;    1,524;    2,682
724,595;20930,284;    2,342;    0,682
725,166;20680,823;    1,524;   -0,409
725,737;20342,815;    1,887;    0,227
726,308;20480,899;    0,797;    0,318
726,879;20871,983;    1,069;    1,227
727,450;20690,339;   -2,022;   -0,045
728,021;20639,877;    1,069;    0,682
728,592;20477,325;    1,160;    0,500
729,163;20780,408;    1,433;   -0,136
729,734;20764,037;    2,160;   -0,227
730,305;21139,757;    0,615;    0,136
730,876;21365,387;    0,888;    2,955
731,447;21114,834;    0,797;    2,682
732,017;21201,009;   -0,840;    1,864
732,588;20803,183;   -0,021;    1,227
733,159;20918,812;    3,615;   -1,045
733,729;20761,078;    1,251;    0,409
734,300;20124,161;    0,160;    0,864
734,870;20510,791;   -1,385;    0,591
735,441;21003,329;    0,888;   -0,591
736,011;20793,685;    1,070;   -1,591
736,582;20720,860;    1,251;    0,045
737,152;20224,216;    0,979;   -2,045
737,722;20649,754;    1,070;   -0,682
738,293;20408,474;   -2,021;    1,318
738,863;20288,104;    1,797;    2,318
739,433;20137,369;    4,524;    0,318
740,003;20724,726;    1,524;   -0,682
740,573;20202,536;    2,252;   -1,591
741,143;20192,257;    3,615;    0,318
741,713;20890,613;    0,252;   -0,500
742,283;20625,788;    1,706;    1,591
742,853;20423,417;    0,524;    1,591
743,423;19940,228;    0,161;    0,045
743,993;20044,311;    1,070;    1,500
744,563;19506,395;    2,524;   -0,864
745,133;19418,024;   -0,112;   -0,864
745,702;20067,017;    2,797;    1,773
746,272;19360,373;    0,434;    0,591
746,842;19155,366;   -0,748;   -0,591
747,411;19576,177;   -0,839;   -0,318
747,981;19703,443;   -0,930;    0,500
748,551;19782,708;   -0,021;   -1,045
749,120;19597,974;   -0,112;   -0,227
749,690;19925,148;    2,161;    2,409
750,259;20247,414;    0,979;    2,955
750,828;20151,043;    4,070;   -1,955
751,398;20372,308;   -0,112;   -0,045
751,967;19947,665;    2,888;    0,409
752,536;20148,385;    1,161;   -0,227
753,105;20526,923;   -1,384;    0,227
753,675;20288,007;   -0,112;    1,773
754,244;20241,454;    0,888;    3,591
754,813;20266,083;    0,979;    1,227
755,382;19884,621;    0,798;    0,955
755,951;20302,614;   -0,112;    3,682
756,520;19954,607;    2,525;    1,864
757,089;20464,781;    1,888;    0,500
757,658;20578,774;    2,434;    1,227
758,227;20554,221;   -1,111;    0,318
758,795;20756,669;   -1,021;    1,136
759,364;21085,934;    0,525;   -0,591
759,933;20211,654;    1,343;   -0,045
760,501;19738,647;    0,252;   -1,318
761,070;20174,094;   -0,293;   -1,409
761,639;20820,087;    1,434;    1,318
762,207;20166,262;    0,889;   -0,955
762,776;20149,164;    2,889;    0,864
763,344;20115,429;    0,071;    0,591
763,913;19253,149;    1,616;    1,409
764,481;19992,506;    1,980;   -0,136
765,049;19857,317;    0,616;    1,409
765,618;19721,309;    1,434;    0,318
766,186;19789,120;    2,434;    0,136
766,754;19989,931;    1,798;    1,864
767,322;19097,560;    1,162;    0,409
767,890;19080,280;    0,525;   -1,773
768,459;19490,819;    2,616;   -0,318
769,027;19585,721;    2,525;    3,409
769,595;18671,441;    2,616;    2,591
770,163;19086,524;    3,344;    2,955
770,730;18953,517;    2,525;   -0,136
771,298;18833,419;    1,162;   -1,409
771,866;18910,139;    0,253;    4,955
772,434;19171,314;    1,162;   -1,864
773,002;19309,488;    2,616;    0,682
773,569;19020,572;    1,071;    1,682
774,137;18846,019;    0,889;   -0,045
774,705;19557,921;   -0,747;   -0,136
775,272;19146,277;    0,253;    0,682
775,840;18956,725;   -0,111;    2,682
776,407;18489,899;   -0,293;    1,955
776,975;18113,892;    1,162;    0,318
777,542;19065,885;    2,162;   -0,045
778,110;18921,969;    0,707;   -0,045
778,677;18626,234;    1,071;   -0,864
779,244;18436,772;   -1,020;    1,045
779,812;18531,947;    0,980;    0,864
780,379;18358,849;    2,435;    1,136
780,946;18621,387;    2,617;   -0,773
781,513;18942,289;   -0,565;    0,318
782,080;18339,282;    1,253;    2,864
782,647;18954,274;    1,708;    3,045
783,214;18678,903;   -0,201;    3,864
783,781;18291,987;    1,708;   -0,682
784,348;18159,889;    0,253;    1,500
784,915;18550,882;   -1,474;    0,318
785,482;18322,420;    2,708;    2,591
786,049;18772,231;    1,071;   -0,591
786,615;18908,587;    1,708;   -0,955
787,182;18669,580;   -3,201;   -0,682
787,749;18367,391;   -2,201;    1,409
788,315;17788,111;    0,253;   -0,409
788,882;18084,649;    0,981;   -1,227
789,448;18708,915;    1,435;   -0,955
790,015;18706,635;    1,799;    3,227
790,581;18293,173;    0,708;    0,227
791,148;18171,802;    1,344;    1,045
791,714;18416,522;   -1,019;    3,136
792,280;18108,970;    3,708;    1,591
792,847;17809,508;   -0,928;    2,500
793,413;18225,137;   -0,110;   -0,318
793,979;17878,584;    1,526;   -1,318
794,545;17970,213;    2,981;    2,682
795,111;17427,115;    2,435;    1,318
795,678;17565,017;    3,526;   -1,682
796,244;17243,555;    2,799;    0,136
796,810;17742,730;    0,799;    0,773
797,375;17495,723;   -0,292;   -2,136
797,941;17496,897;   -1,110;    0,591
798,507;17612,708;    0,254;   -0,955
799,073;17227,610;    2,708;    0,591
799,639;17347,148;    1,435;    3,136
800,205;17357,868;   -1,565;    2,682
800,770;16967,316;    1,345;    1,773
801,336;16970,945;    2,981;   -0,955
801,901;16760,301;    6,072;    3,136
802,467;17271,749;    0,526;    2,045
803,033;16649,014;   -0,019;    0,864
803,598;16836,916;    1,072;   -1,045
804,163;16892,818;    0,708;   -0,318
804,729;16886,265;   -0,110;    1,136
805,294;17191,985;    1,072;    2,227
805,859;17043,523;    0,890;   -0,409
806,425;16610,062;    3,890;    2,682
806,990;16296,963;    1,890;    4,318
807,555;16718,138;   -0,110;    2,591
808,120;16634,131;   -1,292;   -0,409
808,685;16669,760;    1,072;   -2,500
809,250;16258,480;    2,072;   -0,500
809,815;16498,746;   -0,201;    0,682
810,380;16977,102;    0,981;    1,591
810,945;17442,549;    2,890;    2,045
811,510;16799,906;   -0,200;    1,591
812,075;16507,353;    2,800;   -1,409
812,640;16524,891;    3,709;    1,409
813,204;16614,066;    2,163;   -0,227
813,769;17031,149;    0,254;   -0,045
814,334;16534,688;    0,527;    0,864
814,898;16608,499;    1,981;    0,591
815,463;16390,764;    0,981;   -0,773
816,027;16358,030;    1,345;   -2,318
816,592;16516,932;    2,163;   -2,045
817,156;16078,197;   -2,200;    1,136
817,721;15961,644;    0,982;    2,318
818,285;15959,637;    0,618;    1,500
818,849;16523,903;   -0,018;    1,682
819,414;16409,077;    0,073;    2,955
819,978;16061,888;   -0,291;    1,773
820,542;16560,608;    2,891;    0,500
821,106;16352,783;    2,800;    0,682
821,670;16448,685;    2,709;    2,591
822,234;16171,677;    1,073;    1,409
822,798;15638,125;   -0,836;    0,500
823,362;15658,390;    1,527;    4,227
823,926;15087,928;   -0,018;    1,136
824,490;15253,649;    3,527;   -0,682
825,054;15673,641;    2,527;   -1,136
825,618;15381,816;   -1,200;   -1,500
826,181;15347,536;    0,982;   -1,318
826,745;15226,711;   -0,745;   -1,045
827,309;15547,703;    2,255;    1,318
827,872;15048,878;    0,527;    0,955
828,436;15910,234;    1,982;   -0,773
828,999;15989,863;    2,436;    1,227
829,563;14971,129;   -0,654;    1,136
830,126;14793,122;   -0,018;   -0,591
830,690;14838,387;    0,709;    2,864
831,253;14388,834;   -0,473;    2,227
831,816;14560,736;   -0,018;    0,500
832,380;14504,456;    1,164;    0,864
832,943;14678,995;    3,073;   -0,500
833,506;14227,624;    0,255;   -1,227
834,069;14943,526;    2,164;   -0,955
834,632;15009,064;   -2,200;    1,318
835,195;14931,420;    1,346;    0,955
835,758;14241,504;    0,709;    1,955
836,321;14083,588;    1,073;   -1,045
836,884;14219,853;   -1,291;   -0,955
837,447;14261,573;    0,528;    1,773
838,010;14475,020;    1,800;    3,227
838,573;14737,741;    0,528;    0,773
839,135;14724,279;   -0,109;   -0,955
839,698;14213,999;    2,528;    0,409
840,261;13766,355;    0,255;   -0,227
840,823;13677,439;   -0,927;    0,864
841,386;13947,432;   -0,018;   -2,409
841,948;13848,879;    0,255;    1,773
842,511;13627,417;    0,255;    1,682
843,073;13734,955;    2,982;    0,227
843,636;13567,948;    0,619;   -0,227
844,198;13502,486;    1,255;    0,591
844,760;13641,661;    0,619;    1,955
845,322;13280,836;    0,164;    1,136
845,885;13639,828;   -0,290;    0,591
846,447;14104,185;    0,710;    0,227
847,009;13737,359;    3,983;   -0,682
847,571;13993,716;    1,346;   -2,045
848,133;14030,072;   -0,199;   -1,864
848,695;13882,883;    2,346;    1,409
849,257;13509,149;    1,346;   -1,682
849,819;13704,232;    2,983;   -0,409
850,381;13766,134;    1,801;   -0,864
850,942;14008,582;    1,892;   -0,591
851,504;13941,483;    0,983;    0,227
852,066;13992,476;    1,619;   -1,591
852,628;13645,196;    0,165;    1,955
853,189;13203,644;    0,256;    2,682
853,751;13354,454;   -0,654;    1,409
854,312;13143,538;    1,256;   -1,682
854,874;13602,258;   -0,108;   -0,773
855,435;14013,433;    0,528;   -1,682
855,997;14167,698;    3,983;   -0,136
856,558;13561,055;    0,801;    1,773
857,119;13619,320;   -0,744;    2,864
857,681;13327,222;   -0,108;    0,318
858,242;13395,397;    1,347;   -2,136
858,803;13780,208;    1,074;   -0,773
859,364;14292,746;    0,892;   -4,773
859,925;13767,920;   -0,290;   -0,955
860,486;13656,550;    0,529;   -0,955
861,047;13380,906;    0,165;   -1,227
861,608;13230,535;    0,165;   -0,773
862,169;13391,619;   -0,562;   -0,045
862,730;13141,884;   -0,290;    1,409
863,291;13365,968;    0,438;   -0,500
863,852;13691,052;   -0,926;    1,955
864,412;13201,499;   -1,835;   -0,864
864,973;12029,401;    1,892;    0,500
865,534;11904,030;    2,074;    0,227
866,094;13195,295;    2,620;    0,227
866,655;12915,561;    4,711;    3,318
867,215;13154,917;    0,074;    0,136
867,776;13008,819;   -1,199;   -0,136
868,336;13112,085;    1,529;    0,136
868,897;12708,805;    3,438;    1,682
869,457;12487,616;    3,256;    0,318
870,017;12729,790;    2,438;   -1,227
870,578;13190,510;    1,893;    0,773
871,138;12829,867;    2,620;   -0,955
871,698;12459,405;   -0,562;   -1,318
872,258;12301,761;    0,711;   -2,864
872,818;12659,572;    2,347;    0,045
873,378;12659,201;   -2,198;    1,045
873,938;12262,922;    4,984;    0,500
874,498;12523,732;    1,256;   -1,955
875,058;12408,634;    4,347;    1,773
875,618;12275,718;    1,438;   -2,682
876,177;12230,347;   -0,471;    0,136
876,737;11891,067;   -0,289;    1,955
877,297;11908,605;    2,711;    1,955
877,856;11972,416;    2,529;    0,318
878,416;11910,864;    2,438;   -0,136
878,976;12105,947;    3,438;    0,409
879,535;12278,395;    4,529;    3,136
880,095;12100,478;    1,347;    0,045
880,654;12180,289;    0,347;    1,318
881,213;12246,282;    2,347;    1,500
881,773;11928,548;    1,984;    2,682
882,332;12266,086;    6,075;    5,136
882,891;12104,351;    0,711;    2,136
883,451;12493,617;   -2,016;    1,682
884,010;11976,337;   -1,107;   -0,409
884,569;12103,239;   -2,289;   -0,045
885,128;12227,050;   -0,743;   -1,864
885,687;12285,679;   -0,743;    0,682
886,246;12050,308;    2,620;    2,136
886,805;11809,937;    1,620;    2,045
887,364;12017,566;    1,166;   -0,500
887,922;12341,286;   -0,016;    0,045
888,481;11862,734;    1,530;    0,591
889,040;12176,454;    3,711;    2,136
889,599;12714,537;    2,166;    1,409
890,157;12773,985;    2,166;    2,409
890,716;12420,068;    2,166;    0,227
891,274;12242,697;    0,075;   -1,136
891,833;12625,781;    1,166;    0,864
892,391;12496,228;    1,802;    0,500
892,950;12587,221;    0,166;   -0,773
893,508;12898,123;    0,984;   -0,409
894,067;12309,934;   -0,379;    0,136
894,625;12241,472;   -1,016;   -1,500
895,183;12436,010;   -0,198;   -0,682
895,741;12382,185;    2,257;   -1,773
896,299;12211,723;    1,621;   -2,409
896,858;12354,807;    1,530;   -1,591
897,416;12459,254;    0,166;   -1,318
897,974;12263,611;   -2,197;    0,318
898,532;12430,513;    6,530;    2,682
899,089;12313,233;    0,621;   -0,682
899,647;12427,680;    0,530;    1,318
900,205;12230,764;    0,257;    1,045
900,763;12401,029;    2,166;    0,227
901,321;12443,749;    3,530;   -1,409
901,878;11923,106;    3,257;   -0,773
902,436;11826,007;    0,257;    1,318
902,994;12201,818;    6,712;    3,682
903,551;11710,811;    1,439;    0,409
904,109;12107,895;    1,530;   -1,409
904,666;11714,706;    1,439;    1,045
905,224;11587,062;    3,894;   -0,409
905,781;11383,055;   -0,470;   -0,318
906,338;11403,411;    0,167;    1,045
906,895;11399,313;    1,894;    2,045
907,453;11367,306;    2,348;    1,136
908,010;11375,299;    3,348;    0,409
908,567;11066,110;   -0,561;    0,591
909,124;10618,739;    2,439;   -1,500
909,681;10718,913;   -1,288;    0,682
910,238;10892,633;   -0,106;   -1,318
910,795;11194,081;   -1,561;   -1,136
911,352;10838,808;   -0,379;   -2,682
911,909;10361,626;    2,803;   -0,864
912,466;10840,717;    1,985;    1,500
913,022;10374,354;   -0,924;    0,500
913,579;10723,263;   -0,470;    2,045
914,136;10446,990;   -2,561;    0,955
914,692;10761,354;    1,530;   -1,227
915,249;10435,990;    0,530;    0,409
915,806;10629,808;    1,803;    1,955
916,362;10452,444;    0,894;    1,864
916,918;10054,263;    2,439;    1,045
917,475;10080,444;    1,621;    0,955
918,031;10125,354;    0,076;   -0,045
918,587; 9699,535;    0,621;   -0,318
919,144; 9929,626;   -0,379;    0,227
919,700;10179,535;    0,167;    0,773
920,256; 9802,535;    0,439;    0,045
920,812; 9513,354;    1,439;   -1,045
921,368; 9560,990;    1,348;   -1,045
921,924; 9237,172;    0,439;   -0,136
922,480; 8866,354;    0,076;    1,227
923,036; 9447,354;   -0,652;    1,955
923,592; 9394,899;    0,621;    0,318
924,148; 9333,990;    1,894;   -0,955
924,704; 8792,626;    0,258;   -0,409
925,259; 9098,535;   -0,561;    0,591
925,815; 8838,354;    3,803;    0,500
926,371; 8464,990;    3,530;    1,409
926,926; 8417,444;    1,621;    0,591
927,482; 8149,263;    1,621;    0,773
928,037; 8047,535;   -0,833;    2,045
928,593; 8324,444;    0,258;    1,045
929,148; 8141,172;    1,167;   -1,500
929,704; 7748,172;    2,439;   -0,500
930,259; 7952,263;    0,894;   -0,136
930,814; 7203,626;    1,803;    1,955
931,369; 6979,172;    0,258;   -0,773
931,925; 6889,263;   -1,924;    0,136
932,480; 6825,535;    3,076;   -2,591
933,035; 6778,990;    3,985;   -0,318
933,590; 6608,626;   -1,742;   -1,773
934,145; 6356,535;   -1,288;   -0,318
934,700; 6622,990;    0,348;   -0,591
935,255; 6482,626;    4,803;    0,045
935,809; 5975,354;    6,258;    0,864
936,364; 5257,808;    2,167;   -0,136
936,919; 5321,899;    2,348;   -1,773
937,474; 5254,899;    1,348;    0,136
938,028; 5070,899;    3,076;    1,136
938,583; 4709,626;    6,348;    4,682
939,138; 4928,626;    0,167;    2,136
939,692; 4490,081;   -1,015;   -1,136
940,247; 4272,263;    1,167;   -1,045
940,801; 3981,626;    0,621;    0,227
941,355; 3918,263;    0,439;    2,591
941,910; 3627,990;    0,712;   -2,136
942,464; 3725,354;    2,712;   -0,318
943,018; 3649,717;    3,258;   -0,227
943,572; 3562,354;    2,803;   -0,682
944,126; 3136,081;   -0,924;   -0,409
944,681; 3033,535;    0,712;    0,227
945,235; 3023,808;    2,167;   -0,591
945,789; 2971,899;    1,258;   -1,864
946,342; 3150,444;   -0,561;   -0,591
946,896; 2922,263;    0,348;    0,955
947,450; 2716,990;   -0,561;   -0,227
948,004; 2953,990;    1,076;   -0,045
948,558; 2903,717;    1,258;   -0,864
949,111; 2832,535;   -1,197;   -0,318
949,665; 2960,081;   -0,106;   -0,682
950,219; 2846,263;    0,621;   -1,045
950,772; 2856,263;    0,258;    1,864
951,326; 2799,263;   -1,106;   -0,955
951,879; 2842,081;    1,076;   -2,318
952,433; 2877,808;    1,348;    2,227
952,986; 2718,626;    0,348;    0,682
953,539; 2671,081;    1,530;    0,591
954,093; 2632,444;    0,985;   -1,318
954,646; 2774,626;   -0,288;    1,318
955,199; 2596,626;    1,258;   -0,500
955,752; 2586,626;    1,985;    1,773
956,305; 2520,263;    0,894;    2,955
956,858; 2638,444;    0,621;   -0,318
957,411; 2785,444;    3,621;    2,136
957,964; 2637,808;    2,076;    2,136
958,517; 2588,172;    0,985;    3,136
959,070; 2473,535;   -1,197;    1,955
959,623; 2647,172;    1,076;    1,500
960,176; 2451,990;    0,712;    2,045
960,728; 2414,081;    1,712;    0,773
961,281; 2450,444;    2,258;    0,500
961,834; 2455,899;   -0,833;    0,864
962,386; 2400,717;    1,258;    1,045
962,939; 2315,444;    3,439;   -0,318
963,491; 2432,899;    2,621;    1,136
964,043; 2335,899;    0,076;    2,409
964,596; 2485,172;    1,712;    2,227
965,148; 2329,808;   -0,379;    1,773
965,700; 2250,444;   -0,015;   -0,227
966,253; 2383,535;   -0,833;    0,318
966,805; 2277,808;    1,894;    0,773
967,357; 2304,899;    0,439;   -1,500
967,909; 2298,444;    1,167;   -1,227
968,461; 2325,172;    0,894;    3,136
969,013; 2259,535;   -1,561;   -0,864
969,565; 2343,444;    1,803;   -1,136
970,117; 2546,899;    3,803;    1,045
970,669; 2298,263;    3,258;   -0,136
971,220; 2128,354;    2,167;   -1,500
971,772; 2104,263;    1,348;   -0,318
972,324; 2230,444;   -1,197;   -0,500
972,876; 2153,990;    0,167;   -0,045
973,427; 2303,808;   -1,197;   -1,045
973,979; 2309,717;    0,076;   -2,500
974,530; 2252,263;    0,803;    1,318
975,082; 2263,081;    2,167;    1,682
975,633; 2190,263;    2,894;    1,682
976,184; 2330,081;    2,076;    0,773
976,736; 2179,263;    0,348;    0,227
977,287; 2032,808;    0,258;   -0,500
977,838; 2160,990;   -0,924;   -0,318
978,389; 2208,535;    0,803;   -0,500
978,940; 2059,263;    1,258;   -0,409
979,491; 2090,717;    2,258;   -0,500
980,042; 2090,990;   -0,652;    3,045
980,593; 2119,535;    1,894;    0,227
981,144; 2192,808;    3,530;   -0,500
981,695; 2212,354;   -0,470;    1,500
982,246; 2159,808;   -1,833;    1,045
982,797; 2207,626;   -0,561;    0,682
983,347; 2333,808;    2,167;    0,591
983,898; 2516,808;    4,167;    0,409
984,449; 2377,263;    2,530;    0,773
984,999; 2227,808;    1,894;   -1,136
985,550; 2077,354;    3,167;   -0,318
986,100; 2060,444;    0,712;   -0,318
986,651; 2068,263;    0,258;    0,045
987,201; 2068,808;    0,894;   -0,591
987,751; 2130,990;   -0,288;    2,864
988,302; 2156,263;   -0,379;    1,500
988,852; 2162,444;    1,985;   -1,136
989,402; 2238,990;    0,985;    0,682
989,952; 2195,899;    1,621;    0,864
990,502; 2210,081;    1,076;    0,682
991,052; 2139,081;   -0,106;    0,045
991,602; 2044,081;    1,167;    1,318
992,152; 2083,717;    2,803;    0,682
992,702; 2059,172;    1,167;   -0,045
993,252; 1997,263;    0,076;   -0,500
993,802; 2097,626;    1,167;    1,318
994,352; 2250,354;   -0,742;    1,136
994,901; 2284,535;    1,076;    3,227
995,451; 2241,535;   -1,197;    0,318
996,000; 2302,263;    1,076;    0,318
996,550; 2072,717;    2,894;    0,227
997,100; 2094,990;   -0,561;   -0,045
997,649; 2356,626;   -0,197;    0,955
998,198; 2060,808;   -0,288;   -1,500
998,748; 2228,808;    0,348;   -2,318
999,297; 2111,081;    0,985;   -0,409
999,846; 2215,444;    1,894;   -0,773
1000,395; 2221,081;    1,530;    0,500
1000,945; 2243,081;    1,076;   -0,773
1001,494; 2309,081;    0,167;    0,682
1002,043; 2272,081;    0,712;    0,864
1002,592; 2088,354;    3,439;    1,955
1003,141; 2221,717;    2,439;   -0,682
1003,690; 2147,717;    1,258;    0,500
1004,238; 2154,444;   -0,106;   -0,045
1004,787; 1858,263;   -1,288;    1,227
1005,336; 2130,354;    1,621;    0,682
1005,885; 2190,626;   -0,197;   -2,773
1006,433; 2260,081;   -0,470;    0,955
1006,982; 2420,626;    2,167;    1,682
1007,531; 2268,172;    2,712;   -0,227
1008,079; 2193,081;    0,258;    0,500
1008,627; 2302,535;    1,621;    0,409
1009,176; 2111,081;    0,076;   -1,955
1009,724; 2139,081;   -2,742;    0,864
1010,273; 2234,444;    1,076;    0,500
1010,821; 2283,444;    1,076;    1,409
1011,369; 2062,990;    0,076;    1,318
1011,917; 2064,990;   -0,833;   -0,591
1012,465; 2308,263;    2,530;   -1,591
1013,013; 2368,354;    0,439;   -1,682
1013,561; 2322,535;   -1,288;   -0,773
1014,109; 2395,808;   -0,833;    1,682
1014,657; 2248,081;    1,348;    0,591
1015,205; 2309,263;    0,894;   -0,955
1015,753; 2305,808;    0,258;   -1,409
1016,301; 2370,354;    2,621;    3,045
1016,848; 2374,354;    2,167;    0,409
1017,396; 2422,535;    1,621;    0,045
1017,944; 2508,626;    2,621;    1,864
1018,491; 2289,808;   -0,197;    1,409
1019,039; 2546,899;   -0,652;    0,591
1019,586; 2370,717;    0,076;    1,682
1020,134; 2422,172;    0,712;    1,500
1020,681; 2470,808;    2,894;   -1,136
1021,228; 2429,808;   -0,561;   -2,227
1021,776; 2294,626;   -0,833;   -1,136
1022,323; 2559,081;    0,803;    0,773
1022,870; 2485,444;   -0,470;   -0,045
1023,417; 2436,354;    2,076;    1,864
1023,964; 2458,626;    0,621;    1,227
1024,511; 2350,717;   -0,652;    0,773
1025,058; 2196,172;    0,439;   -0,045
1025,605; 2250,263;   -1,742;    3,136
1026,152; 2490,172;   -0,106;   -0,591
1026,699; 2221,081;    0,167;    1,318
1027,245; 2323,990;    2,439;    0,318
1027,792; 2468,626;    0,712;    1,409
1028,339; 2471,899;    4,076;   -0,045
1028,885; 2319,626;    3,621;   -0,227
1029,432; 2254,535;   -0,106;    0,227
1029,978; 2329,535;    1,348;   -1,591
1030,525; 2248,808;    1,621;    0,409
1031,071; 2400,172;    0,348;    1,136
1031,618; 2595,535;    1,258;    1,682
1032,164; 2363,535;    2,076;    3,045
1032,710; 2392,717;    0,076;   -1,500
1033,256; 2305,263;    0,712;   -0,136
1033,803; 2249,263;   -0,288;    1,500
1034,349; 2026,717;    1,803;    0,136
1034,895; 2162,808;    2,621;   -0,318
1035,441; 2168,808;    0,439;    0,318
1035,987; 2197,899;   -2,288;   -0,682
1036,533; 2233,990;   -0,197;   -0,955
1037,078; 2421,535;    4,712;    1,682
1037,624; 2245,444;    2,439;   -0,955
1038,170; 2223,990;    1,712;   -0,318
1038,716; 2182,354;    2,167;   -0,409
1039,261; 2081,263;    2,167;   -0,773
1039,807; 2045,081;   -0,015;    3,409
1040,352; 2123,444;   -1,288;   -0,318
1040,898; 2141,808;    0,167;   -0,682
1041,443; 2033,354;    0,803;   -2,591
1041,989; 2187,081;    3,621;    1,591
1042,534; 2020,990;    0,985;    2,591
1043,079; 2056,081;    1,985;    0,955
1043,625; 1942,444;    0,258;    0,500
1044,170; 1998,172;    2,439;    1,045
1044,715; 2248,717;    0,167;    0,955
1045,260; 2058,899;   -0,833;   -0,955
1045,805; 2053,081;    0,258;   -0,591
1046,350; 1991,535;    0,530;   -0,409
1046,895; 2037,263;    0,803;    1,591
1047,440; 2029,626;    1,530;    0,409
1047,985; 1899,990;   -1,197;   -0,955
1048,530; 1809,263;    1,348;    1,227
1049,074; 1891,808;    2,803;    0,318
1049,619; 1851,808;   -0,924;    1,955
1050,164; 1701,081;    1,076;    0,227
1050,708; 1748,990;    2,621;    0,045
1051,253; 2146,444;    3,258;   -2,227
1051,797; 1856,535;   -0,197;   -1,318
1052,342; 1786,717;    1,348;    1,045
1052,886; 1813,535;    1,803;   -1,409
1053,430; 1682,990;    2,167;    0,136
1053,975; 1720,808;    0,894;   -0,318
1054,519; 1727,626;    1,803;    3,227
1055,063; 1795,626;    3,621;    1,318
1055,607; 1694,444;    1,348;    0,227
1056,151; 1714,172;    0,530;    1,682
1056,695; 1607,808;   -1,833;   -1,136
1057,239; 1661,081;   -1,197;   -0,682
1057,783; 1674,172;    2,258;   -1,500
1058,327; 1686,263;    3,076;    1,409
1058,871; 1914,354;    3,985;    1,318
1059,415; 1640,444;   -0,561;   -0,045
1059,958; 1920,354;    2,985;    2,591
1060,502; 1641,172;    1,348;   -0,773
1061,046; 1500,535;    1,712;   -0,955
1061,589; 1477,354;    2,803;   -1,136
1062,133; 1375,535;    0,985;    1,864
1062,676; 1357,263;    1,439;    0,864
1063,220; 1372,354;    0,985;    0,500
1063,763; 1412,990;    2,985;    1,136
1064,306; 1476,081;    0,985;    1,864
1064,849; 1383,808;    2,076;    0,591
1065,393; 1388,354;    2,894;   -1,500
1065,936; 1484,263;    2,530;   -0,409
1066,479; 1344,808;    2,621;    1,318
1067,022; 1373,717;    1,894;   -0,227
1067,565; 1290,990;   -1,197;   -1,318
1068,108; 1300,899;    1,258;   -0,591
1068,651; 1272,808;   -2,470;    1,409
1069,194; 1217,899;   -1,106;   -1,682
1069,736; 1240,263;    3,803;    0,955
1070,279; 1204,626;   -1,652;   -0,500
1070,822; 1287,717;    1,530;   -0,318
1071,364; 1413,354;    0,530;    1,318
1071,907; 1222,535;    0,348;    3,227
1072,450; 1092,990;    0,258;   -0,045
1072,992; 1115,535;   -0,561;    3,136
1073,535; 1268,172;    0,167;    2,136
1074,077; 1067,990;    2,985;    2,045
1074,619; 1054,172;    0,985;    0,591
1075,161; 1088,535;   -0,561;    1,500
1075,704; 1272,808;    0,258;    1,227
1076,246; 1059,444;    1,530;    0,682
1076,788;  982,899;   -1,015;    1,773
1077,330; 1037,717;   -2,106;    2,136
1077,872; 1024,444;   -1,924;    0,955
1078,414; 1258,535;    3,712;    0,773
1078,956; 1018,535;    0,167;   -0,227
1079,498; 1285,172;    0,439;    0,318
1080,040; 1003,535;    0,985;   -1,318
1080,581;  934,899;    0,621;   -0,318
1081,123;  860,263;   -0,106;   -0,773
1081,665;  890,899;    3,803;   -0,955
1082,206; 1200,626;    3,258;   -0,500
1082,748; 1061,808;    3,258;    2,045
1083,289;  940,081;    0,167;    1,318
1083,831;  867,990;    0,258;    0,227
1084,372;  915,081;    0,894;    0,591
1084,913;  914,535;    3,348;    0,864
1085,455;  868,626;    1,530;   -2,045
1085,996;  854,535;    0,530;    0,136
1086,537;  888,081;    0,985;    0,864
1087,078;  913,626;    0,439;   -2,136
1087,619;  961,717;   -1,652;    0,227
1088,160;  885,444;    1,439;    1,318
1088,701;  854,172;   -0,742;    0,682
1089,242;  804,717;   -0,561;   -2,227
1089,783;  912,172;   -0,561;    1,409
1090,324;  876,990;   -0,833;    0,682
1090,865;  762,263;   -1,924;   -0,409
1091,405;  706,717;   -0,561;    2,227
1091,946;  748,626;   -0,197;   -0,955
1092,487;  670,808;   -1,288;   -1,409
1093,027;  854,717;    1,803;   -1,500
1093,568;  725,172;    2,258;    1,227
1094,108;  816,081;    0,621;    1,773
1094,649;  752,717;   -0,470;    0,136
1095,189;  696,535;    1,167;   -0,682
1095,729;  669,263;    0,712;    0,955
1096,269;  660,172;    1,258;   -0,955
1096,810;  960,899;   -0,197;    0,500
1097,350;  806,808;   -0,561;   -0,773
1097,890;  710,808;    2,985;    1,227
1098,430;  962,081;    4,985;    2,864
1098,970;  838,263;    1,894;    1,682
1099,510;  689,717;   -0,833;   -2,318
1100,050;  629,717;    0,258;   -1,591
1100,589;  616,990;    0,076;   -0,318
1101,129;  739,808;    0,894;   -0,955
1101,669;  882,899;    2,803;    2,136
1102,209;  722,081;    1,530;    2,227
1102,748;  674,808;    3,439;    0,955
1103,288;  665,535;    0,712;   -1,227
1103,827;  675,444;    3,530;   -2,227
1104,367;  562,990;    1,712;   -2,409
1104,906;  545,990;   -1,015;   -1,136
1105,445;  612,626;    0,985;   -1,136
1105,985;  561,717;   -0,652;    1,500
1106,524;  606,717;    1,530;   -0,682
1107,063;  581,626;    1,167;    1,409
1107,602;  555,535;    1,894;   -1,500
1108,141;  488,717;    1,621;    1,500
1108,680;  595,626;    3,985;   -0,591
1109,219;  533,626;    0,167;   -0,500
1109,758;  531,899;    4,167;    0,682
1110,297;  510,899;   -1,106;   -0,682
1110,836;  457,808;    1,439;    0,955
1111,375;  600,990;    0,348;    0,409
1111,913;  625,899;    0,985;    0,773
1112,452;  555,444;    0,894;    0,136
1112,991;  443,172;    1,076;    1,955
1113,529;  419,626;    0,167;   -0,045
1114,068;  491,354;    0,439;    2,955
1114,606;  396,717;   -0,561;   -0,955
1115,144;  552,354;    1,530;    1,045
1115,683;  494,263;    1,985;    0,318
1116,221;  539,172;    2,076;   -0,864
1116,759;  455,172;    1,621;   -0,864
1117,297;  625,899;    1,621;    1,864
1117,836;  456,535;    1,985;   -1,227
1118,374;  463,626;    0,258;   -0,682
1118,912;  423,717;    0,439;    2,682
1119,450;  405,081;    0,985;    0,864
1119,988;  452,263;    3,348;    2,136
1120,525;  883,172;    7,258;    3,318
1121,063;  600,626;    0,530;    1,864
1121,601;  423,626;    1,076;   -1,227
1122,139;  382,444;    1,076;   -2,045
1122,676;  574,444;   -1,652;    2,773
1123,214;  501,899;    0,712;    4,409
1123,751;  338,535;    0,621;    2,227
1124,289;  453,990;    0,894;   -0,409
1124,826;  340,808;   -0,379;    0,227
1125,364;  267,717;    0,712;   -0,955
1125,901;  441,808;    6,258;    1,227
1126,438;  533,444;    3,530;    0,955
1126,975;  290,899;    2,985;   -0,773
1127,513;  356,535;    2,621;    2,136
1128,050;  276,535;   -0,561;   -0,682
1128,587;  364,263;    1,348;   -0,227
1129,124;  406,990;   -0,015;    1,318
1129,661;  288,717;   -1,924;    0,227
1130,198;  442,990;    2,439;    0,773
1130,734;  389,717;   -0,379;    1,409
1131,271;  261,899;   -1,197;    0,864
1131,808;  416,899;    1,621;    3,045
1132,345;  299,535;    4,530;    0,318
1132,881;  186,899;   -0,561;   -1,864
1133,418;  324,172;    0,348;   -1,136
1133,954;  268,990;    0,712;   -2,682
1134,491;  326,899;    1,712;   -0,773
1135,027;  235,535;    2,167;    0,864
1135,564;  318,263;    1,439;    2,955
1136,100;  299,172;   -0,742;    2,136
1136,636;  194,626;   -1,015;   -1,045
1137,172;  283,899;    0,894;   -1,045
1137,708;  225,172;   -1,561;   -1,045
1138,245;  221,354;    0,803;   -1,227
1138,781;  178,263;    1,803;   -3,318
1139,317;  241,444;    1,894;   -1,409
1139,852;  232,535;    3,076;    0,136
1140,388;  331,717;    2,076;   -0,409
1140,924;  233,081;    1,076;   -2,227
1141,460;  177,172;   -0,288;    0,136
1141,996;  118,172;   -0,652;    2,682
1142,531;  170,354;    1,076;    3,318
1143,067;  357,990;    1,167;    1,045
1143,602;  408,899;    3,439;   -0,318
1144,138;  276,899;    0,803;    1,045
1144,673;  154,081;    1,621;    1,409
1145,209;  218,354;    2,894;   -0,318
1145,744;  140,808;    0,803;    0,864
1146,279;  255,990;    1,530;   -0,136
1146,815;  185,444;    1,530;   -2,682
1147,350;  226,172;   -0,924;    0,045
1147,885;  153,354;   -1,924;   -1,318
1148,420;  144,626;    2,439;    0,773
1148,955;  132,899;   -1,470;    1,864
1149,490;  157,899;   -1,106;   -1,591
1150,025;  143,808;   -1,106;   -1,773
1150,560;  243,263;   -0,288;   -0,955
1151,094;  208,717;    0,258;   -0,591
1151,629;  201,444;   -3,742;    0,864
1152,164;  143,444;   -1,288;    1,318
1152,698;  114,263;    1,258;   -0,136
1153,233;   80,899;   -1,379;   -0,682
1153,767;  122,626;   -0,288;   -2,318
1154,302;  165,626;   -0,379;    1,773
1154,836;  160,535;    0,803;   -2,136
1155,371;  207,081;    2,258;    3,682
1155,905;  165,535;    1,985;    1,682
1156,439;  142,535;    0,530;   -0,500
1156,973;  168,354;    0,439;    0,318
1157,507;  108,990;   -1,742;    0,682
1158,042;  135,081;   -0,652;    1,045
1158,576;  172,535;   -0,561;    1,773
1159,110;  162,081;    0,076;    2,409
1159,643;  137,172;   -2,470;   -0,045
1160,177;   85,535;   -2,015;    1,500

