
Integration time [ms]:   0,040
Averaging Nr. [scans]: 11
Smoothing Nr. [pixels]: 0
Data measured with spectrometer [name]: 7318044SP
Wave   ;Sample   ;Dark     ;Reference
[nm]   ;[counts] ;[counts] ;[counts] 

186,757;   31,594;   38,161;    1,318
187,357;   59,641;   26,706;    0,955
187,958;   36,261;   17,252;   -1,591
188,558;   70,273;   12,979;   -1,227
189,159;   46,851;   10,070;   -4,500
189,759;   23,303;    5,797;   -3,591
190,360;   19,277;    6,797;   -2,136
190,960;   55,589;    5,706;   -4,136
191,560;   67,041;    2,614;   -6,591
192,161;  278,363;    5,885;   -3,500
192,761;  135,955;    5,520;   -3,227
193,361;   90,197;    3,065;   -3,773
193,962;  149,629;    1,612;   -2,682
194,562;   75,258;   -0,114;   -3,955
195,162;  101,399;   -0,567;   -2,227
195,762;  263,543;    2,433;   -0,045
196,362;  206,381;    1,706;   -2,500
196,963;   81,500;    1,706;   -0,864
197,563;  156,161;    1,252;   -0,955
198,163;   95,719;   -0,111;   -0,682
198,763;  115,192;   -0,020;   -0,500
199,363;  219,378;    3,616;   -0,500
199,963;  181,522;    2,162;    0,409
200,563;  152,544;    6,344;   -1,409
201,163;  136,593;    5,435;   -0,227
201,763;  228,790;    1,435;    0,318
202,363;  163,304;    0,980;    1,500
202,963;  260,650;    1,526;    1,045
203,563;  362,632;    0,344;    0,500
204,162;  228,093;    1,889;   -1,864
204,762;  216,005;    2,071;    0,591
205,362;  183,340;    0,708;    1,955
205,962;  273,342;    3,435;    1,955
206,562;  269,099;    1,889;    2,318
207,161;  234,205;    1,708;    0,318
207,761;  384,576;    4,435;    2,409
208,361;  267,142;    1,889;    1,409
208,960;  357,614;    2,889;    1,500
209,560;  414,760;    0,435;    1,591
210,160;  407,692;    5,071;    1,864
210,759;  371,926;    0,708;    1,227
211,359;  381,080;   -0,474;    1,045
211,958;  623,992;    3,526;    2,045
212,558;  701,937;    0,799;    1,864
213,157;  547,935;   -0,929;    1,500
213,757;  959,045;    5,617;   -0,227
214,356;  658,496;    1,708;   -0,409
214,956;  973,266;    3,526;    0,409
215,555;  621,940;    0,617;    2,136
216,154;  568,599;   -0,292;   -0,591
216,754;  576,459;    1,253;    0,773
217,353;  683,970;   -0,383;   -1,045
217,952;  539,565;    2,072;    0,318
218,552;  771,725;    0,254;   -0,773
219,151;  665,859;   -1,110;    0,955
219,750;  668,596;    0,890;   -0,227
220,349;  750,960;   -2,292;    1,045
220,948;  852,483;    1,163;    1,136
221,548;  836,943;    0,617;    1,227
222,147;  948,071;   -1,292;   -0,409
222,746; 1213,819;    1,254;   -0,955
223,345; 1078,987;   -1,019;    0,500
223,944; 1095,273;    1,163;    0,773
224,543; 1239,547;    4,072;   -1,409
225,142; 1346,087;    1,345;    0,136
225,741; 1258,193;    1,163;    1,045
226,340; 1281,202;    1,254;   -0,955
226,939; 1702,295;    2,708;   -0,136
227,538; 1604,370;    1,163;   -0,773
228,137; 1776,259;    0,435;    0,864
228,735; 1868,371;    0,435;    1,227
229,334; 1642,140;   -0,474;   -0,227
229,933; 2010,963;    0,799;    0,591
230,532; 2131,307;   -1,201;   -0,409
231,131; 2189,680;    1,253;    0,318
231,729; 2264,705;    1,163;   -2,318
232,328; 2351,835;    0,435;   -1,500
232,927; 2403,511;    4,526;   -0,500
233,525; 2506,740;    0,981;    0,045
234,124; 2706,829;    1,890;   -1,591
234,723; 2722,206;    1,617;   -1,045
235,321; 2832,118;    1,163;    0,136
235,920; 3025,411;    2,526;   -1,227
236,518; 3285,232;    1,072;    0,318
237,117; 3421,898;    2,890;   -0,227
237,715; 3569,550;    1,163;   -0,500
238,314; 3612,425;    1,708;   -2,318
238,912; 3727,721;    0,526;   -1,409
239,510; 3748,715;    1,162;   -1,227
240,109; 3910,975;   -0,474;    3,773
240,707; 3925,028;   -0,474;    1,227
241,305; 4263,359;   -0,383;    0,136
241,904; 4444,359;   -0,292;   -2,045
242,502; 4408,114;    3,253;   -0,227
243,100; 4358,593;    3,344;   -0,955
243,698; 4564,790;    2,799;    1,682
244,297; 4726,210;   -0,656;    0,682
244,895; 4580,160;   -0,474;   -2,318
245,493; 4874,653;    2,981;   -0,591
246,091; 4885,351;    5,163;   -1,318
246,689; 4861,735;    2,163;    0,591
247,287; 4998,006;   -0,019;   -1,136
247,885; 5295,493;   -1,019;    1,227
248,483; 5377,186;   -0,201;   -0,500
249,081; 5464,070;    0,981;    1,591
249,679; 5612,632;   -1,019;    1,682
250,277; 5854,368;   -2,292;    0,864
250,875; 5837,390;    0,617;   -1,045
251,473; 5866,446;   -0,019;    0,500
252,071; 6006,731;   -0,383;    1,045
252,669; 6163,364;   -1,565;    0,318
253,267; 6385,738;    1,618;    0,773
253,864; 6322,642;    0,617;    0,682
254,462; 6225,011;    1,526;    1,591
255,060; 6175,026;    0,072;    1,318
255,658; 6475,818;   -3,292;   -0,136
256,255; 6853,936;   -0,201;   -2,045
256,853; 6753,312;    2,345;    1,409
257,451; 6730,332;    1,981;    1,864
258,048; 7002,892;    2,072;    1,864
258,646; 6742,941;    0,436;   -1,045
259,243; 6931,403;    2,981;    2,227
259,841; 6974,774;    1,799;    0,318
260,438; 6867,722;    0,254;    0,864
261,036; 7540,485;    0,617;    1,409
261,633; 7423,049;    1,526;    2,227
262,231; 7208,541;   -0,110;   -0,045
262,828; 7283,360;   -0,383;    1,136
263,425; 7352,025;   -1,928;   -0,591
264,023; 7591,753;    1,436;    0,045
264,620; 7154,347;    1,526;   -0,318
265,217; 7477,343;    2,890;    3,136
265,815; 7575,385;    2,527;    2,136
266,412; 7380,755;    0,072;    0,136
267,009; 7417,807;    0,526;    0,773
267,606; 7345,487;    0,345;   -0,955
268,203; 7309,424;   -0,383;   -0,591
268,801; 7543,408;   -0,474;    0,591
269,398; 7821,726;   -0,564;    2,500
269,995; 7816,087;    0,890;    1,591
270,592; 7629,891;    0,799;   -0,500
271,189; 7808,477;    1,981;    0,409
271,786; 7921,209;    2,072;    1,227
272,383; 7794,625;   -0,383;    0,227
272,980; 7918,197;    1,617;    0,318
273,577; 8368,325;    2,162;    1,227
274,174; 7940,992;    1,435;    2,591
274,771; 7914,546;    1,890;   -0,773
275,367; 8078,165;    3,253;    1,409
275,964; 8043,504;   -0,565;   -0,500
276,561; 8137,482;   -2,474;   -1,045
277,158; 8331,632;    1,799;   -1,773
277,755; 8463,070;   -0,110;    0,409
278,351; 7873,326;    0,436;   -1,500
278,948; 8143,977;   -0,201;    0,045
279,545; 8135,798;    0,527;    2,318
280,141; 8749,871;    1,254;   -2,045
280,738; 8604,133;    2,435;   -0,136
281,334; 8801,544;   -0,383;    0,591
281,931; 8220,553;    2,890;   -1,318
282,528; 8335,954;    4,072;   -0,500
283,124; 9026,920;    3,345;   -0,500
283,721; 8863,274;    0,709;    1,409
284,317; 8703,851;    0,163;    2,500
284,913; 9228,208;   -0,110;    0,591
285,510; 9410,754;    2,890;   -0,318
286,106; 9423,004;    2,345;   -0,955
286,703; 9000,562;    0,072;    1,955
287,299; 9197,410;    1,254;   -0,591
287,895; 9392,280;    0,890;   -1,045
288,491; 9919,999;    0,163;    2,136
289,088; 9687,332;    0,163;    2,409
289,684; 9761,546;    2,890;    1,500
290,280; 9756,388;    1,890;    0,682
290,876; 9824,163;    0,163;    5,500
291,472; 9719,928;    2,163;    2,227
292,068; 9817,235;    1,254;    0,227
292,665; 9586,047;   -0,564;    0,773
293,261; 9234,162;   -1,292;    2,136
293,857; 9553,885;    4,072;    2,136
294,453; 9511,893;   -0,928;    0,955
295,049; 9396,644;    0,253;    1,955
295,644; 9419,394;   -1,292;    0,136
296,240; 9345,548;    0,162;   -0,136
296,836; 9388,829;   -0,747;    0,318
297,432; 9628,868;    2,980;   -0,500
298,028; 9643,460;    0,435;    0,773
298,624;10038,221;    0,889;    1,864
299,220;10267,842;    0,435;    0,591
299,815; 9925,090;    0,526;   -0,409
300,411; 9745,735;    0,435;    1,773
301,007; 9771,342;    1,889;    0,227
301,602; 9771,855;    2,071;   -2,318
302,198; 9929,098;    1,435;   -0,773
302,794;10242,791;    1,526;   -0,500
303,389;10360,546;    1,071;    1,045
303,985;10404,186;    1,253;    1,409
304,580;10410,630;    0,889;    1,591
305,176;10383,803;    0,344;    0,136
305,771;10293,454;   -0,929;   -1,227
306,367;10180,011;    3,071;    0,136
306,962;10505,400;    2,889;    1,500
307,558;10242,081;    2,435;    0,136
308,153;10167,600;   -0,383;   -1,136
308,748;10378,067;    0,162;    1,682
309,344;10343,852;    0,253;   -1,318
309,939;10413,156;    2,071;   -1,318
310,534;10688,822;   -2,020;   -1,682
311,130;10649,728;   -0,656;   -2,500
311,725;10397,196;    0,526;   -0,500
312,320;10687,880;    1,253;    0,045
312,915;10567,710;    2,890;   -1,045
313,510;10629,198;    0,526;   -0,500
314,105;11128,894;   -3,565;    1,409
314,700;10500,180;   -1,656;   -1,045
315,295;10194,994;   -0,020;    0,045
315,890; 9763,715;   -0,292;    0,864
316,485;10108,154;    0,253;   -0,318
317,080;10206,176;   -0,929;    1,591
317,675;10716,132;    3,071;   -0,682
318,270;10152,629;    6,889;    3,318
318,865;10163,832;    2,435;    3,045
319,460;10023,013;   -1,565;    0,591
320,055;10214,725;   -2,565;   -1,227
320,650; 9903,080;   -1,838;   -0,591
321,244; 9971,529;    0,889;   -1,409
321,839;10854,298;    0,980;   -0,227
322,434;10735,244;   -0,111;   -1,591
323,029;10399,092;   -0,474;    1,591
323,623;10237,430;    0,798;    0,773
324,218;10066,422;    2,707;    1,409
324,812; 9962,315;    0,889;    1,591
325,407; 9819,650;   -0,929;    2,045
326,002; 9754,493;    0,526;   -0,409
326,596;10030,788;   -0,656;    1,318
327,191;10218,326;   -0,383;   -1,045
327,785; 9847,243;   -0,747;   -0,227
328,379;10078,258;   -0,383;    0,136
328,974; 9857,554;    1,798;   -3,955
329,568;10106,681;    2,889;   -2,409
330,163; 9930,801;    2,435;    1,045
330,757;10269,249;    0,253;    1,591
331,351; 9629,141;   -0,292;    0,682
331,945; 9915,266;   -0,383;    1,409
332,540; 9527,211;    1,617;   -0,591
333,134; 9686,184;    3,344;    0,773
333,728; 9889,733;    2,799;    0,318
334,322;10190,687;    0,889;   -0,864
334,916; 9541,292;    0,344;    0,955
335,510; 9831,661;   -0,111;   -0,136
336,105;10090,235;   -0,929;    1,591
336,699; 9772,602;   -1,292;    0,591
337,293; 9711,493;    1,071;    0,318
337,887; 9848,540;    0,071;    1,955
338,481; 9902,982;    2,980;    0,591
339,074;10088,495;    2,071;    2,682
339,668; 9888,032;   -0,110;    1,227
340,262;10131,550;    7,708;    3,227
340,856; 9645,786;    1,708;   -0,682
341,450; 9088,027;    0,708;    1,864
342,044; 9894,766;    1,799;    0,136
342,637; 9637,066;    1,162;   -2,136
343,231; 9513,197;   -1,474;    0,682
343,825; 9480,350;   -0,747;   -0,591
344,419; 9452,503;   -0,474;    0,500
345,012; 9288,353;    2,889;    4,045
345,606; 9275,456;   -0,656;    1,591
346,199; 9148,662;   -0,111;   -0,227
346,793; 8722,472;    2,525;    2,045
347,386; 8911,040;    0,889;   -1,136
347,980; 8902,839;   -0,838;   -0,045
348,573; 8741,244;   -1,748;    0,409
349,167; 8444,509;    6,161;    4,773
349,760; 8769,763;    2,252;    2,682
350,354; 8742,685;    1,616;    1,136
350,947; 8507,812;    2,798;    1,682
351,540; 8192,241;    0,616;   -1,409
352,134; 8178,240;   -1,111;    1,136
352,727; 8273,944;   -0,657;    1,136
353,320; 8045,431;    2,343;    0,591
353,913; 7903,782;   -1,929;    1,864
354,507; 8114,222;    0,434;   -1,227
355,100; 8116,531;    0,071;    0,864
355,693; 7410,765;    4,798;    2,409
356,286; 7482,443;    0,980;    2,773
356,879; 7826,448;   -0,475;    1,227
357,472; 7453,226;    0,980;    1,500
358,065; 7651,631;    3,161;    2,500
358,658; 7578,014;    0,798;    2,318
359,251; 7260,245;    0,252;   -0,591
359,844; 6811,967;    0,343;   -1,136
360,437; 6968,011;    0,252;    0,045
361,030; 7211,494;    0,525;   -0,682
361,623; 6832,905;    0,434;    0,318
362,215; 6896,172;    0,979;    2,045
362,808; 6728,954;   -2,293;   -1,682
363,401; 6943,505;    0,798;    0,136
363,994; 6724,762;    3,252;   -1,500
364,586; 6614,487;    0,888;   -1,500
365,179; 6811,981;   -0,203;   -1,136
365,772; 6324,161;   -0,930;    2,045
366,364; 6609,975;    1,524;   -3,227
366,957; 6804,945;    1,342;   -0,045
367,549; 6831,766;   -0,203;   -0,864
368,142; 6495,929;    0,978;   -1,500
368,734; 6672,915;    2,523;   -2,136
369,327; 6645,589;    2,341;   -0,500
369,919; 6563,443;   -1,659;    0,409
370,512; 6366,477;   -1,023;   -0,500
371,104; 6154,903;    2,704;    1,591
371,696; 6332,349;    1,703;   -0,955
372,289; 6410,562;    0,157;    1,136
372,881; 6541,375;    1,156;    1,318
373,473; 6453,062;    4,064;    1,136
374,066; 6272,547;    1,336;    0,500
374,658; 6145,716;    0,879;    1,136
375,250; 6463,653;   -1,668;   -1,409
375,842; 6321,473;   -0,124;   -0,045
376,434; 6197,175;   -2,762;   -0,409
377,026; 6715,599;   -1,855;   -2,500
377,618; 6615,360;    0,779;   -0,682
378,210; 6466,873;    3,141;   -1,955
378,802; 6329,473;    3,412;   -0,591
379,394; 6339,348;    3,411;    0,682
379,986; 6834,572;    1,138;   -0,955
380,578; 6914,048;    1,410;    0,773
381,170; 6321,027;    0,320;    0,045
381,762; 6270,309;   -0,224;    1,409
382,354; 6439,291;   -0,223;   -1,318
382,945; 6560,052;    0,870;    0,318
383,537; 6681,732;    1,144;   -1,955
384,129; 6701,499;    0,963;   -1,136
384,721; 6849,548;    0,418;    0,955
385,312; 6792,931;   -1,399;   -0,955
385,904; 6886,903;   -0,945;    1,591
386,496; 6296,984;    0,691;    1,045
387,087; 6429,906;    0,418;    2,500
387,679; 6469,789;   -0,401;    0,045
388,270; 6582,092;   -2,401;    2,045
388,862; 6674,142;   -0,401;   -0,318
389,453; 6575,989;    1,054;    1,045
390,045; 6832,420;    3,236;   -2,682
390,636; 6751,512;    0,144;   -0,591
391,227; 6609,795;    2,054;   -0,045
391,819; 6711,437;    0,781;    0,773
392,410; 6781,726;    0,600;    0,045
393,001; 6709,617;    1,600;   -1,591
393,593; 6968,051;    0,600;   -0,045
394,184; 6831,938;    0,873;   -0,409
394,775; 6723,940;    1,146;    2,136
395,366; 6919,948;    1,782;    0,773
395,957; 6893,434;   -2,400;    0,136
396,548; 7172,159;    1,054;    2,682
397,139; 7473,548;    2,236;    0,591
397,730; 7220,513;    0,873;    0,955
398,321; 7264,734;    0,509;    0,955
398,912; 7268,043;   -0,764;    0,136
399,503; 7370,109;   -1,945;   -1,409
400,094; 6856,340;   -1,582;    1,682
400,685; 6721,115;    3,600;    0,045
401,276; 6784,919;   -0,400;   -0,955
401,867; 7084,883;   -1,127;    0,773
402,458; 7143,484;    1,509;   -2,318
403,048; 7154,372;    0,146;    0,591
403,639; 6777,752;    1,509;    0,864
404,230; 7045,171;    0,691;    0,318
404,821; 6968,018;   -0,127;    0,045
405,411; 7089,026;   -0,763;   -2,591
406,002; 6691,807;    3,237;   -1,136
406,592; 6596,189;    2,691;    0,045
407,183; 6855,426;    0,328;   -1,500
407,774; 6770,313;    1,419;   -0,136
408,364; 7086,752;    2,600;    0,409
408,954; 6730,406;   -0,036;    1,227
409,545; 6768,379;    1,873;    1,045
410,135; 6339,789;   -1,581;    0,500
410,726; 6500,849;    0,783;    0,318
411,316; 6841,857;    2,237;    0,773
411,906; 6545,053;    0,146;   -0,409
412,497; 6099,402;   -0,490;   -0,045
413,087; 6626,952;    0,783;   -0,227
413,677; 6964,236;   -2,490;    3,864
414,267; 6836,752;   -1,035;    1,409
414,857; 6802,989;    0,419;    4,227
415,448; 7079,870;   -0,763;    0,500
416,038; 6816,515;   -2,945;   -0,591
416,628; 6761,027;    0,965;    0,409
417,218; 6321,526;   -1,762;    3,318
417,808; 6560,945;    0,965;   -0,409
418,398; 6931,675;   -1,035;    2,682
418,988; 6941,092;   -2,217;    0,591
419,578; 7144,905;    3,601;    1,409
420,168; 7449,557;    0,692;   -0,955
420,757; 7064,802;    0,964;   -1,500
421,347; 6757,901;    1,601;   -0,227
421,937; 6920,715;    3,329;    1,409
422,527; 6894,350;    2,602;   -0,773
423,116; 6727,447;    2,692;   -0,045
423,706; 7051,240;    2,965;    0,318
424,296; 6975,464;    1,601;    0,682
424,885; 7379,101;    1,510;   -3,045
425,475; 7622,330;    1,147;   -2,864
426,065; 7541,213;   -1,489;   -0,318
426,654; 7198,123;    0,329;   -0,318
427,244; 7301,269;    1,147;    1,409
427,833; 6813,689;    1,056;   -0,500
428,423; 7225,332;    0,147;    1,136
429,012; 7897,854;    2,420;   -1,136
429,601; 7427,309;    2,057;    0,136
430,191; 7651,062;    2,511;    4,318
430,780; 7319,266;   -1,671;   -0,409
431,369; 7276,834;    1,329;   -0,045
431,959; 7830,024;    1,693;    0,500
432,548; 7616,802;   -1,398;   -0,045
433,137; 7728,550;    0,329;   -1,318
433,726; 8225,012;    0,148;    0,500
434,315; 7647,617;    0,148;    2,409
434,905; 7759,798;    0,693;    1,409
435,494; 7665,424;    3,148;    0,955
436,083; 8066,520;    1,420;   -0,955
436,672; 7950,994;    1,148;    0,500
437,261; 7579,871;    0,512;   -1,955
437,850; 7697,876;   -1,125;    0,682
438,439; 7674,801;    2,239;    1,955
439,027; 7519,359;    3,421;    1,773
439,616; 7831,416;    2,239;    1,227
440,205; 7687,520;    0,057;   -2,136
440,794; 7698,583;   -0,306;   -0,045
441,383; 7934,760;    1,603;   -0,591
441,971; 7825,844;   -0,306;    0,591
442,560; 7685,635;    0,603;   -1,773
443,149; 7424,624;    3,060;   -1,318
443,737; 7601,056;    0,968;   -2,318
444,326; 7837,481;    0,331;    0,318
444,915; 7873,700;   -1,851;    0,864
445,503; 8213,841;    0,058;   -0,318
446,092; 7553,582;    7,876;    2,136
446,680; 8076,447;    1,876;    0,318
447,269; 8204,143;   -1,487;   -0,318
447,857; 7978,813;    2,240;   -1,773
448,445; 8118,961;    2,149;    1,318
449,034; 8301,293;    0,876;   -1,136
449,622; 8402,635;    1,240;    3,500
450,210; 7733,366;    3,149;    2,227
450,799; 8250,491;    2,604;   -0,591
451,387; 8188,800;    1,786;   -0,591
451,975; 7872,123;   -1,305;    0,864
452,563; 7972,388;    0,422;    2,318
453,151; 7969,868;   -1,032;   -1,227
453,739; 7906,798;   -1,577;    0,136
454,328; 7771,504;    0,604;   -2,136
454,916; 7517,281;    1,150;   -0,136
455,504; 7676,438;    3,513;    1,227
456,092; 7854,099;    2,150;   -1,591
456,679; 7822,558;    0,604;    0,682
457,267; 7803,046;    3,604;    1,045
457,855; 7906,679;    3,241;    1,409
458,443; 7666,991;   -0,304;    1,682
459,031; 7796,398;    1,332;    2,409
459,619; 8232,285;   -3,577;    2,864
460,206; 8294,664;   -0,759;    2,045
460,794; 8399,756;   -0,668;   -0,227
461,382; 8568,874;    0,878;   -0,864
461,970; 8212,737;    0,605;    1,864
462,557; 8253,530;    0,878;   -0,682
463,145; 8389,465;   -0,304;   -1,682
463,732; 8512,973;    2,514;   -1,045
464,320; 8445,127;    1,514;   -3,045
464,907; 8156,748;    0,423;   -0,773
465,495; 8002,804;    2,696;   -1,227
466,082; 8177,668;    2,060;   -0,045
466,670; 8093,129;    2,605;    1,227
467,257; 8455,373;    0,060;    2,045
467,844; 8623,206;    1,514;    0,045
468,432; 8665,963;   -0,031;    3,500
469,019; 8192,805;    1,606;   -1,773
469,606; 8618,482;    0,969;    3,682
470,193; 8484,700;    2,151;    0,227
470,780; 8090,015;    0,333;    0,864
471,368; 8384,114;   -1,212;   -0,773
471,955; 8195,304;    1,060;   -0,682
472,542; 7856,324;   -0,303;   -1,136
473,129; 8092,427;   -0,485;    0,136
473,716; 7863,187;    0,060;    0,591
474,303; 8016,963;    1,333;   -0,864
474,890; 8294,541;    2,333;   -0,500
475,477; 8316,062;   -0,576;    0,409
476,064; 8204,633;    0,697;   -1,591
476,650; 8125,363;    2,152;    0,318
477,237; 7982,272;    1,879;    0,955
477,824; 8125,623;    3,879;    0,864
478,411; 8134,980;    0,606;   -0,318
478,997; 8317,041;    0,606;   -0,773
479,584; 8355,022;   -0,666;   -0,409
480,171; 8971,275;    1,243;   -0,773
480,757; 8667,547;   -0,848;    0,773
481,344; 8914,937;    0,334;    0,409
481,931; 8449,479;   -0,393;    1,045
482,517; 9306,195;    0,425;    0,318
483,104; 9783,635;    1,334;    2,864
483,690;10005,117;    0,243;    0,045
484,276;10291,586;    0,698;    0,227
484,863;10065,405;    2,152;    1,136
485,449;10586,479;    0,152;    0,318
486,035;10559,873;   -0,666;   -0,136
486,622;10972,134;   -2,393;    0,045
487,208;10902,179;    1,334;    1,500
487,794;10776,074;    0,971;    0,318
488,380;10868,997;    0,698;   -1,409
488,967;10938,357;   -1,120;   -0,409
489,553;11036,990;   -1,029;   -1,409
490,139;11215,288;    0,971;    0,773
490,725;10713,819;    0,789;   -0,227
491,311;10361,447;    1,516;    3,045
491,897; 9749,838;   -0,665;    1,500
492,483; 9609,056;    0,426;    1,227
493,069; 9480,639;    5,426;    0,864
493,655; 9415,626;    1,789;    0,682
494,241; 9317,344;    1,517;   -0,955
494,826; 9687,102;    0,335;   -1,045
495,412; 9169,489;    0,335;   -0,682
495,998; 9351,323;    0,971;   -0,318
496,584; 9410,984;    2,244;    1,045
497,169; 9383,183;    2,335;   -0,682
497,755; 9349,583;    1,244;    1,227
498,341; 9875,659;    2,153;    0,318
498,926; 9477,935;    2,881;    1,955
499,512; 9608,384;   -0,028;    2,955
500,097; 9688,010;   -0,574;   -0,318
500,683; 9653,808;   -0,028;    2,136
501,268;10000,244;    1,881;   -0,955
501,854; 9748,149;   -0,119;    1,227
502,439; 9677,832;   -0,573;   -1,773
503,024; 9830,412;    1,608;    0,500
503,610; 9889,135;    1,335;   -0,682
504,195; 9851,563;    1,245;    1,955
504,780; 9990,887;    2,335;    1,227
505,366; 9851,831;    4,063;    2,864
505,951; 9604,646;   -1,119;    1,045
506,536; 9644,159;    1,427;   -3,682
507,121; 9631,981;    1,699;   -0,318
507,706;10064,281;   -0,392;    1,045
508,291;10397,897;   -2,937;    1,136
508,876; 9905,034;   -0,482;    2,591
509,461; 9421,659;    1,427;   -0,773
510,046; 9820,039;   -0,391;    0,318
510,631;10025,215;   -0,119;   -0,773
511,216; 9726,170;   -0,664;   -0,500
511,801;10036,618;   -0,755;    2,591
512,386;10295,114;    0,972;    0,500
512,971;10225,161;    0,427;    0,955
513,555; 9841,629;    1,154;   -1,500
514,140;10554,686;    1,336;   -3,136
514,725;10510,534;    1,791;   -1,136
515,309;10613,479;    1,064;    0,318
515,894;10152,840;   -0,300;   -2,227
516,479;10566,629;    1,973;   -0,955
517,063;10384,910;    0,882;    1,227
517,648;10505,917;    0,155;   -1,136
518,232;10140,453;   -1,300;   -1,409
518,817;10470,296;    1,337;    1,682
519,401;10709,399;    0,700;    0,591
519,985;10237,386;    2,700;    1,136
520,570;10092,939;   -0,118;   -1,955
521,154;10372,894;    0,064;    0,591
521,738;10487,213;    1,064;    2,409
522,323;11045,747;   -0,390;    1,682
522,907;10787,980;    2,428;   -0,136
523,491;10550,553;    1,155;    0,955
524,075;10517,760;    0,428;    0,591
524,659;10568,596;    0,973;    0,591
525,243;10127,081;    0,883;    0,409
525,827;10354,989;    0,883;   -0,045
526,411;11083,505;    1,155;   -0,136
526,995;11262,453;    0,337;    1,409
527,579;10885,037;    1,974;   -1,045
528,163;11174,632;    0,428;   -1,500
528,747;11103,010;    1,065;   -0,773
529,331;11346,321;    0,883;   -1,409
529,915;11493,341;    2,338;    0,955
530,499;11456,681;    0,247;    1,227
531,082;11184,897;    1,065;    1,591
531,666;10693,289;    0,520;    0,773
532,250;11281,490;    0,428;    2,682
532,833;11565,735;    0,610;    2,773
533,417;11449,535;    1,247;    0,864
534,001;11372,885;    0,429;   -0,318
534,584;12045,465;    1,974;    0,500
535,168;11872,598;    3,247;    1,409
535,751;11919,201;    4,520;    0,045
536,334;11395,011;    4,520;   -0,409
536,918;11954,734;    1,974;    1,591
537,501;12021,621;    1,520;    1,318
538,085;11998,201;    1,702;    1,045
538,668;12108,135;    0,883;    2,409
539,251;12386,161;    3,156;    3,773
539,834;12443,790;    0,156;    0,773
540,418;12343,769;    3,247;    4,318
541,001;12395,642;    2,702;    1,773
541,584;12388,537;    1,429;    2,227
542,167;12093,344;    0,702;    2,955
542,750;12210,723;    0,793;   -0,773
543,333;11811,277;    1,429;    2,136
543,916;12515,310;   -0,298;    2,500
544,499;13032,985;    2,520;    0,227
545,082;13037,262;    0,248;    3,591
545,665;13133,090;   -0,207;    1,500
546,248;13438,823;    0,520;   -0,318
546,830;13133,814;   -1,752;    1,955
547,413;13489,488;    0,157;   -0,773
547,996;14022,281;    0,157;    0,500
548,579;13749,354;   -0,843;    0,955
549,161;13541,541;    0,884;    2,682
549,744;13352,523;    0,612;    0,409
550,326;13838,299;    0,885;   -1,136
550,909;13602,981;    2,339;    0,591
551,492;13953,789;    0,521;    0,227
552,074;13753,108;   -0,024;   -1,318
552,657;14258,609;    2,430;    0,045
553,239;14053,776;   -3,024;   -0,773
553,821;13979,834;   -1,570;    1,045
554,404;13477,607;   -0,024;    1,136
554,986;13808,536;    2,248;    1,045
555,568;14372,067;    0,430;   -0,955
556,151;13681,638;    4,067;   -0,227
556,733;13861,277;   -1,388;   -0,864
557,315;14291,330;    4,703;    0,500
557,897;14050,846;    0,521;   -0,500
558,479;14133,645;    1,703;    1,318
559,061;14267,649;    1,067;   -0,864
559,643;14582,467;   -0,297;    0,045
560,225;14876,708;   -0,388;    2,864
560,807;14883,557;    0,340;    0,318
561,389;14423,862;   -1,206;    2,318
561,971;15028,698;   -0,660;    2,136
562,553;14901,106;    0,613;    1,591
563,135;15012,193;    1,249;    1,136
563,717;14618,736;    3,158;    1,136
564,298;15236,730;    3,976;   -0,045
564,880;14968,619;    0,340;   -1,409
565,462;15097,073;    1,977;    1,318
566,043;16126,247;   -0,933;    2,318
566,625;15672,268;    4,067;    1,227
567,207;15482,343;    0,704;    1,682
567,788;16450,965;   -0,114;    1,500
568,370;17126,233;   -1,841;   -0,500
568,951;16897,249;   -0,569;    0,227
569,533;17620,665;    0,977;   -0,500
570,114;18024,989;   -0,296;    0,682
570,695;18445,168;   -0,478;   -1,318
571,277;18725,551;   -0,205;   -1,682
571,858;19362,512;    2,704;   -1,136
572,439;20121,308;    0,795;   -1,045
573,021;20233,488;    0,432;   -2,773
573,602;20607,671;    1,795;    0,318
574,183;21398,646;   -0,114;    2,227
574,764;21408,868;    2,068;    0,409
575,345;21833,272;    0,250;   -0,136
575,926;22325,163;    2,704;    0,136
576,507;22311,692;    2,704;   -0,227
577,088;23301,123;    1,704;    1,682
577,669;23262,972;    1,704;    1,955
578,250;23911,555;   -0,750;   -1,045
578,831;24376,452;   -0,841;   -2,227
579,412;24520,907;   -1,205;    0,955
579,993;25414,365;    1,432;    0,227
580,573;25712,368;   -0,023;   -0,955
581,154;24646,520;    1,613;   -0,591
581,735;25465,788;    0,341;    0,773
582,315;24961,788;    0,523;    2,136
582,896;25277,777;   -1,750;    1,227
583,477;24803,453;    0,614;    1,227
584,057;25009,342;    1,159;    0,955
584,638;25239,911;   -2,750;    2,318
585,218;25245,839;    2,886;    2,682
585,799;25400,485;    1,977;   -0,227
586,379;25416,759;    1,250;    1,591
586,959;24376,602;    2,613;    0,318
587,540;23839,991;    0,432;    2,227
588,120;23449,333;   -1,113;   -0,045
588,700;22610,204;    2,977;    2,136
589,281;22903,776;    1,250;   -0,955
589,861;22796,672;   -0,296;   -1,682
590,441;22672,370;   -1,477;   -2,682
591,021;21789,205;    1,432;   -2,591
591,601;21975,930;    0,431;    0,500
592,181;22003,310;   -1,296;   -0,773
592,761;21381,784;    2,250;    1,409
593,341;21382,054;    1,522;    0,045
593,921;21371,827;   -0,569;    1,591
594,501;21257,170;    1,250;    1,318
595,081;21096,347;    0,522;   -0,318
595,661;21475,910;    1,068;    0,955
596,240;21920,408;   -1,023;    0,136
596,820;21501,013;    2,613;    1,955
597,400;21639,269;    1,977;    0,773
597,980;21833,418;   -0,750;    1,045
598,559;21909,605;    0,341;   -0,227
599,139;21679,933;   -0,750;   -1,227
599,718;21542,388;    0,795;   -0,409
600,298;21798,538;   -2,387;    0,682
600,877;21993,446;    4,795;    1,409
601,457;22206,688;    0,340;    1,136
602,036;22138,678;    1,795;    2,045
602,616;22322,075;    2,250;    1,682
603,195;22613,072;    0,431;    3,500
603,774;22143,013;   -0,296;    2,045
604,354;22055,403;    2,522;   -0,500
604,933;21649,357;    0,250;    1,864
605,512;21711,043;    2,340;    0,591
606,091;21733,106;    1,886;    3,773
606,671;22480,552;    0,249;    0,773
607,250;21692,874;    1,431;    3,136
607,829;21914,722;    1,158;    3,227
608,408;21812,943;    4,613;    2,591
608,987;20936,960;    2,704;    3,409
609,566;21152,889;    0,341;   -2,500
610,145;21342,761;    2,885;    0,682
610,723;21739,064;    1,613;    6,864
611,302;21054,422;    1,067;    1,682
611,881;20559,072;    5,158;   11,227
612,460;21346,167;    0,795;    3,955
613,039;21723,339;    1,703;    2,045
613,617;20528,207;    0,886;    4,773
614,196;20657,099;    1,613;    1,227
614,775;20994,176;    1,249;    2,409
615,353;20951,112;   -1,660;    0,864
615,932;20773,116;    0,249;    2,409
616,510;21311,106;    0,158;    0,591
617,089;20881,484;    8,794;   17,591
617,667;20685,550;    4,885;    6,136
618,246;20552,826;   -1,115;    1,318
618,824;20685,718;    1,612;   -0,955
619,402;20253,515;    0,431;   -1,773
619,981;20703,062;    1,067;   -1,045
620,559;20610,138;    0,794;    1,682
621,137;20194,624;    3,067;    1,864
621,715;20164,109;    3,703;   -0,682
622,293;20065,258;    1,885;   -0,773
622,871;20582,876;    0,340;    0,500
623,450;20250,815;    0,430;   -0,864
624,028;20101,818;   -0,388;   -0,955
624,606;19710,982;    2,339;    1,682
625,183;20080,891;   -0,661;   -1,136
625,761;19754,366;    1,885;    1,136
626,339;20041,854;    2,339;    2,591
626,917;20403,536;    0,339;   -0,045
627,495;20428,951;    2,794;    1,318
628,073;19889,472;    5,248;    2,864
628,650;19611,034;    3,067;    2,136
629,228;20017,650;    1,248;    4,409
629,806;19498,992;   -0,024;    1,136
630,383;19713,872;    0,066;   -0,318
630,961;19566,833;   -2,206;   -0,955
631,539;19326,436;   -2,479;    0,227
632,116;18742,924;   12,703;   15,409
632,694;19189,739;    4,885;    6,500
633,271;19411,891;    1,975;    2,682
633,848;19465,051;    1,430;    2,045
634,426;19457,351;    1,521;    1,773
635,003;18707,450;   -0,207;   -0,409
635,580;18973,080;    1,884;    3,682
636,158;19472,012;    3,793;    1,227
636,735;19416,642;    3,339;   -0,500
637,312;19514,104;    0,521;   -0,682
637,889;19617,343;    2,248;   -0,682
638,466;19184,752;    0,066;   -0,409
639,043;19176,114;    1,702;   -1,136
639,620;19442,839;    0,611;   -0,955
640,197;19675,978;    1,612;    1,682
640,774;19854,880;    1,430;    1,136
641,351;20159,145;    0,612;    1,136
641,928;19721,683;    2,794;    1,409
642,505;19394,403;    0,794;   -0,500
643,082;19493,486;    1,885;    1,227
643,658;18619,297;    1,157;    1,500
644,235;19273,653;   -2,479;    2,500
644,812;19503,100;    1,794;    0,773
645,388;19246,366;    1,612;    1,409
645,965;19346,358;    1,521;    1,682
646,542;19417,533;    3,430;   -0,227
647,118;19406,344;    3,703;   -0,955
647,695;19649,791;    0,339;    1,136
648,271;19603,692;   -2,115;    0,500
648,848;19825,503;    0,248;    2,227
649,424;19705,405;    0,976;    1,318
650,000;19473,852;   -0,388;   -1,045
650,577;19355,026;    0,158;   -0,955
651,153;19674,110;   -1,115;    0,955
651,729;20527,830;    0,521;    0,864
652,305;20600,186;    1,339;    2,773
652,881;24014,179;   -1,297;    1,136
653,458;29376,535;    0,249;    0,227
654,034;32350,709;    0,703;    1,591
654,610;33517,338;    0,339;    0,773
655,186;34724,694;    1,612;    3,045
655,762;34368,232;   -1,842;    0,409
656,338;34438,407;    0,703;    0,136
656,913;35350,399;   -0,297;    0,409
657,489;34695,937;    0,249;   -0,318
658,065;34734,476;    0,794;   -1,591
658,641;35257,014;    2,158;   -0,864
659,217;34657,643;    2,067;    0,409
659,792;34139,635;   -1,751;   -0,409
660,368;34503,719;   -0,388;   -0,682
660,944;34397,166;    1,794;    1,227
661,519;30843,795;    0,522;    0,409
662,095;25982,242;   -0,206;    0,591
662,670;22188,053;   -0,206;   -0,136
663,246;21300,045;   -0,660;   -0,409
663,821;20701,856;    0,431;    1,682
664,396;20167,485;    0,613;    1,864
664,972;20434,114;   -0,660;   -0,500
665,547;20715,743;    3,794;    0,136
666,122;20775,463;    1,340;    0,318
666,698;20999,728;    2,431;    0,318
667,273;20392,266;    0,885;    0,136
667,848;21130,441;    0,340;    1,500
668,423;20937,342;    1,795;    2,318
668,998;21318,426;    0,976;   -0,682
669,573;21766,509;    2,067;   -1,500
670,148;21643,138;    1,885;   -0,682
670,723;21377,040;   -0,024;    0,318
671,298;21783,487;   -1,296;    1,045
671,873;21846,843;   -0,296;   -0,136
672,448;21850,836;    1,704;    0,136
673,023;22133,374;    0,249;   -0,227
673,597;22425,366;    2,704;    2,318
674,172;22250,450;    2,431;    0,318
674,747;21757,988;   -0,205;   -1,045
675,321;21555,162;   -0,933;    3,318
675,896;21215,428;    2,158;    1,045
676,471;22080,511;    2,522;    1,591
677,045;21799,413;   -0,296;    0,682
677,620;21843,678;    2,158;    1,136
678,194;22197,125;    0,249;    1,136
678,769;21794,754;    0,886;   -0,318
679,343;22030,474;   -0,023;    1,773
679,917;21861,467;    0,340;    1,955
680,492;21907,278;    0,249;    3,227
681,066;22027,179;    0,613;    0,409
681,640;22071,808;    1,795;   -0,318
682,214;22781,164;    2,340;    0,500
682,788;22323,884;    0,613;   -0,773
683,363;22237,422;    1,977;    1,682
683,937;21972,324;    0,886;   -0,318
684,511;22629,408;   -1,023;   -0,591
685,085;22379,218;   -1,478;    0,318
685,659;22143,029;    1,431;    0,864
686,232;22385,476;    1,159;   -0,318
686,806;22122,651;    2,159;    0,409
687,380;22701,916;   -1,932;    0,591
687,954;22912,909;    2,432;    1,136
688,528;22556,356;    2,613;    1,955
689,101;23308,894;    0,432;    1,045
689,675;22913,341;    0,886;   -0,136
690,249;22371,970;    3,432;    0,409
690,822;22751,417;    1,159;    0,318
691,396;22829,955;    2,068;    1,227
691,969;22345,948;    2,523;    0,136
692,543;22746,849;   -0,568;   -1,955
693,116;22389,387;   -0,659;   -1,409
693,690;22319,198;   -0,296;    0,500
694,263;22827,191;    2,341;    2,955
694,836;22782,547;    2,795;    3,591
695,410;21587,176;    1,159;    1,773
695,983;22019,987;    1,614;    0,591
696,556;21984,252;   -0,750;   -1,045
697,129;22323,426;   -1,114;    1,409
697,703;21982,419;    1,341;    1,955
698,276;22010,684;    1,705;   -0,773
698,849;21817,495;   -1,023;    1,409
699,422;22195,306;    1,250;    0,591
699,995;21942,389;   -0,659;    0,136
700,568;22364,927;   -0,204;    3,045
701,140;22356,102;   -1,841;    1,682
701,713;22147,549;    0,341;    2,409
702,286;21942,087;    0,796;    0,864
702,859;21744,170;    0,614;   -0,591
703,432;21106,254;   -0,841;    0,682
704,004;21463,792;    1,978;    0,318
704,577;21388,876;    1,068;    0,136
705,150;21907,504;    0,887;    2,500
705,722;21689,133;    1,523;   -3,227
706,295;21493,944;    1,432;   -0,591
706,867;21313,482;    0,250;    1,955
707,440;21562,020;   -0,113;   -0,409
708,012;21796,649;   -0,022;    0,591
708,584;21660,824;    2,705;    0,227
709,157;21937,089;    1,160;   -0,591
709,729;21663,536;    1,069;    2,045
710,301;22434,711;   -1,204;    0,045
710,874;22458,249;    0,341;   -0,227
711,446;21420,423;   -0,295;    0,864
712,018;21316,779;   -3,022;    0,500
712,590;21087,408;   -0,204;    1,682
713,162;21557,492;   -0,477;    1,318
713,734;21753,030;    1,796;   -2,045
714,306;21703,568;    0,342;   -0,409
714,878;20560,651;   -0,295;    0,864
715,450;21325,553;   -0,113;    0,864
716,022;21540,000;    2,433;    1,318
716,593;21662,447;    0,978;    0,591
717,165;21627,167;    1,796;   -1,227
717,737;21387,978;    0,796;    0,409
718,309;21036,607;    1,160;   -0,045
718,880;21053,690;   -1,295;   -1,409
719,452;21242,774;    0,887;   -1,591
720,024;20886,675;    1,705;   -0,591
720,595;21415,214;    2,978;    0,955
721,167;21010,933;    1,160;   -2,045
721,738;20551,199;    2,069;   -1,045
722,309;20565,282;    1,251;   -1,227
722,881;20355,729;    2,705;    0,773
723,452;20918,813;    1,251;    2,864
724,023;21086,078;    1,524;    2,682
724,595;20893,616;    2,342;    0,682
725,166;20650,154;    1,524;   -0,409
725,737;20333,238;    1,887;    0,227
726,308;20410,412;    0,797;    0,318
726,879;20812,950;    1,069;    1,227
727,450;20644,216;   -2,022;   -0,045
728,021;20565,026;    1,069;    0,682
728,592;20509,928;    1,160;    0,500
729,163;20759,193;    1,433;   -0,136
729,734;20740,640;    2,160;   -0,227
730,305;21072,906;    0,615;    0,136
730,876;21363,807;    0,888;    2,955
731,447;21097,800;    0,797;    2,682
732,017;21188,793;   -0,840;    1,864
732,588;20760,240;   -0,021;    1,227
733,159;20874,414;    3,615;   -1,045
733,729;20706,770;    1,251;    0,409
734,300;20105,490;    0,160;    0,864
734,870;20503,210;   -1,385;    0,591
735,441;20919,657;    0,888;   -0,591
736,011;20764,195;    1,070;   -1,591
736,582;20712,915;    1,251;    0,045
737,152;20209,362;    0,979;   -2,045
737,722;20669,355;    1,070;   -0,682
738,293;20393,075;   -2,021;    1,318
738,863;20284,795;    1,797;    2,318
739,433;20121,515;    4,524;    0,318
740,003;20731,325;    1,524;   -0,682
740,573;20177,954;    2,252;   -1,591
741,143;20192,401;    3,615;    0,318
741,713;20845,758;    0,252;   -0,500
742,283;20596,114;    1,706;    1,591
742,853;20410,561;    0,524;    1,591
743,423;19907,826;    0,161;    0,045
743,993;20012,910;    1,070;    1,500
744,563;19489,357;    2,524;   -0,864
745,133;19413,713;   -0,112;   -0,864
745,702;20063,251;    2,797;    1,773
746,272;19350,335;    0,434;    0,591
746,842;19141,964;   -0,748;   -0,591
747,411;19535,411;   -0,839;   -0,318
747,981;19645,040;   -0,930;    0,500
748,551;19740,487;   -0,021;   -1,045
749,120;19579,480;   -0,112;   -0,227
749,690;19919,472;    2,161;    2,409
750,259;20214,283;    0,979;    2,955
750,828;20115,275;    4,070;   -1,955
751,398;20375,177;   -0,112;   -0,045
751,967;19915,806;    2,888;    0,409
752,536;20093,708;    1,161;   -0,227
753,105;20530,882;   -1,384;    0,227
753,675;20259,602;   -0,112;    1,773
754,244;20178,140;    0,888;    3,591
754,813;20190,042;    0,979;    1,227
755,382;19860,125;    0,798;    0,955
755,951;20293,663;   -0,112;    3,682
756,520;19941,201;    2,525;    1,864
757,089;20446,830;    1,888;    0,500
757,658;20547,368;    2,434;    1,227
758,227;20554,452;   -1,111;    0,318
758,795;20798,990;   -1,021;    1,136
759,364;21075,619;    0,525;   -0,591
759,933;20148,884;    1,343;   -0,045
760,501;19744,604;    0,252;   -1,318
761,070;20166,233;   -0,293;   -1,409
761,639;20818,226;    1,434;    1,318
762,207;20173,036;    0,889;   -0,955
762,776;20102,120;    2,889;    0,864
763,344;20082,931;    0,071;    0,591
763,913;19290,651;    1,616;    1,409
764,481;19962,916;    1,980;   -0,136
765,049;19826,363;    0,616;    1,409
765,618;19705,174;    1,434;    0,318
766,186;19811,166;    2,434;    0,136
766,754;19971,341;    1,798;    1,864
767,322;19056,697;    1,162;    0,409
767,890;19022,417;    0,525;   -1,773
768,459;19431,773;    2,616;   -0,318
769,027;19612,766;    2,525;    3,409
769,595;18699,122;    2,616;    2,591
770,163;19094,205;    3,344;    2,955
770,730;18900,198;    2,525;   -0,136
771,298;18802,554;    1,162;   -1,409
771,866;18860,638;    0,253;    4,955
772,434;19134,358;    1,162;   -1,864
773,002;19301,987;    2,616;    0,682
773,569;19036,161;    1,071;    1,682
774,137;18815,881;    0,889;   -0,045
774,705;19531,783;   -0,747;   -0,136
775,272;19102,139;    0,253;    0,682
775,840;18920,586;   -0,111;    2,682
776,407;18447,306;   -0,293;    1,955
776,975;18094,662;    1,162;    0,318
777,542;19024,564;    2,162;   -0,045
778,110;18928,011;    0,707;   -0,045
778,677;18610,549;    1,071;   -0,864
779,244;18421,087;   -1,020;    1,045
779,812;18476,807;    0,980;    0,864
780,379;18361,890;    2,435;    1,136
780,946;18580,065;    2,617;   -0,773
781,513;18870,875;   -0,565;    0,318
782,080;18303,959;    1,253;    2,864
782,647;18961,770;    1,708;    3,045
783,214;18593,762;   -0,201;    3,864
783,781;18244,300;    1,708;   -0,682
784,348;18165,838;    0,253;    1,500
784,915;18528,649;   -1,474;    0,318
785,482;18306,005;    2,708;    2,591
786,049;18735,634;    1,071;   -0,591
786,615;18883,445;    1,708;   -0,955
787,182;18645,892;   -3,201;   -0,682
787,749;18371,521;   -2,201;    1,409
788,315;17710,423;    0,253;   -0,409
788,882;18008,961;    0,981;   -1,227
789,448;18643,772;    1,435;   -0,955
790,015;18624,583;    1,799;    3,227
790,581;18257,484;    0,708;    0,227
791,148;18201,386;    1,344;    1,045
791,714;18390,378;   -1,019;    3,136
792,280;18098,735;    3,708;    1,591
792,847;17727,364;   -0,928;    2,500
793,413;18205,265;   -0,110;   -0,318
793,979;17822,258;    1,526;   -1,318
794,545;17918,705;    2,981;    2,682
795,111;17432,516;    2,435;    1,318
795,678;17594,599;    3,526;   -1,682
796,244;17254,865;    2,799;    0,136
796,810;17724,766;    0,799;    0,773
797,375;17492,395;   -0,292;   -2,136
797,941;17493,206;   -1,110;    0,591
798,507;17601,108;    0,254;   -0,955
799,073;17198,191;    2,708;    0,591
799,639;17299,911;    1,435;    3,136
800,205;17328,449;   -1,565;    2,682
800,770;16945,896;    1,345;    1,773
801,336;17001,889;    2,981;   -0,955
801,901;16753,063;    6,072;    3,136
802,467;17263,965;    0,526;    2,045
803,033;16651,412;   -0,019;    0,864
803,598;16823,859;    1,072;   -1,045
804,163;16871,488;    0,708;   -0,318
804,729;16861,208;   -0,110;    1,136
805,294;17176,110;    1,072;    2,227
805,859;17024,466;    0,890;   -0,409
806,425;16612,095;    3,890;    2,682
806,990;16235,633;    1,890;    4,318
807,555;16691,171;   -0,110;    2,591
808,120;16650,073;   -1,292;   -0,409
808,685;16693,520;    1,072;   -2,500
809,250;16243,876;    2,072;   -0,500
809,815;16493,323;   -0,201;    0,682
810,380;16975,043;    0,981;    1,591
810,945;17425,854;    2,890;    2,045
811,510;16718,756;   -0,200;    1,591
812,075;16483,657;    2,800;   -1,409
812,640;16510,832;    3,709;    1,409
813,204;16580,824;    2,163;   -0,227
813,769;17030,999;    0,254;   -0,045
814,334;16522,719;    0,527;    0,864
814,898;16557,529;    1,981;    0,591
815,463;16314,704;    0,981;   -0,773
816,027;16363,787;    1,345;   -2,318
816,592;16496,143;    2,163;   -2,045
817,156;16084,863;   -2,200;    1,136
817,721;15941,583;    0,982;    2,318
818,285;15933,212;    0,618;    1,500
818,849;16467,114;   -0,018;    1,682
819,414;16430,288;    0,073;    2,955
819,978;16059,826;   -0,291;    1,773
820,542;16576,728;    2,891;    0,500
821,106;16335,902;    2,800;    0,682
821,670;16396,350;    2,709;    2,591
822,234;16122,706;    1,073;    1,409
822,798;15607,698;   -0,836;    0,500
823,362;15643,691;    1,527;    4,227
823,926;15107,774;   -0,018;    1,136
824,490;15263,767;    3,527;   -0,682
825,054;15609,941;    2,527;   -1,136
825,618;15365,479;   -1,200;   -1,500
826,181;15270,745;    0,982;   -1,318
826,745;15215,737;   -0,745;   -1,045
827,309;15504,548;    2,255;    1,318
827,872;15015,541;    0,527;    0,955
828,436;15886,352;    1,982;   -0,773
828,999;16014,981;    2,436;    1,227
829,563;14955,155;   -0,654;    1,136
830,126;14786,966;   -0,018;   -0,591
830,690;14797,958;    0,709;    2,864
831,253;14382,405;   -0,473;    2,227
831,816;14523,307;   -0,018;    0,500
832,380;14465,845;    1,164;    0,864
832,943;14680,565;    3,073;   -0,500
833,506;14188,103;    0,255;   -1,227
834,069;14952,914;    2,164;   -0,955
834,632;15044,997;   -2,200;    1,318
835,195;14944,081;    1,346;    0,955
835,758;14225,892;    0,709;    1,955
836,321;14080,248;    1,073;   -1,045
836,884;14165,150;   -1,291;   -0,955
837,447;14229,960;    0,528;    1,773
838,010;14476,498;    1,800;    3,227
838,573;14709,945;    0,528;    0,773
839,135;14715,393;   -0,109;   -0,955
839,698;14204,476;    2,528;    0,409
840,261;13790,378;    0,255;   -0,227
840,823;13683,643;   -0,927;    0,864
841,386;13958,818;   -0,018;   -2,409
841,948;13871,992;    0,255;    1,773
842,511;13583,439;    0,255;    1,682
843,073;13712,159;    2,982;    0,227
843,636;13571,242;    0,619;   -0,227
844,198;13499,144;    1,255;    0,591
844,760;13657,773;    0,619;    1,955
845,322;13299,675;    0,164;    1,136
845,885;13669,576;   -0,290;    0,591
846,447;14077,842;    0,710;    0,227
847,009;13707,016;    3,983;   -0,682
847,571;13980,372;    1,346;   -2,045
848,133;14045,092;   -0,199;   -1,864
848,695;13906,721;    2,346;    1,409
849,257;13525,623;    1,346;   -1,682
849,819;13707,252;    2,983;   -0,409
850,381;13689,244;    1,801;   -0,864
850,942;13954,419;    1,892;   -0,591
851,504;13890,411;    0,983;    0,227
852,066;13961,495;    1,619;   -1,591
852,628;13629,397;    0,165;    1,955
853,189;13167,662;    0,256;    2,682
853,751;13326,655;   -0,654;    1,409
854,312;13149,829;    1,256;   -1,682
854,874;13536,912;   -0,108;   -0,773
855,435;13993,905;    0,528;   -1,682
855,997;14168,170;    3,983;   -0,136
856,558;13527,981;    0,801;    1,773
857,119;13594,337;   -0,744;    2,864
857,681;13369,512;   -0,108;    0,318
858,242;13391,504;    1,347;   -2,136
858,803;13773,406;    1,074;   -0,773
859,364;14274,035;    0,892;   -4,773
859,925;13757,391;   -0,290;   -0,955
860,486;13609,202;    0,529;   -0,955
861,047;13375,104;    0,165;   -1,227
861,608;13195,642;    0,165;   -0,773
862,169;13349,089;   -0,562;   -0,045
862,730;13130,263;   -0,290;    1,409
863,291;13398,529;    0,438;   -0,500
863,852;13668,976;   -0,926;    1,955
864,412;13219,514;   -1,835;   -0,864
864,973;11984,052;    1,892;    0,500
865,534;11888,590;    2,074;    0,227
866,094;13173,673;    2,620;    0,227
866,655;12893,484;    4,711;    3,318
867,215;13179,295;    0,074;    0,136
867,776;13052,378;   -1,199;   -0,136
868,336;13105,553;    1,529;    0,136
868,897;12676,455;    3,438;    1,682
869,457;12482,356;    3,256;    0,318
870,017;12736,531;    2,438;   -1,227
870,578;13155,251;    1,893;    0,773
871,138;12790,698;    2,620;   -0,955
871,698;12394,418;   -0,562;   -1,318
872,258;12303,592;    0,711;   -2,864
872,818;12631,948;    2,347;    0,045
873,378;12617,577;   -2,198;    1,045
873,938;12228,388;    4,984;    0,500
874,498;12492,108;    1,256;   -1,955
875,058;12414,555;    4,347;    1,773
875,618;12319,457;    1,438;   -2,682
876,177;12241,995;   -0,471;    0,136
876,737;11877,896;   -0,289;    1,955
877,297;11943,707;    2,711;    1,955
877,856;11967,791;    2,529;    0,318
878,416;11910,420;    2,438;   -0,136
878,976;12097,594;    3,438;    0,409
879,535;12262,405;    4,529;    3,136
880,095;12055,943;    1,347;    0,045
880,654;12132,572;    0,347;    1,318
881,213;12266,019;    2,347;    1,500
881,773;11917,830;    1,984;    2,682
882,332;12244,822;    6,075;    5,136
882,891;12144,269;    0,711;    2,136
883,451;12503,535;   -2,016;    1,682
884,010;12018,709;   -1,107;   -0,409
884,569;12078,065;   -2,289;   -0,045
885,128;12188,694;   -0,743;   -1,864
885,687;12268,960;   -0,743;    0,682
886,246;12001,498;    2,620;    2,136
886,805;11799,945;    1,620;    2,045
887,364;12021,574;    1,166;   -0,500
887,922;12353,294;   -0,016;    0,045
888,481;11882,468;    1,530;    0,591
889,040;12168,279;    3,711;    2,136
889,599;12671,726;    2,166;    1,409
890,157;12777,719;    2,166;    2,409
890,716;12418,802;    2,166;    0,227
891,274;12243,158;    0,075;   -1,136
891,833;12621,696;    1,166;    0,864
892,391;12479,416;    1,802;    0,500
892,950;12559,227;    0,166;   -0,773
893,508;12913,310;    0,984;   -0,409
894,067;12289,848;   -0,379;    0,136
894,625;12229,205;   -1,016;   -1,500
895,183;12430,288;   -0,198;   -0,682
895,741;12380,190;    2,257;   -1,773
896,299;12221,455;    1,621;   -2,409
896,858;12347,539;    1,530;   -1,591
897,416;12496,895;    0,166;   -1,318
897,974;12271,160;   -2,197;    0,318
898,532;12427,244;    6,530;    2,682
899,089;12345,236;    0,621;   -0,682
899,647;12409,956;    0,530;    1,318
900,205;12218,312;    0,257;    1,045
900,763;12356,032;    2,166;    0,227
901,321;12384,570;    3,530;   -1,409
901,878;11883,836;    3,257;   -0,773
902,436;11821,919;    0,257;    1,318
902,994;12197,366;    6,712;    3,682
903,551;11684,813;    1,439;    0,409
904,109;12040,442;    1,530;   -1,409
904,666;11730,344;    1,439;    1,045
905,224;11568,428;    3,894;   -0,409
905,781;11361,511;   -0,470;   -0,318
906,338;11409,776;    0,167;    1,045
906,895;11406,769;    1,894;    2,045
907,453;11344,216;    2,348;    1,136
908,010;11372,300;    3,348;    0,409
908,567;11063,929;   -0,561;    0,591
909,124;10613,648;    2,439;   -1,500
909,681;10648,187;   -1,288;    0,682
910,238;10872,179;   -0,106;   -1,318
910,795;11171,626;   -1,561;   -1,136
911,352;10838,990;   -0,379;   -2,682
911,909;10376,354;    2,803;   -0,864
912,466;10775,808;    1,985;    1,500
913,022;10364,444;   -0,924;    0,500
913,579;10711,626;   -0,470;    2,045
914,136;10486,263;   -2,561;    0,955
914,692;10785,535;    1,530;   -1,227
915,249;10407,444;    0,530;    0,409
915,806;10604,626;    1,803;    1,955
916,362;10469,535;    0,894;    1,864
916,918;10035,263;    2,439;    1,045
917,475;10038,717;    1,621;    0,955
918,031;10115,263;    0,076;   -0,045
918,587; 9700,626;    0,621;   -0,318
919,144; 9906,899;   -0,379;    0,227
919,700;10127,899;    0,167;    0,773
920,256; 9774,899;    0,439;    0,045
920,812; 9514,990;    1,439;   -1,045
921,368; 9553,899;    1,348;   -1,045
921,924; 9223,172;    0,439;   -0,136
922,480; 8863,808;    0,076;    1,227
923,036; 9415,444;   -0,652;    1,955
923,592; 9380,444;    0,621;    0,318
924,148; 9320,263;    1,894;   -0,955
924,704; 8784,263;    0,258;   -0,409
925,259; 9061,263;   -0,561;    0,591
925,815; 8831,808;    3,803;    0,500
926,371; 8443,990;    3,530;    1,409
926,926; 8372,081;    1,621;    0,591
927,482; 8070,899;    1,621;    0,773
928,037; 8019,081;   -0,833;    2,045
928,593; 8303,172;    0,258;    1,045
929,148; 8160,990;    1,167;   -1,500
929,704; 7745,990;    2,439;   -0,500
930,259; 7918,899;    0,894;   -0,136
930,814; 7188,626;    1,803;    1,955
931,369; 6959,626;    0,258;   -0,773
931,925; 6908,535;   -1,924;    0,136
932,480; 6825,899;    3,076;   -2,591
933,035; 6778,717;    3,985;   -0,318
933,590; 6578,354;   -1,742;   -1,773
934,145; 6323,354;   -1,288;   -0,318
934,700; 6615,626;    0,348;   -0,591
935,255; 6480,626;    4,803;    0,045
935,809; 5986,444;    6,258;    0,864
936,364; 5282,263;    2,167;   -0,136
936,919; 5307,899;    2,348;   -1,773
937,474; 5241,172;    1,348;    0,136
938,028; 5051,263;    3,076;    1,136
938,583; 4696,263;    6,348;    4,682
939,138; 4903,535;    0,167;    2,136
939,692; 4445,535;   -1,015;   -1,136
940,247; 4240,081;    1,167;   -1,045
940,801; 3956,263;    0,621;    0,227
941,355; 3905,717;    0,439;    2,591
941,910; 3625,354;    0,712;   -2,136
942,464; 3711,172;    2,712;   -0,318
943,018; 3614,263;    3,258;   -0,227
943,572; 3551,808;    2,803;   -0,682
944,126; 3136,808;   -0,924;   -0,409
944,681; 3030,535;    0,712;    0,227
945,235; 3007,535;    2,167;   -0,591
945,789; 2962,354;    1,258;   -1,864
946,342; 3149,081;   -0,561;   -0,591
946,896; 2920,717;    0,348;    0,955
947,450; 2704,444;   -0,561;   -0,227
948,004; 2932,444;    1,076;   -0,045
948,558; 2901,535;    1,258;   -0,864
949,111; 2823,172;   -1,197;   -0,318
949,665; 2944,081;   -0,106;   -0,682
950,219; 2838,354;    0,621;   -1,045
950,772; 2849,535;    0,258;    1,864
951,326; 2793,172;   -1,106;   -0,955
951,879; 2838,444;    1,076;   -2,318
952,433; 2901,990;    1,348;    2,227
952,986; 2721,081;    0,348;    0,682
953,539; 2671,354;    1,530;    0,591
954,093; 2628,990;    0,985;   -1,318
954,646; 2762,535;   -0,288;    1,318
955,199; 2595,626;    1,258;   -0,500
955,752; 2565,626;    1,985;    1,773
956,305; 2507,990;    0,894;    2,955
956,858; 2635,808;    0,621;   -0,318
957,411; 2783,808;    3,621;    2,136
957,964; 2609,444;    2,076;    2,136
958,517; 2577,444;    0,985;    3,136
959,070; 2470,354;   -1,197;    1,955
959,623; 2642,899;    1,076;    1,500
960,176; 2443,899;    0,712;    2,045
960,728; 2409,626;    1,712;    0,773
961,281; 2461,990;    2,258;    0,500
961,834; 2458,263;   -0,833;    0,864
962,386; 2405,899;    1,258;    1,045
962,939; 2325,444;    3,439;   -0,318
963,491; 2441,081;    2,621;    1,136
964,043; 2352,535;    0,076;    2,409
964,596; 2477,899;    1,712;    2,227
965,148; 2322,808;   -0,379;    1,773
965,700; 2249,172;   -0,015;   -0,227
966,253; 2387,899;   -0,833;    0,318
966,805; 2277,444;    1,894;    0,773
967,357; 2275,899;    0,439;   -1,500
967,909; 2282,354;    1,167;   -1,227
968,461; 2318,899;    0,894;    3,136
969,013; 2249,626;   -1,561;   -0,864
969,565; 2362,717;    1,803;   -1,136
970,117; 2544,172;    3,803;    1,045
970,669; 2307,990;    3,258;   -0,136
971,220; 2131,717;    2,167;   -1,500
971,772; 2104,990;    1,348;   -0,318
972,324; 2235,081;   -1,197;   -0,500
972,876; 2156,535;    0,167;   -0,045
973,427; 2298,081;   -1,197;   -1,045
973,979; 2293,535;    0,076;   -2,500
974,530; 2234,626;    0,803;    1,318
975,082; 2237,444;    2,167;    1,682
975,633; 2175,626;    2,894;    1,682
976,184; 2319,899;    2,076;    0,773
976,736; 2184,990;    0,348;    0,227
977,287; 2038,535;    0,258;   -0,500
977,838; 2154,172;   -0,924;   -0,318
978,389; 2199,354;    0,803;   -0,500
978,940; 2069,717;    1,258;   -0,409
979,491; 2079,626;    2,258;   -0,500
980,042; 2092,354;   -0,652;    3,045
980,593; 2110,717;    1,894;    0,227
981,144; 2194,808;    3,530;   -0,500
981,695; 2207,263;   -0,470;    1,500
982,246; 2158,990;   -1,833;    1,045
982,797; 2206,990;   -0,561;    0,682
983,347; 2326,899;    2,167;    0,591
983,898; 2520,808;    4,167;    0,409
984,449; 2372,808;    2,530;    0,773
984,999; 2237,717;    1,894;   -1,136
985,550; 2089,354;    3,167;   -0,318
986,100; 2047,808;    0,712;   -0,318
986,651; 2068,081;    0,258;    0,045
987,201; 2081,990;    0,894;   -0,591
987,751; 2142,626;   -0,288;    2,864
988,302; 2151,444;   -0,379;    1,500
988,852; 2155,808;    1,985;   -1,136
989,402; 2234,081;    0,985;    0,682
989,952; 2188,172;    1,621;    0,864
990,502; 2211,263;    1,076;    0,682
991,052; 2150,626;   -0,106;    0,045
991,602; 2043,717;    1,167;    1,318
992,152; 2069,535;    2,803;    0,682
992,702; 2063,717;    1,167;   -0,045
993,252; 1994,172;    0,076;   -0,500
993,802; 2093,717;    1,167;    1,318
994,352; 2256,899;   -0,742;    1,136
994,901; 2299,990;    1,076;    3,227
995,451; 2235,808;   -1,197;    0,318
996,000; 2298,444;    1,076;    0,318
996,550; 2094,990;    2,894;    0,227
997,100; 2089,444;   -0,561;   -0,045
997,649; 2338,899;   -0,197;    0,955
998,198; 2049,808;   -0,288;   -1,500
998,748; 2229,626;    0,348;   -2,318
999,297; 2113,717;    0,985;   -0,409
999,846; 2224,535;    1,894;   -0,773
1000,395; 2201,354;    1,530;    0,500
1000,945; 2236,990;    1,076;   -0,773
1001,494; 2301,444;    0,167;    0,682
1002,043; 2282,354;    0,712;    0,864
1002,592; 2091,535;    3,439;    1,955
1003,141; 2213,899;    2,439;   -0,682
1003,690; 2145,263;    1,258;    0,500
1004,238; 2146,263;   -0,106;   -0,045
1004,787; 1866,899;   -1,288;    1,227
1005,336; 2117,899;    1,621;    0,682
1005,885; 2190,717;   -0,197;   -2,773
1006,433; 2265,808;   -0,470;    0,955
1006,982; 2430,172;    2,167;    1,682
1007,531; 2278,990;    2,712;   -0,227
1008,079; 2176,172;    0,258;    0,500
1008,627; 2289,899;    1,621;    0,409
1009,176; 2106,444;    0,076;   -1,955
1009,724; 2140,808;   -2,742;    0,864
1010,273; 2237,444;    1,076;    0,500
1010,821; 2270,263;    1,076;    1,409
1011,369; 2056,263;    0,076;    1,318
1011,917; 2057,444;   -0,833;   -0,591
1012,465; 2296,535;    2,530;   -1,591
1013,013; 2365,899;    0,439;   -1,682
1013,561; 2312,535;   -1,288;   -0,773
1014,109; 2389,808;   -0,833;    1,682
1014,657; 2247,626;    1,348;    0,591
1015,205; 2304,899;    0,894;   -0,955
1015,753; 2293,172;    0,258;   -1,409
1016,301; 2348,081;    2,621;    3,045
1016,848; 2375,990;    2,167;    0,409
1017,396; 2424,172;    1,621;    0,045
1017,944; 2495,990;    2,621;    1,864
1018,491; 2272,990;   -0,197;    1,409
1019,039; 2542,354;   -0,652;    0,591
1019,586; 2373,081;    0,076;    1,682
1020,134; 2433,263;    0,712;    1,500
1020,681; 2459,717;    2,894;   -1,136
1021,228; 2427,717;   -0,561;   -2,227
1021,776; 2289,990;   -0,833;   -1,136
1022,323; 2543,990;    0,803;    0,773
1022,870; 2474,081;   -0,470;   -0,045
1023,417; 2430,990;    2,076;    1,864
1023,964; 2452,899;    0,621;    1,227
1024,511; 2350,444;   -0,652;    0,773
1025,058; 2196,717;    0,439;   -0,045
1025,605; 2232,263;   -1,742;    3,136
1026,152; 2488,717;   -0,106;   -0,591
1026,699; 2214,354;    0,167;    1,318
1027,245; 2336,808;    2,439;    0,318
1027,792; 2473,354;    0,712;    1,409
1028,339; 2459,990;    4,076;   -0,045
1028,885; 2303,990;    3,621;   -0,227
1029,432; 2233,081;   -0,106;    0,227
1029,978; 2327,626;    1,348;   -1,591
1030,525; 2233,354;    1,621;    0,409
1031,071; 2385,354;    0,348;    1,136
1031,618; 2589,626;    1,258;    1,682
1032,164; 2359,808;    2,076;    3,045
1032,710; 2391,899;    0,076;   -1,500
1033,256; 2306,626;    0,712;   -0,136
1033,803; 2240,535;   -0,288;    1,500
1034,349; 2021,081;    1,803;    0,136
1034,895; 2165,808;    2,621;   -0,318
1035,441; 2165,808;    0,439;    0,318
1035,987; 2183,626;   -2,288;   -0,682
1036,533; 2217,263;   -0,197;   -0,955
1037,078; 2432,990;    4,712;    1,682
1037,624; 2262,263;    2,439;   -0,955
1038,170; 2203,081;    1,712;   -0,318
1038,716; 2182,172;    2,167;   -0,409
1039,261; 2070,263;    2,167;   -0,773
1039,807; 2041,626;   -0,015;    3,409
1040,352; 2116,990;   -1,288;   -0,318
1040,898; 2133,172;    0,167;   -0,682
1041,443; 2046,626;    0,803;   -2,591
1041,989; 2197,263;    3,621;    1,591
1042,534; 2021,808;    0,985;    2,591
1043,079; 2044,808;    1,985;    0,955
1043,625; 1910,535;    0,258;    0,500
1044,170; 1986,535;    2,439;    1,045
1044,715; 2241,990;    0,167;    0,955
1045,260; 2077,535;   -0,833;   -0,955
1045,805; 2053,808;    0,258;   -0,591
1046,350; 1985,354;    0,530;   -0,409
1046,895; 2051,354;    0,803;    1,591
1047,440; 2028,263;    1,530;    0,409
1047,985; 1892,990;   -1,197;   -0,955
1048,530; 1820,081;    1,348;    1,227
1049,074; 1891,717;    2,803;    0,318
1049,619; 1847,172;   -0,924;    1,955
1050,164; 1686,808;    1,076;    0,227
1050,708; 1760,263;    2,621;    0,045
1051,253; 2150,990;    3,258;   -2,227
1051,797; 1855,626;   -0,197;   -1,318
1052,342; 1776,899;    1,348;    1,045
1052,886; 1816,263;    1,803;   -1,409
1053,430; 1696,717;    2,167;    0,136
1053,975; 1720,990;    0,894;   -0,318
1054,519; 1730,808;    1,803;    3,227
1055,063; 1784,990;    3,621;    1,318
1055,607; 1696,354;    1,348;    0,227
1056,151; 1718,990;    0,530;    1,682
1056,695; 1604,717;   -1,833;   -1,136
1057,239; 1653,172;   -1,197;   -0,682
1057,783; 1678,263;    2,258;   -1,500
1058,327; 1673,717;    3,076;    1,409
1058,871; 1903,535;    3,985;    1,318
1059,415; 1640,990;   -0,561;   -0,045
1059,958; 1919,535;    2,985;    2,591
1060,502; 1630,172;    1,348;   -0,773
1061,046; 1500,172;    1,712;   -0,955
1061,589; 1453,899;    2,803;   -1,136
1062,133; 1372,626;    0,985;    1,864
1062,676; 1358,626;    1,439;    0,864
1063,220; 1380,899;    0,985;    0,500
1063,763; 1415,808;    2,985;    1,136
1064,306; 1476,626;    0,985;    1,864
1064,849; 1391,808;    2,076;    0,591
1065,393; 1397,990;    2,894;   -1,500
1065,936; 1467,354;    2,530;   -0,409
1066,479; 1343,354;    2,621;    1,318
1067,022; 1377,444;    1,894;   -0,227
1067,565; 1288,172;   -1,197;   -1,318
1068,108; 1299,081;    1,258;   -0,591
1068,651; 1266,172;   -2,470;    1,409
1069,194; 1216,626;   -1,106;   -1,682
1069,736; 1231,717;    3,803;    0,955
1070,279; 1201,626;   -1,652;   -0,500
1070,822; 1291,717;    1,530;   -0,318
1071,364; 1402,535;    0,530;    1,318
1071,907; 1208,081;    0,348;    3,227
1072,450; 1073,354;    0,258;   -0,045
1072,992; 1116,626;   -0,561;    3,136
1073,535; 1267,172;    0,167;    2,136
1074,077; 1071,990;    2,985;    2,045
1074,619; 1057,626;    0,985;    0,591
1075,161; 1069,535;   -0,561;    1,500
1075,704; 1258,172;    0,258;    1,227
1076,246; 1055,444;    1,530;    0,682
1076,788;  967,626;   -1,015;    1,773
1077,330; 1028,808;   -2,106;    2,136
1077,872; 1030,626;   -1,924;    0,955
1078,414; 1271,808;    3,712;    0,773
1078,956; 1013,354;    0,167;   -0,227
1079,498; 1278,717;    0,439;    0,318
1080,040;  999,626;    0,985;   -1,318
1080,581;  932,990;    0,621;   -0,318
1081,123;  848,535;   -0,106;   -0,773
1081,665;  894,626;    3,803;   -0,955
1082,206; 1200,717;    3,258;   -0,500
1082,748; 1053,263;    3,258;    2,045
1083,289;  932,354;    0,167;    1,318
1083,831;  870,717;    0,258;    0,227
1084,372;  912,626;    0,894;    0,591
1084,913;  905,444;    3,348;    0,864
1085,455;  858,354;    1,530;   -2,045
1085,996;  855,899;    0,530;    0,136
1086,537;  900,081;    0,985;    0,864
1087,078;  911,626;    0,439;   -2,136
1087,619;  966,717;   -1,652;    0,227
1088,160;  882,081;    1,439;    1,318
1088,701;  864,172;   -0,742;    0,682
1089,242;  810,899;   -0,561;   -2,227
1089,783;  909,354;   -0,561;    1,409
1090,324;  881,535;   -0,833;    0,682
1090,865;  760,899;   -1,924;   -0,409
1091,405;  720,263;   -0,561;    2,227
1091,946;  745,081;   -0,197;   -0,955
1092,487;  677,717;   -1,288;   -1,409
1093,027;  860,263;    1,803;   -1,500
1093,568;  728,717;    2,258;    1,227
1094,108;  810,990;    0,621;    1,773
1094,649;  756,899;   -0,470;    0,136
1095,189;  693,172;    1,167;   -0,682
1095,729;  660,172;    0,712;    0,955
1096,269;  653,444;    1,258;   -0,955
1096,810;  957,717;   -0,197;    0,500
1097,350;  807,990;   -0,561;   -0,773
1097,890;  704,354;    2,985;    1,227
1098,430;  958,444;    4,985;    2,864
1098,970;  839,172;    1,894;    1,682
1099,510;  689,626;   -0,833;   -2,318
1100,050;  631,808;    0,258;   -1,591
1100,589;  610,626;    0,076;   -0,318
1101,129;  723,444;    0,894;   -0,955
1101,669;  877,626;    2,803;    2,136
1102,209;  713,899;    1,530;    2,227
1102,748;  663,263;    3,439;    0,955
1103,288;  660,535;    0,712;   -1,227
1103,827;  679,626;    3,530;   -2,227
1104,367;  573,626;    1,712;   -2,409
1104,906;  542,990;   -1,015;   -1,136
1105,445;  621,172;    0,985;   -1,136
1105,985;  565,354;   -0,652;    1,500
1106,524;  600,626;    1,530;   -0,682
1107,063;  586,535;    1,167;    1,409
1107,602;  553,626;    1,894;   -1,500
1108,141;  495,990;    1,621;    1,500
1108,680;  600,081;    3,985;   -0,591
1109,219;  537,172;    0,167;   -0,500
1109,758;  533,899;    4,167;    0,682
1110,297;  518,081;   -1,106;   -0,682
1110,836;  463,081;    1,439;    0,955
1111,375;  602,444;    0,348;    0,409
1111,913;  613,899;    0,985;    0,773
1112,452;  554,808;    0,894;    0,136
1112,991;  449,899;    1,076;    1,955
1113,529;  424,626;    0,167;   -0,045
1114,068;  492,717;    0,439;    2,955
1114,606;  404,263;   -0,561;   -0,955
1115,144;  551,899;    1,530;    1,045
1115,683;  488,899;    1,985;    0,318
1116,221;  535,444;    2,076;   -0,864
1116,759;  452,899;    1,621;   -0,864
1117,297;  628,354;    1,621;    1,864
1117,836;  459,990;    1,985;   -1,227
1118,374;  476,808;    0,258;   -0,682
1118,912;  426,172;    0,439;    2,682
1119,450;  409,626;    0,985;    0,864
1119,988;  445,990;    3,348;    2,136
1120,525;  885,535;    7,258;    3,318
1121,063;  594,626;    0,530;    1,864
1121,601;  429,535;    1,076;   -1,227
1122,139;  391,444;    1,076;   -2,045
1122,676;  572,535;   -1,652;    2,773
1123,214;  507,717;    0,712;    4,409
1123,751;  327,172;    0,621;    2,227
1124,289;  442,899;    0,894;   -0,409
1124,826;  336,626;   -0,379;    0,227
1125,364;  267,081;    0,712;   -0,955
1125,901;  450,172;    6,258;    1,227
1126,438;  539,990;    3,530;    0,955
1126,975;  290,899;    2,985;   -0,773
1127,513;  344,717;    2,621;    2,136
1128,050;  275,444;   -0,561;   -0,682
1128,587;  364,626;    1,348;   -0,227
1129,124;  403,899;   -0,015;    1,318
1129,661;  292,535;   -1,924;    0,227
1130,198;  440,626;    2,439;    0,773
1130,734;  384,990;   -0,379;    1,409
1131,271;  254,354;   -1,197;    0,864
1131,808;  410,808;    1,621;    3,045
1132,345;  298,717;    4,530;    0,318
1132,881;  192,081;   -0,561;   -1,864
1133,418;  318,717;    0,348;   -1,136
1133,954;  262,354;    0,712;   -2,682
1134,491;  327,717;    1,712;   -0,773
1135,027;  241,899;    2,167;    0,864
1135,564;  320,354;    1,439;    2,955
1136,100;  300,535;   -0,742;    2,136
1136,636;  206,354;   -1,015;   -1,045
1137,172;  292,899;    0,894;   -1,045
1137,708;  222,899;   -1,561;   -1,045
1138,245;  223,081;    0,803;   -1,227
1138,781;  182,626;    1,803;   -3,318
1139,317;  235,172;    1,894;   -1,409
1139,852;  234,081;    3,076;    0,136
1140,388;  330,808;    2,076;   -0,409
1140,924;  231,444;    1,076;   -2,227
1141,460;  177,899;   -0,288;    0,136
1141,996;  119,263;   -0,652;    2,682
1142,531;  170,263;    1,076;    3,318
1143,067;  353,626;    1,167;    1,045
1143,602;  404,535;    3,439;   -0,318
1144,138;  264,899;    0,803;    1,045
1144,673;  147,354;    1,621;    1,409
1145,209;  208,081;    2,894;   -0,318
1145,744;  143,354;    0,803;    0,864
1146,279;  264,899;    1,530;   -0,136
1146,815;  187,535;    1,530;   -2,682
1147,350;  223,535;   -0,924;    0,045
1147,885;  146,172;   -1,924;   -1,318
1148,420;  148,717;    2,439;    0,773
1148,955;  123,626;   -1,470;    1,864
1149,490;  151,899;   -1,106;   -1,591
1150,025;  133,081;   -1,106;   -1,773
1150,560;  231,899;   -0,288;   -0,955
1151,094;  199,808;    0,258;   -0,591
1151,629;  205,899;   -3,742;    0,864
1152,164;  145,990;   -1,288;    1,318
1152,698;  104,808;    1,258;   -0,136
1153,233;   73,081;   -1,379;   -0,682
1153,767;  115,717;   -0,288;   -2,318
1154,302;  159,354;   -0,379;    1,773
1154,836;  158,717;    0,803;   -2,136
1155,371;  205,444;    2,258;    3,682
1155,905;  163,899;    1,985;    1,682
1156,439;  138,626;    0,530;   -0,500
1156,973;  164,990;    0,439;    0,318
1157,507;  110,535;   -1,742;    0,682
1158,042;  134,899;   -0,652;    1,045
1158,576;  173,263;   -0,561;    1,773
1159,110;  168,717;    0,076;    2,409
1159,643;  137,263;   -2,470;   -0,045
1160,177;   87,899;   -2,015;    1,500

