
Integration time [ms]:   0,050
Averaging Nr. [scans]: 11
Smoothing Nr. [pixels]: 0
Data measured with spectrometer [name]: 7318044SP
Wave   ;Sample   ;Dark     ;Reference
[nm]   ;[counts] ;[counts] ;[counts] 

186,757;  -13,053;   38,161;    1,318
187,357;   11,968;   26,706;    0,955
187,958;   -0,322;   17,252;   -1,591
188,558;   37,757;   12,979;   -1,227
189,159;   14,342;   10,070;   -4,500
189,759;  -13,056;    5,797;   -3,591
190,360;  -14,341;    6,797;   -2,136
190,960;   12,127;    5,706;   -4,136
191,560;   26,062;    2,614;   -6,591
192,161;  212,963;    5,885;   -3,500
192,761;   84,151;    5,520;   -3,227
193,361;   38,383;    3,065;   -3,773
193,962;   80,647;    1,612;   -2,682
194,562;   20,459;   -0,114;   -3,955
195,162;   33,573;   -0,567;   -2,227
195,762;  154,099;    2,433;   -0,045
196,362;  101,144;    1,706;   -2,500
196,963;    9,694;    1,706;   -0,864
197,563;   64,216;    1,252;   -0,955
198,163;   12,197;   -0,111;   -0,682
198,763;   27,801;   -0,020;   -0,500
199,363;   91,962;    3,616;   -0,500
199,963;   67,992;    2,162;    0,409
200,563;   50,981;    6,344;   -1,409
201,163;   26,709;    5,435;   -0,227
201,763;   69,145;    1,435;    0,318
202,363;   39,420;    0,980;    1,500
202,963;   89,089;    1,526;    1,045
203,563;  152,534;    0,344;    0,500
204,162;   69,458;    1,889;   -1,864
204,762;   65,529;    2,071;    0,591
205,362;   44,706;    0,708;    1,955
205,962;   85,069;    3,435;    1,955
206,562;   88,794;    1,889;    2,318
207,161;   61,175;    1,708;    0,318
207,761;  177,917;    4,435;    2,409
208,361;   86,465;    1,889;    1,409
208,960;  136,566;    2,889;    1,500
209,560;  154,631;    0,435;    1,591
210,160;  160,669;    5,071;    1,864
210,759;  123,299;    0,708;    1,227
211,359;  130,324;   -0,474;    1,045
211,958;  310,226;    3,526;    2,045
212,558;  345,567;    0,799;    1,864
213,157;  232,525;   -0,929;    1,500
213,757;  525,619;    5,617;   -0,227
214,356;  315,590;    1,708;   -0,409
214,956;  523,359;    3,526;    0,409
215,555;  272,274;    0,617;    2,136
216,154;  224,942;   -0,292;   -0,591
216,754;  231,480;    1,253;    0,773
217,353;  298,006;   -0,383;   -1,045
217,952;  180,776;    2,072;    0,318
218,552;  352,961;    0,254;   -0,773
219,151;  266,311;   -1,110;    0,955
219,750;  261,991;    0,890;   -0,227
220,349;  253,858;   -2,292;    1,045
220,948;  382,638;    1,163;    1,136
221,548;  305,484;    0,617;    1,227
222,147;  373,406;   -1,292;   -0,409
222,746;  579,172;    1,254;   -0,955
223,345;  435,918;   -1,019;    0,500
223,944;  440,815;    1,163;    0,773
224,543;  495,948;    4,072;   -1,409
225,142;  565,780;    1,345;    0,136
225,741;  497,537;    1,163;    1,045
226,340;  471,133;    1,254;   -0,955
226,939;  698,944;    2,708;   -0,136
227,538;  519,012;    1,163;   -0,773
228,137;  699,064;    0,435;    0,864
228,735;  633,879;    0,435;    1,227
229,334;  461,780;   -0,474;   -0,227
229,933;  757,487;    0,799;    0,591
230,532;  786,169;   -1,201;   -0,409
231,131;  861,171;    1,253;    0,318
231,729;  728,287;    1,163;   -2,318
232,328;  638,698;    0,435;   -1,500
232,927;  652,753;    4,526;   -0,500
233,525;  632,670;    0,981;    0,045
234,124;  730,774;    1,890;   -1,591
234,723;  631,895;    1,617;   -1,045
235,321;  650,742;    1,163;    0,136
235,920;  736,200;    2,526;   -1,227
236,518;  978,046;    1,072;    0,318
237,117;  814,547;    2,890;   -0,227
237,715;  856,025;    1,163;   -0,500
238,314;  931,363;    1,708;   -2,318
238,912; 1148,758;    0,526;   -1,409
239,510; 1024,561;    1,162;   -1,227
240,109; 1238,937;   -0,474;    3,773
240,707; 1192,924;   -0,474;    1,227
241,305; 1139,345;   -0,383;    0,136
241,904; 1333,073;   -0,292;   -2,045
242,502; 1453,902;    3,253;   -0,227
243,100; 1385,381;    3,344;   -0,955
243,698; 1485,677;    2,799;    1,682
244,297; 1583,693;   -0,656;    0,682
244,895; 1608,735;   -0,474;   -2,318
245,493; 1924,650;    2,981;   -0,591
246,091; 1951,512;    5,163;   -1,318
246,689; 1933,963;    2,163;    0,591
247,287; 1994,473;   -0,019;   -1,136
247,885; 2170,548;   -1,019;    1,227
248,483; 2230,165;   -0,201;   -0,500
249,081; 2370,679;    0,981;    1,591
249,679; 2545,332;   -1,019;    1,682
250,277; 2678,431;   -2,292;    0,864
250,875; 2708,749;    0,617;   -1,045
251,473; 2760,310;   -0,019;    0,500
252,071; 2934,347;   -0,383;    1,045
252,669; 3032,542;   -1,565;    0,318
253,267; 3196,125;    1,618;    0,773
253,864; 3163,746;    0,617;    0,682
254,462; 3302,173;    1,526;    1,591
255,060; 3205,064;    0,072;    1,318
255,658; 3386,270;   -3,292;   -0,136
256,255; 3755,106;   -0,201;   -2,045
256,853; 3709,094;    2,345;    1,409
257,451; 3723,733;    1,981;    1,864
258,048; 4166,714;    2,072;    1,864
258,646; 3835,079;    0,436;   -1,045
259,243; 3999,366;    2,981;    2,227
259,841; 4036,696;    1,799;    0,318
260,438; 3958,793;    0,254;    0,864
261,036; 4475,456;    0,617;    1,409
261,633; 4481,095;    1,526;    2,227
262,231; 4345,381;   -0,110;   -0,045
262,828; 4449,339;   -0,383;    1,136
263,425; 4498,707;   -1,928;   -0,591
264,023; 4711,973;    1,436;    0,045
264,620; 4434,435;    1,526;   -0,318
265,217; 4716,091;    2,890;    3,136
265,815; 4757,308;    2,527;    2,136
266,412; 4702,554;    0,072;    0,136
267,009; 4743,184;    0,526;    0,773
267,606; 4783,442;    0,345;   -0,955
268,203; 4695,866;   -0,383;   -0,591
268,801; 4898,843;   -0,474;    0,591
269,398; 5099,955;   -0,564;    2,500
269,995; 5113,884;    0,890;    1,591
270,592; 4944,539;    0,799;   -0,500
271,189; 5098,532;    1,981;    0,409
271,786; 5226,651;    2,072;    1,227
272,383; 5159,281;   -0,383;    0,227
272,980; 5222,342;    1,617;    0,318
273,577; 5554,403;    2,162;    1,227
274,174; 5175,450;    1,435;    2,591
274,771; 5158,997;    1,890;   -0,773
275,367; 5410,672;    3,253;    1,409
275,964; 5408,780;   -0,565;   -0,500
276,561; 5494,463;   -2,474;   -1,045
277,158; 5605,423;    1,799;   -1,773
277,755; 5766,497;   -0,110;    0,409
278,351; 5279,166;    0,436;   -1,500
278,948; 5573,280;   -0,201;    0,045
279,545; 5587,448;    0,527;    2,318
280,141; 6217,082;    1,254;   -2,045
280,738; 6056,807;    2,435;   -0,136
281,334; 6216,773;   -0,383;    0,591
281,931; 5809,320;    2,890;   -1,318
282,528; 6049,606;    4,072;   -0,500
283,124; 6687,901;    3,345;   -0,500
283,721; 6617,032;    0,709;    1,409
284,317; 6545,114;    0,163;    2,500
284,913; 7091,190;   -0,110;    0,591
285,510; 7376,735;    2,890;   -0,318
286,106; 7411,655;    2,345;   -0,955
286,703; 7025,146;    0,072;    1,955
287,299; 7291,333;    1,254;   -0,591
287,895; 7583,194;    0,890;   -1,045
288,491; 8188,137;    0,163;    2,136
289,088; 8039,775;    0,163;    2,409
289,684; 8151,088;    2,890;    1,500
290,280; 8231,707;    1,890;    0,682
290,876; 8363,036;    0,163;    5,500
291,472; 8339,454;    2,163;    2,227
292,068; 8533,663;    1,254;    0,227
292,665; 8325,878;   -0,564;    0,773
293,261; 8122,994;   -1,292;    2,136
293,857; 8537,245;    4,072;    2,136
294,453; 8564,484;   -0,928;    0,955
295,049; 8521,340;    0,253;    1,955
295,644; 8616,323;   -1,292;    0,136
296,240; 8643,591;    0,162;   -0,136
296,836; 8779,872;   -0,747;    0,318
297,432; 9092,290;    2,980;   -0,500
298,028; 9234,353;    0,435;    0,773
298,624; 9610,974;    0,889;    1,864
299,220; 9892,000;    0,435;    0,591
299,815; 9597,926;    0,526;   -0,409
300,411; 9460,794;    0,435;    1,773
301,007; 9493,069;    1,889;    0,227
301,602; 9611,120;    2,071;   -2,318
302,198; 9801,032;    1,435;   -0,773
302,794;10140,684;    1,526;   -0,500
303,389;10274,150;    1,071;    1,045
303,985;10342,857;    1,253;    1,409
304,580;10332,862;    0,889;    1,591
305,176;10342,490;    0,344;    0,136
305,771;10316,556;   -0,929;   -1,227
306,367;10170,096;    3,071;    0,136
306,962;10497,666;    2,889;    1,500
307,558;10188,421;    2,435;    0,136
308,153;10149,585;   -0,383;   -1,136
308,748;10333,894;    0,162;    1,682
309,344;10275,309;    0,253;   -1,318
309,939;10422,216;    2,071;   -1,318
310,534;10638,444;   -2,020;   -1,682
311,130;10554,961;   -0,656;   -2,500
311,725;10269,900;    0,526;   -0,500
312,320;10563,915;    1,253;    0,045
312,915;10424,721;    2,890;   -1,045
313,510;10423,936;    0,526;   -0,500
314,105;10886,539;   -3,565;    1,409
314,700;10310,751;   -1,656;   -1,045
315,295; 9975,589;   -0,020;    0,045
315,890; 9508,749;   -0,292;    0,864
316,485; 9795,544;    0,253;   -0,318
317,080; 9945,764;   -0,929;    1,591
317,675;10394,009;    3,071;   -0,682
318,270; 9781,414;    6,889;    3,318
318,865; 9819,319;    2,435;    3,045
319,460; 9632,362;   -1,565;    0,591
320,055; 9865,163;   -2,565;   -1,227
320,650; 9526,840;   -1,838;   -0,591
321,244; 9580,273;    0,889;   -1,409
321,839;10462,398;    0,980;   -0,227
322,434;10310,551;   -0,111;   -1,591
323,029;10007,465;   -0,474;    1,591
323,623; 9901,803;    0,798;    0,773
324,218; 9720,620;    2,707;    1,409
324,812; 9670,142;    0,889;    1,591
325,407; 9503,089;   -0,929;    2,045
326,002; 9423,610;    0,526;   -0,409
326,596; 9780,740;   -0,656;    1,318
327,191;10042,592;   -0,383;   -1,045
327,785; 9660,740;   -0,747;   -0,227
328,379; 9943,078;   -0,383;    0,136
328,974; 9754,109;    1,798;   -3,955
329,568;10072,268;    2,889;   -2,409
330,163; 9953,504;    2,435;    1,045
330,757;10336,342;    0,253;    1,591
331,351; 9745,151;   -0,292;    0,682
331,945;10078,498;   -0,383;    1,409
332,540; 9775,791;    1,617;   -0,591
333,134; 9914,864;    3,344;    0,773
333,728;10178,032;    2,799;    0,318
334,322;10600,829;    0,889;   -0,864
334,916; 9950,328;    0,344;    0,955
335,510;10350,356;   -0,111;   -0,136
336,105;10650,228;   -0,929;    1,591
336,699;10378,802;   -1,292;    0,591
337,293;10390,471;    1,071;    0,318
337,887;10547,492;    0,071;    1,955
338,481;10681,182;    2,980;    0,591
339,074;10893,961;    2,071;    2,682
339,668;10733,183;   -0,110;    1,227
340,262;11061,899;    7,708;    3,227
340,856;10623,879;    1,708;   -0,682
341,450;10030,609;    0,708;    1,864
342,044;10932,471;    1,799;    0,136
342,637;10732,209;    1,162;   -2,136
343,231;10647,978;   -1,474;    0,682
343,825;10652,980;   -0,747;   -0,591
344,419;10625,703;   -0,474;    0,500
345,012;10446,700;    2,889;    4,045
345,606;10494,737;   -0,656;    1,591
346,199;10372,084;   -0,111;   -0,227
346,793; 9924,124;    2,525;    2,045
347,386;10150,016;    0,889;   -1,136
347,980;10147,656;   -0,838;   -0,045
348,573; 9976,655;   -1,748;    0,409
349,167; 9635,192;    6,161;    4,773
349,760;10019,686;    2,252;    2,682
350,354;10018,450;    1,616;    1,136
350,947; 9716,288;    2,798;    1,682
351,540; 9457,221;    0,616;   -1,409
352,134; 9381,445;   -1,111;    1,136
352,727; 9436,274;   -0,657;    1,136
353,320; 9252,404;    2,343;    0,591
353,913; 9104,004;   -1,929;    1,864
354,507; 9289,568;    0,434;   -1,227
355,100; 9322,546;    0,071;    0,864
355,693; 8490,861;    4,798;    2,409
356,286; 8548,168;    0,980;    2,773
356,879; 8899,148;   -0,475;    1,227
357,472; 8486,282;    0,980;    1,500
358,065; 8685,190;    3,161;    2,500
358,658; 8628,053;    0,798;    2,318
359,251; 8245,515;    0,252;   -0,591
359,844; 7701,724;    0,343;   -1,136
360,437; 7862,067;    0,252;    0,045
361,030; 8130,211;    0,525;   -0,682
361,623; 7715,232;    0,434;    0,318
362,215; 7711,483;    0,979;    2,045
362,808; 7584,051;   -2,293;   -1,682
363,401; 7744,352;    0,798;    0,136
363,994; 7477,469;    3,252;   -1,500
364,586; 7369,755;    0,888;   -1,500
365,179; 7555,901;   -0,203;   -1,136
365,772; 7048,488;   -0,930;    2,045
366,364; 7288,333;    1,524;   -3,227
366,957; 7497,797;    1,342;   -0,045
367,549; 7484,783;   -0,203;   -0,864
368,142; 7144,326;    0,978;   -1,500
368,734; 7313,169;    2,523;   -2,136
369,327; 7296,734;    2,341;   -0,500
369,919; 7155,942;   -1,659;    0,409
370,512; 6954,975;   -1,023;   -0,500
371,104; 6697,347;    2,704;    1,591
371,696; 6861,723;    1,703;   -0,955
372,289; 6930,818;    0,157;    1,136
372,881; 7094,452;    1,156;    1,318
373,473; 6972,466;    4,064;    1,136
374,066; 6764,449;    1,336;    0,500
374,658; 6627,864;    0,879;    1,136
375,250; 6967,412;   -1,668;   -1,409
375,842; 6799,032;   -0,124;   -0,045
376,434; 6657,817;   -2,762;   -0,409
377,026; 7206,271;   -1,855;   -2,500
377,618; 7063,980;    0,779;   -0,682
378,210; 6923,253;    3,141;   -1,955
378,802; 6772,078;    3,412;   -0,591
379,394; 6739,890;    3,411;    0,682
379,986; 7293,763;    1,138;   -0,955
380,578; 7362,262;    1,410;    0,773
381,170; 6707,659;    0,320;    0,045
381,762; 6650,871;   -0,224;    1,409
382,354; 6856,010;   -0,223;   -1,318
382,945; 6946,737;    0,870;    0,318
383,537; 7093,326;    1,144;   -1,955
384,129; 7104,935;    0,963;   -1,136
384,721; 7249,390;    0,418;    0,955
385,312; 7164,023;   -1,399;   -0,955
385,904; 7267,242;   -0,945;    1,591
386,496; 6605,205;    0,691;    1,045
387,087; 6753,431;    0,418;    2,500
387,679; 6823,049;   -0,401;    0,045
388,270; 6928,599;   -2,401;    2,045
388,862; 7029,509;   -0,401;   -0,318
389,453; 6862,653;    1,054;    1,045
390,045; 7146,258;    3,236;   -2,682
390,636; 7123,579;    0,144;   -0,591
391,227; 6962,980;    2,054;   -0,045
391,819; 7050,771;    0,781;    0,773
392,410; 7106,375;    0,600;    0,045
393,001; 7063,855;    1,600;   -1,591
393,593; 7306,125;    0,600;   -0,045
394,184; 7154,499;    0,873;   -0,409
394,775; 7041,262;    1,146;    2,136
395,366; 7259,913;    1,782;    0,773
395,957; 7236,232;   -2,400;    0,136
396,548; 7557,603;    1,054;    2,682
397,139; 7842,271;    2,236;    0,591
397,730; 7538,238;    0,873;    0,955
398,321; 7616,782;    0,509;    0,955
398,912; 7625,117;   -0,764;    0,136
399,503; 7757,232;   -1,945;   -1,409
400,094; 7199,778;   -1,582;    1,682
400,685; 7061,072;    3,600;    0,045
401,276; 7101,587;   -0,400;   -0,955
401,867; 7379,386;   -1,127;    0,773
402,458; 7476,184;    1,509;   -2,318
403,048; 7456,412;    0,146;    0,591
403,639; 7033,296;    1,509;    0,864
404,230; 7329,269;    0,691;    0,318
404,821; 7242,595;   -0,127;    0,045
405,411; 7334,149;   -0,763;   -2,591
406,002; 6906,815;    3,237;   -1,136
406,592; 6768,545;    2,691;    0,045
407,183; 7015,155;    0,328;   -1,500
407,774; 6896,166;    1,419;   -0,136
408,364; 7204,919;    2,600;    0,409
408,954; 6785,201;   -0,036;    1,227
409,545; 6820,554;    1,873;    1,045
410,135; 6298,841;   -1,581;    0,500
410,726; 6450,606;    0,783;    0,318
411,316; 6776,802;    2,237;    0,773
411,906; 6407,826;    0,146;   -0,409
412,497; 5909,536;   -0,490;   -0,045
413,087; 6457,880;    0,783;   -0,227
413,677; 6734,546;   -2,490;    3,864
414,267; 6499,772;   -1,035;    1,409
414,857; 6432,795;    0,419;    4,227
415,448; 6646,566;   -0,763;    0,500
416,038; 6326,980;   -2,945;   -0,591
416,628; 6232,990;    0,965;    0,409
417,218; 5775,556;   -1,762;    3,318
417,808; 5933,670;    0,965;   -0,409
418,398; 6235,250;   -1,035;    2,682
418,988; 6141,238;   -2,217;    0,591
419,578; 6247,446;    3,601;    1,409
420,168; 6519,106;    0,692;   -0,955
420,757; 6065,962;    0,964;   -1,500
421,347; 5716,957;    1,601;   -0,227
421,937; 5775,522;    3,329;    1,409
422,527; 5722,662;    2,602;   -0,773
423,116; 5538,005;    2,692;   -0,045
423,706; 5771,023;    2,965;    0,318
424,296; 5582,106;    1,601;    0,682
424,885; 5922,470;    1,510;   -3,045
425,475; 6093,890;    1,147;   -2,864
426,065; 5923,641;   -1,489;   -0,318
426,654; 5574,767;    0,329;   -0,318
427,244; 5677,664;    1,147;    1,409
427,833; 5143,546;    1,056;   -0,500
428,423; 5393,967;    0,147;    1,136
429,012; 5923,160;    2,420;   -1,136
429,601; 5468,789;    2,057;    0,136
430,191; 5564,359;    2,511;    4,318
430,780; 5159,307;   -1,671;   -0,409
431,369; 5148,702;    1,329;   -0,045
431,959; 5573,480;    1,693;    0,500
432,548; 5273,886;   -1,398;   -0,045
433,137; 5269,386;    0,329;   -1,318
433,726; 5612,170;    0,148;    0,500
434,315; 5114,082;    0,148;    2,409
434,905; 5164,173;    0,693;    1,409
435,494; 5081,765;    3,148;    0,955
436,083; 5262,885;    1,420;   -0,955
436,672; 5025,384;    1,148;    0,500
437,261; 4758,436;    0,512;   -1,955
437,850; 4845,639;   -1,125;    0,682
438,439; 4717,747;    2,239;    1,955
439,027; 4560,777;    3,421;    1,773
439,616; 4704,974;    2,239;    1,227
440,205; 4420,508;    0,057;   -2,136
440,794; 4262,993;   -0,306;   -0,045
441,383; 4308,874;    1,603;   -0,591
441,971; 4123,859;   -0,306;    0,591
442,560; 3932,253;    0,603;   -1,773
443,149; 3688,709;    3,060;   -1,318
443,737; 3742,752;    0,968;   -2,318
444,326; 3776,628;    0,331;    0,318
444,915; 3690,641;   -1,851;    0,864
445,503; 3805,418;    0,058;   -0,318
446,092; 3574,266;    7,876;    2,136
446,680; 3753,595;    1,876;    0,318
447,269; 3726,779;   -1,487;   -0,318
447,857; 3487,491;    2,240;   -1,773
448,445; 3480,094;    2,149;    1,318
449,034; 3524,467;    0,876;   -1,136
449,622; 3464,925;    1,240;    3,500
450,210; 3363,996;    3,149;    2,227
450,799; 3443,295;    2,604;   -0,591
451,387; 3223,266;    1,786;   -0,591
451,975; 3066,497;   -1,305;    0,864
452,563; 3183,761;    0,422;    2,318
453,151; 2986,870;   -1,032;   -1,227
453,739; 2879,811;   -1,577;    0,136
454,328; 2931,640;    0,604;   -2,136
454,916; 2709,913;    1,150;   -0,136
455,504; 2713,798;    3,513;    1,227
456,092; 2719,689;    2,150;   -1,591
456,679; 2596,487;    0,604;    0,682
457,267; 3064,653;    3,604;    1,045
457,855; 2701,940;    3,241;    1,409
458,443; 2370,303;   -0,304;    1,682
459,031; 2647,065;    1,332;    2,409
459,619; 2709,257;   -3,577;    2,864
460,206; 2546,959;   -0,759;    2,045
460,794; 2597,225;   -0,668;   -0,227
461,382; 2704,914;    0,878;   -0,864
461,970; 2443,306;    0,605;    1,864
462,557; 2456,603;    0,878;   -0,682
463,145; 2627,893;   -0,304;   -1,682
463,732; 2800,468;    2,514;   -1,045
464,320; 2505,863;    1,514;   -3,045
464,907; 2558,434;    0,423;   -0,773
465,495; 2391,037;    2,696;   -1,227
466,082; 2293,701;    2,060;   -0,045
466,670; 2164,262;    2,605;    1,227
467,257; 2283,390;    0,060;    2,045
467,844; 2409,819;    1,514;    0,045
468,432; 2377,775;   -0,031;    3,500
469,019; 2166,212;    1,606;   -1,773
469,606; 2284,030;    0,969;    3,682
470,193; 2245,133;    2,151;    0,227
470,780; 2142,356;    0,333;    0,864
471,368; 2100,274;   -1,212;   -0,773
471,955; 2103,513;    1,060;   -0,682
472,542; 1907,460;   -0,303;   -1,136
473,129; 1785,140;   -0,485;    0,136
473,716; 1692,537;    0,060;    0,591
474,303; 1718,726;    1,333;   -0,864
474,890; 1767,298;    2,333;   -0,500
475,477; 1848,679;   -0,576;    0,409
476,064; 1675,970;    0,697;   -1,591
476,650; 1698,508;    2,152;    0,318
477,237; 1562,236;    1,879;    0,955
477,824; 1526,017;    3,879;    0,864
478,411; 1366,729;    0,606;   -0,318
478,997; 1359,998;    0,606;   -0,773
479,584; 1267,079;   -0,666;   -0,409
480,171; 1632,579;    1,243;   -0,773
480,757; 1651,712;   -0,848;    0,773
481,344; 1482,646;    0,334;    0,409
481,931; 1184,828;   -0,393;    1,045
482,517; 1509,882;    0,425;    0,318
483,104; 1637,775;    1,334;    2,864
483,690; 1476,877;    0,243;    0,045
484,276; 1429,446;    0,698;    0,227
484,863; 1729,306;    2,152;    1,136
485,449; 1511,059;    0,152;    0,318
486,035; 1373,560;   -0,666;   -0,136
486,622; 1587,935;   -2,393;    0,045
487,208; 1427,138;    1,334;    1,500
487,794; 1323,332;    0,971;    0,318
488,380; 1347,181;    0,698;   -1,409
488,967; 1333,418;   -1,120;   -0,409
489,553; 1374,026;   -1,029;   -1,409
490,139; 1503,002;    0,971;    0,773
490,725; 1325,384;    0,789;   -0,227
491,311; 1336,788;    1,516;    3,045
491,897; 1186,072;   -0,665;    1,500
492,483; 1246,407;    0,426;    1,227
493,069; 2061,329;    5,426;    0,864
493,655; 1577,523;    1,789;    0,682
494,241; 1434,381;    1,517;   -0,955
494,826; 1584,568;    0,335;   -1,045
495,412; 1611,326;    0,335;   -0,682
495,998; 1624,336;    0,971;   -0,318
496,584; 1723,683;    2,244;    1,045
497,169; 1729,692;    2,335;   -0,682
497,755; 1738,978;    1,244;    1,227
498,341; 2277,961;    2,153;    0,318
498,926; 2421,717;    2,881;    1,955
499,512; 2323,591;   -0,028;    2,955
500,097; 2337,645;   -0,574;   -0,318
500,683; 2549,964;   -0,028;    2,136
501,268; 2894,003;    1,881;   -0,955
501,854; 3057,198;   -0,119;    1,227
502,439; 3196,849;   -0,573;   -1,773
503,024; 3469,651;    1,608;    0,500
503,610; 3783,399;    1,335;   -0,682
504,195; 3991,744;    1,245;    1,955
504,780; 4405,563;    2,335;    1,227
505,366; 4697,723;    4,063;    2,864
505,951; 4775,457;   -1,119;    1,045
506,536; 5136,829;    1,427;   -3,682
507,121; 5410,270;    1,699;   -0,318
507,706; 6116,464;   -0,392;    1,045
508,291; 6673,279;   -2,937;    1,136
508,876; 6641,699;   -0,482;    2,591
509,461; 6623,347;    1,427;   -0,773
510,046; 7308,637;   -0,391;    0,318
510,631; 7850,391;   -0,119;   -0,773
511,216; 7940,685;   -0,664;   -0,500
511,801; 8633,082;   -0,755;    2,591
512,386; 9164,844;    0,972;    0,500
512,971; 9408,495;    0,427;    0,955
513,555; 9325,573;    1,154;   -1,500
514,140;10356,813;    1,336;   -3,136
514,725;10641,629;    1,791;   -1,136
515,309;11039,425;    1,064;    0,318
515,894;10815,389;   -0,300;   -2,227
516,479;11476,609;    1,973;   -0,955
517,063;11511,302;    0,882;    1,227
517,648;11917,863;    0,155;   -1,136
518,232;11736,988;   -1,300;   -1,409
518,817;12264,964;    1,337;    1,682
519,401;12678,637;    0,700;    0,591
519,985;12323,425;    2,700;    1,136
520,570;12363,160;   -0,118;   -1,955
521,154;12797,636;    0,064;    0,591
521,738;13115,105;    1,064;    2,409
522,323;13843,523;   -0,390;    1,682
522,907;13647,971;    2,428;   -0,136
523,491;13496,073;    1,155;    0,955
524,075;13572,049;    0,428;    0,591
524,659;13740,108;    0,973;    0,591
525,243;13230,791;    0,883;    0,409
525,827;13520,294;    0,883;   -0,045
526,411;14479,744;    1,155;   -0,136
526,995;14834,932;    0,337;    1,409
527,579;14431,526;    1,974;   -1,045
528,163;14782,981;    0,428;   -1,500
528,747;14738,144;    1,065;   -0,773
529,331;15112,157;    0,883;   -1,409
529,915;15314,929;    2,338;    0,955
530,499;15304,716;    0,247;    1,227
531,082;15024,155;    1,065;    1,591
531,666;14487,747;    0,520;    0,773
532,250;15218,484;    0,428;    2,682
532,833;15557,060;    0,610;    2,773
533,417;15467,281;    1,247;    0,864
534,001;15437,657;    0,429;   -0,318
534,584;16162,676;    1,974;    0,500
535,168;16023,032;    3,247;    1,409
535,751;16131,782;    4,520;    0,045
536,334;15529,634;    4,520;   -0,409
536,918;16182,382;    1,974;    1,591
537,501;16298,798;    1,520;    1,318
538,085;16277,097;    1,702;    1,045
538,668;16473,164;    0,883;    2,409
539,251;16814,140;    3,156;    3,773
539,834;16838,398;    0,156;    0,773
540,418;16745,534;    3,247;    4,318
541,001;16907,109;    2,702;    1,773
541,584;16932,072;    1,429;    2,227
542,167;16635,945;    0,702;    2,955
542,750;16792,283;    0,793;   -0,773
543,333;16365,284;    1,429;    2,136
543,916;17177,324;   -0,298;    2,500
544,499;17753,785;    2,520;    0,227
545,082;17779,764;    0,248;    3,591
545,665;17947,948;   -0,207;    1,500
546,248;18274,012;    0,520;   -0,318
546,830;17972,234;   -1,752;    1,955
547,413;18378,925;    0,157;   -0,773
547,996;18940,215;    0,157;    0,500
548,579;18704,702;   -0,843;    0,955
549,161;18531,046;    0,884;    2,682
549,744;18324,169;    0,612;    0,409
550,326;18873,086;    0,885;   -1,136
550,909;18612,107;    2,339;    0,591
551,492;19043,790;    0,521;    0,227
552,074;18811,805;   -0,024;   -1,318
552,657;19339,777;    2,430;    0,045
553,239;19114,614;   -3,024;   -0,773
553,821;19069,539;   -1,570;    1,045
554,404;18556,651;   -0,024;    1,136
554,986;18910,968;    2,248;    1,045
555,568;19524,896;    0,430;   -0,955
556,151;18720,418;    4,067;   -0,227
556,733;18918,495;   -1,388;   -0,864
557,315;19395,343;    4,703;    0,500
557,897;19174,932;    0,521;   -0,500
558,479;19356,790;    1,703;    1,318
559,061;19480,993;    1,067;   -0,864
559,643;19804,727;   -0,297;    0,045
560,225;20170,149;   -0,388;    2,864
560,807;20240,546;    0,340;    0,318
561,389;19719,627;   -1,206;    2,318
561,971;20463,952;   -0,660;    2,136
562,553;20306,483;    0,613;    1,591
563,135;20439,867;    1,249;    1,136
563,717;20061,286;    3,158;    1,136
564,298;20777,174;    3,976;   -0,045
564,880;20447,395;    0,340;   -1,409
565,462;20650,213;    1,977;    1,318
566,043;21822,030;   -0,933;    2,318
566,625;21380,935;    4,067;    1,227
567,207;21216,912;    0,704;    1,682
567,788;22360,476;   -0,114;    1,500
568,370;23210,447;   -1,841;   -0,500
568,951;23036,925;   -0,569;    0,227
569,533;23951,591;    0,977;   -0,500
570,114;24454,186;   -0,296;    0,682
570,695;24943,696;   -0,478;   -1,318
571,277;25504,378;   -0,205;   -1,682
571,858;26227,644;    2,704;   -1,136
572,439;27147,109;    0,795;   -1,045
573,021;27317,886;    0,432;   -2,773
573,602;27848,200;    1,795;    0,318
574,183;28810,854;   -0,114;    2,227
574,764;29004,720;    2,068;    0,409
575,345;29542,125;    0,250;   -0,136
575,926;30193,849;    2,704;    0,136
576,507;30232,287;    2,704;   -0,227
577,088;31269,710;    1,704;    1,682
577,669;31394,932;    1,704;    1,955
578,250;32144,581;   -0,750;   -1,045
578,831;32764,496;   -0,841;   -2,227
579,412;33013,181;   -1,205;    0,955
579,993;34002,433;    1,432;    0,227
580,573;34331,196;   -0,023;   -0,955
581,154;33216,604;    1,613;   -0,591
581,735;34131,442;    0,341;    0,773
582,315;33651,806;    0,523;    2,136
582,896;34045,629;   -1,750;    1,227
583,477;33452,265;    0,614;    1,227
584,057;33651,584;    1,159;    0,955
584,638;33850,524;   -2,750;    2,318
585,218;33897,667;    2,886;    2,682
585,799;34050,577;    1,977;   -0,227
586,379;34030,256;    1,250;    1,591
586,959;32805,917;    2,613;    0,318
587,540;32127,117;    0,432;    2,227
588,120;31614,708;   -1,113;   -0,045
588,700;30522,744;    2,977;    2,136
589,281;30827,860;    1,250;   -0,955
589,861;30764,187;   -0,296;   -1,682
590,441;30582,322;   -1,477;   -2,682
591,021;29492,339;    1,432;   -2,591
591,601;29768,625;    0,431;    0,500
592,181;29745,641;   -1,296;   -0,773
592,761;29027,134;    2,250;    1,409
593,341;28931,064;    1,522;    0,045
593,921;28829,315;   -0,569;    1,591
594,501;28758,494;    1,250;    1,318
595,081;28613,157;    0,522;   -0,318
595,661;28964,349;    1,068;    0,955
596,240;29485,475;   -1,023;    0,136
596,820;29107,889;    2,613;    1,955
597,400;29298,642;    1,977;    0,773
597,980;29560,385;   -0,750;    1,045
598,559;29589,904;    0,341;   -0,227
599,139;29286,381;   -0,750;   -1,227
599,718;29165,926;    0,795;   -0,409
600,298;29421,299;   -2,387;    0,682
600,877;29645,033;    4,795;    1,409
601,457;29909,356;    0,340;    1,136
602,036;29802,076;    1,795;    2,045
602,616;30026,199;    2,250;    1,682
603,195;30326,535;    0,431;    3,500
603,774;29895,980;   -0,296;    2,045
604,354;29785,411;    2,522;   -0,500
604,933;29281,068;    0,250;    1,864
605,512;29367,936;    2,340;    0,591
606,091;29380,113;    1,886;    3,773
606,671;30158,601;    0,249;    0,773
607,250;29242,791;    1,431;    3,136
607,829;29516,704;    1,158;    3,227
608,408;29406,983;    4,613;    2,591
608,987;28452,139;    2,704;    3,409
609,566;28759,898;    0,341;   -2,500
610,145;28772,941;    2,885;    0,682
610,723;29223,987;    1,613;    6,864
611,302;28447,651;    1,067;    1,682
611,881;27906,317;    5,158;   11,227
612,460;28758,388;    0,795;    3,955
613,039;29214,708;    1,703;    2,045
613,617;27889,296;    0,886;    4,773
614,196;28115,692;    1,613;    1,227
614,775;28436,760;    1,249;    2,409
615,353;28403,232;   -1,660;    0,864
615,932;28089,576;    0,249;    2,409
616,510;28691,120;    0,158;    0,591
617,089;28189,010;    8,794;   17,591
617,667;27920,307;    4,885;    6,136
618,246;27702,475;   -1,115;    1,318
618,824;27863,822;    1,612;   -0,955
619,402;27414,917;    0,431;   -1,773
619,981;27932,686;    1,067;   -1,045
620,559;27835,984;    0,794;    1,682
621,137;27377,066;    3,067;    1,864
621,715;27345,476;    3,703;   -0,682
622,293;27275,667;    1,885;   -0,773
622,871;27752,888;    0,340;    0,500
623,450;27278,347;    0,430;   -0,864
624,028;27215,012;   -0,388;   -0,955
624,606;26780,730;    2,339;    1,682
625,183;27188,827;   -0,661;   -1,136
625,761;26811,823;    1,885;    1,136
626,339;27122,171;    2,339;    2,591
626,917;27518,835;    0,339;   -0,045
627,495;27551,333;    2,794;    1,318
628,073;26999,126;    5,248;    2,864
628,650;26642,003;    3,067;    2,136
629,228;27058,818;    1,248;    4,409
629,806;26425,829;   -0,024;    1,136
630,383;26685,915;    0,066;   -0,318
630,961;26463,406;   -2,206;   -0,955
631,539;26224,421;   -2,479;    0,227
632,116;25426,860;   12,703;   15,409
632,694;26121,377;    4,885;    6,500
633,271;26419,016;    1,975;    2,682
633,848;26332,795;    1,430;    2,045
634,426;26375,310;    1,521;    1,773
635,003;25494,870;   -0,207;   -0,409
635,580;25808,310;    1,884;    3,682
636,158;26366,656;    3,793;    1,227
636,735;26297,865;    3,339;   -0,500
637,312;26460,874;    0,521;   -0,682
637,889;26571,441;    2,248;   -0,682
638,466;26036,924;    0,066;   -0,409
639,043;26025,937;    1,702;   -1,136
639,620;26333,629;    0,611;   -0,955
640,197;26701,054;    1,612;    1,682
640,774;26832,564;    1,430;    1,136
641,351;27237,709;    0,612;    1,136
641,928;26633,127;    2,794;    1,409
642,505;26235,000;    0,794;   -0,500
643,082;26376,055;    1,885;    1,227
643,658;25363,837;    1,157;    1,500
644,235;26136,800;   -2,479;    2,500
644,812;26398,219;    1,794;    0,773
645,388;26190,546;    1,612;    1,409
645,965;26245,328;    1,521;    1,682
646,542;26327,110;    3,430;   -0,227
647,118;26287,710;    3,703;   -0,955
647,695;26628,674;    0,339;    1,136
648,271;26490,092;   -2,115;    0,500
648,848;26793,510;    0,248;    2,227
649,424;26651,474;    0,976;    1,318
650,000;26427,983;   -0,388;   -1,045
650,577;26261,128;    0,158;   -0,955
651,153;26733,001;   -1,115;    0,955
651,729;27730,510;    0,521;    0,864
652,305;27889,565;    1,339;    2,773
652,881;32331,710;   -1,297;    1,136
653,458;39291,129;    0,249;    0,227
654,034;43254,638;    0,703;    1,591
654,610;44854,602;    0,339;    0,773
655,186;46183,474;    1,612;    3,045
655,762;45937,438;   -1,842;    0,409
656,338;46075,947;    0,703;    0,136
656,913;47018,547;   -0,297;    0,409
657,489;46385,057;    0,249;   -0,318
658,065;46333,566;    0,794;   -1,591
658,641;46937,438;    2,158;   -0,864
659,217;46221,675;    2,067;    0,409
659,792;45636,730;   -1,751;   -0,409
660,368;46008,966;   -0,388;   -0,682
660,944;45731,384;    1,794;    1,227
661,519;41043,712;    0,522;    0,409
662,095;34763,403;   -0,206;    0,591
662,670;29904,184;   -0,206;   -0,136
663,246;28713,330;   -0,660;   -0,409
663,821;27966,021;    0,431;    1,682
664,396;27414,985;    0,613;    1,864
664,972;27711,948;   -0,660;   -0,500
665,547;28001,548;    3,794;    0,136
666,122;28032,330;    1,340;    0,318
666,698;28355,839;    2,431;    0,318
667,273;27656,167;    0,885;    0,136
667,848;28490,131;    0,340;    1,500
668,423;28241,912;    1,795;    2,318
668,998;28736,422;    0,976;   -0,682
669,573;29265,658;    2,067;   -1,500
670,148;29091,985;    1,885;   -0,682
670,723;29002,040;   -0,024;    0,318
671,298;29419,276;   -1,296;    1,045
671,873;29504,967;   -0,296;   -0,136
672,448;29480,386;    1,704;    0,136
673,023;29859,531;    0,249;   -0,227
673,597;30137,040;    2,704;    2,318
674,172;29893,459;    2,431;    0,318
674,747;29430,877;   -0,205;   -1,045
675,321;29228,204;   -0,933;    3,318
675,896;28759,077;    2,158;    1,045
676,471;29761,041;    2,522;    1,591
677,045;29535,823;   -0,296;    0,682
677,620;29612,332;    2,158;    1,136
678,194;29970,023;    0,249;    1,136
678,769;29517,077;    0,886;   -0,318
679,343;29672,405;   -0,023;    1,773
679,917;29516,096;    0,340;    1,955
680,492;29605,787;    0,249;    3,227
681,066;29812,296;    0,613;    0,409
681,640;29811,259;    1,795;   -0,318
682,214;30575,678;    2,340;    0,500
682,788;30093,278;    0,613;   -0,773
683,363;30045,423;    1,977;    1,682
683,937;29680,023;    0,886;   -0,318
684,511;30541,896;   -1,023;   -0,591
685,085;30259,224;   -1,478;    0,318
685,659;30016,642;    1,431;    0,864
686,232;30240,151;    1,159;   -0,318
686,806;29977,296;    2,159;    0,409
687,380;30641,987;   -1,932;    0,591
687,954;30890,588;    2,432;    1,136
688,528;30551,915;    2,613;    1,955
689,101;31333,969;    0,432;    1,045
689,675;30896,115;    0,886;   -0,136
690,249;30229,533;    3,432;    0,409
690,822;30573,042;    1,159;    0,318
691,396;30624,097;    2,068;    1,227
691,969;30058,879;    2,523;    0,136
692,543;30628,024;   -0,568;   -1,955
693,116;30237,170;   -0,659;   -1,409
693,690;30047,588;   -0,296;    0,500
694,263;30597,006;    2,341;    2,955
694,836;30600,243;    2,795;    3,591
695,410;29184,843;    1,159;    1,773
695,983;29698,625;    1,614;    0,591
696,556;29632,952;   -0,750;   -1,045
697,129;30053,007;   -1,114;    1,409
697,703;29667,789;    1,341;    1,955
698,276;29678,843;    1,705;   -0,773
698,849;29450,989;   -1,023;    1,409
699,422;29871,589;    1,250;    0,591
699,995;29571,916;   -0,659;    0,136
700,568;30087,425;   -0,204;    3,045
701,140;30066,753;   -1,841;    1,682
701,713;29764,262;    0,341;    2,409
702,286;29588,407;    0,796;    0,864
702,859;29454,826;    0,614;   -0,591
703,432;28593,335;   -0,841;    0,682
704,004;29116,208;    1,978;    0,318
704,577;28948,262;    1,068;    0,136
705,150;29518,135;    0,887;    2,500
705,722;29327,462;    1,523;   -3,227
706,295;29105,608;    1,432;   -0,591
706,867;28922,117;    0,250;    1,955
707,440;29145,899;   -0,113;   -0,409
708,012;29431,590;   -0,022;    0,591
708,584;29322,099;    2,705;    0,227
709,157;29627,608;    1,160;   -0,591
709,729;29321,027;    1,069;    2,045
710,301;30140,718;   -1,204;    0,045
710,874;30153,772;    0,341;   -0,227
711,446;28973,827;   -0,295;    0,864
712,018;28888,063;   -3,022;    0,500
712,590;28609,754;   -0,204;    1,682
713,162;29150,718;   -0,477;    1,318
713,734;29439,772;    1,796;   -2,045
714,306;29295,827;    0,342;   -0,409
714,878;27965,427;   -0,295;    0,864
715,450;28766,027;   -0,113;    0,864
716,022;29049,809;    2,433;    1,318
716,593;29227,227;    0,978;    0,591
717,165;29110,646;    1,796;   -1,227
717,737;28825,064;    0,796;    0,409
718,309;28572,846;    1,160;   -0,045
718,880;28451,991;   -1,295;   -1,409
719,452;28683,773;    0,887;   -1,591
720,024;28267,373;    1,705;   -0,591
720,595;28811,064;    2,978;    0,955
721,167;28345,119;    1,160;   -2,045
721,738;27796,719;    2,069;   -1,045
722,309;27744,137;    1,251;   -1,227
722,881;27525,555;    2,705;    0,773
723,452;28167,519;    1,251;    2,864
724,023;28413,028;    1,524;    2,682
724,595;28164,810;    2,342;    0,682
725,166;27949,047;    1,524;   -0,409
725,737;27582,101;    1,887;    0,227
726,308;27631,883;    0,797;    0,318
726,879;28007,938;    1,069;    1,227
727,450;27889,083;   -2,022;   -0,045
728,021;27865,592;    1,069;    0,682
728,592;27747,011;    1,160;    0,500
729,163;28080,611;    1,433;   -0,136
729,734;28045,756;    2,160;   -0,227
730,305;28441,447;    0,615;    0,136
730,876;28743,865;    0,888;    2,955
731,447;28399,011;    0,797;    2,682
732,017;28540,884;   -0,840;    1,864
732,588;28048,029;   -0,021;    1,227
733,159;28212,357;    3,615;   -1,045
733,729;28009,775;    1,251;    0,409
734,300;27249,102;    0,160;    0,864
734,870;27689,884;   -1,385;    0,591
735,441;28268,030;    0,888;   -0,591
736,011;28019,993;    1,070;   -1,591
736,582;27937,593;    1,251;    0,045
737,152;27381,466;    0,979;   -2,045
737,722;27893,430;    1,070;   -0,682
738,293;27613,485;   -2,021;    1,318
738,863;27508,994;    1,797;    2,318
739,433;27324,139;    4,524;    0,318
740,003;27959,376;    1,524;   -0,682
740,573;27307,067;    2,252;   -1,591
741,143;27315,303;    3,615;    0,318
741,713;28083,176;    0,252;   -0,500
742,283;27755,321;    1,706;    1,591
742,853;27560,012;    0,524;    1,591
743,423;26962,158;    0,161;    0,045
743,993;27058,122;    1,070;    1,500
744,563;26454,631;    2,524;   -0,864
745,133;26401,322;   -0,112;   -0,864
745,702;27097,649;    2,797;    1,773
746,272;26253,067;    0,434;    0,591
746,842;26004,304;   -0,748;   -0,591
747,411;26481,086;   -0,839;   -0,318
747,981;26678,413;   -0,930;    0,500
748,551;26722,649;   -0,021;   -1,045
749,120;26565,977;   -0,112;   -0,227
749,690;26908,850;    2,161;    2,409
750,259;27283,632;    0,979;    2,955
750,828;27145,050;    4,070;   -1,955
751,398;27382,104;   -0,112;   -0,045
751,967;26880,432;    2,888;    0,409
752,536;27089,214;    1,161;   -0,227
753,105;27559,905;   -1,384;    0,227
753,675;27349,050;   -0,112;    1,773
754,244;27280,650;    0,888;    3,591
754,813;27310,523;    0,979;    1,227
755,382;26883,214;    0,798;    0,955
755,951;27427,814;   -0,112;    3,682
756,520;27025,050;    2,525;    1,864
757,089;27558,832;    1,888;    0,500
757,658;27668,705;    2,434;    1,227
758,227;27691,578;   -1,111;    0,318
758,795;28006,723;   -1,021;    1,136
759,364;28265,414;    0,525;   -0,591
759,933;27259,378;    1,343;   -0,045
760,501;26793,433;    0,252;   -1,318
761,070;27239,306;   -0,293;   -1,409
761,639;27947,087;    1,434;    1,318
762,207;27268,142;    0,889;   -0,955
762,776;27180,833;    2,889;    0,864
763,344;27144,433;    0,071;    0,591
763,913;26285,215;    1,616;    1,409
764,481;27115,633;    1,980;   -0,136
765,049;26835,961;    0,616;    1,409
765,618;26694,197;    1,434;    0,318
766,186;26836,252;    2,434;    0,136
766,754;26982,215;    1,798;    1,864
767,322;25928,725;    1,162;    0,409
767,890;25912,506;    0,525;   -1,773
768,459;26293,925;    2,616;   -0,318
769,027;26528,434;    2,525;    3,409
769,595;25508,034;    2,616;    2,591
770,163;25929,543;    3,344;    2,955
770,730;25669,779;    2,525;   -0,136
771,298;25540,561;    1,162;   -1,409
771,866;25632,343;    0,253;    4,955
772,434;25932,580;    1,162;   -1,864
773,002;26066,271;    2,616;    0,682
773,569;25681,053;    1,071;    1,682
774,137;25501,653;    0,889;   -0,045
774,705;26330,980;   -0,747;   -0,136
775,272;25836,944;    0,253;    0,682
775,840;25641,180;   -0,111;    2,682
776,407;25116,598;   -0,293;    1,955
776,975;24654,380;    1,162;    0,318
777,542;25726,162;    2,162;   -0,045
778,110;25638,671;    0,707;   -0,045
778,677;25289,453;    1,071;   -0,864
779,244;24992,690;   -1,020;    1,045
779,812;25090,653;    0,980;    0,864
780,379;24932,344;    2,435;    1,136
780,946;25201,126;    2,617;   -0,773
781,513;25503,726;   -0,565;    0,318
782,080;24781,326;    1,253;    2,864
782,647;25549,381;    1,708;    3,045
783,214;25169,981;   -0,201;    3,864
783,781;24781,854;    1,708;   -0,682
784,348;24686,272;    0,253;    1,500
784,915;25126,781;   -1,474;    0,318
785,482;24879,745;    2,708;    2,591
786,049;25401,709;    1,071;   -0,591
786,615;25475,672;    1,708;   -0,955
787,182;25223,909;   -3,201;   -0,682
787,749;24905,873;   -2,201;    1,409
788,315;24200,109;    0,253;   -0,409
788,882;24543,891;    0,981;   -1,227
789,448;25178,945;    1,435;   -0,955
790,015;25153,091;    1,799;    3,227
790,581;24769,055;    0,708;    0,227
791,148;24636,655;    1,344;    1,045
791,714;24825,891;   -1,019;    3,136
792,280;24521,855;    3,708;    1,591
792,847;24123,000;   -0,928;    2,500
793,413;24667,510;   -0,110;   -0,318
793,979;24193,655;    1,526;   -1,318
794,545;24234,892;    2,981;    2,682
795,111;23650,310;    2,435;    1,318
795,678;23844,364;    3,526;   -1,682
796,244;23467,419;    2,799;    0,136
796,810;24023,019;    0,799;    0,773
797,375;23736,074;   -0,292;   -2,136
797,941;23789,856;   -1,110;    0,591
798,507;23854,365;    0,254;   -0,955
799,073;23404,056;    2,708;    0,591
799,639;23510,201;    1,435;    3,136
800,205;23549,256;   -1,565;    2,682
800,770;23101,583;    1,345;    1,773
801,336;23127,638;    2,981;   -0,955
801,901;22832,147;    6,072;    3,136
802,467;23394,020;    0,526;    2,045
803,033;22694,256;   -0,019;    0,864
803,598;22938,038;    1,072;   -1,045
804,163;22959,729;    0,708;   -0,318
804,729;22868,511;   -0,110;    1,136
805,294;23309,566;    1,072;    2,227
805,859;23141,438;    0,890;   -0,409
806,425;22648,493;    3,890;    2,682
806,990;22305,639;    1,890;    4,318
807,555;22817,420;   -0,110;    2,591
808,120;22681,475;   -1,292;   -0,409
808,685;22701,802;    1,072;   -2,500
809,250;22189,766;    2,072;   -0,500
809,815;22525,093;   -0,201;    0,682
810,380;23060,148;    0,981;    1,591
810,945;23512,839;    2,890;    2,045
811,510;22773,439;   -0,200;    1,591
812,075;22450,039;    2,800;   -1,409
812,640;22470,821;    3,709;    1,409
813,204;22533,603;    2,163;   -0,227
813,769;23005,748;    0,254;   -0,045
814,334;22430,803;    0,527;    0,864
814,898;22487,403;    1,981;    0,591
815,463;22312,185;    0,981;   -0,773
816,027;22243,785;    1,345;   -2,318
816,592;22393,749;    2,163;   -2,045
817,156;21876,985;   -2,200;    1,136
817,721;21708,949;    0,982;    2,318
818,285;21685,913;    0,618;    1,500
818,849;22336,785;   -0,018;    1,682
819,414;22202,567;    0,073;    2,955
819,978;21749,349;   -0,291;    1,773
820,542;22387,586;    2,891;    0,500
821,106;22158,549;    2,800;    0,682
821,670;22189,059;    2,709;    2,591
822,234;21908,659;    1,073;    1,409
822,798;21293,531;   -0,836;    0,500
823,362;21293,950;    1,527;    4,227
823,926;20572,822;   -0,018;    1,136
824,490;20753,059;    3,527;   -0,682
825,054;21295,023;    2,527;   -1,136
825,618;20901,077;   -1,200;   -1,500
826,181;20831,041;    0,982;   -1,318
826,745;20683,368;   -0,745;   -1,045
827,309;21018,423;    2,255;    1,318
827,872;20440,296;    0,527;    0,955
828,436;21419,441;    1,982;   -0,773
828,999;21506,223;    2,436;    1,227
829,563;20376,823;   -0,654;    1,136
830,126;20178,241;   -0,018;   -0,591
830,690;20158,569;    0,709;    2,864
831,253;19661,805;   -0,473;    2,227
831,816;19817,860;   -0,018;    0,500
832,380;19760,278;    1,164;    0,864
832,943;19944,787;    3,073;   -0,500
833,506;19476,387;    0,255;   -1,227
834,069;20278,442;    2,164;   -0,955
834,632;20328,315;   -2,200;    1,318
835,195;20195,369;    1,346;    0,955
835,758;19419,969;    0,709;    1,955
836,321;19248,660;    1,073;   -1,045
836,884;19341,442;   -1,291;   -0,955
837,447;19378,315;    0,528;    1,773
838,010;19655,461;    1,800;    3,227
838,573;19959,152;    0,528;    0,773
839,135;19882,752;   -0,109;   -0,955
839,698;19323,352;    2,528;    0,409
840,261;18869,134;    0,255;   -0,227
840,823;18763,461;   -0,927;    0,864
841,386;19007,243;   -0,018;   -2,409
841,948;18913,570;    0,255;    1,773
842,511;18625,716;    0,255;    1,682
843,073;18748,043;    2,982;    0,227
843,636;18562,370;    0,619;   -0,227
844,198;18489,698;    1,255;    0,591
844,760;18613,025;    0,619;    1,955
845,322;18263,080;    0,164;    1,136
845,885;18621,316;   -0,290;    0,591
846,447;19119,643;    0,710;    0,227
847,009;18658,789;    3,983;   -0,682
847,571;19003,662;    1,346;   -2,045
848,133;19083,080;   -0,199;   -1,864
848,695;18912,862;    2,346;    1,409
849,257;18447,371;    1,346;   -1,682
849,819;18623,426;    2,983;   -0,409
850,381;18689,117;    1,801;   -0,864
850,942;19079,444;    1,892;   -0,591
851,504;18965,226;    0,983;    0,227
852,066;18979,008;    1,619;   -1,591
852,628;18528,881;    0,165;    1,955
853,189;18081,572;    0,256;    2,682
853,751;18243,626;   -0,654;    1,409
854,312;18036,408;    1,256;   -1,682
854,874;18573,190;   -0,108;   -0,773
855,435;19055,608;    0,528;   -1,682
855,997;19157,117;    3,983;   -0,136
856,558;18446,717;    0,801;    1,773
857,119;18558,954;   -0,744;    2,864
857,681;18238,008;   -0,108;    0,318
858,242;18303,790;    1,347;   -2,136
858,803;18741,209;    1,074;   -0,773
859,364;19271,081;    0,892;   -4,773
859,925;18631,409;   -0,290;   -0,955
860,486;18552,100;    0,529;   -0,955
861,047;18276,154;    0,165;   -1,227
861,608;18063,845;    0,165;   -0,773
862,169;18208,718;   -0,562;   -0,045
862,730;17971,045;   -0,290;    1,409
863,291;18241,100;    0,438;   -0,500
863,852;18571,791;   -0,926;    1,955
864,412;18023,209;   -1,835;   -0,864
864,973;16627,900;    1,892;    0,500
865,534;16452,955;    2,074;    0,227
866,094;17945,919;    2,620;    0,227
866,655;17609,246;    4,711;    3,318
867,215;17916,391;    0,074;    0,136
867,776;17767,901;   -1,199;   -0,136
868,336;17884,319;    1,529;    0,136
868,897;17290,192;    3,438;    1,682
869,457;17092,155;    3,256;    0,318
870,017;17345,210;    2,438;   -1,227
870,578;17873,174;    1,893;    0,773
871,138;17488,956;    2,620;   -0,955
871,698;17003,010;   -0,562;   -1,318
872,258;16841,338;    0,711;   -2,864
872,818;17258,483;    2,347;    0,045
873,378;17214,901;   -2,198;    1,045
873,938;16800,501;    4,984;    0,500
874,498;17102,556;    1,256;   -1,955
875,058;16988,702;    4,347;    1,773
875,618;16841,938;    1,438;   -2,682
876,177;16804,174;   -0,471;    0,136
876,737;16362,684;   -0,289;    1,955
877,297;16339,193;    2,711;    1,955
877,856;16349,520;    2,529;    0,318
878,416;16291,938;    2,438;   -0,136
878,976;16544,993;    3,438;    0,409
879,535;16726,502;    4,529;    3,136
880,095;16473,284;    1,347;    0,045
880,654;16567,066;    0,347;    1,318
881,213;16665,121;    2,347;    1,500
881,773;16352,266;    1,984;    2,682
882,332;16692,502;    6,075;    5,136
882,891;16543,284;    0,711;    2,136
883,451;16957,703;   -2,016;    1,682
884,010;16432,848;   -1,107;   -0,409
884,569;16538,175;   -2,289;   -0,045
885,128;16638,139;   -0,743;   -1,864
885,687;16711,012;   -0,743;    0,682
886,246;16430,794;    2,620;    2,136
886,805;16180,303;    1,620;    2,045
887,364;16501,721;    1,166;   -0,500
887,922;16816,412;   -0,016;    0,045
888,481;16298,467;    1,530;    0,591
889,040;16618,794;    3,711;    2,136
889,599;17329,485;    2,166;    1,409
890,157;17426,813;    2,166;    2,409
890,716;17071,504;    2,166;    0,227
891,274;16866,195;    0,075;   -1,136
891,833;17232,795;    1,166;    0,864
892,391;17127,940;    1,802;    0,500
892,950;17232,995;    0,166;   -0,773
893,508;17565,686;    0,984;   -0,409
894,067;16917,013;   -0,379;    0,136
894,625;16882,704;   -1,016;   -1,500
895,183;17061,486;   -0,198;   -0,682
895,741;16957,359;    2,257;   -1,773
896,299;16789,686;    1,621;   -2,409
896,858;16983,559;    1,530;   -1,591
897,416;17089,613;    0,166;   -1,318
897,974;16854,850;   -2,197;    0,318
898,532;17018,632;    6,530;    2,682
899,089;16873,686;    0,621;   -0,682
899,647;16930,014;    0,530;    1,318
900,205;16694,068;    0,257;    1,045
900,763;16882,305;    2,166;    0,227
901,321;16872,632;    3,530;   -1,409
901,878;16312,414;    3,257;   -0,773
902,436;16156,741;    0,257;    1,318
902,994;16557,251;    6,712;    3,682
903,551;16015,942;    1,439;    0,409
904,109;16461,451;    1,530;   -1,409
904,666;16051,778;    1,439;    1,045
905,224;15847,105;    3,894;   -0,409
905,781;15545,978;   -0,470;   -0,318
906,338;15594,033;    0,167;    1,045
906,895;15548,451;    1,894;    2,045
907,453;15479,960;    2,348;    1,136
908,010;15492,469;    3,348;    0,409
908,567;15138,342;   -0,561;    0,591
909,124;14670,397;    2,439;   -1,500
909,681;14766,997;   -1,288;    0,682
910,238;14875,961;   -0,106;   -1,318
910,795;15205,015;   -1,561;   -1,136
911,352;14860,288;   -0,379;   -2,682
911,909;14263,833;    2,803;   -0,864
912,466;14771,742;    1,985;    1,500
913,022;14307,742;   -0,924;    0,500
913,579;14664,652;   -0,470;    2,045
914,136;14346,197;   -2,561;    0,955
914,692;14705,015;    1,530;   -1,227
915,249;14274,742;    0,530;    0,409
915,806;14478,015;    1,803;    1,955
916,362;14243,379;    0,894;    1,864
916,918;13767,561;    2,439;    1,045
917,475;13754,652;    1,621;    0,955
918,031;13857,742;    0,076;   -0,045
918,587;13329,379;    0,621;   -0,318
919,144;13574,197;   -0,379;    0,227
919,700;13861,924;    0,167;    0,773
920,256;13439,015;    0,439;    0,045
920,812;13074,379;    1,439;   -1,045
921,368;13080,470;    1,348;   -1,045
921,924;12707,197;    0,439;   -0,136
922,480;12306,106;    0,076;    1,227
923,036;12942,106;   -0,652;    1,955
923,592;12879,470;    0,621;    0,318
924,148;12750,833;    1,894;   -0,955
924,704;12089,470;    0,258;   -0,409
925,259;12398,197;   -0,561;    0,591
925,815;12146,833;    3,803;    0,500
926,371;11674,924;    3,530;    1,409
926,926;11526,742;    1,621;    0,591
927,482;11109,924;    1,621;    0,773
928,037;11036,106;   -0,833;    2,045
928,593;11368,106;    0,258;    1,045
929,148;11173,561;    1,167;   -1,500
929,704;10699,561;    2,439;   -0,500
930,259;10865,379;    0,894;   -0,136
930,814; 9975,652;    1,803;    1,955
931,369; 9686,924;    0,258;   -0,773
931,925; 9559,197;   -1,924;    0,136
932,480; 9457,833;    3,076;   -2,591
933,035; 9367,561;    3,985;   -0,318
933,590; 9121,742;   -1,742;   -1,773
934,145; 8791,833;   -1,288;   -0,318
934,700; 9123,288;    0,348;   -0,591
935,255; 8922,015;    4,803;    0,045
935,809; 8204,833;    6,258;    0,864
936,364; 7352,106;    2,167;   -0,136
936,919; 7336,015;    2,348;   -1,773
937,474; 7243,197;    1,348;    0,136
938,028; 6994,379;    3,076;    1,136
938,583; 6450,833;    6,348;    4,682
939,138; 6754,833;    0,167;    2,136
939,692; 6249,652;   -1,015;   -1,136
940,247; 5901,652;    1,167;   -1,045
940,801; 5450,379;    0,621;    0,227
941,355; 5383,106;    0,439;    2,591
941,910; 5049,561;    0,712;   -2,136
942,464; 5146,106;    2,712;   -0,318
943,018; 4929,015;    3,258;   -0,227
943,572; 4891,106;    2,803;   -0,682
944,126; 4313,288;   -0,924;   -0,409
944,681; 4183,015;    0,712;    0,227
945,235; 4166,742;    2,167;   -0,591
945,789; 4110,379;    1,258;   -1,864
946,342; 4196,470;   -0,561;   -0,591
946,896; 3997,561;    0,348;    0,955
947,450; 3773,924;   -0,561;   -0,227
948,004; 3958,833;    1,076;   -0,045
948,558; 3969,833;    1,258;   -0,864
949,111; 3891,470;   -1,197;   -0,318
949,665; 3917,379;   -0,106;   -0,682
950,219; 3792,652;    0,621;   -1,045
950,772; 3880,015;    0,258;    1,864
951,326; 3808,833;   -1,106;   -0,955
951,879; 3890,924;    1,076;   -2,318
952,433; 3918,742;    1,348;    2,227
952,986; 3767,015;    0,348;    0,682
953,539; 3697,470;    1,530;    0,591
954,093; 3635,379;    0,985;   -1,318
954,646; 3759,833;   -0,288;    1,318
955,199; 3581,742;    1,258;   -0,500
955,752; 3469,379;    1,985;    1,773
956,305; 3409,015;    0,894;    2,955
956,858; 3581,742;    0,621;   -0,318
957,411; 3765,288;    3,621;    2,136
957,964; 3576,379;    2,076;    2,136
958,517; 3574,015;    0,985;    3,136
959,070; 3406,561;   -1,197;    1,955
959,623; 3473,379;    1,076;    1,500
960,176; 3273,288;    0,712;    2,045
960,728; 3239,197;    1,712;    0,773
961,281; 3307,106;    2,258;    0,500
961,834; 3347,742;   -0,833;    0,864
962,386; 3254,742;    1,258;    1,045
962,939; 3177,379;    3,439;   -0,318
963,491; 3313,106;    2,621;    1,136
964,043; 3192,742;    0,076;    2,409
964,596; 3315,561;    1,712;    2,227
965,148; 3162,470;   -0,379;    1,773
965,700; 3072,833;   -0,015;   -0,227
966,253; 3247,742;   -0,833;    0,318
966,805; 3066,197;    1,894;    0,773
967,357; 3124,288;    0,439;   -1,500
967,909; 3059,652;    1,167;   -1,227
968,461; 3201,742;    0,894;    3,136
969,013; 3112,197;   -1,561;   -0,864
969,565; 3181,470;    1,803;   -1,136
970,117; 3256,379;    3,803;    1,045
970,669; 3082,833;    3,258;   -0,136
971,220; 2961,924;    2,167;   -1,500
971,772; 2878,015;    1,348;   -0,318
972,324; 2990,197;   -1,197;   -0,500
972,876; 2943,924;    0,167;   -0,045
973,427; 3062,288;   -1,197;   -1,045
973,979; 3061,106;    0,076;   -2,500
974,530; 3086,288;    0,803;    1,318
975,082; 3089,924;    2,167;    1,682
975,633; 2972,924;    2,894;    1,682
976,184; 3136,197;    2,076;    0,773
976,736; 2914,197;    0,348;    0,227
977,287; 2734,924;    0,258;   -0,500
977,838; 2911,197;   -0,924;   -0,318
978,389; 2950,561;    0,803;   -0,500
978,940; 2843,742;    1,258;   -0,409
979,491; 2858,288;    2,258;   -0,500
980,042; 2808,924;   -0,652;    3,045
980,593; 2865,288;    1,894;    0,227
981,144; 2913,197;    3,530;   -0,500
981,695; 2888,833;   -0,470;    1,500
982,246; 2856,470;   -1,833;    1,045
982,797; 3030,924;   -0,561;    0,682
983,347; 3144,470;    2,167;    0,591
983,898; 3288,924;    4,167;    0,409
984,449; 3100,470;    2,530;    0,773
984,999; 3021,742;    1,894;   -1,136
985,550; 2784,833;    3,167;   -0,318
986,100; 2836,470;    0,712;   -0,318
986,651; 2861,015;    0,258;    0,045
987,201; 2827,833;    0,894;   -0,591
987,751; 2916,015;   -0,288;    2,864
988,302; 2914,742;   -0,379;    1,500
988,852; 2919,833;    1,985;   -1,136
989,402; 2965,106;    0,985;    0,682
989,952; 2881,742;    1,621;    0,864
990,502; 2980,106;    1,076;    0,682
991,052; 2946,197;   -0,106;    0,045
991,602; 2807,106;    1,167;    1,318
992,152; 2819,106;    2,803;    0,682
992,702; 2788,742;    1,167;   -0,045
993,252; 2709,561;    0,076;   -0,500
993,802; 2795,288;    1,167;    1,318
994,352; 3036,197;   -0,742;    1,136
994,901; 3141,015;    1,076;    3,227
995,451; 3052,833;   -1,197;    0,318
996,000; 3134,652;    1,076;    0,318
996,550; 2853,015;    2,894;    0,227
997,100; 2849,015;   -0,561;   -0,045
997,649; 3130,924;   -0,197;    0,955
998,198; 2772,652;   -0,288;   -1,500
998,748; 2934,924;    0,348;   -2,318
999,297; 2859,561;    0,985;   -0,409
999,846; 2948,197;    1,894;   -0,773
1000,395; 2981,288;    1,530;    0,500
1000,945; 2927,197;    1,076;   -0,773
1001,494; 3011,470;    0,167;    0,682
1002,043; 2984,379;    0,712;    0,864
1002,592; 2829,379;    3,439;    1,955
1003,141; 2977,379;    2,439;   -0,682
1003,690; 2825,924;    1,258;    0,500
1004,238; 2897,470;   -0,106;   -0,045
1004,787; 2531,106;   -1,288;    1,227
1005,336; 2766,924;    1,621;    0,682
1005,885; 2903,015;   -0,197;   -2,773
1006,433; 3056,652;   -0,470;    0,955
1006,982; 3134,652;    2,167;    1,682
1007,531; 3020,106;    2,712;   -0,227
1008,079; 2974,379;    0,258;    0,500
1008,627; 3129,833;    1,621;    0,409
1009,176; 2868,197;    0,076;   -1,955
1009,724; 2908,470;   -2,742;    0,864
1010,273; 2963,924;    1,076;    0,500
1010,821; 3092,288;    1,076;    1,409
1011,369; 2820,379;    0,076;    1,318
1011,917; 2800,924;   -0,833;   -0,591
1012,465; 3070,742;    2,530;   -1,591
1013,013; 3196,197;    0,439;   -1,682
1013,561; 3083,742;   -1,288;   -0,773
1014,109; 3118,106;   -0,833;    1,682
1014,657; 2984,833;    1,348;    0,591
1015,205; 3102,652;    0,894;   -0,955
1015,753; 3147,288;    0,258;   -1,409
1016,301; 3159,742;    2,621;    3,045
1016,848; 3171,015;    2,167;    0,409
1017,396; 3227,833;    1,621;    0,045
1017,944; 3336,106;    2,621;    1,864
1018,491; 3095,742;   -0,197;    1,409
1019,039; 3265,470;   -0,652;    0,591
1019,586; 3170,197;    0,076;    1,682
1020,134; 3282,561;    0,712;    1,500
1020,681; 3283,924;    2,894;   -1,136
1021,228; 3303,106;   -0,561;   -2,227
1021,776; 3133,015;   -0,833;   -1,136
1022,323; 3351,652;    0,803;    0,773
1022,870; 3292,106;   -0,470;   -0,045
1023,417; 3198,379;    2,076;    1,864
1023,964; 3332,742;    0,621;    1,227
1024,511; 3157,561;   -0,652;    0,773
1025,058; 2954,288;    0,439;   -0,045
1025,605; 3020,197;   -1,742;    3,136
1026,152; 3218,561;   -0,106;   -0,591
1026,699; 2951,470;    0,167;    1,318
1027,245; 3133,288;    2,439;    0,318
1027,792; 3354,288;    0,712;    1,409
1028,339; 3221,197;    4,076;   -0,045
1028,885; 3072,652;    3,621;   -0,227
1029,432; 3012,470;   -0,106;    0,227
1029,978; 3077,197;    1,348;   -1,591
1030,525; 2971,470;    1,621;    0,409
1031,071; 3232,924;    0,348;    1,136
1031,618; 3336,924;    1,258;    1,682
1032,164; 3122,197;    2,076;    3,045
1032,710; 3175,833;    0,076;   -1,500
1033,256; 3090,015;    0,712;   -0,136
1033,803; 3038,106;   -0,288;    1,500
1034,349; 2794,652;    1,803;    0,136
1034,895; 2958,106;    2,621;   -0,318
1035,441; 2924,197;    0,439;    0,318
1035,987; 2933,379;   -2,288;   -0,682
1036,533; 2944,833;   -0,197;   -0,955
1037,078; 3145,561;    4,712;    1,682
1037,624; 2955,833;    2,439;   -0,955
1038,170; 2984,015;    1,712;   -0,318
1038,716; 2881,379;    2,167;   -0,409
1039,261; 2802,742;    2,167;   -0,773
1039,807; 2727,470;   -0,015;    3,409
1040,352; 2786,561;   -1,288;   -0,318
1040,898; 2842,015;    0,167;   -0,682
1041,443; 2745,106;    0,803;   -2,591
1041,989; 2786,833;    3,621;    1,591
1042,534; 2663,197;    0,985;    2,591
1043,079; 2797,652;    1,985;    0,955
1043,625; 2560,742;    0,258;    0,500
1044,170; 2601,015;    2,439;    1,045
1044,715; 2883,470;    0,167;    0,955
1045,260; 2686,470;   -0,833;   -0,955
1045,805; 2744,470;    0,258;   -0,591
1046,350; 2683,742;    0,530;   -0,409
1046,895; 2648,106;    0,803;    1,591
1047,440; 2596,652;    1,530;    0,409
1047,985; 2505,924;   -1,197;   -0,955
1048,530; 2404,288;    1,348;    1,227
1049,074; 2479,106;    2,803;    0,318
1049,619; 2450,470;   -0,924;    1,955
1050,164; 2250,015;    1,076;    0,227
1050,708; 2311,924;    2,621;    0,045
1051,253; 2675,652;    3,258;   -2,227
1051,797; 2386,833;   -0,197;   -1,318
1052,342; 2393,288;    1,348;    1,045
1052,886; 2373,015;    1,803;   -1,409
1053,430; 2269,561;    2,167;    0,136
1053,975; 2284,197;    0,894;   -0,318
1054,519; 2263,288;    1,803;    3,227
1055,063; 2270,470;    3,621;    1,318
1055,607; 2165,015;    1,348;    0,227
1056,151; 2195,379;    0,530;    1,682
1056,695; 2112,106;   -1,833;   -1,136
1057,239; 2170,379;   -1,197;   -0,682
1057,783; 2181,015;    2,258;   -1,500
1058,327; 2128,470;    3,076;    1,409
1058,871; 2363,470;    3,985;    1,318
1059,415; 2077,197;   -0,561;   -0,045
1059,958; 2310,197;    2,985;    2,591
1060,502; 2040,015;    1,348;   -0,773
1061,046; 1943,288;    1,712;   -0,955
1061,589; 1926,470;    2,803;   -1,136
1062,133; 1812,833;    0,985;    1,864
1062,676; 1753,924;    1,439;    0,864
1063,220; 1756,561;    0,985;    0,500
1063,763; 1766,561;    2,985;    1,136
1064,306; 1845,924;    0,985;    1,864
1064,849; 1736,106;    2,076;    0,591
1065,393; 1751,561;    2,894;   -1,500
1065,936; 1872,197;    2,530;   -0,409
1066,479; 1754,652;    2,621;    1,318
1067,022; 1773,833;    1,894;   -0,227
1067,565; 1662,742;   -1,197;   -1,318
1068,108; 1710,470;    1,258;   -0,591
1068,651; 1676,288;   -2,470;    1,409
1069,194; 1609,288;   -1,106;   -1,682
1069,736; 1589,197;    3,803;    0,955
1070,279; 1585,288;   -1,652;   -0,500
1070,822; 1627,106;    1,530;   -0,318
1071,364; 1703,742;    0,530;    1,318
1071,907; 1533,652;    0,348;    3,227
1072,450; 1451,470;    0,258;   -0,045
1072,992; 1445,470;   -0,561;    3,136
1073,535; 1562,379;    0,167;    2,136
1074,077; 1373,015;    2,985;    2,045
1074,619; 1345,106;    0,985;    0,591
1075,161; 1372,470;   -0,561;    1,500
1075,704; 1551,652;    0,258;    1,227
1076,246; 1348,015;    1,530;    0,682
1076,788; 1292,197;   -1,015;    1,773
1077,330; 1364,742;   -2,106;    2,136
1077,872; 1328,924;   -1,924;    0,955
1078,414; 1540,379;    3,712;    0,773
1078,956; 1275,379;    0,167;   -0,227
1079,498; 1520,197;    0,439;    0,318
1080,040; 1245,652;    0,985;   -1,318
1080,581; 1195,197;    0,621;   -0,318
1081,123; 1125,106;   -0,106;   -0,773
1081,665; 1169,379;    3,803;   -0,955
1082,206; 1445,652;    3,258;   -0,500
1082,748; 1326,833;    3,258;    2,045
1083,289; 1216,197;    0,167;    1,318
1083,831; 1105,379;    0,258;    0,227
1084,372; 1132,924;    0,894;    0,591
1084,913; 1132,924;    3,348;    0,864
1085,455; 1130,106;    1,530;   -2,045
1085,996; 1090,742;    0,530;    0,136
1086,537; 1112,924;    0,985;    0,864
1087,078; 1148,470;    0,439;   -2,136
1087,619; 1176,288;   -1,652;    0,227
1088,160; 1097,379;    1,439;    1,318
1088,701; 1082,652;   -0,742;    0,682
1089,242; 1014,197;   -0,561;   -2,227
1089,783; 1107,197;   -0,561;    1,409
1090,324; 1081,561;   -0,833;    0,682
1090,865;  967,561;   -1,924;   -0,409
1091,405;  945,015;   -0,561;    2,227
1091,946;  973,288;   -0,197;   -0,955
1092,487;  904,379;   -1,288;   -1,409
1093,027; 1068,379;    1,803;   -1,500
1093,568;  927,742;    2,258;    1,227
1094,108; 1004,015;    0,621;    1,773
1094,649;  953,015;   -0,470;    0,136
1095,189;  890,561;    1,167;   -0,682
1095,729;  837,561;    0,712;    0,955
1096,269;  842,288;    1,258;   -0,955
1096,810; 1142,561;   -0,197;    0,500
1097,350;  983,106;   -0,561;   -0,773
1097,890;  884,833;    2,985;    1,227
1098,430; 1123,924;    4,985;    2,864
1098,970; 1002,106;    1,894;    1,682
1099,510;  878,379;   -0,833;   -2,318
1100,050;  802,197;    0,258;   -1,591
1100,589;  768,379;    0,076;   -0,318
1101,129;  895,652;    0,894;   -0,955
1101,669; 1026,652;    2,803;    2,136
1102,209;  861,652;    1,530;    2,227
1102,748;  817,197;    3,439;    0,955
1103,288;  797,379;    0,712;   -1,227
1103,827;  822,833;    3,530;   -2,227
1104,367;  703,197;    1,712;   -2,409
1104,906;  678,015;   -1,015;   -1,136
1105,445;  740,015;    0,985;   -1,136
1105,985;  690,288;   -0,652;    1,500
1106,524;  727,652;    1,530;   -0,682
1107,063;  704,288;    1,167;    1,409
1107,602;  690,106;    1,894;   -1,500
1108,141;  614,470;    1,621;    1,500
1108,680;  708,197;    3,985;   -0,591
1109,219;  645,652;    0,167;   -0,500
1109,758;  651,379;    4,167;    0,682
1110,297;  629,197;   -1,106;   -0,682
1110,836;  579,833;    1,439;    0,955
1111,375;  719,470;    0,348;    0,409
1111,913;  736,561;    0,985;    0,773
1112,452;  674,015;    0,894;    0,136
1112,991;  568,015;    1,076;    1,955
1113,529;  529,470;    0,167;   -0,045
1114,068;  594,106;    0,439;    2,955
1114,606;  499,833;   -0,561;   -0,955
1115,144;  649,015;    1,530;    1,045
1115,683;  589,106;    1,985;    0,318
1116,221;  636,924;    2,076;   -0,864
1116,759;  555,470;    1,621;   -0,864
1117,297;  724,652;    1,621;    1,864
1117,836;  558,833;    1,985;   -1,227
1118,374;  559,197;    0,258;   -0,682
1118,912;  510,197;    0,439;    2,682
1119,450;  490,197;    0,985;    0,864
1119,988;  544,742;    3,348;    2,136
1120,525;  982,197;    7,258;    3,318
1121,063;  681,470;    0,530;    1,864
1121,601;  497,470;    1,076;   -1,227
1122,139;  453,106;    1,076;   -2,045
1122,676;  649,742;   -1,652;    2,773
1123,214;  587,015;    0,712;    4,409
1123,751;  409,106;    0,621;    2,227
1124,289;  526,288;    0,894;   -0,409
1124,826;  407,833;   -0,379;    0,227
1125,364;  341,106;    0,712;   -0,955
1125,901;  523,742;    6,258;    1,227
1126,438;  607,652;    3,530;    0,955
1126,975;  354,379;    2,985;   -0,773
1127,513;  413,288;    2,621;    2,136
1128,050;  335,288;   -0,561;   -0,682
1128,587;  426,470;    1,348;   -0,227
1129,124;  458,833;   -0,015;    1,318
1129,661;  350,924;   -1,924;    0,227
1130,198;  500,197;    2,439;    0,773
1130,734;  444,197;   -0,379;    1,409
1131,271;  314,742;   -1,197;    0,864
1131,808;  475,015;    1,621;    3,045
1132,345;  350,470;    4,530;    0,318
1132,881;  243,197;   -0,561;   -1,864
1133,418;  362,652;    0,348;   -1,136
1133,954;  307,379;    0,712;   -2,682
1134,491;  372,924;    1,712;   -0,773
1135,027;  288,106;    2,167;    0,864
1135,564;  363,106;    1,439;    2,955
1136,100;  342,197;   -0,742;    2,136
1136,636;  250,833;   -1,015;   -1,045
1137,172;  329,470;    0,894;   -1,045
1137,708;  269,379;   -1,561;   -1,045
1138,245;  269,470;    0,803;   -1,227
1138,781;  237,742;    1,803;   -3,318
1139,317;  285,833;    1,894;   -1,409
1139,852;  274,924;    3,076;    0,136
1140,388;  379,379;    2,076;   -0,409
1140,924;  271,924;    1,076;   -2,227
1141,460;  213,470;   -0,288;    0,136
1141,996;  155,742;   -0,652;    2,682
1142,531;  199,833;    1,076;    3,318
1143,067;  404,833;    1,167;    1,045
1143,602;  450,652;    3,439;   -0,318
1144,138;  296,288;    0,803;    1,045
1144,673;  190,924;    1,621;    1,409
1145,209;  251,561;    2,894;   -0,318
1145,744;  170,288;    0,803;    0,864
1146,279;  284,197;    1,530;   -0,136
1146,815;  215,742;    1,530;   -2,682
1147,350;  248,561;   -0,924;    0,045
1147,885;  173,288;   -1,924;   -1,318
1148,420;  173,470;    2,439;    0,773
1148,955;  148,652;   -1,470;    1,864
1149,490;  178,106;   -1,106;   -1,591
1150,025;  155,106;   -1,106;   -1,773
1150,560;  263,379;   -0,288;   -0,955
1151,094;  235,379;    0,258;   -0,591
1151,629;  234,561;   -3,742;    0,864
1152,164;  170,288;   -1,288;    1,318
1152,698;  136,015;    1,258;   -0,136
1153,233;   96,833;   -1,379;   -0,682
1153,767;  140,106;   -0,288;   -2,318
1154,302;  184,561;   -0,379;    1,773
1154,836;  179,015;    0,803;   -2,136
1155,371;  230,288;    2,258;    3,682
1155,905;  194,197;    1,985;    1,682
1156,439;  163,197;    0,530;   -0,500
1156,973;  193,742;    0,439;    0,318
1157,507;  135,924;   -1,742;    0,682
1158,042;  160,742;   -0,652;    1,045
1158,576;  196,833;   -0,561;    1,773
1159,110;  188,288;    0,076;    2,409
1159,643;  158,015;   -2,470;   -0,045
1160,177;  100,015;   -2,015;    1,500

