
Integration time [ms]:   0,050
Averaging Nr. [scans]: 11
Smoothing Nr. [pixels]: 0
Data measured with spectrometer [name]: 7318044SP
Wave   ;Sample   ;Dark     ;Reference
[nm]   ;[counts] ;[counts] ;[counts] 

186,757;  -21,050;   38,161;    1,318
187,357;   -1,602;   26,706;    0,955
187,958;  -19,433;   17,252;   -1,591
188,558;   12,122;   12,979;   -1,227
189,159;   -8,133;   10,070;   -4,500
189,759;  -27,170;    5,797;   -3,591
190,360;  -26,862;    6,797;   -2,136
190,960;   -1,987;    5,706;   -4,136
191,560;    4,667;    2,614;   -6,591
192,161;  190,540;    5,885;   -3,500
192,761;   64,984;    5,520;   -3,227
193,361;    9,743;    3,065;   -3,773
193,962;   51,574;    1,612;   -2,682
194,562;   -3,259;   -0,114;   -3,955
195,162;    3,259;   -0,567;   -2,227
195,762;  108,937;    2,433;   -0,045
196,362;   60,994;    1,706;   -2,500
196,963;  -11,892;    1,706;   -0,864
197,563;   27,400;    1,252;   -0,955
198,163;   -6,037;   -0,111;   -0,682
198,763;   -4,178;   -0,020;   -0,500
199,363;   47,259;    3,616;   -0,500
199,963;   25,049;    2,162;    0,409
200,563;   13,598;    6,344;   -1,409
201,163;   -6,385;    5,435;   -0,227
201,763;   20,137;    1,435;    0,318
202,363;   -4,488;    0,980;    1,500
202,963;   27,289;    1,526;    1,045
203,563;   75,268;    0,344;    0,500
204,162;   18,287;    1,889;   -1,864
204,762;    8,038;    2,071;    0,591
205,362;  -18,257;    0,708;    1,955
205,962;    9,883;    3,435;    1,955
206,562;   14,368;    1,889;    2,318
207,161;   -6,214;    1,708;    0,318
207,761;   63,037;    4,435;    2,409
208,361;    7,933;    1,889;    1,409
208,960;   21,408;    2,889;    1,500
209,560;   16,416;    0,435;    1,591
210,160;   28,167;    5,071;    1,864
210,759;   11,424;    0,708;    1,227
211,359;    0,488;   -0,474;    1,045
211,958;   93,182;    3,526;    2,045
212,558;  100,062;    0,799;    1,864
213,157;   25,943;   -0,929;    1,500
213,757;  162,881;    5,617;   -0,227
214,356;   56,472;    1,708;   -0,409
214,956;  143,938;    3,526;    0,409
215,555;   41,268;    0,617;    2,136
216,154;    7,936;   -0,292;   -0,591
216,754;    9,018;    1,253;    0,773
217,353;   21,794;   -0,383;   -1,045
217,952;  -19,845;    2,072;    0,318
218,552;   33,614;    0,254;   -0,773
219,151;    6,704;   -1,110;    0,955
219,750;   -6,414;    0,890;   -0,227
220,349;  -10,303;   -2,292;    1,045
220,948;   44,764;    1,163;    1,136
221,548;    4,767;    0,617;    1,227
222,147;   17,775;   -1,292;   -0,409
222,746;   81,659;    1,254;   -0,955
223,345;   31,228;   -1,019;    0,500
223,944;   36,015;    1,163;    0,773
224,543;   37,225;    4,072;   -1,409
225,142;   24,747;    1,345;    0,136
225,741;   34,289;    1,163;    1,045
226,340;   20,799;    1,254;   -0,955
226,939;   68,766;    2,708;   -0,136
227,538;   14,852;    1,163;   -0,773
228,137;   74,423;    0,435;    0,864
228,735;   46,963;    0,435;    1,227
229,334;   -9,501;   -0,474;   -0,227
229,933;   71,664;    0,799;    0,591
230,532;   62,879;   -1,201;   -0,409
231,131;   98,509;    1,253;    0,318
231,729;   42,640;    1,163;   -2,318
232,328;   13,412;    0,435;   -1,500
232,927;   14,630;    4,526;   -0,500
233,525;   13,409;    0,981;    0,045
234,124;   31,029;    1,890;   -1,591
234,723;    6,158;    1,617;   -1,045
235,321;   -5,797;    1,163;    0,136
235,920;    6,463;    2,526;   -1,227
236,518;   74,144;    1,072;    0,318
237,117;    1,013;    2,890;   -0,227
237,715;   14,018;    1,163;   -0,500
238,314;   19,984;    1,708;   -2,318
238,912;   73,380;    0,526;   -1,409
239,510;   41,997;    1,162;   -1,227
240,109;   80,260;   -0,474;    3,773
240,707;   68,434;   -0,474;    1,227
241,305;    2,227;   -0,383;    0,136
241,904;   39,045;   -0,292;   -2,045
242,502;  104,605;    3,253;   -0,227
243,100;   51,826;    3,344;   -0,955
243,698;   11,831;    2,799;    1,682
244,297;   31,504;   -0,656;    0,682
244,895;   25,193;   -0,474;   -2,318
245,493;  117,027;    2,981;   -0,591
246,091;  122,249;    5,163;   -1,318
246,689;   76,699;    2,163;    0,591
247,287;   76,026;   -0,019;   -1,136
247,885;   61,303;   -1,019;    1,227
248,483;   34,807;   -0,201;   -0,500
249,081;   98,362;    0,981;    1,591
249,679;  118,466;   -1,019;    1,682
250,277;   53,906;   -2,292;    0,864
250,875;  125,558;    0,617;   -1,045
251,473;   75,868;   -0,019;    0,500
252,071;  141,171;   -0,383;    1,045
252,669;   92,469;   -1,565;    0,318
253,267;   69,450;    1,618;    0,773
253,864;  107,208;    0,617;    0,682
254,462;  201,198;    1,526;    1,591
255,060;   87,356;    0,072;    1,318
255,658;   89,742;   -3,292;   -0,136
256,255;  131,566;   -0,201;   -2,045
256,853;  174,394;    2,345;    1,409
257,451;  143,018;    1,981;    1,864
258,048;  457,448;    2,072;    1,864
258,646;  263,193;    0,436;   -1,045
259,243;  341,667;    2,981;    2,227
259,841;  252,260;    1,799;    0,318
260,438;  151,004;    0,254;    0,864
261,036;  246,450;    0,617;    1,409
261,633;  176,388;    1,526;    2,227
262,231;  145,305;   -0,110;   -0,045
262,828;  158,780;   -0,383;    1,136
263,425;  209,257;   -1,928;   -0,591
264,023;  215,265;    1,436;    0,045
264,620;  341,366;    1,526;   -0,318
265,217;  464,656;    2,890;    3,136
265,815;  257,353;    2,527;    2,136
266,412;  363,029;    0,072;    0,136
267,009;  378,922;    0,526;    0,773
267,606;  449,557;    0,345;   -0,955
268,203;  289,956;   -0,383;   -0,591
268,801;  335,496;   -0,474;    0,591
269,398;  275,259;   -0,564;    2,500
269,995;  413,780;    0,890;    1,591
270,592;  348,713;    0,799;   -0,500
271,189;  274,654;    1,981;    0,409
271,786;  262,930;    2,072;    1,227
272,383;  479,732;   -0,383;    0,227
272,980;  346,263;    1,617;    0,318
273,577;  310,474;    2,162;    1,227
274,174;  282,343;    1,435;    2,591
274,771;  412,469;    1,890;   -0,773
275,367;  763,196;    3,253;    1,409
275,964;  580,954;   -0,565;   -0,500
276,561;  392,302;   -2,474;   -1,045
277,158;  314,012;    1,799;   -1,773
277,755;  545,181;   -0,110;    0,409
278,351;  434,461;    0,436;   -1,500
278,948;  508,598;   -0,201;    0,045
279,545;  445,209;    0,527;    2,318
280,141;  632,817;    1,254;   -2,045
280,738;  593,278;    2,435;   -0,136
281,334;  401,804;   -0,383;    0,591
281,931;  422,567;    2,890;   -1,318
282,528;  530,302;    4,072;   -0,500
283,124;  620,471;    3,345;   -0,500
283,721;  612,729;    0,709;    1,409
284,317;  471,181;    0,163;    2,500
284,913;  676,252;   -0,110;    0,591
285,510;  954,798;    2,890;   -0,318
286,106;  769,067;    2,345;   -0,955
286,703;  548,552;    0,072;    1,955
287,299;  511,806;    1,254;   -0,591
287,895;  517,579;    0,890;   -1,045
288,491;  554,259;    0,163;    2,136
289,088;  692,634;    0,163;    2,409
289,684;  762,196;    2,890;    1,500
290,280;  949,166;    1,890;    0,682
290,876;  951,602;    0,163;    5,500
291,472;  865,225;    2,163;    2,227
292,068;  913,804;    1,254;    0,227
292,665;  795,351;   -0,564;    0,773
293,261;  708,755;   -1,292;    2,136
293,857;  967,975;    4,072;    2,136
294,453;  927,659;   -0,928;    0,955
295,049; 1205,550;    0,253;    1,955
295,644; 1058,834;   -1,292;    0,136
296,240;  977,539;    0,162;   -0,136
296,836; 1208,434;   -0,747;    0,318
297,432; 1433,288;    2,980;   -0,500
298,028; 1552,352;    0,435;    0,773
298,624; 1458,448;    0,889;    1,864
299,220; 1527,828;    0,435;    0,591
299,815; 1495,858;    0,526;   -0,409
300,411; 1658,641;    0,435;    1,773
301,007; 1825,792;    1,889;    0,227
301,602; 1706,320;    2,071;   -2,318
302,198; 1880,926;    1,435;   -0,773
302,794; 1861,145;    1,526;   -0,500
303,389; 1943,705;    1,071;    1,045
303,985; 2027,505;    1,253;    1,409
304,580; 2107,595;    0,889;    1,591
305,176; 2033,427;    0,344;    0,136
305,771; 1961,775;   -0,929;   -1,227
306,367; 2320,777;    3,071;    0,136
306,962; 2218,139;    2,889;    1,500
307,558; 2077,620;    2,435;    0,136
308,153; 2166,887;   -0,383;   -1,136
308,748; 2065,371;    0,162;    1,682
309,344; 2387,354;    0,253;   -1,318
309,939; 2434,979;    2,071;   -1,318
310,534; 2212,667;   -2,020;   -1,682
311,130; 2061,440;   -0,656;   -2,500
311,725; 1907,569;    0,526;   -0,500
312,320; 2002,753;    1,253;    0,045
312,915; 2124,671;    2,890;   -1,045
313,510; 2285,879;    0,526;   -0,500
314,105; 2162,448;   -3,565;    1,409
314,700; 1802,850;   -1,656;   -1,045
315,295; 1776,686;   -0,020;    0,045
315,890; 1581,674;   -0,292;    0,864
316,485; 1683,488;    0,253;   -0,318
317,080; 1647,694;   -0,929;    1,591
317,675; 1956,848;    3,071;   -0,682
318,270; 2037,678;    6,889;    3,318
318,865; 1911,036;    2,435;    3,045
319,460; 1663,107;   -1,565;    0,591
320,055; 1577,871;   -2,565;   -1,227
320,650; 1468,633;   -1,838;   -0,591
321,244; 1457,531;    0,889;   -1,409
321,839; 1670,410;    0,980;   -0,227
322,434; 1663,207;   -0,111;   -1,591
323,029; 1513,188;   -0,474;    1,591
323,623; 1436,644;    0,798;    0,773
324,218; 1535,064;    2,707;    1,409
324,812; 1480,786;    0,889;    1,591
325,407; 1486,834;   -0,929;    2,045
326,002; 1579,721;    0,526;   -0,409
326,596; 1589,836;   -0,656;    1,318
327,191; 1516,333;   -0,383;   -1,045
327,785; 1419,108;   -0,747;   -0,227
328,379; 1609,001;   -0,383;    0,136
328,974; 1592,124;    1,798;   -3,955
329,568; 1747,550;    2,889;   -2,409
330,163; 1826,775;    2,435;    1,045
330,757; 1862,289;    0,253;    1,591
331,351; 1760,086;   -0,292;    0,682
331,945; 1865,322;   -0,383;    1,409
332,540; 1980,182;    1,617;   -0,591
333,134; 2033,175;    3,344;    0,773
333,728; 2102,786;    2,799;    0,318
334,322; 2276,206;    0,889;   -0,864
334,916; 2130,287;    0,344;    0,955
335,510; 2445,199;   -0,111;   -0,136
336,105; 2628,788;   -0,929;    1,591
336,699; 2515,196;   -1,292;    0,591
337,293; 2624,518;    1,071;    0,318
337,887; 2732,239;    0,071;    1,955
338,481; 2982,482;    2,980;    0,591
339,074; 3280,555;    2,071;    2,682
339,668; 3277,954;   -0,110;    1,227
340,262; 3967,576;    7,708;    3,227
340,856; 3559,758;    1,708;   -0,682
341,450; 3241,405;    0,708;    1,864
342,044; 3786,246;    1,799;    0,136
342,637; 3873,896;    1,162;   -2,136
343,231; 3950,445;   -1,474;    0,682
343,825; 3910,191;   -0,747;   -0,591
344,419; 4079,714;   -0,474;    0,500
345,012; 4391,612;    2,889;    4,045
345,606; 4397,461;   -0,656;    1,591
346,199; 4313,976;   -0,111;   -0,227
346,793; 4238,193;    2,525;    2,045
347,386; 4431,204;    0,889;   -1,136
347,980; 4432,985;   -0,838;   -0,045
348,573; 4484,059;   -1,748;    0,409
349,167; 4481,850;    6,161;    4,773
349,760; 4836,982;    2,252;    2,682
350,354; 4774,061;    1,616;    1,136
350,947; 4672,830;    2,798;    1,682
351,540; 4491,125;    0,616;   -1,409
352,134; 4460,377;   -1,111;    1,136
352,727; 4569,143;   -0,657;    1,136
353,320; 4531,979;    2,343;    0,591
353,913; 4395,585;   -1,929;    1,864
354,507; 4583,882;    0,434;   -1,227
355,100; 4627,671;    0,071;    0,864
355,693; 4280,039;    4,798;    2,409
356,286; 4239,736;    0,980;    2,773
356,879; 4438,719;   -0,475;    1,227
357,472; 4136,401;    0,980;    1,500
358,065; 4312,202;    3,161;    2,500
358,658; 4250,987;    0,798;    2,318
359,251; 3984,542;    0,252;   -0,591
359,844; 3733,097;    0,343;   -1,136
360,437; 3877,558;    0,252;    0,045
361,030; 4013,146;    0,525;   -0,682
361,623; 3712,594;    0,434;    0,318
362,215; 3765,856;    0,979;    2,045
362,808; 3616,703;   -2,293;   -1,682
363,401; 3690,797;    0,798;    0,136
363,994; 3633,176;    3,252;   -1,500
364,586; 3493,160;    0,888;   -1,500
365,179; 3568,470;   -0,203;   -1,136
365,772; 3180,763;   -0,930;    2,045
366,364; 3295,004;    1,524;   -3,227
366,957; 3477,784;    1,342;   -0,045
367,549; 3375,031;   -0,203;   -0,864
368,142; 3209,093;    0,978;   -1,500
368,734; 3287,249;    2,523;   -2,136
369,327; 3236,249;    2,341;   -0,500
369,919; 3178,150;   -1,659;    0,409
370,512; 3126,043;   -1,023;   -0,500
371,104; 3036,235;    2,704;    1,591
371,696; 3129,597;    1,703;   -0,955
372,289; 3095,627;    0,157;    1,136
372,881; 3104,508;    1,156;    1,318
373,473; 2968,063;    4,064;    1,136
374,066; 2928,321;    1,336;    0,500
374,658; 2859,410;    0,879;    1,136
375,250; 2966,826;   -1,668;   -1,409
375,842; 2877,648;   -0,124;   -0,045
376,434; 2762,687;   -2,762;   -0,409
377,026; 3089,776;   -1,855;   -2,500
377,618; 2981,496;    0,779;   -0,682
378,210; 2866,264;    3,141;   -1,955
378,802; 2722,016;    3,412;   -0,591
379,394; 2933,511;    3,411;    0,682
379,986; 3093,919;    1,138;   -0,955
380,578; 3075,026;    1,410;    0,773
381,170; 2848,250;    0,320;    0,045
381,762; 2739,958;   -0,224;    1,409
382,354; 2803,194;   -0,223;   -1,318
382,945; 2810,930;    0,870;    0,318
383,537; 2918,002;    1,144;   -1,955
384,129; 2938,414;    0,963;   -1,136
384,721; 3010,928;    0,418;    0,955
385,312; 2885,602;   -1,399;   -0,955
385,904; 3021,880;   -0,945;    1,591
386,496; 2611,536;    0,691;    1,045
387,087; 2780,607;    0,418;    2,500
387,679; 2717,923;   -0,401;    0,045
388,270; 2828,177;   -2,401;    2,045
388,862; 2848,830;   -0,401;   -0,318
389,453; 2665,328;    1,054;    1,045
390,045; 2860,296;    3,236;   -2,682
390,636; 2853,862;    0,144;   -0,591
391,227; 2749,934;    2,054;   -0,045
391,819; 2834,470;    0,781;    0,773
392,410; 2961,553;    0,600;    0,045
393,001; 2858,925;    1,600;   -1,591
393,593; 2987,665;    0,600;   -0,045
394,184; 2924,753;    0,873;   -0,409
394,775; 2732,062;    1,146;    2,136
395,366; 2931,676;    1,782;    0,773
395,957; 2935,867;   -2,400;    0,136
396,548; 3026,992;    1,054;    2,682
397,139; 3238,891;    2,236;    0,591
397,730; 3035,998;    0,873;    0,955
398,321; 3057,022;    0,509;    0,955
398,912; 3015,456;   -0,764;    0,136
399,503; 3151,660;   -1,945;   -1,409
400,094; 2855,587;   -1,582;    1,682
400,685; 2765,399;    3,600;    0,045
401,276; 2736,724;   -0,400;   -0,955
401,867; 2868,542;   -1,127;    0,773
402,458; 2905,137;    1,509;   -2,318
403,048; 2947,121;    0,146;    0,591
403,639; 2673,518;    1,509;    0,864
404,230; 2942,435;    0,691;    0,318
404,821; 2911,660;   -0,127;    0,045
405,411; 2879,051;   -0,763;   -2,591
406,002; 2578,526;    3,237;   -1,136
406,592; 2685,373;    2,691;    0,045
407,183; 2671,836;    0,328;   -1,500
407,774; 2507,833;    1,419;   -0,136
408,364; 2625,212;    2,600;    0,409
408,954; 2522,779;   -0,036;    1,227
409,545; 2473,219;    1,873;    1,045
410,135; 2168,171;   -1,581;    0,500
410,726; 2181,351;    0,783;    0,318
411,316; 2405,511;    2,237;    0,773
411,906; 2131,375;    0,146;   -0,409
412,497; 1906,412;   -0,490;   -0,045
413,087; 2042,394;    0,783;   -0,227
413,677; 2113,929;   -2,490;    3,864
414,267; 1980,423;   -1,035;    1,409
414,857; 1863,997;    0,419;    4,227
415,448; 1915,450;   -0,763;    0,500
416,038; 1772,961;   -2,945;   -0,591
416,628; 1714,369;    0,965;    0,409
417,218; 1657,041;   -1,762;    3,318
417,808; 1797,160;    0,965;   -0,409
418,398; 1644,379;   -1,035;    2,682
418,988; 1478,916;   -2,217;    0,591
419,578; 1501,017;    3,601;    1,409
420,168; 1555,476;    0,692;   -0,955
420,757; 1551,755;    0,964;   -1,500
421,347; 1292,022;    1,601;   -0,227
421,937; 1232,039;    3,329;    1,409
422,527; 1330,829;    2,602;   -0,773
423,116; 1411,315;    2,692;   -0,045
423,706; 1131,982;    2,965;    0,318
424,296;  972,154;    1,601;    0,682
424,885; 1193,245;    1,510;   -3,045
425,475; 1107,498;    1,147;   -2,864
426,065;  916,612;   -1,489;   -0,318
426,654;  850,235;    0,329;   -0,318
427,244; 1176,459;    1,147;    1,409
427,833; 1047,789;    1,056;   -0,500
428,423;  857,333;    0,147;    1,136
429,012;  918,917;    2,420;   -1,136
429,601;  980,288;    2,057;    0,136
430,191;  804,287;    2,511;    4,318
430,780;  593,947;   -1,671;   -0,409
431,369;  869,566;    1,329;   -0,045
431,959;  761,440;    1,693;    0,500
432,548;  605,486;   -1,398;   -0,045
433,137;  487,725;    0,329;   -1,318
433,726;  602,773;    0,148;    0,500
434,315;  558,239;    0,148;    2,409
434,905;  689,644;    0,693;    1,409
435,494;  704,671;    3,148;    0,955
436,083;  496,947;    1,420;   -0,955
436,672;  544,914;    1,148;    0,500
437,261;  466,351;    0,512;   -1,955
437,850;  774,362;   -1,125;    0,682
438,439;  796,689;    2,239;    1,955
439,027;  891,818;    3,421;    1,773
439,616;  804,582;    2,239;    1,227
440,205;  499,641;    0,057;   -2,136
440,794;  391,061;   -0,306;   -0,045
441,383;  260,694;    1,603;   -0,591
441,971;  194,493;   -0,306;    0,591
442,560;  206,185;    0,603;   -1,773
443,149;   75,568;    3,060;   -1,318
443,737;  129,399;    0,968;   -2,318
444,326;  142,381;    0,331;    0,318
444,915;  200,208;   -1,851;    0,864
445,503;  190,155;    0,058;   -0,318
446,092;  469,557;    7,876;    2,136
446,680;  376,265;    1,876;    0,318
447,269;  268,640;   -1,487;   -0,318
447,857;  229,827;    2,240;   -1,773
448,445;  173,437;    2,149;    1,318
449,034;   96,713;    0,876;   -1,136
449,622;  100,354;    1,240;    3,500
450,210;  400,560;    3,149;    2,227
450,799;  299,321;    2,604;   -0,591
451,387;  231,119;    1,786;   -0,591
451,975;  209,975;   -1,305;    0,864
452,563;  282,675;    0,422;    2,318
453,151;   95,178;   -1,032;   -1,227
453,739;  144,342;   -1,577;    0,136
454,328;  241,430;    0,604;   -2,136
454,916;  159,084;    1,150;   -0,136
455,504;  169,953;    3,513;    1,227
456,092;   49,014;    2,150;   -1,591
456,679;   15,269;    0,604;    0,682
457,267;  442,365;    3,604;    1,045
457,855;  113,845;    3,241;    1,409
458,443;  -30,950;   -0,304;    1,682
459,031;  111,251;    1,332;    2,409
459,619;   75,339;   -3,577;    2,864
460,206;   -5,404;   -0,759;    2,045
460,794;   -8,032;   -0,668;   -0,227
461,382;   37,870;    0,878;   -0,864
461,970;   20,988;    0,605;    1,864
462,557;  -44,807;    0,878;   -0,682
463,145;   64,381;   -0,304;   -1,682
463,732;  300,443;    2,514;   -1,045
464,320;   91,135;    1,514;   -3,045
464,907;  213,242;    0,423;   -0,773
465,495;  126,531;    2,696;   -1,227
466,082;   46,062;    2,060;   -0,045
466,670;   63,899;    2,605;    1,227
467,257;  -26,416;    0,060;    2,045
467,844;   67,840;    1,514;    0,045
468,432;   43,528;   -0,031;    3,500
469,019;   12,903;    1,606;   -1,773
469,606;   84,612;    0,969;    3,682
470,193;  107,298;    2,151;    0,227
470,780;   64,582;    0,333;    0,864
471,368;    4,882;   -1,212;   -0,773
471,955;   93,021;    1,060;   -0,682
472,542;   61,541;   -0,303;   -1,136
473,129;  -38,164;   -0,485;    0,136
473,716;  -37,866;    0,060;    0,591
474,303;   -7,947;    1,333;   -0,864
474,890;   -1,054;    2,333;   -0,500
475,477;   89,249;   -0,576;    0,409
476,064;    7,206;    0,697;   -1,591
476,650;  107,173;    2,152;    0,318
477,237;   30,173;    1,879;    0,955
477,824;    9,960;    3,879;    0,864
478,411;  -67,241;    0,606;   -0,318
478,997;  -67,040;    0,606;   -0,773
479,584; -107,110;   -0,666;   -0,409
480,171;   43,197;    1,243;   -0,773
480,757;   85,812;   -0,848;    0,773
481,344;    6,356;    0,334;    0,409
481,931;  -73,561;   -0,393;    1,045
482,517;   34,277;    0,425;    0,318
483,104;  115,040;    1,334;    2,864
483,690;   -4,763;    0,243;    0,045
484,276;  -23,899;    0,698;    0,227
484,863;  156,857;    2,152;    1,136
485,449;   24,733;    0,152;    0,318
486,035;  -15,853;   -0,666;   -0,136
486,622;   63,320;   -2,393;    0,045
487,208;   -7,463;    1,334;    1,500
487,794;  -76,250;    0,971;    0,318
488,380;  -75,757;    0,698;   -1,409
488,967;  -72,752;   -1,120;   -0,409
489,553;  -54,978;   -1,029;   -1,409
490,139;    8,272;    0,971;    0,773
490,725;  -48,886;    0,789;   -0,227
491,311;  -10,669;    1,516;    3,045
491,897;  -30,927;   -0,665;    1,500
492,483;  -21,948;    0,426;    1,227
493,069;  403,060;    5,426;    0,864
493,655;  123,637;    1,789;    0,682
494,241;    2,309;    1,517;   -0,955
494,826;   10,835;    0,335;   -1,045
495,412;   67,594;    0,335;   -0,682
495,998;  -13,616;    0,971;   -0,318
496,584;   36,535;    2,244;    1,045
497,169;   54,283;    2,335;   -0,682
497,755;    5,333;    1,244;    1,227
498,341;  123,188;    2,153;    0,318
498,926;  236,051;    2,881;    1,955
499,512;    2,643;   -0,028;    2,955
500,097;    1,298;   -0,574;   -0,318
500,683;   24,695;   -0,028;    2,136
501,268;  -14,627;    1,881;   -0,955
501,854;    8,762;   -0,119;    1,227
502,439;   -1,649;   -0,573;   -1,773
503,024;   17,950;    1,608;    0,500
503,610;   64,150;    1,335;   -0,682
504,195;   17,053;    1,245;    1,955
504,780;  123,574;    2,335;    1,227
505,366;  227,000;    4,063;    2,864
505,951;  169,802;   -1,119;    1,045
506,536;   97,805;    1,427;   -3,682
507,121;  195,144;    1,699;   -0,318
507,706;  166,703;   -0,392;    1,045
508,291;  135,807;   -2,937;    1,136
508,876;  188,375;   -0,482;    2,591
509,461;  303,456;    1,427;   -0,773
510,046;  426,015;   -0,391;    0,318
510,631;  494,660;   -0,119;   -0,773
511,216;  462,968;   -0,664;   -0,500
511,801;  689,333;   -0,755;    2,591
512,386;  839,485;    0,972;    0,500
512,971; 1013,801;    0,427;    0,955
513,555; 1227,133;    1,154;   -1,500
514,140; 1463,834;    1,336;   -3,136
514,725; 1763,228;    1,791;   -1,136
515,309; 1937,382;    1,064;    0,318
515,894; 2072,163;   -0,300;   -2,227
516,479; 2509,938;    1,973;   -0,955
517,063; 2764,259;    0,882;    1,227
517,648; 3244,005;    0,155;   -1,136
518,232; 3369,363;   -1,300;   -1,409
518,817; 4028,977;    1,337;    1,682
519,401; 4691,007;    0,700;    0,591
519,985; 4726,969;    2,700;    1,136
520,570; 5126,269;   -0,118;   -1,955
521,154; 5849,395;    0,064;    0,591
521,738; 6466,801;    1,064;    2,409
522,323; 7397,457;   -0,390;    1,682
522,907; 7608,664;    2,428;   -0,136
523,491; 7909,951;    1,155;    0,955
524,075; 8321,202;    0,428;    0,591
524,659; 8841,334;    0,973;    0,591
525,243; 8832,022;    0,883;    0,409
525,827; 9424,175;    0,883;   -0,045
526,411;10508,425;    1,155;   -0,136
526,995;11085,896;    0,337;    1,409
527,579;11035,345;    1,974;   -1,045
528,163;11644,363;    0,428;   -1,500
528,747;11929,521;    1,065;   -0,773
529,331;12460,620;    0,883;   -1,409
529,915;12851,405;    2,338;    0,955
530,499;13044,282;    0,247;    1,227
531,082;12971,881;    1,065;    1,591
531,666;12658,065;    0,520;    0,773
532,250;13531,135;    0,428;    2,682
532,833;14025,009;    0,610;    2,773
533,417;14052,414;    1,247;    0,864
534,001;14128,719;    0,429;   -0,318
534,584;14954,306;    1,974;    0,500
535,168;14932,478;    3,247;    1,409
535,751;15092,556;    4,520;    0,045
536,334;14682,690;    4,520;   -0,409
536,918;15398,435;    1,974;    1,591
537,501;15580,320;    1,520;    1,318
538,085;15630,445;    1,702;    1,045
538,668;15809,786;    0,883;    2,409
539,251;16243,036;    3,156;    3,773
539,834;16358,745;    0,156;    0,773
540,418;16308,456;    3,247;    4,318
541,001;16524,113;    2,702;    1,773
541,584;16574,943;    1,429;    2,227
542,167;16295,416;    0,702;    2,955
542,750;16504,855;    0,793;   -0,773
543,333;16102,526;    1,429;    2,136
543,916;16932,907;   -0,298;    2,500
544,499;17552,287;    2,520;    0,227
545,082;17595,724;    0,248;    3,591
545,665;17802,990;   -0,207;    1,500
546,248;18162,617;    0,520;   -0,318
546,830;17875,380;   -1,752;    1,955
547,413;18351,185;    0,157;   -0,773
547,996;18889,306;    0,157;    0,500
548,579;18681,356;   -0,843;    0,955
549,161;18499,975;    0,884;    2,682
549,744;18317,661;    0,612;    0,409
550,326;18874,397;    0,885;   -1,136
550,909;18614,251;    2,339;    0,591
551,492;19034,460;    0,521;    0,227
552,074;18768,776;   -0,024;   -1,318
552,657;19392,567;    2,430;    0,045
553,239;19171,136;   -3,024;   -0,773
553,821;19115,131;   -1,570;    1,045
554,404;18626,075;   -0,024;    1,136
554,986;19006,951;    2,248;    1,045
555,568;19625,611;    0,430;   -0,955
556,151;18758,498;    4,067;   -0,227
556,733;19015,200;   -1,388;   -0,864
557,315;19505,444;    4,703;    0,500
557,897;19300,666;    0,521;   -0,500
558,479;19460,162;    1,703;    1,318
559,061;19622,214;    1,067;   -0,864
559,643;19939,115;   -0,297;    0,045
560,225;20298,957;   -0,388;    2,864
560,807;20378,479;    0,340;    0,318
561,389;19887,749;   -1,206;    2,318
561,971;20560,658;   -0,660;    2,136
562,553;20379,615;    0,613;    1,591
563,135;20568,450;    1,249;    1,136
563,717;20134,050;    3,158;    1,136
564,298;20873,675;    3,976;   -0,045
564,880;20584,849;    0,340;   -1,409
565,462;20802,213;    1,977;    1,318
566,043;21993,451;   -0,933;    2,318
566,625;21506,628;    4,067;    1,227
567,207;21362,987;    0,704;    1,682
567,788;22559,283;   -0,114;    1,500
568,370;23365,098;   -1,841;   -0,500
568,951;23181,558;   -0,569;    0,227
569,533;24123,165;    0,977;   -0,500
570,114;24580,162;   -0,296;    0,682
570,695;25101,258;   -0,478;   -1,318
571,277;25667,588;   -0,205;   -1,682
571,858;26416,754;    2,704;   -1,136
572,439;27392,296;    0,795;   -1,045
573,021;27509,309;    0,432;   -2,773
573,602;28051,974;    1,795;    0,318
574,183;29073,823;   -0,114;    2,227
574,764;29219,958;    2,068;    0,409
575,345;29732,738;    0,250;   -0,136
575,926;30441,255;    2,704;    0,136
576,507;30468,151;    2,704;   -0,227
577,088;31524,937;    1,704;    1,682
577,669;31550,724;    1,704;    1,955
578,250;32359,004;   -0,750;   -1,045
578,831;33039,317;   -0,841;   -2,227
579,412;33257,792;   -1,205;    0,955
579,993;34229,048;    1,432;    0,227
580,573;34624,175;   -0,023;   -0,955
581,154;33513,488;    1,613;   -0,591
581,735;34392,414;    0,341;    0,773
582,315;33935,596;    0,523;    2,136
582,896;34185,413;   -1,750;    1,227
583,477;33675,073;    0,614;    1,227
584,057;33906,834;    1,159;    0,955
584,638;34114,775;   -2,750;    2,318
585,218;34151,097;    2,886;    2,682
585,799;34322,454;    1,977;   -0,227
586,379;34296,665;    1,250;    1,591
586,959;33092,795;    2,613;    0,318
587,540;32334,207;    0,432;    2,227
588,120;31824,646;   -1,113;   -0,045
588,700;30742,022;    2,977;    2,136
589,281;31068,929;    1,250;   -0,955
589,861;31030,990;   -0,296;   -1,682
590,441;30871,303;   -1,477;   -2,682
591,021;29805,315;    1,432;   -2,591
591,601;30050,299;    0,431;    0,500
592,181;30019,403;   -1,296;   -0,773
592,761;29272,237;    2,250;    1,409
593,341;29135,850;    1,522;    0,045
593,921;29127,633;   -0,569;    1,591
594,501;28990,918;    1,250;    1,318
595,081;28834,655;    0,522;   -0,318
595,661;29249,767;    1,068;    0,955
596,240;29789,786;   -1,023;    0,136
596,820;29301,181;    2,613;    1,955
597,400;29547,966;    1,977;    0,773
597,980;29824,416;   -0,750;    1,045
598,559;29805,224;    0,341;   -0,227
599,139;29534,344;   -0,750;   -1,227
599,718;29386,799;    0,795;   -0,409
600,298;29650,620;   -2,387;    0,682
600,877;29887,976;    4,795;    1,409
601,457;30157,007;    0,340;    1,136
602,036;30085,295;    1,795;    2,045
602,616;30370,502;    2,250;    1,682
603,195;30644,184;    0,431;    3,500
603,774;30185,999;   -0,296;    2,045
604,354;30075,523;    2,522;   -0,500
604,933;29503,012;    0,250;    1,864
605,512;29658,778;    2,340;    0,591
606,091;29668,028;    1,886;    3,773
606,671;30482,344;    0,249;    0,773
607,250;29505,354;    1,431;    3,136
607,829;29815,607;    1,158;    3,227
608,408;29696,168;    4,613;    2,591
608,987;28675,202;    2,704;    3,409
609,566;28979,772;    0,341;   -2,500
610,145;29069,644;    2,885;    0,682
610,723;29481,786;    1,613;    6,864
611,302;28694,704;    1,067;    1,682
611,881;28185,288;    5,158;   11,227
612,460;29028,634;    0,795;    3,955
613,039;29428,570;    1,703;    2,045
613,617;28167,749;    0,886;    4,773
614,196;28353,120;    1,613;    1,227
614,775;28643,801;    1,249;    2,409
615,353;28593,171;   -1,660;    0,864
615,932;28288,972;    0,249;    2,409
616,510;28927,797;    0,158;    0,591
617,089;28435,227;    8,794;   17,591
617,667;28183,613;    4,885;    6,136
618,246;28004,224;   -1,115;    1,318
618,824;28154,757;    1,612;   -0,955
619,402;27768,671;    0,431;   -1,773
619,981;28231,245;    1,067;   -1,045
620,559;28088,533;    0,794;    1,682
621,137;27598,712;    3,067;    1,864
621,715;27567,672;    3,703;   -0,682
622,293;27508,312;    1,885;   -0,773
622,871;28034,171;    0,340;    0,500
623,450;27534,152;    0,430;   -0,864
624,028;27418,469;   -0,388;   -0,955
624,606;27018,903;    2,339;    1,682
625,183;27437,077;   -0,661;   -1,136
625,761;27045,618;    1,885;    1,136
626,339;27337,713;    2,339;    2,591
626,917;27786,790;    0,339;   -0,045
627,495;27817,563;    2,794;    1,318
628,073;27238,978;    5,248;    2,864
628,650;26907,061;    3,067;    2,136
629,228;27367,892;    1,248;    4,409
629,806;26763,980;   -0,024;    1,136
630,383;26997,685;    0,066;   -0,318
630,961;26723,557;   -2,206;   -0,955
631,539;26457,189;   -2,479;    0,227
632,116;25742,921;   12,703;   15,409
632,694;26388,603;    4,885;    6,500
633,271;26661,664;    1,975;    2,682
633,848;26573,913;    1,430;    2,045
634,426;26669,402;    1,521;    1,773
635,003;25765,198;   -0,207;   -0,409
635,580;26020,997;    1,884;    3,682
636,158;26634,190;    3,793;    1,227
636,735;26630,514;    3,339;   -0,500
637,312;26756,723;    0,521;   -0,682
637,889;26840,528;    2,248;   -0,682
638,466;26330,150;    0,066;   -0,409
639,043;26331,043;    1,702;   -1,136
639,620;26613,643;    0,611;   -0,955
640,197;26947,894;    1,612;    1,682
640,774;27113,860;    1,430;    1,136
641,351;27505,281;    0,612;    1,136
641,928;26929,065;    2,794;    1,409
642,505;26528,486;    0,794;   -0,500
643,082;26613,452;    1,885;    1,227
643,658;25622,691;    1,157;    1,500
644,235;26434,203;   -2,479;    2,500
644,812;26659,169;    1,794;    0,773
645,388;26499,227;    1,612;    1,409
645,965;26537,193;    1,521;    1,682
646,542;26570,523;    3,430;   -0,227
647,118;26565,125;    3,703;   -0,955
647,695;26970,092;    0,339;    1,136
648,271;26807,240;   -2,115;    0,500
648,848;27124,024;    0,248;    2,227
649,424;26907,081;    0,976;    1,318
650,000;26710,139;   -0,388;   -1,045
650,577;26505,287;    0,158;   -0,955
651,153;26996,798;   -1,115;    0,955
651,729;27960,947;    0,521;    0,864
652,305;28152,731;    1,339;    2,773
652,881;32641,606;   -1,297;    1,136
653,458;39674,209;    0,249;    0,227
654,034;43594,993;    0,703;    1,591
654,610;45150,051;    0,339;    0,773
655,186;46607,290;    1,612;    3,045
655,762;46345,074;   -1,842;    0,409
656,338;46390,949;    0,703;    0,136
656,913;47453,461;   -0,297;    0,409
657,489;46767,427;    0,249;   -0,318
658,065;46709,212;    0,794;   -1,591
658,641;47252,905;    2,158;   -0,864
659,217;46624,326;    2,067;    0,409
659,792;46068,202;   -1,751;   -0,409
660,368;46424,713;   -0,388;   -0,682
660,944;46071,134;    1,794;    1,227
661,519;41443,555;    0,522;    0,409
662,095;35126,249;   -0,206;    0,591
662,670;30176,760;   -0,206;   -0,136
663,246;28961,636;   -0,660;   -0,409
663,821;28243,238;    0,431;    1,682
664,396;27726,932;    0,613;    1,864
664,972;27959,807;   -0,660;   -0,500
665,547;28306,501;    3,794;    0,136
666,122;28343,285;    1,340;    0,318
666,698;28638,524;    2,431;    0,318
667,273;27951,763;    0,885;    0,136
667,848;28814,820;    0,340;    1,500
668,423;28517,150;    1,795;    2,318
668,998;29109,389;    0,976;   -0,682
669,573;29673,719;    2,067;   -1,500
670,148;29532,322;    1,885;   -0,682
670,723;29293,652;   -0,024;    0,318
671,298;29743,800;   -1,296;    1,045
671,873;29879,312;   -0,296;   -0,136
672,448;29772,096;    1,704;    0,136
673,023;30138,244;    0,249;   -0,227
673,597;30461,574;    2,704;    2,318
674,172;30205,177;    2,431;    0,318
674,747;29732,507;   -0,205;   -1,045
675,321;29595,200;   -0,933;    3,318
675,896;29135,530;    2,158;    1,045
676,471;30113,860;    2,522;    1,591
677,045;29926,554;   -0,296;    0,682
677,620;29880,702;    2,158;    1,136
678,194;30283,577;    0,249;    1,136
678,769;29818,543;    0,886;   -0,318
679,343;30022,510;   -0,023;    1,773
679,917;29852,203;    0,340;    1,955
680,492;29910,442;    0,249;    3,227
681,066;30083,136;    0,613;    0,409
681,640;30087,920;    1,795;   -0,318
682,214;30919,159;    2,340;    0,500
682,788;30388,307;    0,613;   -0,773
683,363;30374,183;    1,977;    1,682
683,937;30068,513;    0,886;   -0,318
684,511;30876,388;   -1,023;   -0,591
685,085;30611,445;   -1,478;    0,318
685,659;30342,593;    1,431;    0,864
686,232;30524,105;    1,159;   -0,318
686,806;30236,889;    2,159;    0,409
687,380;30931,128;   -1,932;    0,591
687,954;31208,913;    2,432;    1,136
688,528;30815,697;    2,613;    1,955
689,101;31621,300;    0,432;    1,045
689,675;31206,448;    0,886;   -0,136
690,249;30546,596;    3,432;    0,409
690,822;30905,290;    1,159;    0,318
691,396;30995,256;    2,068;    1,227
691,969;30426,495;    2,523;    0,136
692,543;30915,643;   -0,568;   -1,955
693,116;30568,064;   -0,659;   -1,409
693,690;30382,848;   -0,296;    0,500
694,263;30946,269;    2,341;    2,955
694,836;30961,690;    2,795;    3,591
695,410;29544,475;    1,159;    1,773
695,983;30031,623;    1,614;    0,591
696,556;30002,316;   -0,750;   -1,045
697,129;30470,282;   -1,114;    1,409
697,703;30035,794;    1,341;    1,955
698,276;30058,760;    1,705;   -0,773
698,849;29824,727;   -1,023;    1,409
699,422;30206,602;    1,250;    0,591
699,995;29843,205;   -0,659;    0,136
700,568;30373,262;   -0,204;    3,045
701,140;30407,319;   -1,841;    1,682
701,713;30135,376;    0,341;    2,409
702,286;29890,433;    0,796;    0,864
702,859;29839,127;    0,614;   -0,591
703,432;28935,548;   -0,841;    0,682
704,004;29453,332;    1,978;    0,318
704,577;29297,117;    1,068;    0,136
705,150;29861,174;    0,887;    2,500
705,722;29626,322;    1,523;   -3,227
706,295;29449,107;    1,432;   -0,591
706,867;29191,982;    0,250;    1,955
707,440;29444,312;   -0,113;   -0,409
708,012;29751,096;   -0,022;    0,591
708,584;29640,335;    2,705;    0,227
709,157;29923,211;    1,160;   -0,591
709,729;29563,450;    1,069;    2,045
710,301;30466,143;   -1,204;    0,045
710,874;30482,928;    0,341;   -0,227
711,446;29305,621;   -0,295;    0,864
712,018;29257,587;   -3,022;    0,500
712,590;28911,463;   -0,204;    1,682
713,162;29497,247;   -0,477;    1,318
713,734;29723,395;    1,796;   -2,045
714,306;29561,725;    0,342;   -0,409
714,878;28253,782;   -0,295;    0,864
715,450;29092,931;   -0,113;    0,864
716,022;29344,715;    2,433;    1,318
716,593;29541,863;    0,978;    0,591
717,165;29473,648;    1,796;   -1,227
717,737;29170,432;    0,796;    0,409
718,309;28850,762;    1,160;   -0,045
718,880;28837,546;   -1,295;   -1,409
719,452;29030,422;    0,887;   -1,591
720,024;28534,843;    1,705;   -0,591
720,595;29111,536;    2,978;    0,955
721,167;28700,048;    1,160;   -2,045
721,738;28130,832;    2,069;   -1,045
722,309;28015,980;    1,251;   -1,227
722,881;27850,583;    2,705;    0,773
723,452;28567,004;    1,251;    2,864
724,023;28741,334;    1,524;    2,682
724,595;28480,209;    2,342;    0,682
725,166;28209,175;    1,524;   -0,409
725,737;27824,051;    1,887;    0,227
726,308;27951,563;    0,797;    0,318
726,879;28313,256;    1,069;    1,227
727,450;28194,132;   -2,022;   -0,045
728,021;28171,643;    1,069;    0,682
728,592;28012,610;    1,160;    0,500
729,163;28312,667;    1,433;   -0,136
729,734;28272,724;    2,160;   -0,227
730,305;28672,508;    0,615;    0,136
730,876;29025,202;    0,888;    2,955
731,447;28719,714;    0,797;    2,682
732,017;28839,407;   -0,840;    1,864
732,588;28336,192;   -0,021;    1,227
733,159;28448,067;    3,615;   -1,045
733,729;28284,579;    1,251;    0,409
734,300;27594,181;    0,160;    0,864
734,870;28007,148;   -1,385;    0,591
735,441;28550,023;    0,888;   -0,591
736,011;28325,353;    1,070;   -1,591
736,582;28281,319;    1,251;    0,045
737,152;27680,195;    0,979;   -2,045
737,722;28188,706;    1,070;   -0,682
738,293;27873,491;   -2,021;    1,318
738,863;27719,093;    1,797;    2,318
739,433;27549,332;    4,524;    0,318
740,003;28200,662;    1,524;   -0,682
740,573;27553,538;    2,252;   -1,591
741,143;27569,413;    3,615;    0,318
741,713;28369,288;    0,252;   -0,500
742,283;28026,891;    1,706;    1,591
742,853;27782,494;    0,524;    1,591
743,423;27289,551;    0,161;    0,045
743,993;27389,244;    1,070;    1,500
744,563;26717,847;    2,524;   -0,864
745,133;26667,359;   -0,112;   -0,864
745,702;27341,961;    2,797;    1,773
746,272;26533,564;    0,434;    0,591
746,842;26340,985;   -0,748;   -0,591
747,411;26756,406;   -0,839;   -0,318
747,981;26896,827;   -0,930;    0,500
748,551;26980,702;   -0,021;   -1,045
749,120;26863,305;   -0,112;   -0,227
749,690;27268,089;    2,161;    2,409
750,259;27615,783;    0,979;    2,955
750,828;27446,113;    4,070;   -1,955
751,398;27677,261;   -0,112;   -0,045
751,967;27193,136;    2,888;    0,409
752,536;27400,920;    1,161;   -0,227
753,105;27778,978;   -1,384;    0,227
753,675;27664,035;   -0,112;    1,773
754,244;27567,001;    0,888;    3,591
754,813;27591,513;    0,979;    1,227
755,382;27215,115;    0,798;    0,955
755,951;27721,627;   -0,112;    3,682
756,520;27312,048;    2,525;    1,864
757,089;27875,105;    1,888;    0,500
757,658;27950,708;    2,434;    1,227
758,227;27946,129;   -1,111;    0,318
758,795;28308,004;   -1,021;    1,136
759,364;28543,152;    0,525;   -0,591
759,933;27513,209;    1,343;   -0,045
760,501;27071,085;    0,252;   -1,318
761,070;27538,415;   -0,293;   -1,409
761,639;28217,563;    1,434;    1,318
762,207;27498,620;    0,889;   -0,955
762,776;27456,768;    2,889;    0,864
763,344;27402,916;    0,071;    0,591
763,913;26529,519;    1,616;    1,409
764,481;27310,758;    1,980;   -0,136
765,049;27107,815;    0,616;    1,409
765,618;26976,327;    1,434;    0,318
766,186;27093,747;    2,434;    0,136
766,754;27213,714;    1,798;    1,864
767,322;26155,498;    1,162;    0,409
767,890;26232,101;    0,525;   -1,773
768,459;26683,885;    2,616;   -0,318
769,027;26796,124;    2,525;    3,409
769,595;25794,000;    2,616;    2,591
770,163;26202,330;    3,344;    2,955
770,730;25954,750;    2,525;   -0,136
771,298;25835,808;    1,162;   -1,409
771,866;25899,047;    0,253;    4,955
772,434;26147,740;    1,162;   -1,864
773,002;26333,252;    2,616;    0,682
773,569;25972,036;    1,071;    1,682
774,137;25837,184;    0,889;   -0,045
774,705;26660,969;   -0,747;   -0,136
775,272;26126,208;    0,253;    0,682
775,840;25903,447;   -0,111;    2,682
776,407;25392,595;   -0,293;    1,955
776,975;24960,107;    1,162;    0,318
777,542;26001,891;    2,162;   -0,045
778,110;25870,039;    0,707;   -0,045
778,677;25499,642;    1,071;   -0,864
779,244;25248,881;   -1,020;    1,045
779,812;25391,029;    0,980;    0,864
780,379;25185,632;    2,435;    1,136
780,946;25436,234;    2,617;   -0,773
781,513;25746,928;   -0,565;    0,318
782,080;25073,531;    1,253;    2,864
782,647;25831,860;    1,708;    3,045
783,214;25461,918;   -0,201;    3,864
783,781;25028,884;    1,708;   -0,682
784,348;24930,032;    0,253;    1,500
784,915;25377,635;   -1,474;    0,318
785,482;25136,692;    2,708;    2,591
786,049;25612,113;    1,071;   -0,591
786,615;25732,715;    1,708;   -0,955
787,182;25523,682;   -3,201;   -0,682
787,749;25193,739;   -2,201;    1,409
788,315;24473,614;    0,253;   -0,409
788,882;24756,489;    0,981;   -1,227
789,448;25396,092;    1,435;   -0,955
790,015;25474,967;    1,799;    3,227
790,581;24993,934;    0,708;    0,227
791,148;24890,173;    1,344;    1,045
791,714;25132,957;   -1,019;    3,136
792,280;24828,469;    3,708;    1,591
792,847;24332,526;   -0,928;    2,500
793,413;24886,311;   -0,110;   -0,318
793,979;24460,731;    1,526;   -1,318
794,545;24519,516;    2,981;    2,682
795,111;23907,482;    2,435;    1,318
795,678;24111,539;    3,526;   -1,682
796,244;23733,778;    2,799;    0,136
796,810;24264,472;    0,799;    0,773
797,375;23998,893;   -0,292;   -2,136
797,941;24025,768;   -1,110;    0,591
798,507;24130,553;    0,254;   -0,955
799,073;23702,428;    2,708;    0,591
799,639;23789,394;    1,435;    3,136
800,205;23843,088;   -1,565;    2,682
800,770;23326,145;    1,345;    1,773
801,336;23347,748;    2,981;   -0,955
801,901;23074,441;    6,072;    3,136
802,467;23622,317;    0,526;    2,045
803,033;22975,556;   -0,019;    0,864
803,598;23178,613;    1,072;   -1,045
804,163;23231,761;    0,708;   -0,318
804,729;23176,182;   -0,110;    1,136
805,294;23561,239;    1,072;    2,227
805,859;23368,932;    0,890;   -0,409
806,425;22859,444;    3,890;    2,682
806,990;22512,592;    1,890;    4,318
807,555;23018,922;   -0,110;    2,591
808,120;22939,616;   -1,292;   -0,409
808,685;22952,400;    1,072;   -2,500
809,250;22447,548;    2,072;   -0,500
809,815;22814,605;   -0,201;    0,682
810,380;23331,572;    0,981;    1,591
810,945;23788,811;    2,890;    2,045
811,510;23036,504;   -0,200;    1,591
812,075;22745,925;    2,800;   -1,409
812,640;22762,346;    3,709;    1,409
813,204;22825,130;    2,163;   -0,227
813,769;23307,733;    0,254;   -0,045
814,334;22639,154;    0,527;    0,864
814,898;22729,302;    1,981;    0,591
815,463;22584,632;    0,981;   -0,773
816,027;22509,053;    1,345;   -2,318
816,592;22664,928;    2,163;   -2,045
817,156;22150,440;   -2,200;    1,136
817,721;21929,224;    0,982;    2,318
818,285;21907,918;    0,618;    1,500
818,849;22623,884;   -0,018;    1,682
819,414;22522,668;    0,073;    2,955
819,978;22083,362;   -0,291;    1,773
820,542;22703,237;    2,891;    0,500
821,106;22418,295;    2,800;    0,682
821,670;22451,170;    2,709;    2,591
822,234;22149,864;    1,073;    1,409
822,798;21543,557;   -0,836;    0,500
823,362;21535,251;    1,527;    4,227
823,926;20823,490;   -0,018;    1,136
824,490;21016,456;    3,527;   -0,682
825,054;21504,331;    2,527;   -1,136
825,618;21130,025;   -1,200;   -1,500
826,181;21049,173;    0,982;   -1,318
826,745;20905,957;   -0,745;   -1,045
827,309;21301,924;    2,255;    1,318
827,872;20688,799;    0,527;    0,955
828,436;21700,674;    1,982;   -0,773
828,999;21758,459;    2,436;    1,227
829,563;20600,698;   -0,654;    1,136
830,126;20387,391;   -0,018;   -0,591
830,690;20373,994;    0,709;    2,864
831,253;19901,051;   -0,473;    2,227
831,816;20016,472;   -0,018;    0,500
832,380;19950,438;    1,164;    0,864
832,943;20201,132;    3,073;   -0,500
833,506;19714,007;    0,255;   -1,227
834,069;20503,246;    2,164;   -0,955
834,632;20535,849;   -2,200;    1,318
835,195;20429,270;    1,346;    0,955
835,758;19599,781;    0,709;    1,955
836,321;19414,748;    1,073;   -1,045
836,884;19514,532;   -1,291;   -0,955
837,447;19600,771;    0,528;    1,773
838,010;19838,556;    1,800;    3,227
838,573;20174,431;    0,528;    0,773
839,135;20125,488;   -0,109;   -0,955
839,698;19551,909;    2,528;    0,409
840,261;19066,421;    0,255;   -0,227
840,823;18931,478;   -0,927;    0,864
841,386;19197,081;   -0,018;   -2,409
841,948;19106,138;    0,255;    1,773
842,511;18826,831;    0,255;    1,682
843,073;18955,616;    2,982;    0,227
843,636;18769,309;    0,619;   -0,227
844,198;18686,457;    1,255;    0,591
844,760;18822,969;    0,619;    1,955
845,322;18464,845;    0,164;    1,136
845,885;18864,993;   -0,290;    0,591
846,447;19310,868;    0,710;    0,227
847,009;18831,380;    3,983;   -0,682
847,571;19174,710;    1,346;   -2,045
848,133;19264,040;   -0,199;   -1,864
848,695;19106,642;    2,346;    1,409
849,257;18695,699;    1,346;   -1,682
849,819;18827,211;    2,983;   -0,409
850,381;18878,177;    1,801;   -0,864
850,942;19232,144;    1,892;   -0,591
851,504;19176,928;    0,983;    0,227
852,066;19217,894;    1,619;   -1,591
852,628;18787,224;    0,165;    1,955
853,189;18334,736;    0,256;    2,682
853,751;18475,520;   -0,654;    1,409
854,312;18265,305;    1,256;   -1,682
854,874;18734,453;   -0,108;   -0,773
855,435;19215,238;    0,528;   -1,682
855,997;19347,567;    3,983;   -0,136
856,558;18601,806;    0,801;    1,773
857,119;18807,591;   -0,744;    2,864
857,681;18488,012;   -0,108;    0,318
858,242;18469,069;    1,347;   -2,136
858,803;18929,490;    1,074;   -0,773
859,364;19511,001;    0,892;   -4,773
859,925;18848,422;   -0,290;   -0,955
860,486;18751,298;    0,529;   -0,955
861,047;18423,537;    0,165;   -1,227
861,608;18251,594;    0,165;   -0,773
862,169;18442,196;   -0,562;   -0,045
862,730;18178,072;   -0,290;    1,409
863,291;18440,947;    0,438;   -0,500
863,852;18774,641;   -0,926;    1,955
864,412;18232,152;   -1,835;   -0,864
864,973;16789,301;    1,892;    0,500
865,534;16639,085;    2,074;    0,227
866,094;18157,506;    2,620;    0,227
866,655;17821,109;    4,711;    3,318
867,215;18113,620;    0,074;    0,136
867,776;17967,314;   -1,199;   -0,136
868,336;18048,280;    1,529;    0,136
868,897;17474,883;    3,438;    1,682
869,457;17280,940;    3,256;    0,318
870,017;17526,906;    2,438;   -1,227
870,578;18044,963;    1,893;    0,773
871,138;17685,202;    2,620;   -0,955
871,698;17235,714;   -0,562;   -1,318
872,258;17085,226;    0,711;   -2,864
872,818;17454,647;    2,347;    0,045
873,378;17427,522;   -2,198;    1,045
873,938;17004,579;    4,984;    0,500
874,498;17295,273;    1,256;   -1,955
875,058;17195,057;    4,347;    1,773
875,618;17041,296;    1,438;   -2,682
876,177;16981,717;   -0,471;    0,136
876,737;16541,865;   -0,289;    1,955
877,297;16523,195;    2,711;    1,955
877,856;16537,252;    2,529;    0,318
878,416;16462,491;    2,438;   -0,136
878,976;16702,276;    3,438;    0,409
879,535;16911,787;    4,529;    3,136
880,095;16676,208;    1,347;    0,045
880,654;16759,538;    0,347;    1,318
881,213;16833,868;    2,347;    1,500
881,773;16493,198;    1,984;    2,682
882,332;16868,801;    6,075;    5,136
882,891;16730,494;    0,711;    2,136
883,451;17133,279;   -2,016;    1,682
884,010;16628,972;   -1,107;   -0,409
884,569;16699,484;   -2,289;   -0,045
885,128;16831,177;   -0,743;   -1,864
885,687;16895,689;   -0,743;    0,682
886,246;16617,019;    2,620;    2,136
886,805;16347,804;    1,620;    2,045
887,364;16668,224;    1,166;   -0,500
887,922;17045,009;   -0,016;    0,045
888,481;16522,975;    1,530;    0,591
889,040;16823,487;    3,711;    2,136
889,599;17508,999;    2,166;    1,409
890,157;17580,510;    2,166;    2,409
890,716;17254,386;    2,166;    0,227
891,274;17037,807;    0,075;   -1,136
891,833;17448,318;    1,166;    0,864
892,391;17313,830;    1,802;    0,500
892,950;17467,978;    0,166;   -0,773
893,508;17773,490;    0,984;   -0,409
894,067;17122,820;   -0,379;    0,136
894,625;17023,513;   -1,016;   -1,500
895,183;17244,752;   -0,198;   -0,682
895,741;17179,355;    2,257;   -1,773
896,299;16986,594;    1,621;   -2,409
896,858;17174,288;    1,530;   -1,591
897,416;17279,890;    0,166;   -1,318
897,974;17025,675;   -2,197;    0,318
898,532;17189,005;    6,530;    2,682
899,089;17070,244;    0,621;   -0,682
899,647;17153,210;    0,530;    1,318
900,205;16889,540;    0,257;    1,045
900,763;17054,688;    2,166;    0,227
901,321;17083,836;    3,530;   -1,409
901,878;16499,529;    3,257;   -0,773
902,436;16364,950;    0,257;    1,318
902,994;16722,280;    6,712;    3,682
903,551;16212,974;    1,439;    0,409
904,109;16605,213;    1,530;   -1,409
904,666;16233,724;    1,439;    1,045
905,224;15999,418;    3,894;   -0,409
905,781;15732,566;   -0,470;   -0,318
906,338;15810,351;    0,167;    1,045
906,895;15761,862;    1,894;    2,045
907,453;15687,465;    2,348;    1,136
908,010;15710,431;    3,348;    0,409
908,567;15345,307;   -0,561;    0,591
909,124;14856,000;    2,439;   -1,500
909,681;14931,694;   -1,288;    0,682
910,238;15054,569;   -0,106;   -1,318
910,795;15380,081;   -1,561;   -1,136
911,352;15016,354;   -0,379;   -2,682
911,909;14435,808;    2,803;   -0,864
912,466;14911,081;    1,985;    1,500
913,022;14442,626;   -0,924;    0,500
913,579;14791,263;   -0,470;    2,045
914,136;14502,626;   -2,561;    0,955
914,692;14854,172;    1,530;   -1,227
915,249;14433,990;    0,530;    0,409
915,806;14650,081;    1,803;    1,955
916,362;14392,717;    0,894;    1,864
916,918;13887,808;    2,439;    1,045
917,475;13910,354;    1,621;    0,955
918,031;14037,444;    0,076;   -0,045
918,587;13502,626;    0,621;   -0,318
919,144;13702,081;   -0,379;    0,227
919,700;14050,263;    0,167;    0,773
920,256;13640,444;    0,439;    0,045
920,812;13227,626;    1,439;   -1,045
921,368;13219,899;    1,348;   -1,045
921,924;12896,444;    0,439;   -0,136
922,480;12449,808;    0,076;    1,227
923,036;13064,899;   -0,652;    1,955
923,592;13025,899;    0,621;    0,318
924,148;12904,990;    1,894;   -0,955
924,704;12265,081;    0,258;   -0,409
925,259;12549,444;   -0,561;    0,591
925,815;12273,535;    3,803;    0,500
926,371;11788,626;    3,530;    1,409
926,926;11682,444;    1,621;    0,591
927,482;11310,444;    1,621;    0,773
928,037;11211,172;   -0,833;    2,045
928,593;11526,535;    0,258;    1,045
929,148;11304,899;    1,167;   -1,500
929,704;10859,535;    2,439;   -0,500
930,259;11023,899;    0,894;   -0,136
930,814;10064,717;    1,803;    1,955
931,369; 9788,444;    0,258;   -0,773
931,925; 9700,444;   -1,924;    0,136
932,480; 9577,354;    3,076;   -2,591
933,035; 9451,444;    3,985;   -0,318
933,590; 9214,808;   -1,742;   -1,773
934,145; 8886,354;   -1,288;   -0,318
934,700; 9262,808;    0,348;   -0,591
935,255; 9040,899;    4,803;    0,045
935,809; 8289,808;    6,258;    0,864
936,364; 7420,172;    2,167;   -0,136
936,919; 7408,899;    2,348;   -1,773
937,474; 7315,990;    1,348;    0,136
938,028; 7096,444;    3,076;    1,136
938,583; 6534,990;    6,348;    4,682
939,138; 6837,081;    0,167;    2,136
939,692; 6304,354;   -1,015;   -1,136
940,247; 5956,263;    1,167;   -1,045
940,801; 5542,263;    0,621;    0,227
941,355; 5439,081;    0,439;    2,591
941,910; 5096,808;    0,712;   -2,136
942,464; 5198,899;    2,712;   -0,318
943,018; 4991,899;    3,258;   -0,227
943,572; 4923,717;    2,803;   -0,682
944,126; 4356,081;   -0,924;   -0,409
944,681; 4236,899;    0,712;    0,227
945,235; 4214,081;    2,167;   -0,591
945,789; 4155,626;    1,258;   -1,864
946,342; 4245,717;   -0,561;   -0,591
946,896; 4063,172;    0,348;    0,955
947,450; 3817,808;   -0,561;   -0,227
948,004; 4012,717;    1,076;   -0,045
948,558; 4021,535;    1,258;   -0,864
949,111; 3927,808;   -1,197;   -0,318
949,665; 3957,535;   -0,106;   -0,682
950,219; 3838,535;    0,621;   -1,045
950,772; 3915,263;    0,258;    1,864
951,326; 3846,172;   -1,106;   -0,955
951,879; 3915,172;    1,076;   -2,318
952,433; 3948,990;    1,348;    2,227
952,986; 3800,263;    0,348;    0,682
953,539; 3714,444;    1,530;    0,591
954,093; 3668,990;    0,985;   -1,318
954,646; 3809,354;   -0,288;    1,318
955,199; 3632,354;    1,258;   -0,500
955,752; 3499,263;    1,985;    1,773
956,305; 3451,899;    0,894;    2,955
956,858; 3634,717;    0,621;   -0,318
957,411; 3815,172;    3,621;    2,136
957,964; 3608,354;    2,076;    2,136
958,517; 3603,990;    0,985;    3,136
959,070; 3438,172;   -1,197;    1,955
959,623; 3525,626;    1,076;    1,500
960,176; 3306,354;    0,712;    2,045
960,728; 3261,990;    1,712;    0,773
961,281; 3335,535;    2,258;    0,500
961,834; 3353,263;   -0,833;    0,864
962,386; 3292,081;    1,258;    1,045
962,939; 3210,354;    3,439;   -0,318
963,491; 3365,808;    2,621;    1,136
964,043; 3238,990;    0,076;    2,409
964,596; 3350,717;    1,712;    2,227
965,148; 3190,717;   -0,379;    1,773
965,700; 3110,172;   -0,015;   -0,227
966,253; 3271,626;   -0,833;    0,318
966,805; 3108,717;    1,894;    0,773
967,357; 3156,899;    0,439;   -1,500
967,909; 3099,172;    1,167;   -1,227
968,461; 3214,444;    0,894;    3,136
969,013; 3127,808;   -1,561;   -0,864
969,565; 3209,717;    1,803;   -1,136
970,117; 3290,899;    3,803;    1,045
970,669; 3119,626;    3,258;   -0,136
971,220; 2988,172;    2,167;   -1,500
971,772; 2919,444;    1,348;   -0,318
972,324; 3021,444;   -1,197;   -0,500
972,876; 2980,263;    0,167;   -0,045
973,427; 3101,899;   -1,197;   -1,045
973,979; 3094,263;    0,076;   -2,500
974,530; 3114,535;    0,803;    1,318
975,082; 3114,717;    2,167;    1,682
975,633; 2996,990;    2,894;    1,682
976,184; 3160,444;    2,076;    0,773
976,736; 2933,263;    0,348;    0,227
977,287; 2735,899;    0,258;   -0,500
977,838; 2918,626;   -0,924;   -0,318
978,389; 2972,263;    0,803;   -0,500
978,940; 2862,899;    1,258;   -0,409
979,491; 2902,081;    2,258;   -0,500
980,042; 2823,990;   -0,652;    3,045
980,593; 2905,990;    1,894;    0,227
981,144; 2958,990;    3,530;   -0,500
981,695; 2925,081;   -0,470;    1,500
982,246; 2896,172;   -1,833;    1,045
982,797; 3043,990;   -0,561;    0,682
983,347; 3159,626;    2,167;    0,591
983,898; 3314,172;    4,167;    0,409
984,449; 3116,808;    2,530;    0,773
984,999; 3032,263;    1,894;   -1,136
985,550; 2799,990;    3,167;   -0,318
986,100; 2869,990;    0,712;   -0,318
986,651; 2900,990;    0,258;    0,045
987,201; 2864,354;    0,894;   -0,591
987,751; 2965,263;   -0,288;    2,864
988,302; 2934,535;   -0,379;    1,500
988,852; 2954,808;    1,985;   -1,136
989,402; 3000,354;    0,985;    0,682
989,952; 2908,263;    1,621;    0,864
990,502; 3013,626;    1,076;    0,682
991,052; 2967,535;   -0,106;    0,045
991,602; 2831,263;    1,167;    1,318
992,152; 2830,717;    2,803;    0,682
992,702; 2809,535;    1,167;   -0,045
993,252; 2733,172;    0,076;   -0,500
993,802; 2829,717;    1,167;    1,318
994,352; 3077,717;   -0,742;    1,136
994,901; 3177,263;    1,076;    3,227
995,451; 3056,444;   -1,197;    0,318
996,000; 3147,172;    1,076;    0,318
996,550; 2867,626;    2,894;    0,227
997,100; 2876,354;   -0,561;   -0,045
997,649; 3170,626;   -0,197;    0,955
998,198; 2812,263;   -0,288;   -1,500
998,748; 2986,081;    0,348;   -2,318
999,297; 2879,444;    0,985;   -0,409
999,846; 2963,626;    1,894;   -0,773
1000,395; 3007,899;    1,530;    0,500
1000,945; 2971,354;    1,076;   -0,773
1001,494; 3046,172;    0,167;    0,682
1002,043; 3014,808;    0,712;    0,864
1002,592; 2864,626;    3,439;    1,955
1003,141; 3016,535;    2,439;   -0,682
1003,690; 2854,172;    1,258;    0,500
1004,238; 2923,535;   -0,106;   -0,045
1004,787; 2559,081;   -1,288;    1,227
1005,336; 2787,081;    1,621;    0,682
1005,885; 2929,444;   -0,197;   -2,773
1006,433; 3094,990;   -0,470;    0,955
1006,982; 3151,535;    2,167;    1,682
1007,531; 3074,990;    2,712;   -0,227
1008,079; 3023,899;    0,258;    0,500
1008,627; 3180,990;    1,621;    0,409
1009,176; 2903,444;    0,076;   -1,955
1009,724; 2936,172;   -2,742;    0,864
1010,273; 2999,717;    1,076;    0,500
1010,821; 3132,899;    1,076;    1,409
1011,369; 2874,808;    0,076;    1,318
1011,917; 2840,172;   -0,833;   -0,591
1012,465; 3121,354;    2,530;   -1,591
1013,013; 3222,899;    0,439;   -1,682
1013,561; 3090,717;   -1,288;   -0,773
1014,109; 3140,535;   -0,833;    1,682
1014,657; 3007,626;    1,348;    0,591
1015,205; 3140,354;    0,894;   -0,955
1015,753; 3188,354;    0,258;   -1,409
1016,301; 3228,263;    2,621;    3,045
1016,848; 3234,263;    2,167;    0,409
1017,396; 3255,626;    1,621;    0,045
1017,944; 3385,081;    2,621;    1,864
1018,491; 3157,990;   -0,197;    1,409
1019,039; 3305,081;   -0,652;    0,591
1019,586; 3215,263;    0,076;    1,682
1020,134; 3292,899;    0,712;    1,500
1020,681; 3312,535;    2,894;   -1,136
1021,228; 3336,354;   -0,561;   -2,227
1021,776; 3155,081;   -0,833;   -1,136
1022,323; 3383,808;    0,803;    0,773
1022,870; 3329,444;   -0,470;   -0,045
1023,417; 3215,808;    2,076;    1,864
1023,964; 3365,990;    0,621;    1,227
1024,511; 3186,899;   -0,652;    0,773
1025,058; 2979,626;    0,439;   -0,045
1025,605; 3040,626;   -1,742;    3,136
1026,152; 3238,444;   -0,106;   -0,591
1026,699; 2976,444;    0,167;    1,318
1027,245; 3150,626;    2,439;    0,318
1027,792; 3391,717;    0,712;    1,409
1028,339; 3264,354;    4,076;   -0,045
1028,885; 3115,263;    3,621;   -0,227
1029,432; 3037,808;   -0,106;    0,227
1029,978; 3100,354;    1,348;   -1,591
1030,525; 3002,535;    1,621;    0,409
1031,071; 3270,990;    0,348;    1,136
1031,618; 3361,172;    1,258;    1,682
1032,164; 3152,444;    2,076;    3,045
1032,710; 3193,263;    0,076;   -1,500
1033,256; 3105,444;    0,712;   -0,136
1033,803; 3104,444;   -0,288;    1,500
1034,349; 2836,899;    1,803;    0,136
1034,895; 2990,354;    2,621;   -0,318
1035,441; 2955,808;    0,439;    0,318
1035,987; 2965,990;   -2,288;   -0,682
1036,533; 2967,990;   -0,197;   -0,955
1037,078; 3162,444;    4,712;    1,682
1037,624; 2986,899;    2,439;   -0,955
1038,170; 3017,899;    1,712;   -0,318
1038,716; 2896,354;    2,167;   -0,409
1039,261; 2802,808;    2,167;   -0,773
1039,807; 2764,535;   -0,015;    3,409
1040,352; 2828,081;   -1,288;   -0,318
1040,898; 2873,081;    0,167;   -0,682
1041,443; 2794,717;    0,803;   -2,591
1041,989; 2819,535;    3,621;    1,591
1042,534; 2703,172;    0,985;    2,591
1043,079; 2827,717;    1,985;    0,955
1043,625; 2587,444;    0,258;    0,500
1044,170; 2648,990;    2,439;    1,045
1044,715; 2895,444;    0,167;    0,955
1045,260; 2715,263;   -0,833;   -0,955
1045,805; 2759,535;    0,258;   -0,591
1046,350; 2709,535;    0,530;   -0,409
1046,895; 2677,081;    0,803;    1,591
1047,440; 2607,535;    1,530;    0,409
1047,985; 2519,172;   -1,197;   -0,955
1048,530; 2423,535;    1,348;    1,227
1049,074; 2490,535;    2,803;    0,318
1049,619; 2465,444;   -0,924;    1,955
1050,164; 2268,172;    1,076;    0,227
1050,708; 2343,172;    2,621;    0,045
1051,253; 2683,354;    3,258;   -2,227
1051,797; 2407,990;   -0,197;   -1,318
1052,342; 2432,808;    1,348;    1,045
1052,886; 2394,990;    1,803;   -1,409
1053,430; 2289,626;    2,167;    0,136
1053,975; 2310,990;    0,894;   -0,318
1054,519; 2288,354;    1,803;    3,227
1055,063; 2295,172;    3,621;    1,318
1055,607; 2182,899;    1,348;    0,227
1056,151; 2211,808;    0,530;    1,682
1056,695; 2133,626;   -1,833;   -1,136
1057,239; 2195,263;   -1,197;   -0,682
1057,783; 2189,535;    2,258;   -1,500
1058,327; 2155,172;    3,076;    1,409
1058,871; 2373,717;    3,985;    1,318
1059,415; 2075,535;   -0,561;   -0,045
1059,958; 2325,263;    2,985;    2,591
1060,502; 2056,626;    1,348;   -0,773
1061,046; 1966,808;    1,712;   -0,955
1061,589; 1951,172;    2,803;   -1,136
1062,133; 1835,626;    0,985;    1,864
1062,676; 1767,354;    1,439;    0,864
1063,220; 1769,172;    0,985;    0,500
1063,763; 1790,172;    2,985;    1,136
1064,306; 1865,354;    0,985;    1,864
1064,849; 1763,444;    2,076;    0,591
1065,393; 1764,172;    2,894;   -1,500
1065,936; 1873,717;    2,530;   -0,409
1066,479; 1766,535;    2,621;    1,318
1067,022; 1798,990;    1,894;   -0,227
1067,565; 1681,717;   -1,197;   -1,318
1068,108; 1720,444;    1,258;   -0,591
1068,651; 1700,808;   -2,470;    1,409
1069,194; 1618,263;   -1,106;   -1,682
1069,736; 1608,990;    3,803;    0,955
1070,279; 1615,626;   -1,652;   -0,500
1070,822; 1643,354;    1,530;   -0,318
1071,364; 1713,535;    0,530;    1,318
1071,907; 1548,354;    0,348;    3,227
1072,450; 1480,990;    0,258;   -0,045
1072,992; 1470,172;   -0,561;    3,136
1073,535; 1582,263;    0,167;    2,136
1074,077; 1387,081;    2,985;    2,045
1074,619; 1362,081;    0,985;    0,591
1075,161; 1383,444;   -0,561;    1,500
1075,704; 1552,172;    0,258;    1,227
1076,246; 1367,081;    1,530;    0,682
1076,788; 1295,717;   -1,015;    1,773
1077,330; 1391,263;   -2,106;    2,136
1077,872; 1344,535;   -1,924;    0,955
1078,414; 1550,626;    3,712;    0,773
1078,956; 1281,535;    0,167;   -0,227
1079,498; 1521,354;    0,439;    0,318
1080,040; 1232,172;    0,985;   -1,318
1080,581; 1203,354;    0,621;   -0,318
1081,123; 1132,626;   -0,106;   -0,773
1081,665; 1182,899;    3,803;   -0,955
1082,206; 1462,444;    3,258;   -0,500
1082,748; 1329,263;    3,258;    2,045
1083,289; 1222,444;    0,167;    1,318
1083,831; 1129,081;    0,258;    0,227
1084,372; 1158,354;    0,894;    0,591
1084,913; 1150,535;    3,348;    0,864
1085,455; 1129,808;    1,530;   -2,045
1085,996; 1096,444;    0,530;    0,136
1086,537; 1120,081;    0,985;    0,864
1087,078; 1156,354;    0,439;   -2,136
1087,619; 1190,081;   -1,652;    0,227
1088,160; 1108,535;    1,439;    1,318
1088,701; 1093,354;   -0,742;    0,682
1089,242; 1040,626;   -0,561;   -2,227
1089,783; 1122,899;   -0,561;    1,409
1090,324; 1093,263;   -0,833;    0,682
1090,865;  975,263;   -1,924;   -0,409
1091,405;  942,535;   -0,561;    2,227
1091,946;  973,990;   -0,197;   -0,955
1092,487;  915,990;   -1,288;   -1,409
1093,027; 1067,354;    1,803;   -1,500
1093,568;  916,535;    2,258;    1,227
1094,108;  999,626;    0,621;    1,773
1094,649;  954,899;   -0,470;    0,136
1095,189;  892,354;    1,167;   -0,682
1095,729;  835,535;    0,712;    0,955
1096,269;  867,354;    1,258;   -0,955
1096,810; 1153,263;   -0,197;    0,500
1097,350;  979,808;   -0,561;   -0,773
1097,890;  881,717;    2,985;    1,227
1098,430; 1123,990;    4,985;    2,864
1098,970; 1002,626;    1,894;    1,682
1099,510;  884,172;   -0,833;   -2,318
1100,050;  813,172;    0,258;   -1,591
1100,589;  781,717;    0,076;   -0,318
1101,129;  887,808;    0,894;   -0,955
1101,669; 1021,899;    2,803;    2,136
1102,209;  871,990;    1,530;    2,227
1102,748;  808,535;    3,439;    0,955
1103,288;  802,172;    0,712;   -1,227
1103,827;  824,535;    3,530;   -2,227
1104,367;  716,990;    1,712;   -2,409
1104,906;  687,263;   -1,015;   -1,136
1105,445;  752,808;    0,985;   -1,136
1105,985;  696,717;   -0,652;    1,500
1106,524;  735,444;    1,530;   -0,682
1107,063;  715,263;    1,167;    1,409
1107,602;  693,444;    1,894;   -1,500
1108,141;  621,444;    1,621;    1,500
1108,680;  712,081;    3,985;   -0,591
1109,219;  655,081;    0,167;   -0,500
1109,758;  666,990;    4,167;    0,682
1110,297;  635,626;   -1,106;   -0,682
1110,836;  574,444;    1,439;    0,955
1111,375;  722,081;    0,348;    0,409
1111,913;  740,263;    0,985;    0,773
1112,452;  677,899;    0,894;    0,136
1112,991;  573,808;    1,076;    1,955
1113,529;  530,444;    0,167;   -0,045
1114,068;  598,081;    0,439;    2,955
1114,606;  496,172;   -0,561;   -0,955
1115,144;  643,899;    1,530;    1,045
1115,683;  586,535;    1,985;    0,318
1116,221;  647,535;    2,076;   -0,864
1116,759;  561,990;    1,621;   -0,864
1117,297;  743,263;    1,621;    1,864
1117,836;  551,263;    1,985;   -1,227
1118,374;  554,354;    0,258;   -0,682
1118,912;  515,081;    0,439;    2,682
1119,450;  497,444;    0,985;    0,864
1119,988;  533,354;    3,348;    2,136
1120,525;  985,990;    7,258;    3,318
1121,063;  689,717;    0,530;    1,864
1121,601;  501,081;    1,076;   -1,227
1122,139;  467,081;    1,076;   -2,045
1122,676;  649,081;   -1,652;    2,773
1123,214;  594,808;    0,712;    4,409
1123,751;  415,172;    0,621;    2,227
1124,289;  536,172;    0,894;   -0,409
1124,826;  403,990;   -0,379;    0,227
1125,364;  340,444;    0,712;   -0,955
1125,901;  512,808;    6,258;    1,227
1126,438;  614,263;    3,530;    0,955
1126,975;  366,354;    2,985;   -0,773
1127,513;  415,808;    2,621;    2,136
1128,050;  336,081;   -0,561;   -0,682
1128,587;  435,535;    1,348;   -0,227
1129,124;  468,172;   -0,015;    1,318
1129,661;  349,990;   -1,924;    0,227
1130,198;  505,535;    2,439;    0,773
1130,734;  448,172;   -0,379;    1,409
1131,271;  317,172;   -1,197;    0,864
1131,808;  480,172;    1,621;    3,045
1132,345;  354,990;    4,530;    0,318
1132,881;  242,808;   -0,561;   -1,864
1133,418;  367,172;    0,348;   -1,136
1133,954;  310,990;    0,712;   -2,682
1134,491;  373,172;    1,712;   -0,773
1135,027;  288,717;    2,167;    0,864
1135,564;  354,444;    1,439;    2,955
1136,100;  342,990;   -0,742;    2,136
1136,636;  244,717;   -1,015;   -1,045
1137,172;  324,081;    0,894;   -1,045
1137,708;  262,717;   -1,561;   -1,045
1138,245;  266,081;    0,803;   -1,227
1138,781;  233,263;    1,803;   -3,318
1139,317;  286,172;    1,894;   -1,409
1139,852;  267,626;    3,076;    0,136
1140,388;  367,535;    2,076;   -0,409
1140,924;  261,535;    1,076;   -2,227
1141,460;  217,990;   -0,288;    0,136
1141,996;  155,535;   -0,652;    2,682
1142,531;  201,990;    1,076;    3,318
1143,067;  393,444;    1,167;    1,045
1143,602;  448,081;    3,439;   -0,318
1144,138;  295,444;    0,803;    1,045
1144,673;  190,990;    1,621;    1,409
1145,209;  251,354;    2,894;   -0,318
1145,744;  175,444;    0,803;    0,864
1146,279;  290,172;    1,530;   -0,136
1146,815;  223,354;    1,530;   -2,682
1147,350;  257,899;   -0,924;    0,045
1147,885;  178,717;   -1,924;   -1,318
1148,420;  173,899;    2,439;    0,773
1148,955;  164,354;   -1,470;    1,864
1149,490;  185,626;   -1,106;   -1,591
1150,025;  161,990;   -1,106;   -1,773
1150,560;  259,808;   -0,288;   -0,955
1151,094;  227,354;    0,258;   -0,591
1151,629;  236,263;   -3,742;    0,864
1152,164;  172,899;   -1,288;    1,318
1152,698;  130,626;    1,258;   -0,136
1153,233;   87,717;   -1,379;   -0,682
1153,767;  146,717;   -0,288;   -2,318
1154,302;  182,263;   -0,379;    1,773
1154,836;  185,354;    0,803;   -2,136
1155,371;  226,354;    2,258;    3,682
1155,905;  180,535;    1,985;    1,682
1156,439;  157,717;    0,530;   -0,500
1156,973;  180,535;    0,439;    0,318
1157,507;  126,990;   -1,742;    0,682
1158,042;  153,354;   -0,652;    1,045
1158,576;  188,444;   -0,561;    1,773
1159,110;  187,717;    0,076;    2,409
1159,643;  166,172;   -2,470;   -0,045
1160,177;  113,263;   -2,015;    1,500

