
Integration time [ms]:   0,040
Averaging Nr. [scans]: 11
Smoothing Nr. [pixels]: 0
Data measured with spectrometer [name]: 7318044SP
Wave   ;Sample   ;Dark     ;Reference
[nm]   ;[counts] ;[counts] ;[counts] 

186,757;   33,958;   38,161;    1,318
187,357;   56,187;   26,706;    0,955
187,958;   38,533;   17,252;   -1,591
188,558;   74,727;   12,979;   -1,227
189,159;   44,487;   10,070;   -4,500
189,759;   17,576;    5,797;   -3,591
190,360;   20,004;    6,797;   -2,136
190,960;   51,225;    5,706;   -4,136
191,560;   66,405;    2,614;   -6,591
192,161;  281,091;    5,885;   -3,500
192,761;  141,228;    5,520;   -3,227
193,361;   97,470;    3,065;   -3,773
193,962;  149,902;    1,612;   -2,682
194,562;   79,621;   -0,114;   -3,955
195,162;  103,854;   -0,567;   -2,227
195,762;  262,361;    2,433;   -0,045
196,362;  204,381;    1,706;   -2,500
196,963;   79,046;    1,706;   -0,864
197,563;  154,252;    1,252;   -0,955
198,163;  102,174;   -0,111;   -0,682
198,763;  122,373;   -0,020;   -0,500
199,363;  219,832;    3,616;   -0,500
199,963;  183,340;    2,162;    0,409
200,563;  158,180;    6,344;   -1,409
201,163;  136,593;    5,435;   -0,227
201,763;  222,426;    1,435;    0,318
202,363;  151,486;    0,980;    1,500
202,963;  246,377;    1,526;    1,045
203,563;  361,632;    0,344;    0,500
204,162;  221,730;    1,889;   -1,864
204,762;  210,642;    2,071;    0,591
205,362;  170,704;    0,708;    1,955
205,962;  267,251;    3,435;    1,955
206,562;  264,462;    1,889;    2,318
207,161;  233,568;    1,708;    0,318
207,761;  387,304;    4,435;    2,409
208,361;  264,233;    1,889;    1,409
208,960;  359,614;    2,889;    1,500
209,560;  421,851;    0,435;    1,591
210,160;  403,237;    5,071;    1,864
210,759;  370,471;    0,708;    1,227
211,359;  370,717;   -0,474;    1,045
211,958;  624,174;    3,526;    2,045
212,558;  699,391;    0,799;    1,864
213,157;  548,754;   -0,929;    1,500
213,757;  960,590;    5,617;   -0,227
214,356;  671,587;    1,708;   -0,409
214,956;  976,993;    3,526;    0,409
215,555;  618,849;    0,617;    2,136
216,154;  557,417;   -0,292;   -0,591
216,754;  569,914;    1,253;    0,773
217,353;  680,515;   -0,383;   -1,045
217,952;  553,928;    2,072;    0,318
218,552;  783,362;    0,254;   -0,773
219,151;  665,587;   -1,110;    0,955
219,750;  669,324;    0,890;   -0,227
220,349;  752,688;   -2,292;    1,045
220,948;  846,393;    1,163;    1,136
221,548;  829,852;    0,617;    1,227
222,147;  930,617;   -1,292;   -0,409
222,746; 1216,638;    1,254;   -0,955
223,345; 1086,805;   -1,019;    0,500
223,944; 1087,546;    1,163;    0,773
224,543; 1237,547;    4,072;   -1,409
225,142; 1353,360;    1,345;    0,136
225,741; 1249,920;    1,163;    1,045
226,340; 1268,020;    1,254;   -0,955
226,939; 1692,841;    2,708;   -0,136
227,538; 1610,734;    1,163;   -0,773
228,137; 1774,532;    0,435;    0,864
228,735; 1864,098;    0,435;    1,227
229,334; 1646,777;   -0,474;   -0,227
229,933; 2021,599;    0,799;    0,591
230,532; 2120,307;   -1,201;   -0,409
231,131; 2174,680;    1,253;    0,318
231,729; 2272,159;    1,163;   -2,318
232,328; 2349,017;    0,435;   -1,500
232,927; 2402,874;    4,526;   -0,500
233,525; 2501,376;    0,981;    0,045
234,124; 2721,374;    1,890;   -1,591
234,723; 2736,569;    1,617;   -1,045
235,321; 2853,027;    1,163;    0,136
235,920; 3052,502;    2,526;   -1,227
236,518; 3301,323;    1,072;    0,318
237,117; 3422,262;    2,890;   -0,227
237,715; 3561,641;    1,163;   -0,500
238,314; 3611,334;    1,708;   -2,318
238,912; 3728,721;    0,526;   -1,409
239,510; 3753,351;    1,162;   -1,227
240,109; 3919,794;   -0,474;    3,773
240,707; 3946,483;   -0,474;    1,227
241,305; 4246,541;   -0,383;    0,136
241,904; 4417,541;   -0,292;   -2,045
242,502; 4403,205;    3,253;   -0,227
243,100; 4356,593;    3,344;   -0,955
243,698; 4560,154;    2,799;    1,682
244,297; 4702,210;   -0,656;    0,682
244,895; 4585,342;   -0,474;   -2,318
245,493; 4875,835;    2,981;   -0,591
246,091; 4909,532;    5,163;   -1,318
246,689; 4863,826;    2,163;    0,591
247,287; 5031,642;   -0,019;   -1,136
247,885; 5295,130;   -1,019;    1,227
248,483; 5399,822;   -0,201;   -0,500
249,081; 5497,706;    0,981;    1,591
249,679; 5624,359;   -1,019;    1,682
250,277; 5871,005;   -2,292;    0,864
250,875; 5852,753;    0,617;   -1,045
251,473; 5859,173;   -0,019;    0,500
252,071; 6043,822;   -0,383;    1,045
252,669; 6155,364;   -1,565;    0,318
253,267; 6393,829;    1,618;    0,773
253,864; 6311,097;    0,617;    0,682
254,462; 6236,284;    1,526;    1,591
255,060; 6208,117;    0,072;    1,318
255,658; 6487,818;   -3,292;   -0,136
256,255; 6889,391;   -0,201;   -2,045
256,853; 6743,403;    2,345;    1,409
257,451; 6733,059;    1,981;    1,864
258,048; 7028,983;    2,072;    1,864
258,646; 6764,032;    0,436;   -1,045
259,243; 6932,675;    2,981;    2,227
259,841; 6971,592;    1,799;    0,318
260,438; 6866,722;    0,254;    0,864
261,036; 7545,758;    0,617;    1,409
261,633; 7446,594;    1,526;    2,227
262,231; 7194,632;   -0,110;   -0,045
262,828; 7275,905;   -0,383;    1,136
263,425; 7306,207;   -1,928;   -0,591
264,023; 7566,935;    1,436;    0,045
264,620; 7128,529;    1,526;   -0,318
265,217; 7452,252;    2,890;    3,136
265,815; 7556,112;    2,527;    2,136
266,412; 7393,301;    0,072;    0,136
267,009; 7397,353;    0,526;    0,773
267,606; 7314,487;    0,345;   -0,955
268,203; 7318,060;   -0,383;   -0,591
268,801; 7553,499;   -0,474;    0,591
269,398; 7818,544;   -0,564;    2,500
269,995; 7834,451;    0,890;    1,591
270,592; 7618,709;    0,799;   -0,500
271,189; 7789,113;    1,981;    0,409
271,786; 7912,754;    2,072;    1,227
272,383; 7770,716;   -0,383;    0,227
272,980; 7932,651;    1,617;    0,318
273,577; 8405,871;    2,162;    1,227
274,174; 7952,992;    1,435;    2,591
274,771; 7892,818;    1,890;   -0,773
275,367; 8079,437;    3,253;    1,409
275,964; 8035,777;   -0,565;   -0,500
276,561; 8145,846;   -2,474;   -1,045
277,158; 8319,905;    1,799;   -1,773
277,755; 8438,797;   -0,110;    0,409
278,351; 7852,963;    0,436;   -1,500
278,948; 8144,977;   -0,201;    0,045
279,545; 8159,707;    0,527;    2,318
280,141; 8770,598;    1,254;   -2,045
280,738; 8597,497;    2,435;   -0,136
281,334; 8766,090;   -0,383;    0,591
281,931; 8221,189;    2,890;   -1,318
282,528; 8374,136;    4,072;   -0,500
283,124; 9017,829;    3,345;   -0,500
283,721; 8909,365;    0,709;    1,409
284,317; 8733,578;    0,163;    2,500
284,913; 9233,299;   -0,110;    0,591
285,510; 9403,481;    2,890;   -0,318
286,106; 9423,913;    2,345;   -0,955
286,703; 9009,289;    0,072;    1,955
287,299; 9229,320;    1,254;   -0,591
287,895; 9446,007;    0,890;   -1,045
288,491; 9960,181;    0,163;    2,136
289,088; 9670,604;    0,163;    2,409
289,684; 9737,364;    2,890;    1,500
290,280; 9732,297;    1,890;    0,682
290,876; 9840,254;    0,163;    5,500
291,472; 9739,928;    2,163;    2,227
292,068; 9831,962;    1,254;    0,227
292,665; 9591,683;   -0,564;    0,773
293,261; 9251,889;   -1,292;    2,136
293,857; 9569,340;    4,072;    2,136
294,453; 9510,166;   -0,928;    0,955
295,049; 9382,917;    0,253;    1,955
295,644; 9420,213;   -1,292;    0,136
296,240; 9333,275;    0,162;   -0,136
296,836; 9387,011;   -0,747;    0,318
297,432; 9671,596;    2,980;   -0,500
298,028; 9667,279;    0,435;    0,773
298,624;10024,766;    0,889;    1,864
299,220;10274,751;    0,435;    0,591
299,815; 9935,181;    0,526;   -0,409
300,411; 9731,190;    0,435;    1,773
301,007; 9774,614;    1,889;    0,227
301,602; 9774,491;    2,071;   -2,318
302,198; 9944,734;    1,435;   -0,773
302,794;10249,336;    1,526;   -0,500
303,389;10363,000;    1,071;    1,045
303,985;10432,005;    1,253;    1,409
304,580;10388,266;    0,889;    1,591
305,176;10370,075;    0,344;    0,136
305,771;10295,818;   -0,929;   -1,227
306,367;10173,738;    3,071;    0,136
306,962;10476,491;    2,889;    1,500
307,558;10216,899;    2,435;    0,136
308,153;10151,963;   -0,383;   -1,136
308,748;10349,521;    0,162;    1,682
309,344;10330,671;    0,253;   -1,318
309,939;10442,520;    2,071;   -1,318
310,534;10695,186;   -2,020;   -1,682
311,130;10625,910;   -0,656;   -2,500
311,725;10380,832;    0,526;   -0,500
312,320;10706,062;    1,253;    0,045
312,915;10568,438;    2,890;   -1,045
313,510;10628,744;    0,526;   -0,500
314,105;11086,439;   -3,565;    1,409
314,700;10487,634;   -1,656;   -1,045
315,295;10179,630;   -0,020;    0,045
315,890; 9781,988;   -0,292;    0,864
316,485;10078,790;    0,253;   -0,318
317,080;10193,449;   -0,929;    1,591
317,675;10715,768;    3,071;   -0,682
318,270;10160,356;    6,889;    3,318
318,865;10210,468;    2,435;    3,045
319,460;10011,741;   -1,565;    0,591
320,055;10241,271;   -2,565;   -1,227
320,650; 9931,353;   -1,838;   -0,591
321,244; 9955,620;    0,889;   -1,409
321,839;10850,389;    0,980;   -0,227
322,434;10752,062;   -0,111;   -1,591
323,029;10381,638;   -0,474;    1,591
323,623;10240,430;    0,798;    0,773
324,218;10073,785;    2,707;    1,409
324,812;10000,679;    0,889;    1,591
325,407; 9809,922;   -0,929;    2,045
326,002; 9740,039;    0,526;   -0,409
326,596;10070,879;   -0,656;    1,318
327,191;10252,144;   -0,383;   -1,045
327,785; 9846,607;   -0,747;   -0,227
328,379;10068,804;   -0,383;    0,136
328,974; 9829,736;    1,798;   -3,955
329,568;10091,681;    2,889;   -2,409
330,163; 9957,164;    2,435;    1,045
330,757;10279,158;    0,253;    1,591
331,351; 9610,050;   -0,292;    0,682
331,945; 9915,448;   -0,383;    1,409
332,540; 9525,211;    1,617;   -0,591
333,134; 9676,184;    3,344;    0,773
333,728; 9917,187;    2,799;    0,318
334,322;10211,051;    0,889;   -0,864
334,916; 9495,111;    0,344;    0,955
335,510; 9818,297;   -0,111;   -0,136
336,105;10072,690;   -0,929;    1,591
336,699; 9781,056;   -1,292;    0,591
337,293; 9697,039;    1,071;    0,318
337,887; 9839,449;    0,071;    1,955
338,481; 9924,164;    2,980;    0,591
339,074;10090,586;    2,071;    2,682
339,668; 9876,396;   -0,110;    1,227
340,262;10143,550;    7,708;    3,227
340,856; 9677,604;    1,708;   -0,682
341,450; 9088,118;    0,708;    1,864
342,044; 9877,948;    1,799;    0,136
342,637; 9656,612;    1,162;   -2,136
343,231; 9517,742;   -1,474;    0,682
343,825; 9483,441;   -0,747;   -0,591
344,419; 9429,140;   -0,474;    0,500
345,012; 9292,807;    2,889;    4,045
345,606; 9300,820;   -0,656;    1,591
346,199; 9159,208;   -0,111;   -0,227
346,793; 8742,835;    2,525;    2,045
347,386; 8909,858;    0,889;   -1,136
347,980; 8913,566;   -0,838;   -0,045
348,573; 8743,607;   -1,748;    0,409
349,167; 8446,781;    6,161;    4,773
349,760; 8791,035;    2,252;    2,682
350,354; 8730,231;    1,616;    1,136
350,947; 8464,357;    2,798;    1,682
351,540; 8232,150;    0,616;   -1,409
352,134; 8196,786;   -1,111;    1,136
352,727; 8274,580;   -0,657;    1,136
353,320; 8073,067;    2,343;    0,591
353,913; 7912,146;   -1,929;    1,864
354,507; 8104,222;    0,434;   -1,227
355,100; 8135,894;    0,071;    0,864
355,693; 7453,220;    4,798;    2,409
356,286; 7482,898;    0,980;    2,773
356,879; 7822,448;   -0,475;    1,227
357,472; 7443,680;    0,980;    1,500
358,065; 7660,449;    3,161;    2,500
358,658; 7594,923;    0,798;    2,318
359,251; 7268,790;    0,252;   -0,591
359,844; 6818,603;    0,343;   -1,136
360,437; 6984,465;    0,252;    0,045
361,030; 7247,858;    0,525;   -0,682
361,623; 6845,359;    0,434;    0,318
362,215; 6901,899;    0,979;    2,045
362,808; 6749,500;   -2,293;   -1,682
363,401; 6949,141;    0,798;    0,136
363,994; 6708,671;    3,252;   -1,500
364,586; 6641,396;    0,888;   -1,500
365,179; 6821,253;   -0,203;   -1,136
365,772; 6334,433;   -0,930;    2,045
366,364; 6594,339;    1,524;   -3,227
366,957; 6791,672;    1,342;   -0,045
367,549; 6804,039;   -0,203;   -0,864
368,142; 6498,748;    0,978;   -1,500
368,734; 6658,370;    2,523;   -2,136
369,327; 6628,861;    2,341;   -0,500
369,919; 6544,624;   -1,659;    0,409
370,512; 6388,114;   -1,023;   -0,500
371,104; 6180,812;    2,704;    1,591
371,696; 6332,894;    1,703;   -0,955
372,289; 6395,471;    0,157;    1,136
372,881; 6527,375;    1,156;    1,318
373,473; 6440,880;    4,064;    1,136
374,066; 6281,729;    1,336;    0,500
374,658; 6173,079;    0,879;    1,136
375,250; 6476,925;   -1,668;   -1,409
375,842; 6315,110;   -0,124;   -0,045
376,434; 6209,357;   -2,762;   -0,409
377,026; 6741,690;   -1,855;   -2,500
377,618; 6617,632;    0,779;   -0,682
378,210; 6457,146;    3,141;   -1,955
378,802; 6340,019;    3,412;   -0,591
379,394; 6320,712;    3,411;    0,682
379,986; 6852,299;    1,138;   -0,955
380,578; 6909,503;    1,410;    0,773
381,170; 6345,482;    0,320;    0,045
381,762; 6299,672;   -0,224;    1,409
382,354; 6453,473;   -0,223;   -1,318
382,945; 6547,416;    0,870;    0,318
383,537; 6710,823;    1,144;   -1,955
384,129; 6688,863;    0,963;   -1,136
384,721; 6833,184;    0,418;    0,955
385,312; 6792,204;   -1,399;   -0,955
385,904; 6894,813;   -0,945;    1,591
386,496; 6298,165;    0,691;    1,045
387,087; 6433,906;    0,418;    2,500
387,679; 6438,335;   -0,401;    0,045
388,270; 6594,638;   -2,401;    2,045
388,862; 6687,233;   -0,401;   -0,318
389,453; 6558,444;    1,054;    1,045
390,045; 6823,330;    3,236;   -2,682
390,636; 6734,875;    0,144;   -0,591
391,227; 6586,341;    2,054;   -0,045
391,819; 6729,710;    0,781;    0,773
392,410; 6780,635;    0,600;    0,045
393,001; 6694,162;    1,600;   -1,591
393,593; 6973,324;    0,600;   -0,045
394,184; 6834,665;    0,873;   -0,409
394,775; 6734,213;    1,146;    2,136
395,366; 6923,676;    1,782;    0,773
395,957; 6904,434;   -2,400;    0,136
396,548; 7188,705;    1,054;    2,682
397,139; 7473,457;    2,236;    0,591
397,730; 7236,422;    0,873;    0,955
398,321; 7258,916;    0,509;    0,955
398,912; 7257,680;   -0,764;    0,136
399,503; 7363,109;   -1,945;   -1,409
400,094; 6842,249;   -1,582;    1,682
400,685; 6740,751;    3,600;    0,045
401,276; 6796,010;   -0,400;   -0,955
401,867; 7078,610;   -1,127;    0,773
402,458; 7172,575;    1,509;   -2,318
403,048; 7140,644;    0,146;    0,591
403,639; 6794,934;    1,509;    0,864
404,230; 7017,716;    0,691;    0,318
404,821; 6980,745;   -0,127;    0,045
405,411; 7084,207;   -0,763;   -2,591
406,002; 6711,080;    3,237;   -1,136
406,592; 6591,553;    2,691;    0,045
407,183; 6856,699;    0,328;   -1,500
407,774; 6789,495;    1,419;   -0,136
408,364; 7108,480;    2,600;    0,409
408,954; 6747,497;   -0,036;    1,227
409,545; 6790,288;    1,873;    1,045
410,135; 6340,334;   -1,581;    0,500
410,726; 6495,213;    0,783;    0,318
411,316; 6841,585;    2,237;    0,773
411,906; 6528,690;    0,146;   -0,409
412,497; 6096,584;   -0,490;   -0,045
413,087; 6627,315;    0,783;   -0,227
413,677; 6985,691;   -2,490;    3,864
414,267; 6831,933;   -1,035;    1,409
414,857; 6811,989;    0,419;    4,227
415,448; 7067,779;   -0,763;    0,500
416,038; 6831,697;   -2,945;   -0,591
416,628; 6763,027;    0,965;    0,409
417,218; 6303,890;   -1,762;    3,318
417,808; 6529,400;    0,965;   -0,409
418,398; 6931,493;   -1,035;    2,682
418,988; 6947,728;   -2,217;    0,591
419,578; 7149,541;    3,601;    1,409
420,168; 7468,829;    0,692;   -0,955
420,757; 7070,438;    0,964;   -1,500
421,347; 6771,901;    1,601;   -0,227
421,937; 6940,351;    3,329;    1,409
422,527; 6897,077;    2,602;   -0,773
423,116; 6738,447;    2,692;   -0,045
423,706; 7015,786;    2,965;    0,318
424,296; 7005,555;    1,601;    0,682
424,885; 7401,373;    1,510;   -3,045
425,475; 7634,512;    1,147;   -2,864
426,065; 7530,850;   -1,489;   -0,318
426,654; 7203,123;    0,329;   -0,318
427,244; 7336,905;    1,147;    1,409
427,833; 6825,507;    1,056;   -0,500
428,423; 7233,695;    0,147;    1,136
429,012; 7905,308;    2,420;   -1,136
429,601; 7438,855;    2,057;    0,136
430,191; 7685,426;    2,511;    4,318
430,780; 7348,721;   -1,671;   -0,409
431,369; 7262,197;    1,329;   -0,045
431,959; 7823,115;    1,693;    0,500
432,548; 7613,712;   -1,398;   -0,045
433,137; 7747,004;    0,329;   -1,318
433,726; 8220,194;    0,148;    0,500
434,315; 7649,799;    0,148;    2,409
434,905; 7734,707;    0,693;    1,409
435,494; 7691,242;    3,148;    0,955
436,083; 8082,883;    1,420;   -0,955
436,672; 7973,540;    1,148;    0,500
437,261; 7578,416;    0,512;   -1,955
437,850; 7667,331;   -1,125;    0,682
438,439; 7654,801;    2,239;    1,955
439,027; 7515,450;    3,421;    1,773
439,616; 7816,325;    2,239;    1,227
440,205; 7700,156;    0,057;   -2,136
440,794; 7746,038;   -0,306;   -0,045
441,383; 7971,124;    1,603;   -0,591
441,971; 7828,481;   -0,306;    0,591
442,560; 7703,544;    0,603;   -1,773
443,149; 7439,988;    3,060;   -1,318
443,737; 7578,602;    0,968;   -2,318
444,326; 7838,935;    0,331;    0,318
444,915; 7896,518;   -1,851;    0,864
445,503; 8226,205;    0,058;   -0,318
446,092; 7585,854;    7,876;    2,136
446,680; 8081,902;    1,876;    0,318
447,269; 8214,780;   -1,487;   -0,318
447,857; 7990,540;    2,240;   -1,773
448,445; 8131,870;    2,149;    1,318
449,034; 8318,384;    0,876;   -1,136
449,622; 8408,272;    1,240;    3,500
450,210; 7743,366;    3,149;    2,227
450,799; 8235,036;    2,604;   -0,591
451,387; 8162,073;    1,786;   -0,591
451,975; 7864,577;   -1,305;    0,864
452,563; 7965,024;    0,422;    2,318
453,151; 7976,049;   -1,032;   -1,227
453,739; 7921,708;   -1,577;    0,136
454,328; 7778,776;    0,604;   -2,136
454,916; 7510,644;    1,150;   -0,136
455,504; 7678,984;    3,513;    1,227
456,092; 7849,008;    2,150;   -1,591
456,679; 7812,558;    0,604;    0,682
457,267; 7792,682;    3,604;    1,045
457,855; 7899,497;    3,241;    1,409
458,443; 7651,264;   -0,304;    1,682
459,031; 7800,398;    1,332;    2,409
459,619; 8186,558;   -3,577;    2,864
460,206; 8309,482;   -0,759;    2,045
460,794; 8397,847;   -0,668;   -0,227
461,382; 8597,602;    0,878;   -0,864
461,970; 8208,646;    0,605;    1,864
462,557; 8237,439;    0,878;   -0,682
463,145; 8400,011;   -0,304;   -1,682
463,732; 8535,791;    2,514;   -1,045
464,320; 8455,218;    1,514;   -3,045
464,907; 8144,475;    0,423;   -0,773
465,495; 8040,076;    2,696;   -1,227
466,082; 8189,759;    2,060;   -0,045
466,670; 8084,674;    2,605;    1,227
467,257; 8485,100;    0,060;    2,045
467,844; 8634,115;    1,514;    0,045
468,432; 8659,691;   -0,031;    3,500
469,019; 8206,168;    1,606;   -1,773
469,606; 8645,664;    0,969;    3,682
470,193; 8478,246;    2,151;    0,227
470,780; 8083,379;    0,333;    0,864
471,368; 8422,750;   -1,212;   -0,773
471,955; 8193,031;    1,060;   -0,682
472,542; 7877,052;   -0,303;   -1,136
473,129; 8113,790;   -0,485;    0,136
473,716; 7870,642;    0,060;    0,591
474,303; 7991,690;    1,333;   -0,864
474,890; 8242,996;    2,333;   -0,500
475,477; 8291,608;   -0,576;    0,409
476,064; 8206,088;    0,697;   -1,591
476,650; 8099,999;    2,152;    0,318
477,237; 7998,090;    1,879;    0,955
477,824; 8142,805;    3,879;    0,864
478,411; 8156,344;    0,606;   -0,318
478,997; 8318,677;    0,606;   -0,773
479,584; 8369,658;   -0,666;   -0,409
480,171; 9005,547;    1,243;   -0,773
480,757; 8688,547;   -0,848;    0,773
481,344; 8933,755;    0,334;    0,409
481,931; 8473,661;   -0,393;    1,045
482,517; 9347,195;    0,425;    0,318
483,104; 9786,999;    1,334;    2,864
483,690;10019,844;    0,243;    0,045
484,276;10306,677;    0,698;    0,227
484,863;10100,678;    2,152;    1,136
485,449;10592,025;    0,152;    0,318
486,035;10598,873;   -0,666;   -0,136
486,622;10996,315;   -2,393;    0,045
487,208;10936,724;    1,334;    1,500
487,794;10791,347;    0,971;    0,318
488,380;10869,815;    0,698;   -1,409
488,967;10974,811;   -1,120;   -0,409
489,553;11030,990;   -1,029;   -1,409
490,139;11221,652;    0,971;    0,773
490,725;10717,728;    0,789;   -0,227
491,311;10357,083;    1,516;    3,045
491,897; 9759,929;   -0,665;    1,500
492,483; 9626,965;    0,426;    1,227
493,069; 9492,549;    5,426;    0,864
493,655; 9424,808;    1,789;    0,682
494,241; 9363,890;    1,517;   -0,955
494,826; 9684,556;    0,335;   -1,045
495,412; 9181,489;    0,335;   -0,682
495,998; 9333,050;    0,971;   -0,318
496,584; 9421,438;    2,244;    1,045
497,169; 9410,911;    2,335;   -0,682
497,755; 9342,674;    1,244;    1,227
498,341; 9868,477;    2,153;    0,318
498,926; 9462,844;    2,881;    1,955
499,512; 9624,293;   -0,028;    2,955
500,097; 9709,283;   -0,574;   -0,318
500,683; 9674,626;   -0,028;    2,136
501,268; 9998,971;    1,881;   -0,955
501,854; 9750,786;   -0,119;    1,227
502,439; 9668,378;   -0,573;   -1,773
503,024; 9857,412;    1,608;    0,500
503,610; 9909,953;    1,335;   -0,682
504,195; 9889,472;    1,245;    1,955
504,780;10014,250;    2,335;    1,227
505,366; 9880,195;    4,063;    2,864
505,951; 9594,555;   -1,119;    1,045
506,536; 9630,614;    1,427;   -3,682
507,121; 9582,799;    1,699;   -0,318
507,706;10075,554;   -0,392;    1,045
508,291;10431,897;   -2,937;    1,136
508,876; 9924,034;   -0,482;    2,591
509,461; 9417,749;    1,427;   -0,773
510,046; 9849,493;   -0,391;    0,318
510,631;10022,306;   -0,119;   -0,773
511,216; 9723,897;   -0,664;   -0,500
511,801;10101,527;   -0,755;    2,591
512,386;10328,933;    0,972;    0,500
512,971;10242,252;    0,427;    0,955
513,555; 9864,356;    1,154;   -1,500
514,140;10569,232;    1,336;   -3,136
514,725;10523,534;    1,791;   -1,136
515,309;10627,660;    1,064;    0,318
515,894;10140,931;   -0,300;   -2,227
516,479;10567,448;    1,973;   -0,955
517,063;10393,364;    0,882;    1,227
517,648;10529,735;    0,155;   -1,136
518,232;10135,998;   -1,300;   -1,409
518,817;10470,569;    1,337;    1,682
519,401;10667,309;    0,700;    0,591
519,985;10196,023;    2,700;    1,136
520,570;10088,757;   -0,118;   -1,955
521,154;10389,530;    0,064;    0,591
521,738;10541,213;    1,064;    2,409
522,323;11053,566;   -0,390;    1,682
522,907;10783,434;    2,428;   -0,136
523,491;10524,553;    1,155;    0,955
524,075;10479,215;    0,428;    0,591
524,659;10567,142;    0,973;    0,591
525,243;10127,354;    0,883;    0,409
525,827;10343,534;    0,883;   -0,045
526,411;11057,960;    1,155;   -0,136
526,995;11267,090;    0,337;    1,409
527,579;10871,674;    1,974;   -1,045
528,163;11169,996;    0,428;   -1,500
528,747;11104,192;    1,065;   -0,773
529,331;11371,594;    0,883;   -1,409
529,915;11517,159;    2,338;    0,955
530,499;11473,317;    0,247;    1,227
531,082;11203,534;    1,065;    1,591
531,666;10699,108;    0,520;    0,773
532,250;11262,309;    0,428;    2,682
532,833;11530,372;    0,610;    2,773
533,417;11431,807;    1,247;    0,864
534,001;11366,066;    0,429;   -0,318
534,584;12002,102;    1,974;    0,500
535,168;11854,598;    3,247;    1,409
535,751;11897,201;    4,520;    0,045
536,334;11358,284;    4,520;   -0,409
536,918;11928,643;    1,974;    1,591
537,501;12012,530;    1,520;    1,318
538,085;12006,837;    1,702;    1,045
538,668;12097,408;    0,883;    2,409
539,251;12378,433;    3,156;    3,773
539,834;12388,699;    0,156;    0,773
540,418;12342,405;    3,247;    4,318
541,001;12418,642;    2,702;    1,773
541,584;12406,900;    1,429;    2,227
542,167;12097,799;    0,702;    2,955
542,750;12216,087;    0,793;   -0,773
543,333;11814,096;    1,429;    2,136
543,916;12518,128;   -0,298;    2,500
544,499;13018,167;    2,520;    0,227
545,082;13021,353;    0,248;    3,591
545,665;13156,181;   -0,207;    1,500
546,248;13437,641;    0,520;   -0,318
546,830;13156,996;   -1,752;    1,955
547,413;13508,215;    0,157;   -0,773
547,996;14030,100;    0,157;    0,500
548,579;13750,082;   -0,843;    0,955
549,161;13572,177;    0,884;    2,682
549,744;13340,523;    0,612;    0,409
550,326;13803,208;    0,885;   -1,136
550,909;13636,344;    2,339;    0,591
551,492;13976,516;    0,521;    0,227
552,074;13772,017;   -0,024;   -1,318
552,657;14293,064;    2,430;    0,045
553,239;14062,231;   -3,024;   -0,773
553,821;13976,652;   -1,570;    1,045
554,404;13500,152;   -0,024;    1,136
554,986;13856,354;    2,248;    1,045
555,568;14357,703;    0,430;   -0,955
556,151;13644,365;    4,067;   -0,227
556,733;13826,277;   -1,388;   -0,864
557,315;14262,421;    4,703;    0,500
557,897;14038,937;    0,521;   -0,500
558,479;14140,827;    1,703;    1,318
559,061;14264,468;    1,067;   -0,864
559,643;14563,557;   -0,297;    0,045
560,225;14864,435;   -0,388;    2,864
560,807;14918,648;    0,340;    0,318
561,389;14441,135;   -1,206;    2,318
561,971;15059,243;   -0,660;    2,136
562,553;14939,652;    0,613;    1,591
563,135;14985,647;    1,249;    1,136
563,717;14648,463;    3,158;    1,136
564,298;15223,548;    3,976;   -0,045
564,880;14936,073;    0,340;   -1,409
565,462;15085,437;    1,977;    1,318
566,043;16129,065;   -0,933;    2,318
566,625;15684,450;    4,067;    1,227
567,207;15479,888;    0,704;    1,682
567,788;16420,783;   -0,114;    1,500
568,370;17133,051;   -1,841;   -0,500
568,951;16937,703;   -0,569;    0,227
569,533;17649,574;    0,977;   -0,500
570,114;18024,989;   -0,296;    0,682
570,695;18445,168;   -0,478;   -1,318
571,277;18752,733;   -0,205;   -1,682
571,858;19330,967;    2,704;   -1,136
572,439;20147,672;    0,795;   -1,045
573,021;20192,851;    0,432;   -2,773
573,602;20610,398;    1,795;    0,318
574,183;21422,919;   -0,114;    2,227
574,764;21409,595;    2,068;    0,409
575,345;21829,454;    0,250;   -0,136
575,926;22332,981;    2,704;    0,136
576,507;22344,783;    2,704;   -0,227
577,088;23340,759;    1,704;    1,682
577,669;23247,972;    1,704;    1,955
578,250;23903,192;   -0,750;   -1,045
578,831;24374,270;   -0,841;   -2,227
579,412;24529,452;   -1,205;    0,955
579,993;25399,911;    1,432;    0,227
580,573;25676,004;   -0,023;   -0,955
581,154;24725,883;    1,613;   -0,591
581,735;25487,152;    0,341;    0,773
582,315;24980,242;    0,523;    2,136
582,896;25267,141;   -1,750;    1,227
583,477;24812,907;    0,614;    1,227
584,057;25007,524;    1,159;    0,955
584,638;25281,456;   -2,750;    2,318
585,218;25210,657;    2,886;    2,682
585,799;25370,576;    1,977;   -0,227
586,379;25435,577;    1,250;    1,591
586,959;24397,238;    2,613;    0,318
587,540;23813,081;    0,432;    2,227
588,120;23447,606;   -1,113;   -0,045
588,700;22586,932;    2,977;    2,136
589,281;22896,321;    1,250;   -0,955
589,861;22813,672;   -0,296;   -1,682
590,441;22649,097;   -1,477;   -2,682
591,021;21720,114;    1,432;   -2,591
591,601;21990,385;    0,431;    0,500
592,181;22047,219;   -1,296;   -0,773
592,761;21364,875;    2,250;    1,409
593,341;21387,690;    1,522;    0,045
593,921;21386,645;   -0,569;    1,591
594,501;21288,352;    1,250;    1,318
595,081;21103,165;    0,522;   -0,318
595,661;21406,274;    1,068;    0,955
596,240;21902,953;   -1,023;    0,136
596,820;21486,741;    2,613;    1,955
597,400;21621,996;    1,977;    0,773
597,980;21883,327;   -0,750;    1,045
598,559;21897,878;    0,341;   -0,227
599,139;21671,297;   -0,750;   -1,227
599,718;21540,115;    0,795;   -0,409
600,298;21772,174;   -2,387;    0,682
600,877;22030,991;    4,795;    1,409
601,457;22247,960;    0,340;    1,136
602,036;22159,224;    1,795;    2,045
602,616;22337,803;    2,250;    1,682
603,195;22605,163;    0,431;    3,500
603,774;22164,013;   -0,296;    2,045
604,354;22047,403;    2,522;   -0,500
604,933;21615,630;    0,250;    1,864
605,512;21757,043;    2,340;    0,591
606,091;21822,196;    1,886;    3,773
606,671;22552,552;    0,249;    0,773
607,250;21734,328;    1,431;    3,136
607,829;21971,540;    1,158;    3,227
608,408;21840,124;    4,613;    2,591
608,987;20963,869;    2,704;    3,409
609,566;21165,707;    0,341;   -2,500
610,145;21333,125;    2,885;    0,682
610,723;21712,700;    1,613;    6,864
611,302;21005,149;    1,067;    1,682
611,881;20555,617;    5,158;   11,227
612,460;21303,440;    0,795;    3,955
613,039;21719,339;    1,703;    2,045
613,617;20540,479;    0,886;    4,773
614,196;20708,099;    1,613;    1,227
614,775;21029,176;    1,249;    2,409
615,353;20964,021;   -1,660;    0,864
615,932;20755,571;    0,249;    2,409
616,510;21311,197;    0,158;    0,591
617,089;20878,484;    8,794;   17,591
617,667;20685,277;    4,885;    6,136
618,246;20509,189;   -1,115;    1,318
618,824;20702,082;    1,612;   -0,955
619,402;20305,970;    0,431;   -1,773
619,981;20689,880;    1,067;   -1,045
620,559;20632,865;    0,794;    1,682
621,137;20199,351;    3,067;    1,864
621,715;20152,836;    3,703;   -0,682
622,293;20120,349;    1,885;   -0,773
622,871;20551,967;    0,340;    0,500
623,450;20173,815;    0,430;   -0,864
624,028;20095,727;   -0,388;   -0,955
624,606;19722,619;    2,339;    1,682
625,183;20073,527;   -0,661;   -1,136
625,761;19779,912;    1,885;    1,136
626,339;20079,127;    2,339;    2,591
626,917;20401,809;    0,339;   -0,045
627,495;20433,314;    2,794;    1,318
628,073;19959,017;    5,248;    2,864
628,650;19662,761;    3,067;    2,136
629,228;20027,832;    1,248;    4,409
629,806;19479,173;   -0,024;    1,136
630,383;19705,054;    0,066;   -0,318
630,961;19551,560;   -2,206;   -0,955
631,539;19320,709;   -2,479;    0,227
632,116;18755,288;   12,703;   15,409
632,694;19299,375;    4,885;    6,500
633,271;19508,346;    1,975;    2,682
633,848;19459,142;    1,430;    2,045
634,426;19489,715;    1,521;    1,773
635,003;18753,359;   -0,207;   -0,409
635,580;18978,535;    1,884;    3,682
636,158;19468,921;    3,793;    1,227
636,735;19434,096;    3,339;   -0,500
637,312;19508,831;    0,521;   -0,682
637,889;19645,524;    2,248;   -0,682
638,466;19196,297;    0,066;   -0,409
639,043;19194,296;    1,702;   -1,136
639,620;19489,839;    0,611;   -0,955
640,197;19727,251;    1,612;    1,682
640,774;19875,425;    1,430;    1,136
641,351;20212,054;    0,612;    1,136
641,928;19745,047;    2,794;    1,409
642,505;19406,948;    0,794;   -0,500
643,082;19485,941;    1,885;    1,227
643,658;18658,297;    1,157;    1,500
644,235;19265,108;   -2,479;    2,500
644,812;19502,919;    1,794;    0,773
645,388;19266,275;    1,612;    1,409
645,965;19348,540;    1,521;    1,682
646,542;19411,351;    3,430;   -0,227
647,118;19442,525;    3,703;   -0,955
647,695;19638,427;    0,339;    1,136
648,271;19593,783;   -2,115;    0,500
648,848;19870,140;    0,248;    2,227
649,424;19689,132;    0,976;    1,318
650,000;19430,307;   -0,388;   -1,045
650,577;19324,390;    0,158;   -0,955
651,153;19717,019;   -1,115;    0,955
651,729;20529,466;    0,521;    0,864
652,305;20644,550;    1,339;    2,773
652,881;24001,088;   -1,297;    1,136
653,458;29368,898;    0,249;    0,227
654,034;32372,255;    0,703;    1,591
654,610;33565,429;    0,339;    0,773
655,186;34691,694;    1,612;    3,045
655,762;34392,323;   -1,842;    0,409
656,338;34355,589;    0,703;    0,136
656,913;35356,581;   -0,297;    0,409
657,489;34763,119;    0,249;   -0,318
658,065;34715,385;    0,794;   -1,591
658,641;35244,377;    2,158;   -0,864
659,217;34628,733;    2,067;    0,409
659,792;34101,090;   -1,751;   -0,409
660,368;34461,264;   -0,388;   -0,682
660,944;34429,166;    1,794;    1,227
661,519;30820,522;    0,522;    0,409
662,095;25969,605;   -0,206;    0,591
662,670;22181,507;   -0,206;   -0,136
663,246;21290,045;   -0,660;   -0,409
663,821;20708,311;    0,431;    1,682
664,396;20179,667;    0,613;    1,864
664,972;20450,296;   -0,660;   -0,500
665,547;20729,197;    3,794;    0,136
666,122;20766,463;    1,340;    0,318
666,698;20994,728;    2,431;    0,318
667,273;20393,902;    0,885;    0,136
667,848;21142,986;    0,340;    1,500
668,423;20920,433;    1,795;    2,318
668,998;21315,426;    0,976;   -0,682
669,573;21814,146;    2,067;   -1,500
670,148;21647,593;    1,885;   -0,682
670,723;21438,949;   -0,024;    0,318
671,298;21804,669;   -1,296;    1,045
671,873;21850,480;   -0,296;   -0,136
672,448;21846,018;    1,704;    0,136
673,023;22147,283;    0,249;   -0,227
673,597;22383,821;    2,704;    2,318
674,172;22228,450;    2,431;    0,318
674,747;21800,443;   -0,205;   -1,045
675,321;21557,526;   -0,933;    3,318
675,896;21205,791;    2,158;    1,045
676,471;22054,693;    2,522;    1,591
677,045;21856,867;   -0,296;    0,682
677,620;21900,587;    2,158;    1,136
678,194;22192,125;    0,249;    1,136
678,769;21853,300;    0,886;   -0,318
679,343;22078,020;   -0,023;    1,773
679,917;21876,194;    0,340;    1,955
680,492;21910,550;    0,249;    3,227
681,066;22092,543;    0,613;    0,409
681,640;22123,354;    1,795;   -0,318
682,214;22795,619;    2,340;    0,500
682,788;22350,612;    0,613;   -0,773
683,363;22252,150;    1,977;    1,682
683,937;21969,233;    0,886;   -0,318
684,511;22608,953;   -1,023;   -0,591
685,085;22361,764;   -1,478;    0,318
685,659;22145,938;    1,431;    0,864
686,232;22401,567;    1,159;   -0,318
686,806;22195,378;    2,159;    0,409
687,380;22778,098;   -1,932;    0,591
687,954;22936,272;    2,432;    1,136
688,528;22593,901;    2,613;    1,955
689,101;23328,621;    0,432;    1,045
689,675;22934,432;    0,886;   -0,136
690,249;22369,606;    3,432;    0,409
690,822;22731,326;    1,159;    0,318
691,396;22821,682;    2,068;    1,227
691,969;22309,220;    2,523;    0,136
692,543;22748,577;   -0,568;   -1,955
693,116;22405,660;   -0,659;   -1,409
693,690;22278,380;   -0,296;    0,500
694,263;22742,191;    2,341;    2,955
694,836;22793,183;    2,795;    3,591
695,410;21582,267;    1,159;    1,773
695,983;21943,441;    1,614;    0,591
696,556;21995,525;   -0,750;   -1,045
697,129;22341,972;   -1,114;    1,409
697,703;21997,146;    1,341;    1,955
698,276;22007,502;    1,705;   -0,773
698,849;21836,677;   -1,023;    1,409
699,422;22217,488;    1,250;    0,591
699,995;21975,207;   -0,659;    0,136
700,568;22350,927;   -0,204;    3,045
701,140;22323,011;   -1,841;    1,682
701,713;22143,094;    0,341;    2,409
702,286;21943,360;    0,796;    0,864
702,859;21808,080;    0,614;   -0,591
703,432;21063,890;   -0,841;    0,682
704,004;21426,247;    1,978;    0,318
704,577;21334,603;    1,068;    0,136
705,150;21874,777;    0,887;    2,500
705,722;21684,133;    1,523;   -3,227
706,295;21507,944;    1,432;   -0,591
706,867;21389,755;    0,250;    1,955
707,440;21557,748;   -0,113;   -0,409
708,012;21791,922;   -0,022;    0,591
708,584;21710,551;    2,705;    0,227
709,157;21983,907;    1,160;   -0,591
709,729;21639,718;    1,069;    2,045
710,301;22431,438;   -1,204;    0,045
710,874;22447,430;    0,341;   -0,227
711,446;21421,423;   -0,295;    0,864
712,018;21278,870;   -3,022;    0,500
712,590;21074,045;   -0,204;    1,682
713,162;21574,583;   -0,477;    1,318
713,734;21790,575;    1,796;   -2,045
714,306;21699,295;    0,342;   -0,409
714,878;20487,742;   -0,295;    0,864
715,450;21282,189;   -0,113;    0,864
716,022;21508,000;    2,433;    1,318
716,593;21675,720;    0,978;    0,591
717,165;21615,258;    1,796;   -1,227
717,737;21326,160;    0,796;    0,409
718,309;21005,880;    1,160;   -0,045
718,880;21010,418;   -1,295;   -1,409
719,452;21218,956;    0,887;   -1,591
720,024;20894,312;    1,705;   -0,591
720,595;21407,486;    2,978;    0,955
721,167;21022,115;    1,160;   -2,045
721,738;20560,835;    2,069;   -1,045
722,309;20526,464;    1,251;   -1,227
722,881;20324,548;    2,705;    0,773
723,452;20941,904;    1,251;    2,864
724,023;21129,351;    1,524;    2,682
724,595;20901,071;    2,342;    0,682
725,166;20647,245;    1,524;   -0,409
725,737;20302,783;    1,887;    0,227
726,308;20425,958;    0,797;    0,318
726,879;20751,859;    1,069;    1,227
727,450;20619,761;   -2,022;   -0,045
728,021;20590,481;    1,069;    0,682
728,592;20438,473;    1,160;    0,500
729,163;20741,830;    1,433;   -0,136
729,734;20727,095;    2,160;   -0,227
730,305;21097,269;    0,615;    0,136
730,876;21389,444;    0,888;    2,955
731,447;21098,982;    0,797;    2,682
732,017;21192,247;   -0,840;    1,864
732,588;20743,876;   -0,021;    1,227
733,159;20893,505;    3,615;   -1,045
733,729;20707,952;    1,251;    0,409
734,300;20076,854;    0,160;    0,864
734,870;20502,847;   -1,385;    0,591
735,441;20963,021;    0,888;   -0,591
736,011;20765,195;    1,070;   -1,591
736,582;20750,915;    1,251;    0,045
737,152;20191,453;    0,979;   -2,045
737,722;20623,264;    1,070;   -0,682
738,293;20376,711;   -2,021;    1,318
738,863;20284,249;    1,797;    2,318
739,433;20124,242;    4,524;    0,318
740,003;20744,780;    1,524;   -0,682
740,573;20219,772;    2,252;   -1,591
741,143;20192,220;    3,615;    0,318
741,713;20847,030;    0,252;   -0,500
742,283;20592,750;    1,706;    1,591
742,853;20393,470;    0,524;    1,591
743,423;19904,372;    0,161;    0,045
743,993;19991,001;    1,070;    1,500
744,563;19462,266;    2,524;   -0,864
745,133;19417,168;   -0,112;   -0,864
745,702;20060,433;    2,797;    1,773
746,272;19314,426;    0,434;    0,591
746,842;19146,055;   -0,748;   -0,591
747,411;19584,956;   -0,839;   -0,318
747,981;19702,222;   -0,930;    0,500
748,551;19718,305;   -0,021;   -1,045
749,120;19604,843;   -0,112;   -0,227
749,690;19903,381;    2,161;    2,409
750,259;20215,374;    0,979;    2,955
750,828;20161,094;    4,070;   -1,955
751,398;20374,904;   -0,112;   -0,045
751,967;19918,352;    2,888;    0,409
752,536;20108,708;    1,161;   -0,227
753,105;20482,882;   -1,384;    0,227
753,675;20240,602;   -0,112;    1,773
754,244;20206,686;    0,888;    3,591
754,813;20243,769;    0,979;    1,227
755,382;19816,216;    0,798;    0,955
755,951;20314,118;   -0,112;    3,682
756,520;19944,929;    2,525;    1,864
757,089;20437,194;    1,888;    0,500
757,658;20559,823;    2,434;    1,227
758,227;20588,725;   -1,111;    0,318
758,795;20862,899;   -1,021;    1,136
759,364;21101,073;    0,525;   -0,591
759,933;20159,612;    1,343;   -0,045
760,501;19758,695;    0,252;   -1,318
761,070;20160,869;   -0,293;   -1,409
761,639;20819,044;    1,434;    1,318
762,207;20212,036;    0,889;   -0,955
762,776;20100,574;    2,889;    0,864
763,344;20094,658;    0,071;    0,591
763,913;19259,196;    1,616;    1,409
764,481;19948,734;    1,980;   -0,136
765,049;19777,818;    0,616;    1,409
765,618;19690,810;    1,434;    0,318
766,186;19780,530;    2,434;    0,136
766,754;19953,614;    1,798;    1,864
767,322;19069,515;    1,162;    0,409
767,890;19038,144;    0,525;   -1,773
768,459;19443,500;    2,616;   -0,318
769,027;19606,948;    2,525;    3,409
769,595;18699,395;    2,616;    2,591
770,163;19109,569;    3,344;    2,955
770,730;18916,834;    2,525;   -0,136
771,298;18740,372;    1,162;   -1,409
771,866;18867,001;    0,253;    4,955
772,434;19152,903;    1,162;   -1,864
773,002;19312,078;    2,616;    0,682
773,569;19014,888;    1,071;    1,682
774,137;18842,608;    0,889;   -0,045
774,705;19536,783;   -0,747;   -0,136
775,272;19120,230;    0,253;    0,682
775,840;18928,495;   -0,111;    2,682
776,407;18479,760;   -0,293;    1,955
776,975;18135,117;    1,162;    0,318
777,542;19095,018;    2,162;   -0,045
778,110;18929,102;    0,707;   -0,045
778,677;18624,276;    1,071;   -0,864
779,244;18423,087;   -1,020;    1,045
779,812;18509,352;    0,980;    0,864
780,379;18387,254;    2,435;    1,136
780,946;18583,337;    2,617;   -0,773
781,513;18852,875;   -0,565;    0,318
782,080;18304,232;    1,253;    2,864
782,647;18925,224;    1,708;    3,045
783,214;18627,671;   -0,201;    3,864
783,781;18223,028;    1,708;   -0,682
784,348;18098,020;    0,253;    1,500
784,915;18545,376;   -1,474;    0,318
785,482;18324,824;    2,708;    2,591
786,049;18772,816;    1,071;   -0,591
786,615;18852,263;    1,708;   -0,955
787,182;18625,983;   -3,201;   -0,682
787,749;18355,612;   -2,201;    1,409
788,315;17730,059;    0,253;   -0,409
788,882;18041,688;    0,981;   -1,227
789,448;18640,681;    1,435;   -0,955
790,015;18674,401;    1,799;    3,227
790,581;18294,848;    0,708;    0,227
791,148;18128,568;    1,344;    1,045
791,714;18357,651;   -1,019;    3,136
792,280;18081,280;    3,708;    1,591
792,847;17742,818;   -0,928;    2,500
793,413;18191,629;   -0,110;   -0,318
793,979;17807,167;    1,526;   -1,318
794,545;17859,251;    2,981;    2,682
795,111;17378,789;    2,435;    1,318
795,678;17561,054;    3,526;   -1,682
796,244;17239,137;    2,799;    0,136
796,810;17707,130;    0,799;    0,773
797,375;17509,032;   -0,292;   -2,136
797,941;17501,842;   -1,110;    0,591
798,507;17611,653;    0,254;   -0,955
799,073;17204,282;    2,708;    0,591
799,639;17281,820;    1,435;    3,136
800,205;17331,813;   -1,565;    2,682
800,770;16974,715;    1,345;    1,773
801,336;16994,707;    2,981;   -0,955
801,901;16732,882;    6,072;    3,136
802,467;17285,965;    0,526;    2,045
803,033;16652,049;   -0,019;    0,864
803,598;16842,405;    1,072;   -1,045
804,163;16887,579;    0,708;   -0,318
804,729;16880,663;   -0,110;    1,136
805,294;17192,110;    1,072;    2,227
805,859;16965,648;    0,890;   -0,409
806,425;16557,004;    3,890;    2,682
806,990;16265,360;    1,890;    4,318
807,555;16663,444;   -0,110;    2,591
808,120;16601,709;   -1,292;   -0,409
808,685;16659,338;    1,072;   -2,500
809,250;16284,785;    2,072;   -0,500
809,815;16493,414;   -0,201;    0,682
810,380;16921,316;    0,981;    1,591
810,945;17405,127;    2,890;    2,045
811,510;16762,847;   -0,200;    1,591
812,075;16459,203;    2,800;   -1,409
812,640;16507,014;    3,709;    1,409
813,204;16573,915;    2,163;   -0,227
813,769;17014,090;    0,254;   -0,045
814,334;16493,355;    0,527;    0,864
814,898;16523,438;    1,981;    0,591
815,463;16434,431;    0,981;   -0,773
816,027;16375,424;    1,345;   -2,318
816,592;16515,598;    2,163;   -2,045
817,156;16086,227;   -2,200;    1,136
817,721;15963,129;    0,982;    2,318
818,285;15939,030;    0,618;    1,500
818,849;16481,477;   -0,018;    1,682
819,414;16403,197;    0,073;    2,955
819,978;16058,554;   -0,291;    1,773
820,542;16562,364;    2,891;    0,500
821,106;16310,357;    2,800;    0,682
821,670;16398,350;    2,709;    2,591
822,234;16170,160;    1,073;    1,409
822,798;15676,426;   -0,836;    0,500
823,362;15641,145;    1,527;    4,227
823,926;15076,411;   -0,018;    1,136
824,490;15227,131;    3,527;   -0,682
825,054;15651,214;    2,527;   -1,136
825,618;15360,389;   -1,200;   -1,500
826,181;15258,018;    0,982;   -1,318
826,745;15176,010;   -0,745;   -1,045
827,309;15489,912;    2,255;    1,318
827,872;15009,541;    0,527;    0,955
828,436;15902,079;    1,982;   -0,773
828,999;15998,708;    2,436;    1,227
829,563;14972,519;   -0,654;    1,136
830,126;14776,966;   -0,018;   -0,591
830,690;14816,867;    0,709;    2,864
831,253;14367,860;   -0,473;    2,227
831,816;14524,762;   -0,018;    0,500
832,380;14474,482;    1,164;    0,864
832,943;14689,020;    3,073;   -0,500
833,506;14197,103;    0,255;   -1,227
834,069;14915,277;    2,164;   -0,955
834,632;15029,906;   -2,200;    1,318
835,195;14903,626;    1,346;    0,955
835,758;14226,710;    0,709;    1,955
836,321;14042,521;    1,073;   -1,045
836,884;14147,604;   -1,291;   -0,955
837,447;14250,142;    0,528;    1,773
838,010;14426,317;    1,800;    3,227
838,573;14705,127;    0,528;    0,773
839,135;14739,302;   -0,109;   -0,955
839,698;14220,931;    2,528;    0,409
840,261;13802,560;    0,255;   -0,227
840,823;13673,098;   -0,927;    0,864
841,386;13934,090;   -0,018;   -2,409
841,948;13862,446;    0,255;    1,773
842,511;13646,075;    0,255;    1,682
843,073;13740,704;    2,982;    0,227
843,636;13578,515;    0,619;   -0,227
844,198;13514,326;    1,255;    0,591
844,760;13645,682;    0,619;    1,955
845,322;13342,948;    0,164;    1,136
845,885;13690,486;   -0,290;    0,591
846,447;14088,024;    0,710;    0,227
847,009;13719,653;    3,983;   -0,682
847,571;13939,918;    1,346;   -2,045
848,133;14082,183;   -0,199;   -1,864
848,695;13937,630;    2,346;    1,409
849,257;13541,077;    1,346;   -1,682
849,819;13657,616;    2,983;   -0,409
850,381;13686,517;    1,801;   -0,864
850,942;13969,692;    1,892;   -0,591
851,504;13957,502;    0,983;    0,227
852,066;13997,222;    1,619;   -1,591
852,628;13618,124;    0,165;    1,955
853,189;13171,389;    0,256;    2,682
853,751;13289,745;   -0,654;    1,409
854,312;13121,102;    1,256;   -1,682
854,874;13572,003;   -0,108;   -0,773
855,435;14017,541;    0,528;   -1,682
855,997;14189,443;    3,983;   -0,136
856,558;13512,527;    0,801;    1,773
857,119;13590,792;   -0,744;    2,864
857,681;13348,875;   -0,108;    0,318
858,242;13373,050;    1,347;   -2,136
858,803;13764,952;    1,074;   -0,773
859,364;14333,126;    0,892;   -4,773
859,925;13747,391;   -0,290;   -0,955
860,486;13623,111;    0,529;   -0,955
861,047;13360,467;    0,165;   -1,227
861,608;13234,642;    0,165;   -0,773
862,169;13391,907;   -0,562;   -0,045
862,730;13131,445;   -0,290;    1,409
863,291;13360,983;    0,438;   -0,500
863,852;13670,521;   -0,926;    1,955
864,412;13203,150;   -1,835;   -0,864
864,973;11970,234;    1,892;    0,500
865,534;11872,772;    2,074;    0,227
866,094;13177,492;    2,620;    0,227
866,655;12844,302;    4,711;    3,318
867,215;13142,659;    0,074;    0,136
867,776;13022,469;   -1,199;   -0,136
868,336;13124,644;    1,529;    0,136
868,897;12707,364;    3,438;    1,682
869,457;12469,084;    3,256;    0,318
870,017;12690,258;    2,438;   -1,227
870,578;13156,069;    1,893;    0,773
871,138;12792,425;    2,620;   -0,955
871,698;12403,054;   -0,562;   -1,318
872,258;12296,501;    0,711;   -2,864
872,818;12649,039;    2,347;    0,045
873,378;12623,759;   -2,198;    1,045
873,938;12235,024;    4,984;    0,500
874,498;12493,290;    1,256;   -1,955
875,058;12396,009;    4,347;    1,773
875,618;12306,366;    1,438;   -2,682
876,177;12230,086;   -0,471;    0,136
876,737;11854,896;   -0,289;    1,955
877,297;11936,343;    2,711;    1,955
877,856;11962,972;    2,529;    0,318
878,416;11909,510;    2,438;   -0,136
878,976;12086,230;    3,438;    0,409
879,535;12268,768;    4,529;    3,136
880,095;12082,216;    1,347;    0,045
880,654;12172,754;    0,347;    1,318
881,213;12268,292;    2,347;    1,500
881,773;11939,193;    1,984;    2,682
882,332;12264,640;    6,075;    5,136
882,891;12099,088;    0,711;    2,136
883,451;12505,989;   -2,016;    1,682
884,010;12044,436;   -1,107;   -0,409
884,569;12113,702;   -2,289;   -0,045
885,128;12203,512;   -0,743;   -1,864
885,687;12240,414;   -0,743;    0,682
886,246;12015,134;    2,620;    2,136
886,805;11768,218;    1,620;    2,045
887,364;11995,665;    1,166;   -0,500
887,922;12319,294;   -0,016;    0,045
888,481;11871,741;    1,530;    0,591
889,040;12158,733;    3,711;    2,136
889,599;12714,090;    2,166;    1,409
890,157;12749,446;    2,166;    2,409
890,716;12416,984;    2,166;    0,227
891,274;12238,886;    0,075;   -1,136
891,833;12644,787;    1,166;    0,864
892,391;12533,507;    1,802;    0,500
892,950;12565,954;    0,166;   -0,773
893,508;12865,583;    0,984;   -0,409
894,067;12337,030;   -0,379;    0,136
894,625;12242,750;   -1,016;   -1,500
895,183;12409,561;   -0,198;   -0,682
895,741;12359,826;    2,257;   -1,773
896,299;12214,637;    1,621;   -2,409
896,858;12370,993;    1,530;   -1,591
897,416;12507,259;    0,166;   -1,318
897,974;12270,524;   -2,197;    0,318
898,532;12432,335;    6,530;    2,682
899,089;12349,873;    0,621;   -0,682
899,647;12429,320;    0,530;    1,318
900,205;12206,403;    0,257;    1,045
900,763;12384,214;    2,166;    0,227
901,321;12409,479;    3,530;   -1,409
901,878;11873,927;    3,257;   -0,773
902,436;11783,283;    0,257;    1,318
902,994;12176,639;    6,712;    3,682
903,551;11693,904;    1,439;    0,409
904,109;12086,079;    1,530;   -1,409
904,666;11753,162;    1,439;    1,045
905,224;11563,337;    3,894;   -0,409
905,781;11363,875;   -0,470;   -0,318
906,338;11407,595;    0,167;    1,045
906,895;11370,314;    1,894;    2,045
907,453;11306,034;    2,348;    1,136
908,010;11338,300;    3,348;    0,409
908,567;11027,929;   -0,561;    0,591
909,124;10613,103;    2,439;   -1,500
909,681;10678,459;   -1,288;    0,682
910,238;10881,906;   -0,106;   -1,318
910,795;11205,354;   -1,561;   -1,136
911,352;10864,444;   -0,379;   -2,682
911,909;10358,172;    2,803;   -0,864
912,466;10827,444;    1,985;    1,500
913,022;10404,990;   -0,924;    0,500
913,579;10739,808;   -0,470;    2,045
914,136;10502,354;   -2,561;    0,955
914,692;10805,263;    1,530;   -1,227
915,249;10393,717;    0,530;    0,409
915,806;10589,354;    1,803;    1,955
916,362;10463,172;    0,894;    1,864
916,918;10043,626;    2,439;    1,045
917,475;10051,899;    1,621;    0,955
918,031;10145,444;    0,076;   -0,045
918,587; 9696,899;    0,621;   -0,318
919,144; 9937,626;   -0,379;    0,227
919,700;10164,263;    0,167;    0,773
920,256; 9799,990;    0,439;    0,045
920,812; 9498,990;    1,439;   -1,045
921,368; 9545,535;    1,348;   -1,045
921,924; 9247,444;    0,439;   -0,136
922,480; 8858,354;    0,076;    1,227
923,036; 9431,535;   -0,652;    1,955
923,592; 9430,808;    0,621;    0,318
924,148; 9362,444;    1,894;   -0,955
924,704; 8822,081;    0,258;   -0,409
925,259; 9073,263;   -0,561;    0,591
925,815; 8832,626;    3,803;    0,500
926,371; 8426,990;    3,530;    1,409
926,926; 8389,717;    1,621;    0,591
927,482; 8108,717;    1,621;    0,773
928,037; 8035,990;   -0,833;    2,045
928,593; 8317,354;    0,258;    1,045
929,148; 8138,444;    1,167;   -1,500
929,704; 7738,535;    2,439;   -0,500
930,259; 7960,808;    0,894;   -0,136
930,814; 7189,899;    1,803;    1,955
931,369; 6944,263;    0,258;   -0,773
931,925; 6897,808;   -1,924;    0,136
932,480; 6802,990;    3,076;   -2,591
933,035; 6809,717;    3,985;   -0,318
933,590; 6620,899;   -1,742;   -1,773
934,145; 6338,899;   -1,288;   -0,318
934,700; 6630,535;    0,348;   -0,591
935,255; 6496,081;    4,803;    0,045
935,809; 5976,263;    6,258;    0,864
936,364; 5271,354;    2,167;   -0,136
936,919; 5303,717;    2,348;   -1,773
937,474; 5204,444;    1,348;    0,136
938,028; 5053,535;    3,076;    1,136
938,583; 4705,354;    6,348;    4,682
939,138; 4923,717;    0,167;    2,136
939,692; 4477,263;   -1,015;   -1,136
940,247; 4245,808;    1,167;   -1,045
940,801; 3961,172;    0,621;    0,227
941,355; 3913,172;    0,439;    2,591
941,910; 3598,990;    0,712;   -2,136
942,464; 3719,717;    2,712;   -0,318
943,018; 3625,899;    3,258;   -0,227
943,572; 3547,626;    2,803;   -0,682
944,126; 3132,808;   -0,924;   -0,409
944,681; 3036,626;    0,712;    0,227
945,235; 3017,990;    2,167;   -0,591
945,789; 2980,990;    1,258;   -1,864
946,342; 3155,535;   -0,561;   -0,591
946,896; 2907,626;    0,348;    0,955
947,450; 2700,263;   -0,561;   -0,227
948,004; 2954,717;    1,076;   -0,045
948,558; 2919,081;    1,258;   -0,864
949,111; 2829,626;   -1,197;   -0,318
949,665; 2940,717;   -0,106;   -0,682
950,219; 2838,354;    0,621;   -1,045
950,772; 2851,626;    0,258;    1,864
951,326; 2790,899;   -1,106;   -0,955
951,879; 2834,172;    1,076;   -2,318
952,433; 2879,263;    1,348;    2,227
952,986; 2713,535;    0,348;    0,682
953,539; 2665,172;    1,530;    0,591
954,093; 2641,626;    0,985;   -1,318
954,646; 2780,354;   -0,288;    1,318
955,199; 2596,444;    1,258;   -0,500
955,752; 2576,263;    1,985;    1,773
956,305; 2512,899;    0,894;    2,955
956,858; 2640,899;    0,621;   -0,318
957,411; 2776,444;    3,621;    2,136
957,964; 2600,535;    2,076;    2,136
958,517; 2603,535;    0,985;    3,136
959,070; 2472,626;   -1,197;    1,955
959,623; 2637,535;    1,076;    1,500
960,176; 2444,081;    0,712;    2,045
960,728; 2418,263;    1,712;    0,773
961,281; 2455,990;    2,258;    0,500
961,834; 2470,899;   -0,833;    0,864
962,386; 2393,717;    1,258;    1,045
962,939; 2327,626;    3,439;   -0,318
963,491; 2458,899;    2,621;    1,136
964,043; 2348,899;    0,076;    2,409
964,596; 2459,990;    1,712;    2,227
965,148; 2319,990;   -0,379;    1,773
965,700; 2241,990;   -0,015;   -0,227
966,253; 2390,990;   -0,833;    0,318
966,805; 2273,444;    1,894;    0,773
967,357; 2278,444;    0,439;   -1,500
967,909; 2295,535;    1,167;   -1,227
968,461; 2320,626;    0,894;    3,136
969,013; 2264,808;   -1,561;   -0,864
969,565; 2360,899;    1,803;   -1,136
970,117; 2549,717;    3,803;    1,045
970,669; 2304,899;    3,258;   -0,136
971,220; 2127,354;    2,167;   -1,500
971,772; 2096,808;    1,348;   -0,318
972,324; 2228,626;   -1,197;   -0,500
972,876; 2154,354;    0,167;   -0,045
973,427; 2317,172;   -1,197;   -1,045
973,979; 2310,899;    0,076;   -2,500
974,530; 2248,535;    0,803;    1,318
975,082; 2259,899;    2,167;    1,682
975,633; 2191,717;    2,894;    1,682
976,184; 2340,444;    2,076;    0,773
976,736; 2175,535;    0,348;    0,227
977,287; 2037,990;    0,258;   -0,500
977,838; 2168,899;   -0,924;   -0,318
978,389; 2201,172;    0,803;   -0,500
978,940; 2050,172;    1,258;   -0,409
979,491; 2080,990;    2,258;   -0,500
980,042; 2087,263;   -0,652;    3,045
980,593; 2112,899;    1,894;    0,227
981,144; 2210,081;    3,530;   -0,500
981,695; 2220,626;   -0,470;    1,500
982,246; 2158,081;   -1,833;    1,045
982,797; 2205,354;   -0,561;    0,682
983,347; 2333,990;    2,167;    0,591
983,898; 2523,444;    4,167;    0,409
984,449; 2389,899;    2,530;    0,773
984,999; 2214,354;    1,894;   -1,136
985,550; 2081,172;    3,167;   -0,318
986,100; 2067,535;    0,712;   -0,318
986,651; 2080,444;    0,258;    0,045
987,201; 2082,535;    0,894;   -0,591
987,751; 2137,626;   -0,288;    2,864
988,302; 2142,263;   -0,379;    1,500
988,852; 2159,263;    1,985;   -1,136
989,402; 2243,717;    0,985;    0,682
989,952; 2183,990;    1,621;    0,864
990,502; 2195,444;    1,076;    0,682
991,052; 2131,990;   -0,106;    0,045
991,602; 2040,172;    1,167;    1,318
992,152; 2065,808;    2,803;    0,682
992,702; 2064,717;    1,167;   -0,045
993,252; 1994,626;    0,076;   -0,500
993,802; 2108,354;    1,167;    1,318
994,352; 2266,990;   -0,742;    1,136
994,901; 2291,444;    1,076;    3,227
995,451; 2218,354;   -1,197;    0,318
996,000; 2305,717;    1,076;    0,318
996,550; 2087,354;    2,894;    0,227
997,100; 2070,626;   -0,561;   -0,045
997,649; 2343,354;   -0,197;    0,955
998,198; 2042,717;   -0,288;   -1,500
998,748; 2237,990;    0,348;   -2,318
999,297; 2110,263;    0,985;   -0,409
999,846; 2226,717;    1,894;   -0,773
1000,395; 2210,626;    1,530;    0,500
1000,945; 2244,535;    1,076;   -0,773
1001,494; 2300,990;    0,167;    0,682
1002,043; 2256,808;    0,712;    0,864
1002,592; 2091,263;    3,439;    1,955
1003,141; 2216,717;    2,439;   -0,682
1003,690; 2144,263;    1,258;    0,500
1004,238; 2160,263;   -0,106;   -0,045
1004,787; 1850,263;   -1,288;    1,227
1005,336; 2133,444;    1,621;    0,682
1005,885; 2193,354;   -0,197;   -2,773
1006,433; 2261,354;   -0,470;    0,955
1006,982; 2412,899;    2,167;    1,682
1007,531; 2272,626;    2,712;   -0,227
1008,079; 2195,354;    0,258;    0,500
1008,627; 2292,081;    1,621;    0,409
1009,176; 2105,717;    0,076;   -1,955
1009,724; 2129,535;   -2,742;    0,864
1010,273; 2241,990;    1,076;    0,500
1010,821; 2266,263;    1,076;    1,409
1011,369; 2050,081;    0,076;    1,318
1011,917; 2064,444;   -0,833;   -0,591
1012,465; 2302,899;    2,530;   -1,591
1013,013; 2369,626;    0,439;   -1,682
1013,561; 2313,990;   -1,288;   -0,773
1014,109; 2399,444;   -0,833;    1,682
1014,657; 2262,717;    1,348;    0,591
1015,205; 2301,990;    0,894;   -0,955
1015,753; 2288,990;    0,258;   -1,409
1016,301; 2340,717;    2,621;    3,045
1016,848; 2353,717;    2,167;    0,409
1017,396; 2413,717;    1,621;    0,045
1017,944; 2495,172;    2,621;    1,864
1018,491; 2276,354;   -0,197;    1,409
1019,039; 2529,081;   -0,652;    0,591
1019,586; 2358,263;    0,076;    1,682
1020,134; 2414,354;    0,712;    1,500
1020,681; 2445,717;    2,894;   -1,136
1021,228; 2412,899;   -0,561;   -2,227
1021,776; 2294,535;   -0,833;   -1,136
1022,323; 2553,172;    0,803;    0,773
1022,870; 2460,808;   -0,470;   -0,045
1023,417; 2411,626;    2,076;    1,864
1023,964; 2446,444;    0,621;    1,227
1024,511; 2351,626;   -0,652;    0,773
1025,058; 2202,263;    0,439;   -0,045
1025,605; 2235,444;   -1,742;    3,136
1026,152; 2479,717;   -0,106;   -0,591
1026,699; 2215,899;    0,167;    1,318
1027,245; 2327,354;    2,439;    0,318
1027,792; 2466,263;    0,712;    1,409
1028,339; 2467,081;    4,076;   -0,045
1028,885; 2310,899;    3,621;   -0,227
1029,432; 2239,717;   -0,106;    0,227
1029,978; 2347,717;    1,348;   -1,591
1030,525; 2243,899;    1,621;    0,409
1031,071; 2385,717;    0,348;    1,136
1031,618; 2594,354;    1,258;    1,682
1032,164; 2352,808;    2,076;    3,045
1032,710; 2392,354;    0,076;   -1,500
1033,256; 2301,626;    0,712;   -0,136
1033,803; 2237,626;   -0,288;    1,500
1034,349; 2029,899;    1,803;    0,136
1034,895; 2163,899;    2,621;   -0,318
1035,441; 2163,535;    0,439;    0,318
1035,987; 2192,990;   -2,288;   -0,682
1036,533; 2231,717;   -0,197;   -0,955
1037,078; 2433,808;    4,712;    1,682
1037,624; 2251,535;    2,439;   -0,955
1038,170; 2225,626;    1,712;   -0,318
1038,716; 2192,626;    2,167;   -0,409
1039,261; 2070,172;    2,167;   -0,773
1039,807; 2040,808;   -0,015;    3,409
1040,352; 2107,990;   -1,288;   -0,318
1040,898; 2138,354;    0,167;   -0,682
1041,443; 2054,444;    0,803;   -2,591
1041,989; 2189,626;    3,621;    1,591
1042,534; 2020,535;    0,985;    2,591
1043,079; 2058,444;    1,985;    0,955
1043,625; 1923,354;    0,258;    0,500
1044,170; 2002,263;    2,439;    1,045
1044,715; 2243,899;    0,167;    0,955
1045,260; 2062,354;   -0,833;   -0,955
1045,805; 2041,172;    0,258;   -0,591
1046,350; 1987,354;    0,530;   -0,409
1046,895; 2035,263;    0,803;    1,591
1047,440; 2016,808;    1,530;    0,409
1047,985; 1888,808;   -1,197;   -0,955
1048,530; 1806,535;    1,348;    1,227
1049,074; 1880,354;    2,803;    0,318
1049,619; 1838,444;   -0,924;    1,955
1050,164; 1713,444;    1,076;    0,227
1050,708; 1748,717;    2,621;    0,045
1051,253; 2140,354;    3,258;   -2,227
1051,797; 1846,899;   -0,197;   -1,318
1052,342; 1787,172;    1,348;    1,045
1052,886; 1814,717;    1,803;   -1,409
1053,430; 1688,354;    2,167;    0,136
1053,975; 1718,808;    0,894;   -0,318
1054,519; 1705,444;    1,803;    3,227
1055,063; 1784,263;    3,621;    1,318
1055,607; 1705,808;    1,348;    0,227
1056,151; 1715,444;    0,530;    1,682
1056,695; 1595,808;   -1,833;   -1,136
1057,239; 1666,626;   -1,197;   -0,682
1057,783; 1684,354;    2,258;   -1,500
1058,327; 1685,354;    3,076;    1,409
1058,871; 1914,899;    3,985;    1,318
1059,415; 1638,626;   -0,561;   -0,045
1059,958; 1910,626;    2,985;    2,591
1060,502; 1626,172;    1,348;   -0,773
1061,046; 1491,626;    1,712;   -0,955
1061,589; 1464,172;    2,803;   -1,136
1062,133; 1375,354;    0,985;    1,864
1062,676; 1352,717;    1,439;    0,864
1063,220; 1379,444;    0,985;    0,500
1063,763; 1407,354;    2,985;    1,136
1064,306; 1478,626;    0,985;    1,864
1064,849; 1397,899;    2,076;    0,591
1065,393; 1398,444;    2,894;   -1,500
1065,936; 1457,081;    2,530;   -0,409
1066,479; 1338,717;    2,621;    1,318
1067,022; 1379,444;    1,894;   -0,227
1067,565; 1298,081;   -1,197;   -1,318
1068,108; 1306,990;    1,258;   -0,591
1068,651; 1269,626;   -2,470;    1,409
1069,194; 1226,172;   -1,106;   -1,682
1069,736; 1249,808;    3,803;    0,955
1070,279; 1202,808;   -1,652;   -0,500
1070,822; 1299,535;    1,530;   -0,318
1071,364; 1403,444;    0,530;    1,318
1071,907; 1218,354;    0,348;    3,227
1072,450; 1085,990;    0,258;   -0,045
1072,992; 1112,717;   -0,561;    3,136
1073,535; 1266,172;    0,167;    2,136
1074,077; 1062,081;    2,985;    2,045
1074,619; 1037,535;    0,985;    0,591
1075,161; 1083,263;   -0,561;    1,500
1075,704; 1278,626;    0,258;    1,227
1076,246; 1066,444;    1,530;    0,682
1076,788;  970,535;   -1,015;    1,773
1077,330; 1022,354;   -2,106;    2,136
1077,872; 1030,626;   -1,924;    0,955
1078,414; 1271,899;    3,712;    0,773
1078,956; 1021,626;    0,167;   -0,227
1079,498; 1268,808;    0,439;    0,318
1080,040;  994,626;    0,985;   -1,318
1080,581;  939,808;    0,621;   -0,318
1081,123;  855,263;   -0,106;   -0,773
1081,665;  897,808;    3,803;   -0,955
1082,206; 1201,354;    3,258;   -0,500
1082,748; 1064,990;    3,258;    2,045
1083,289;  925,535;    0,167;    1,318
1083,831;  861,172;    0,258;    0,227
1084,372;  913,444;    0,894;    0,591
1084,913;  912,172;    3,348;    0,864
1085,455;  861,717;    1,530;   -2,045
1085,996;  861,081;    0,530;    0,136
1086,537;  900,535;    0,985;    0,864
1087,078;  904,172;    0,439;   -2,136
1087,619;  950,808;   -1,652;    0,227
1088,160;  879,535;    1,439;    1,318
1088,701;  865,354;   -0,742;    0,682
1089,242;  814,808;   -0,561;   -2,227
1089,783;  908,444;   -0,561;    1,409
1090,324;  876,626;   -0,833;    0,682
1090,865;  763,626;   -1,924;   -0,409
1091,405;  718,535;   -0,561;    2,227
1091,946;  756,717;   -0,197;   -0,955
1092,487;  682,263;   -1,288;   -1,409
1093,027;  854,444;    1,803;   -1,500
1093,568;  727,717;    2,258;    1,227
1094,108;  809,808;    0,621;    1,773
1094,649;  752,808;   -0,470;    0,136
1095,189;  681,263;    1,167;   -0,682
1095,729;  659,444;    0,712;    0,955
1096,269;  646,263;    1,258;   -0,955
1096,810;  950,172;   -0,197;    0,500
1097,350;  805,535;   -0,561;   -0,773
1097,890;  705,990;    2,985;    1,227
1098,430;  954,626;    4,985;    2,864
1098,970;  839,808;    1,894;    1,682
1099,510;  693,263;   -0,833;   -2,318
1100,050;  633,626;    0,258;   -1,591
1100,589;  612,990;    0,076;   -0,318
1101,129;  730,808;    0,894;   -0,955
1101,669;  878,717;    2,803;    2,136
1102,209;  720,444;    1,530;    2,227
1102,748;  670,899;    3,439;    0,955
1103,288;  665,081;    0,712;   -1,227
1103,827;  690,263;    3,530;   -2,227
1104,367;  570,717;    1,712;   -2,409
1104,906;  553,808;   -1,015;   -1,136
1105,445;  621,717;    0,985;   -1,136
1105,985;  566,263;   -0,652;    1,500
1106,524;  598,990;    1,530;   -0,682
1107,063;  582,172;    1,167;    1,409
1107,602;  555,808;    1,894;   -1,500
1108,141;  493,899;    1,621;    1,500
1108,680;  596,535;    3,985;   -0,591
1109,219;  527,263;    0,167;   -0,500
1109,758;  534,081;    4,167;    0,682
1110,297;  513,444;   -1,106;   -0,682
1110,836;  456,717;    1,439;    0,955
1111,375;  606,990;    0,348;    0,409
1111,913;  624,081;    0,985;    0,773
1112,452;  565,717;    0,894;    0,136
1112,991;  450,535;    1,076;    1,955
1113,529;  424,354;    0,167;   -0,045
1114,068;  485,172;    0,439;    2,955
1114,606;  401,535;   -0,561;   -0,955
1115,144;  560,717;    1,530;    1,045
1115,683;  488,535;    1,985;    0,318
1116,221;  540,354;    2,076;   -0,864
1116,759;  449,263;    1,621;   -0,864
1117,297;  625,808;    1,621;    1,864
1117,836;  460,354;    1,985;   -1,227
1118,374;  468,535;    0,258;   -0,682
1118,912;  418,990;    0,439;    2,682
1119,450;  411,263;    0,985;    0,864
1119,988;  452,899;    3,348;    2,136
1120,525;  884,626;    7,258;    3,318
1121,063;  597,808;    0,530;    1,864
1121,601;  428,899;    1,076;   -1,227
1122,139;  390,444;    1,076;   -2,045
1122,676;  578,717;   -1,652;    2,773
1123,214;  505,899;    0,712;    4,409
1123,751;  337,444;    0,621;    2,227
1124,289;  447,990;    0,894;   -0,409
1124,826;  332,535;   -0,379;    0,227
1125,364;  265,899;    0,712;   -0,955
1125,901;  441,626;    6,258;    1,227
1126,438;  543,717;    3,530;    0,955
1126,975;  292,535;    2,985;   -0,773
1127,513;  355,626;    2,621;    2,136
1128,050;  279,172;   -0,561;   -0,682
1128,587;  367,354;    1,348;   -0,227
1129,124;  409,535;   -0,015;    1,318
1129,661;  284,081;   -1,924;    0,227
1130,198;  442,626;    2,439;    0,773
1130,734;  381,263;   -0,379;    1,409
1131,271;  250,354;   -1,197;    0,864
1131,808;  410,808;    1,621;    3,045
1132,345;  300,263;    4,530;    0,318
1132,881;  187,081;   -0,561;   -1,864
1133,418;  317,354;    0,348;   -1,136
1133,954;  255,626;    0,712;   -2,682
1134,491;  323,535;    1,712;   -0,773
1135,027;  226,354;    2,167;    0,864
1135,564;  312,172;    1,439;    2,955
1136,100;  310,172;   -0,742;    2,136
1136,636;  200,263;   -1,015;   -1,045
1137,172;  284,172;    0,894;   -1,045
1137,708;  220,444;   -1,561;   -1,045
1138,245;  220,535;    0,803;   -1,227
1138,781;  184,263;    1,803;   -3,318
1139,317;  242,626;    1,894;   -1,409
1139,852;  230,354;    3,076;    0,136
1140,388;  329,808;    2,076;   -0,409
1140,924;  228,263;    1,076;   -2,227
1141,460;  174,717;   -0,288;    0,136
1141,996;  119,990;   -0,652;    2,682
1142,531;  165,354;    1,076;    3,318
1143,067;  352,808;    1,167;    1,045
1143,602;  403,535;    3,439;   -0,318
1144,138;  262,626;    0,803;    1,045
1144,673;  145,444;    1,621;    1,409
1145,209;  209,354;    2,894;   -0,318
1145,744;  146,172;    0,803;    0,864
1146,279;  260,263;    1,530;   -0,136
1146,815;  191,081;    1,530;   -2,682
1147,350;  222,626;   -0,924;    0,045
1147,885;  141,354;   -1,924;   -1,318
1148,420;  146,717;    2,439;    0,773
1148,955;  134,081;   -1,470;    1,864
1149,490;  153,354;   -1,106;   -1,591
1150,025;  132,626;   -1,106;   -1,773
1150,560;  239,354;   -0,288;   -0,955
1151,094;  210,899;    0,258;   -0,591
1151,629;  209,535;   -3,742;    0,864
1152,164;  144,081;   -1,288;    1,318
1152,698;  111,535;    1,258;   -0,136
1153,233;   76,899;   -1,379;   -0,682
1153,767;  124,626;   -0,288;   -2,318
1154,302;  168,172;   -0,379;    1,773
1154,836;  154,535;    0,803;   -2,136
1155,371;  204,626;    2,258;    3,682
1155,905;  160,263;    1,985;    1,682
1156,439;  136,172;    0,530;   -0,500
1156,973;  154,535;    0,439;    0,318
1157,507;  105,808;   -1,742;    0,682
1158,042;  134,717;   -0,652;    1,045
1158,576;  172,263;   -0,561;    1,773
1159,110;  166,263;    0,076;    2,409
1159,643;  137,990;   -2,470;   -0,045
1160,177;   84,808;   -2,015;    1,500

