
Integration time [ms]:   0,040
Averaging Nr. [scans]: 11
Smoothing Nr. [pixels]: 0
Data measured with spectrometer [name]: 7318044SP
Wave   ;Sample   ;Dark     ;Reference
[nm]   ;[counts] ;[counts] ;[counts] 

186,757;   32,596;   38,161;    1,318
187,357;   58,187;   26,706;    0,955
187,958;   35,989;   17,252;   -1,591
188,558;   73,366;   12,979;   -1,227
189,159;   45,397;   10,070;   -4,500
189,759;   25,758;    5,797;   -3,591
190,360;   29,547;    6,797;   -2,136
190,960;   56,947;    5,706;   -4,136
191,560;   59,939;    2,614;   -6,591
192,161;  279,339;    5,885;   -3,500
192,761;  143,555;    5,520;   -3,227
193,361;   98,341;    3,065;   -3,773
193,962;  148,235;    1,612;   -2,682
194,562;   76,516;   -0,114;   -3,955
195,162;  106,029;   -0,567;   -2,227
195,762;  257,268;    2,433;   -0,045
196,362;  196,106;    1,706;   -2,500
196,963;   81,409;    1,706;   -0,864
197,563;  148,708;    1,252;   -0,955
198,163;   98,087;   -0,111;   -0,682
198,763;  116,831;   -0,020;   -0,500
199,363;  220,290;    3,616;   -0,500
199,963;  177,618;    2,162;    0,409
200,563;  154,914;    6,344;   -1,409
201,163;  122,237;    5,435;   -0,227
201,763;  212,433;    1,435;    0,318
202,363;  163,584;    0,980;    1,500
202,963;  258,204;    1,526;    1,045
203,563;  369,731;    0,344;    0,500
204,162;  223,283;    1,889;   -1,864
204,762;  209,471;    2,071;    0,591
205,362;  177,623;    0,708;    1,955
205,962;  273,713;    3,435;    1,955
206,562;  270,290;    1,889;    2,318
207,161;  228,853;    1,708;    0,318
207,761;  383,222;    4,435;    2,409
208,361;  264,696;    1,889;    1,409
208,960;  359,532;    2,889;    1,500
209,560;  417,226;    0,435;    1,591
210,160;  406,247;    5,071;    1,864
210,759;  368,481;    0,708;    1,227
211,359;  374,274;   -0,474;    1,045
211,958;  632,912;    3,526;    2,045
212,558;  699,310;    0,799;    1,864
213,157;  539,128;   -0,929;    1,500
213,757;  958,876;    5,617;   -0,227
214,356;  661,326;    1,708;   -0,409
214,956;  973,094;    3,526;    0,409
215,555;  619,316;    0,617;    2,136
216,154;  553,976;   -0,292;   -0,591
216,754;  562,199;    1,253;    0,773
217,353;  690,072;   -0,383;   -1,045
217,952;  548,942;    2,072;    0,318
218,552;  786,830;    0,254;   -0,773
219,151;  669,329;   -1,110;    0,955
219,750;  663,522;    0,890;   -0,227
220,349;  764,793;   -2,292;    1,045
220,948;  856,953;    1,163;    1,136
221,548;  825,866;    0,617;    1,227
222,147;  936,539;   -1,292;   -0,409
222,746; 1226,289;    1,254;   -0,955
223,345; 1079,275;   -1,019;    0,500
223,944; 1084,742;    1,163;    0,773
224,543; 1239,833;    4,072;   -1,409
225,142; 1363,559;    1,345;    0,136
225,741; 1261,935;    1,163;    1,045
226,340; 1276,762;    1,254;   -0,955
226,939; 1693,854;    2,708;   -0,136
227,538; 1603,840;    1,163;   -0,773
228,137; 1774,635;    0,435;    0,864
228,735; 1879,656;    0,435;    1,227
229,334; 1657,698;   -0,474;   -0,227
229,933; 2024,521;    0,799;    0,591
230,532; 2131,591;   -1,201;   -0,409
231,131; 2189,874;    1,253;    0,318
231,729; 2267,172;    1,163;   -2,318
232,328; 2369,120;    0,435;   -1,500
232,927; 2407,704;    4,526;   -0,500
233,525; 2504,572;    0,981;    0,045
234,124; 2713,023;    1,890;   -1,591
234,723; 2723,582;    1,617;   -1,045
235,321; 2855,313;    1,163;    0,136
235,920; 3035,605;    2,526;   -1,227
236,518; 3288,427;    1,072;    0,318
237,117; 3439,185;    2,890;   -0,227
237,715; 3568,745;    1,163;   -0,500
238,314; 3604,710;    1,708;   -2,318
238,912; 3713,370;    0,526;   -1,409
239,510; 3743,999;    1,162;   -1,227
240,109; 3898,168;   -0,474;    3,773
240,707; 3940,585;   -0,474;    1,227
241,305; 4255,643;   -0,383;    0,136
241,904; 4412,734;   -0,292;   -2,045
242,502; 4398,125;    3,253;   -0,227
243,100; 4359,332;    3,344;   -0,955
243,698; 4573,347;    2,799;    1,682
244,297; 4723,768;   -0,656;    0,682
244,895; 4588,810;   -0,474;   -2,318
245,493; 4881,486;    2,981;   -0,591
246,091; 4900,637;    5,163;   -1,318
246,689; 4847,840;    2,163;    0,591
247,287; 5027,565;   -0,019;   -1,136
247,885; 5295,327;   -1,019;    1,227
248,483; 5387,290;   -0,201;   -0,500
249,081; 5504,086;    0,981;    1,591
249,679; 5616,739;   -1,019;    1,682
250,277; 5861,110;   -2,292;    0,864
250,875; 5857,766;    0,617;   -1,045
251,473; 5862,551;   -0,019;    0,500
252,071; 6057,199;   -0,383;    1,045
252,669; 6175,287;   -1,565;    0,318
253,267; 6399,482;    1,618;    0,773
253,864; 6351,565;    0,617;    0,682
254,462; 6249,117;    1,526;    1,591
255,060; 6207,949;    0,072;    1,318
255,658; 6486,742;   -3,292;   -0,136
256,255; 6871,768;   -0,201;   -2,045
256,853; 6732,690;    2,345;    1,409
257,451; 6729,800;    1,981;    1,864
258,048; 7011,542;    2,072;    1,864
258,646; 6762,774;    0,436;   -1,045
259,243; 6921,781;    2,981;    2,227
259,841; 6971,607;    1,799;    0,318
260,438; 6865,737;    0,254;    0,864
261,036; 7543,225;    0,617;    1,409
261,633; 7426,245;    1,526;    2,227
262,231; 7201,828;   -0,110;   -0,045
262,828; 7283,099;   -0,383;    1,136
263,425; 7322,129;   -1,928;   -0,591
264,023; 7591,767;    1,436;    0,045
264,620; 7157,998;    1,526;   -0,318
265,217; 7468,448;    2,890;    3,136
265,815; 7592,492;    2,527;    2,136
266,412; 7373,679;    0,072;    0,136
267,009; 7410,730;    0,526;    0,773
267,606; 7354,774;    0,345;   -0,955
268,203; 7328,073;   -0,383;   -0,591
268,801; 7590,241;   -0,474;    0,591
269,398; 7854,378;   -0,564;    2,500
269,995; 7824,009;    0,890;    1,591
270,592; 7613,994;    0,799;   -0,500
271,189; 7796,128;    1,981;    0,409
271,786; 7905,131;    2,072;    1,227
272,383; 7772,729;   -0,383;    0,227
272,980; 7912,301;    1,617;    0,318
273,577; 8372,065;    2,162;    1,227
274,174; 7938,095;    1,435;    2,591
274,771; 7902,287;    1,890;   -0,773
275,367; 8062,631;    3,253;    1,409
275,964; 8051,698;   -0,565;   -0,500
276,561; 8133,406;   -2,474;   -1,045
277,158; 8316,193;    1,799;   -1,773
277,755; 8459,450;   -0,110;    0,409
278,351; 7896,523;    0,436;   -1,500
278,948; 8162,447;   -0,201;    0,045
279,545; 8158,995;    0,527;    2,318
280,141; 8749,339;    1,254;   -2,045
280,738; 8610,693;    2,435;   -0,136
281,334; 8802,287;   -0,383;    0,591
281,931; 8214,570;    2,890;   -1,318
282,528; 8331,153;    4,072;   -0,500
283,124; 9008,844;    3,345;   -0,500
283,721; 8889,109;    0,709;    1,409
284,317; 8715,959;    0,163;    2,500
284,913; 9220,953;   -0,110;    0,591
285,510; 9402,407;    2,890;   -0,318
286,106; 9432,384;    2,345;   -0,955
286,703; 9061,942;    0,072;    1,955
287,299; 9248,152;    1,254;   -0,591
287,895; 9417,203;    0,890;   -1,045
288,491; 9975,741;    0,163;    2,136
289,088; 9725,347;    0,163;    2,409
289,684; 9756,924;    2,890;    1,500
290,280; 9786,766;    1,890;    0,682
290,876; 9844,905;    0,163;    5,500
291,472; 9741,126;    2,163;    2,227
292,068; 9831,342;    1,254;    0,227
292,665; 9566,698;   -0,564;    0,773
293,261; 9229,814;   -1,292;    2,136
293,857; 9585,808;    4,072;    2,136
294,453; 9523,088;   -0,928;    0,955
295,049; 9411,653;    0,253;    1,955
295,644; 9466,951;   -1,292;    0,136
296,240; 9355,285;    0,162;   -0,136
296,836; 9429,565;   -0,747;    0,318
297,432; 9656,421;    2,980;   -0,500
298,028; 9662,741;    0,435;    0,773
298,624;10055,593;    0,889;    1,864
299,220;10274,850;    0,435;    0,591
299,815; 9942,644;    0,526;   -0,409
300,411; 9752,926;    0,435;    1,773
301,007; 9771,804;    1,889;    0,227
301,602; 9789,136;    2,071;   -2,318
302,198; 9954,832;    1,435;   -0,773
302,794;10266,617;    1,526;   -0,500
303,389;10337,645;    1,071;    1,045
303,985;10418,013;    1,253;    1,409
304,580;10384,274;    0,889;    1,591
305,176;10358,994;    0,344;    0,136
305,771;10324,646;   -0,929;   -1,227
306,367;10215,385;    3,071;    0,136
306,962;10524,136;    2,889;    1,500
307,558;10246,271;    2,435;    0,136
308,153;10159,245;   -0,383;   -1,136
308,748;10384,530;    0,162;    1,682
309,344;10358,772;    0,253;   -1,318
309,939;10481,802;    2,071;   -1,318
310,534;10712,923;   -2,020;   -1,682
311,130;10592,556;   -0,656;   -2,500
311,725;10364,751;    0,526;   -0,500
312,320;10723,980;    1,253;    0,045
312,915;10542,993;    2,890;   -1,045
313,510;10642,935;    0,526;   -0,500
314,105;11121,992;   -3,565;    1,409
314,700;10522,824;   -1,656;   -1,045
315,295;10202,274;   -0,020;    0,045
315,890; 9789,451;   -0,292;    0,864
316,485;10110,800;    0,253;   -0,318
317,080;10213,731;   -0,929;    1,591
317,675;10718,050;    3,071;   -0,682
318,270;10197,909;    6,889;    3,318
318,865;10183,384;    2,435;    3,045
319,460;10020,204;   -1,565;    0,591
320,055;10227,732;   -2,565;   -1,227
320,650; 9908,723;   -1,838;   -0,591
321,244; 9970,263;    0,889;   -1,409
321,839;10863,943;    0,980;   -0,227
322,434;10742,798;   -0,111;   -1,591
323,029;10406,645;   -0,474;    1,591
323,623;10258,985;    0,798;    0,773
324,218;10062,065;    2,707;    1,409
324,812; 9974,959;    0,889;    1,591
325,407; 9832,658;   -0,929;    2,045
326,002; 9739,411;    0,526;   -0,409
326,596;10047,433;   -0,656;    1,318
327,191;10236,334;   -0,383;   -1,045
327,785; 9861,342;   -0,747;   -0,227
328,379;10116,994;   -0,383;    0,136
328,974; 9887,381;    1,798;   -3,955
329,568;10104,689;    2,889;   -2,409
330,163; 9933,626;    2,435;    1,045
330,757;10263,623;    0,253;    1,591
331,351; 9646,695;   -0,292;    0,682
331,945; 9927,547;   -0,383;    1,409
332,540; 9576,402;    1,617;   -0,591
333,134; 9687,830;    3,344;    0,773
333,728; 9896,742;    2,799;    0,318
334,322;10237,150;    0,889;   -0,864
334,916; 9491,303;    0,344;    0,955
335,510; 9839,670;   -0,111;   -0,136
336,105;10074,153;   -0,929;    1,591
336,699; 9779,066;   -1,292;    0,591
337,293; 9738,958;    1,071;    0,318
337,887; 9853,731;    0,071;    1,955
338,481; 9939,901;    2,980;    0,591
339,074;10054,415;    2,071;    2,682
339,668; 9922,769;   -0,110;    1,227
340,262;10146,196;    7,708;    3,227
340,856; 9626,161;    1,708;   -0,682
341,450; 9081,857;    0,708;    1,864
342,044; 9896,049;    1,799;    0,136
342,637; 9691,986;    1,162;   -2,136
343,231; 9525,211;   -1,474;    0,682
343,825; 9478,360;   -0,747;   -0,591
344,419; 9464,057;   -0,474;    0,500
345,012; 9292,633;    2,889;    4,045
345,606; 9277,918;   -0,656;    1,591
346,199; 9143,487;   -0,111;   -0,227
346,793; 8731,660;    2,525;    2,045
347,386; 8938,230;    0,889;   -1,136
347,980; 8914,662;   -0,838;   -0,045
348,573; 8711,793;   -1,748;    0,409
349,167; 8460,694;    6,161;    4,773
349,760; 8804,948;    2,252;    2,682
350,354; 8752,686;    1,616;    1,136
350,947; 8496,995;    2,798;    1,682
351,540; 8216,151;    0,616;   -1,409
352,134; 8183,880;   -1,111;    1,136
352,727; 8238,222;   -0,657;    1,136
353,320; 8090,162;    2,343;    0,591
353,913; 7919,514;   -1,929;    1,864
354,507; 8100,045;    0,434;   -1,227
355,100; 8110,262;    0,071;    0,864
355,693; 7446,039;    4,798;    2,409
356,286; 7517,447;    0,980;    2,773
356,879; 7802,542;   -0,475;    1,227
357,472; 7461,139;    0,980;    1,500
358,065; 7639,088;    3,161;    2,500
358,658; 7581,018;    0,798;    2,318
359,251; 7280,612;    0,252;   -0,591
359,844; 6829,878;    0,343;   -1,136
360,437; 6987,015;    0,252;    0,045
361,030; 7230,498;    0,525;   -0,682
361,623; 6862,179;    0,434;    0,318
362,215; 6908,629;    0,979;    2,045
362,808; 6752,866;   -2,293;   -1,682
363,401; 6922,597;    0,798;    0,136
363,994; 6714,399;    3,252;   -1,500
364,586; 6637,577;    0,888;   -1,500
365,179; 6815,524;   -0,203;   -1,136
365,772; 6325,254;   -0,930;    2,045
366,364; 6596,610;    1,524;   -3,227
366,957; 6800,576;    1,342;   -0,045
367,549; 6808,488;   -0,203;   -0,864
368,142; 6522,650;    0,978;   -1,500
368,734; 6688,178;    2,523;   -2,136
369,327; 6624,759;    2,341;   -0,500
369,919; 6553,793;   -1,659;    0,409
370,512; 6402,734;   -1,023;   -0,500
371,104; 6160,063;    2,704;    1,591
371,696; 6333,320;    1,703;   -0,955
372,289; 6417,075;    0,157;    1,136
372,881; 6529,426;    1,156;    1,318
373,473; 6424,835;    4,064;    1,136
374,066; 6273,127;    1,336;    0,500
374,658; 6126,099;    0,879;    1,136
375,250; 6457,749;   -1,668;   -1,409
375,842; 6315,009;   -0,124;   -0,045
376,434; 6227,334;   -2,762;   -0,409
377,026; 6750,832;   -1,855;   -2,500
377,618; 6633,122;    0,779;   -0,682
378,210; 6483,712;    3,141;   -1,955
378,802; 6366,302;    3,412;   -0,591
379,394; 6325,260;    3,411;    0,682
379,986; 6813,023;    1,138;   -0,955
380,578; 6919,042;    1,410;    0,773
381,170; 6330,846;    0,320;    0,045
381,762; 6292,317;   -0,224;    1,409
382,354; 6460,402;   -0,223;   -1,318
382,945; 6535,993;    0,870;    0,318
383,537; 6671,686;    1,144;   -1,955
384,129; 6712,919;    0,963;   -1,136
384,721; 6887,425;    0,418;    0,955
385,312; 6797,356;   -1,399;   -0,955
385,904; 6887,963;   -0,945;    1,591
386,496; 6312,678;    0,691;    1,045
387,087; 6444,505;    0,418;    2,500
387,679; 6448,660;   -0,401;    0,045
388,270; 6573,325;   -2,401;    2,045
388,862; 6724,921;   -0,401;   -0,318
389,453; 6589,676;    1,054;    1,045
390,045; 6821,017;    3,236;   -2,682
390,636; 6782,652;    0,144;   -0,591
391,227; 6617,301;    2,054;   -0,045
391,819; 6722,580;    0,781;    0,773
392,410; 6782,052;    0,600;    0,045
393,001; 6703,584;    1,600;   -1,591
393,593; 6974,656;    0,600;   -0,045
394,184; 6823,633;    0,873;   -0,409
394,775; 6750,635;    1,146;    2,136
395,366; 6932,096;    1,782;    0,773
395,957; 6890,852;   -2,400;    0,136
396,548; 7168,669;    1,054;    2,682
397,139; 7456,782;    2,236;    0,591
397,730; 7228,660;    0,873;    0,955
398,321; 7250,701;    0,509;    0,955
398,912; 7280,193;   -0,764;    0,136
399,503; 7372,712;   -1,945;   -1,409
400,094; 6869,672;   -1,582;    1,682
400,685; 6733,354;    3,600;    0,045
401,276; 6817,976;   -0,400;   -0,955
401,867; 7101,850;   -1,127;    0,773
402,458; 7173,631;    1,509;   -2,318
403,048; 7158,248;    0,146;    0,591
403,639; 6789,627;    1,509;    0,864
404,230; 7045,593;    0,691;    0,318
404,821; 6991,531;   -0,127;    0,045
405,411; 7082,085;   -0,763;   -2,591
406,002; 6711,230;    3,237;   -1,136
406,592; 6615,250;    2,691;    0,045
407,183; 6875,671;    0,328;   -1,500
407,774; 6776,920;    1,419;   -0,136
408,364; 7076,814;    2,600;    0,409
408,954; 6740,195;   -0,036;    1,227
409,545; 6765,349;    1,873;    1,045
410,135; 6333,761;   -1,581;    0,500
410,726; 6487,461;    0,783;    0,318
411,316; 6833,921;    2,237;    0,773
411,906; 6520,392;    0,146;   -0,409
412,497; 6103,374;   -0,490;   -0,045
413,087; 6652,651;    0,783;   -0,227
413,677; 7008,848;   -2,490;    3,864
414,267; 6822,454;   -1,035;    1,409
414,857; 6814,783;    0,419;    4,227
415,448; 7074,024;   -0,763;    0,500
416,038; 6820,942;   -2,945;   -0,591
416,628; 6768,093;    0,965;    0,409
417,218; 6326,503;   -1,762;    3,318
417,808; 6539,558;    0,965;   -0,409
418,398; 6915,834;   -1,035;    2,682
418,988; 6935,160;   -2,217;    0,591
419,578; 7151,881;    3,601;    1,409
420,168; 7482,168;    0,692;   -0,955
420,757; 7111,411;    0,964;   -1,500
421,347; 6782,152;    1,601;   -0,227
421,937; 6944,057;    3,329;    1,409
422,527; 6920,329;    2,602;   -0,773
423,116; 6737,151;    2,692;   -0,045
423,706; 7015,218;    2,965;    0,318
424,296; 6993,987;    1,601;    0,682
424,885; 7389,896;    1,510;   -3,045
425,475; 7634,399;    1,147;   -2,864
426,065; 7560,646;   -1,489;   -0,318
426,654; 7206,831;    0,329;   -0,318
427,244; 7350,157;    1,147;    1,409
427,833; 6841,304;    1,056;   -0,500
428,423; 7226,312;    0,147;    1,136
429,012; 7940,654;    2,420;   -1,136
429,601; 7476,474;    2,057;    0,136
430,191; 7669,043;    2,511;    4,318
430,780; 7313,247;   -1,671;   -0,409
431,369; 7269,726;    1,329;   -0,045
431,959; 7844,189;    1,693;    0,500
432,548; 7655,968;   -1,398;   -0,045
433,137; 7745,079;    0,329;   -1,318
433,726; 8238,814;    0,148;    0,500
434,315; 7659,056;    0,148;    2,409
434,905; 7740,421;    0,693;    1,409
435,494; 7675,682;    3,148;    0,955
436,083; 8098,140;    1,420;   -0,955
436,672; 7979,433;    1,148;    0,500
437,261; 7596,311;    0,512;   -1,955
437,850; 7683,135;   -1,125;    0,682
438,439; 7660,061;    2,239;    1,955
439,027; 7533,075;    3,421;    1,773
439,616; 7841,678;    2,239;    1,227
440,205; 7693,781;    0,057;   -2,136
440,794; 7752,391;   -0,306;   -0,045
441,383; 7971,024;    1,603;   -0,591
441,971; 7836,290;   -0,306;    0,591
442,560; 7693,355;    0,603;   -1,773
443,149; 7455,544;    3,060;   -1,318
443,737; 7607,327;    0,968;   -2,318
444,326; 7832,110;    0,331;    0,318
444,915; 7860,602;   -1,851;    0,864
445,503; 8210,651;    0,058;   -0,318
446,092; 7563,483;    7,876;    2,136
446,680; 8049,622;    1,876;    0,318
447,269; 8211,319;   -1,487;   -0,318
447,857; 8002,444;    2,240;   -1,773
448,445; 8150,593;    2,149;    1,318
449,034; 8332,106;    0,876;   -1,136
449,622; 8424,631;    1,240;    3,500
450,210; 7728,000;    3,149;    2,227
450,799; 8246,126;    2,604;   -0,591
451,387; 8210,345;    1,786;   -0,591
451,975; 7876,303;   -1,305;    0,864
452,563; 7964,567;    0,422;    2,318
453,151; 7976,230;   -1,032;   -1,227
453,739; 7895,618;   -1,577;    0,136
454,328; 7794,323;    0,604;   -2,136
454,916; 7534,010;    1,150;   -0,136
455,504; 7704,985;    3,513;    1,227
456,092; 7842,281;    2,150;   -1,591
456,679; 7810,922;    0,604;    0,682
457,267; 7777,684;    3,604;    1,045
457,855; 7887,772;    3,241;    1,409
458,443; 7651,359;   -0,304;    1,682
459,031; 7798,765;    1,332;    2,409
459,619; 8212,105;   -3,577;    2,864
460,206; 8285,030;   -0,759;    2,045
460,794; 8367,396;   -0,668;   -0,227
461,382; 8589,698;    0,878;   -0,864
461,970; 8222,106;    0,605;    1,864
462,557; 8274,626;    0,878;   -0,682
463,145; 8413,925;   -0,304;   -1,682
463,732; 8536,161;    2,514;   -1,045
464,320; 8445,862;    1,514;   -3,045
464,907; 8176,846;    0,423;   -0,773
465,495; 8050,723;    2,696;   -1,227
466,082; 8187,494;    2,060;   -0,045
466,670; 8061,683;    2,605;    1,227
467,257; 8483,563;    0,060;    2,045
467,844; 8620,489;    1,514;    0,045
468,432; 8641,519;   -0,031;    3,500
469,019; 8209,634;    1,606;   -1,773
469,606; 8672,402;    0,969;    3,682
470,193; 8495,713;    2,151;    0,227
470,780; 8071,208;    0,333;    0,864
471,368; 8420,853;   -1,212;   -0,773
471,955; 8222,133;    1,060;   -0,682
472,542; 7879,974;   -0,303;   -1,136
473,129; 8105,802;   -0,485;    0,136
473,716; 7862,562;    0,060;    0,591
474,303; 8031,702;    1,333;   -0,864
474,890; 8273,829;    2,333;   -0,500
475,477; 8315,441;   -0,576;    0,409
476,064; 8207,559;    0,697;   -1,591
476,650; 8144,924;    2,152;    0,318
477,237; 7991,469;    1,879;    0,955
477,824; 8139,457;    3,879;    0,864
478,411; 8144,632;    0,606;   -0,318
478,997; 8326,240;    0,606;   -0,773
479,584; 8349,677;   -0,666;   -0,409
480,171; 8979,293;    1,243;   -0,773
480,757; 8682,567;   -0,848;    0,773
481,344; 8948,773;    0,334;    0,409
481,931; 8460,321;   -0,393;    1,045
482,517; 9336,762;    0,425;    0,318
483,104; 9791,927;    1,334;    2,864
483,690;10007,409;    0,243;    0,045
484,276;10296,516;    0,698;    0,227
484,863;10058,607;    2,152;    1,136
485,449;10634,683;    0,152;    0,318
486,035;10590,077;   -0,666;   -0,136
486,622;10975,791;   -2,393;    0,045
487,208;10921,201;    1,334;    1,500
487,794;10809,734;    0,971;    0,318
488,380;10897,111;    0,698;   -1,409
488,967;10947,201;   -1,120;   -0,409
489,553;11001,197;   -1,029;   -1,409
490,139;11206,677;    0,971;    0,773
490,725;10734,663;    0,789;   -0,227
491,311;10341,653;    1,516;    3,045
491,897; 9755,681;   -0,665;    1,500
492,483; 9660,173;    0,426;    1,227
493,069; 9480,847;    5,426;    0,864
493,655; 9432,471;    1,789;    0,682
494,241; 9361,098;    1,517;   -0,955
494,826; 9696,399;    0,335;   -1,045
495,412; 9207,241;    0,335;   -0,682
495,998; 9352,169;    0,971;   -0,318
496,584; 9403,557;    2,244;    1,045
497,169; 9381,666;    2,335;   -0,682
497,755; 9381,159;    1,244;    1,227
498,341; 9880,232;    2,153;    0,318
498,926; 9469,873;    2,881;    1,955
499,512; 9654,236;   -0,028;    2,955
500,097; 9702,314;   -0,574;   -0,318
500,683; 9699,294;   -0,028;    2,136
501,268;10026,184;    1,881;   -0,955
501,854; 9726,363;   -0,119;    1,227
502,439; 9680,593;   -0,573;   -1,773
503,024; 9864,990;    1,608;    0,500
503,610; 9895,622;    1,335;   -0,682
504,195; 9905,323;    1,245;    1,955
504,780;10047,827;    2,335;    1,227
505,366; 9907,317;    4,063;    2,864
505,951; 9603,499;   -1,119;    1,045
506,536; 9639,012;    1,427;   -3,682
507,121; 9637,560;    1,699;   -0,318
507,706;10130,224;   -0,392;    1,045
508,291;10432,387;   -2,937;    1,136
508,876; 9909,800;   -0,482;    2,591
509,461; 9434,332;    1,427;   -0,773
510,046; 9798,076;   -0,391;    0,318
510,631;10009,524;   -0,119;   -0,773
511,216; 9716,480;   -0,664;   -0,500
511,801;10101,471;   -0,755;    2,591
512,386;10317,606;    0,972;    0,500
512,971;10239,745;    0,427;    0,955
513,555; 9839,666;    1,154;   -1,500
514,140;10567,906;    1,336;   -3,136
514,725;10554,392;    1,791;   -1,136
515,309;10654,245;    1,064;    0,318
515,894;10171,698;   -0,300;   -2,227
516,479;10559,487;    1,973;   -0,955
517,063;10428,586;    0,882;    1,227
517,648;10520,138;    0,155;   -1,136
518,232;10152,859;   -1,300;   -1,409
518,817;10487,430;    1,337;    1,682
519,401;10713,624;    0,700;    0,591
519,985;10249,792;    2,700;    1,136
520,570;10158,073;   -0,118;   -1,955
521,154;10382,392;    0,064;    0,591
521,738;10523,895;    1,064;    2,409
522,323;11058,700;   -0,390;    1,682
522,907;10802,753;    2,428;   -0,136
523,491;10557,235;    1,155;    0,955
524,075;10513,352;    0,428;    0,591
524,659;10595,550;    0,973;    0,591
525,243;10123,944;    0,883;    0,409
525,827;10321,035;    0,883;   -0,045
526,411;11077,459;    1,155;   -0,136
526,995;11272,044;    0,337;    1,409
527,579;10897,630;    1,974;   -1,045
528,163;11172,954;    0,428;   -1,500
528,747;11105,695;    1,065;   -0,773
529,331;11379,915;    0,883;   -1,409
529,915;11516,753;    2,338;    0,955
530,499;11495,094;    0,247;    1,227
531,082;11206,036;    1,065;    1,591
531,666;10713,795;    0,520;    0,773
532,250;11295,448;    0,428;    2,682
532,833;11559,149;    0,610;    2,773
533,417;11473,494;    1,247;    0,864
534,001;11409,209;    0,429;   -0,318
534,584;12047,337;    1,974;    0,500
535,168;11897,379;    3,247;    1,409
535,751;11920,797;    4,520;    0,045
536,334;11394,153;    4,520;   -0,409
536,918;11962,149;    1,974;    1,591
537,501;11999,764;    1,520;    1,318
538,085;12019,344;    1,702;    1,045
538,668;12095,369;    0,883;    2,409
539,251;12396,577;    3,156;    3,773
539,834;12439,024;    0,156;    0,773
540,418;12365,550;    3,247;    4,318
541,001;12400,059;    2,702;    1,773
541,584;12387,321;    1,429;    2,227
542,167;12082,490;    0,702;    2,955
542,750;12237,960;    0,793;   -0,773
543,333;11836,062;    1,429;    2,136
543,916;12516,456;   -0,298;    2,500
544,499;13050,587;    2,520;    0,227
545,082;13064,773;    0,248;    3,591
545,665;13162,964;   -0,207;    1,500
546,248;13474,789;    0,520;   -0,318
546,830;13147,325;   -1,752;    1,955
547,413;13487,546;    0,157;   -0,773
547,996;14004,886;    0,157;    0,500
548,579;13774,051;   -0,843;    0,955
549,161;13615,510;    0,884;    2,682
549,744;13367,766;    0,612;    0,409
550,326;13827,542;    0,885;   -1,136
550,909;13649,043;    2,339;    0,591
551,492;13982,759;    0,521;    0,227
552,074;13778,898;   -0,024;   -1,318
552,657;14265,945;    2,430;    0,045
553,239;14087,658;   -3,024;   -0,773
553,821;13974,260;   -1,570;    1,045
554,404;13535,306;   -0,024;    1,136
554,986;13871,872;    2,248;    1,045
555,568;14364,131;    0,430;   -0,955
556,151;13699,429;    4,067;   -0,227
556,733;13855,704;   -1,388;   -0,864
557,315;14282,487;    4,703;    0,500
557,897;14077,365;    0,521;   -0,500
558,479;14153,347;    1,703;    1,318
559,061;14271,807;    1,067;   -0,864
559,643;14588,169;   -0,297;    0,045
560,225;14883,953;   -0,388;    2,864
560,807;14903,624;    0,340;    0,318
561,389;14444,474;   -1,206;    2,318
561,971;15067,221;   -0,660;    2,136
562,553;14933,355;    0,613;    1,591
563,135;15033,987;    1,249;    1,136
563,717;14647,803;    3,158;    1,136
564,298;15229,343;    3,976;   -0,045
564,880;15024,053;    0,340;   -1,409
565,462;15135,780;    1,977;    1,318
566,043;16104,951;   -0,933;    2,318
566,625;15666,063;    4,067;    1,227
567,207;15498,412;    0,704;    1,682
567,788;16417,489;   -0,114;    1,500
568,370;17139,668;   -1,841;   -0,500
568,951;16913,591;   -0,569;    0,227
569,533;17639,192;    0,977;   -0,500
570,114;18028,331;   -0,296;    0,682
570,695;18427,512;   -0,478;   -1,318
571,277;18772,987;   -0,205;   -1,682
571,858;19371,129;    2,704;   -1,136
572,439;20099,925;    0,795;   -1,045
573,021;20237,107;    0,432;   -2,773
573,602;20627,926;    1,795;    0,318
574,183;21398,538;   -0,114;    2,227
574,764;21449,942;    2,068;    0,409
575,345;21831,620;    0,250;   -0,136
575,926;22345,872;    2,704;    0,136
576,507;22368,219;    2,704;   -0,227
577,088;23295,832;    1,704;    1,682
577,669;23276,046;    1,704;    1,955
578,250;23916,629;   -0,750;   -1,045
578,831;24361,801;   -0,841;   -2,227
579,412;24609,617;   -1,205;    0,955
579,993;25462,622;    1,432;    0,227
580,573;25707,988;   -0,023;   -0,955
581,154;24726,867;    1,613;   -0,591
581,735;25545,044;    0,341;    0,773
582,315;25086,771;    0,523;    2,136
582,896;25299,396;   -1,750;    1,227
583,477;24826,892;    0,614;    1,227
584,057;25013,144;    1,159;    0,955
584,638;25204,349;   -2,750;    2,318
585,218;25263,822;    2,886;    2,682
585,799;25409,832;    1,977;   -0,227
586,379;25469,196;    1,250;    1,591
586,959;24403,676;    2,613;    0,318
587,540;23842,339;    0,432;    2,227
588,120;23430,774;   -1,113;   -0,045
588,700;22615,190;    2,977;    2,136
589,281;22914,759;    1,250;   -0,955
589,861;22839,838;   -0,296;   -1,682
590,441;22693,990;   -1,477;   -2,682
591,021;21791,370;    1,432;   -2,591
591,601;21991,730;    0,431;    0,500
592,181;22056,565;   -1,296;   -0,773
592,761;21423,315;    2,250;    1,409
593,341;21372,310;    1,522;    0,045
593,921;21374,627;   -0,569;    1,591
594,501;21278,335;    1,250;    1,318
595,081;21144,147;    0,522;   -0,318
595,661;21540,802;    1,068;    0,955
596,240;21955,390;   -1,023;    0,136
596,820;21507,994;    2,613;    1,955
597,400;21641,797;    1,977;    0,773
597,980;21861,490;   -0,750;    1,045
598,559;21931,769;    0,341;   -0,227
599,139;21667,007;   -0,750;   -1,227
599,718;21509,734;    0,795;   -0,409
600,298;21786,156;   -2,387;    0,682
600,877;22019,973;    4,795;    1,409
601,457;22293,486;    0,340;    1,136
602,036;22192,115;    1,795;    2,045
602,616;22339,693;    2,250;    1,682
603,195;22628,143;    0,431;    3,500
603,774;22181,449;   -0,296;    2,045
604,354;22084,110;    2,522;   -0,500
604,933;21680,520;    0,250;    1,864
605,512;21768,206;    2,340;    0,591
606,091;21814,722;    1,886;    3,773
606,671;22537,351;    0,249;    0,773
607,250;21755,491;    1,431;    3,136
607,829;21956,701;    1,158;    3,227
608,408;21794,195;    4,613;    2,591
608,987;20939,574;    2,704;    3,409
609,566;21231,053;    0,341;   -2,500
610,145;21313,466;    2,885;    0,682
610,723;21747,405;    1,613;    6,864
611,302;21008,854;    1,067;    1,682
611,881;20554,867;    5,158;   11,227
612,460;21353,145;    0,795;    3,955
613,039;21740,224;    1,703;    2,045
613,617;20574,004;    0,886;    4,773
614,196;20724,804;    1,613;    1,227
614,775;21064,516;    1,249;    2,409
615,353;20998,178;   -1,660;    0,864
615,932;20764,092;    0,249;    2,409
616,510;21316,173;    0,158;    0,591
617,089;20905,824;    8,794;   17,591
617,667;20710,707;    4,885;    6,136
618,246;20565,165;   -1,115;    1,318
618,824;20696,694;    1,612;   -0,955
619,402;20278,309;    0,431;   -1,773
619,981;20754,855;    1,067;   -1,045
620,559;20623,657;    0,794;    1,682
621,137;20182,962;    3,067;    1,864
621,715;20145,174;    3,703;   -0,682
622,293;20122,869;    1,885;   -0,773
622,871;20593,123;    0,340;    0,500
623,450;20249,333;    0,430;   -0,864
624,028;20116,519;   -0,388;   -0,955
624,606;19731,865;    2,339;    1,682
625,183;20084,681;   -0,661;   -1,136
625,761;19753,611;    1,885;    1,136
626,339;20061,100;    2,339;    2,591
626,917;20414,143;    0,339;   -0,045
627,495;20483,104;    2,794;    1,318
628,073;19938,987;    5,248;    2,864
628,650;19612,096;    3,067;    2,136
629,228;20055,532;    1,248;    4,409
629,806;19473,145;   -0,024;    1,136
630,383;19721,206;    0,066;   -0,318
630,961;19605,441;   -2,206;   -0,955
631,539;19314,589;   -2,479;    0,227
632,116;18796,350;   12,703;   15,409
632,694;19268,164;    4,885;    6,500
633,271;19472,860;    1,975;    2,682
633,848;19481,566;    1,430;    2,045
634,426;19497,956;    1,521;    1,773
635,003;18747,416;   -0,207;   -0,409
635,580;19006,500;    1,884;    3,682
636,158;19517,343;    3,793;    1,227
636,735;19474,429;    3,339;   -0,500
637,312;19589,165;    0,521;   -0,682
637,889;19631,947;    2,248;   -0,682
638,466;19220,899;    0,066;   -0,409
639,043;19169,532;    1,702;   -1,136
639,620;19443,166;    0,611;   -0,955
640,197;19735,220;    1,612;    1,682
640,774;19874,213;    1,430;    1,136
641,351;20221,296;    0,612;    1,136
641,928;19707,380;    2,794;    1,409
642,505;19371,009;    0,794;   -0,500
643,082;19505,638;    1,885;    1,227
643,658;18647,540;    1,157;    1,500
644,235;19295,260;   -2,479;    2,500
644,812;19520,162;    1,794;    0,773
645,388;19287,064;    1,612;    1,409
645,965;19336,784;    1,521;    1,682
646,542;19379,958;    3,430;   -0,227
647,118;19458,042;    3,703;   -0,955
647,695;19666,580;    0,339;    1,136
648,271;19567,664;   -2,115;    0,500
648,848;19912,384;    0,248;    2,227
649,424;19723,650;    0,976;    1,318
650,000;19460,006;   -0,388;   -1,045
650,577;19347,817;    0,158;   -0,955
651,153;19682,537;   -1,115;    0,955
651,729;20545,530;    0,521;    0,864
652,305;20649,522;    1,339;    2,773
652,881;24036,697;   -1,297;    1,136
653,458;29459,053;    0,249;    0,227
654,034;32399,137;    0,703;    1,591
654,610;33578,675;    0,339;    0,773
655,186;34730,213;    1,612;    3,045
655,762;34430,024;   -1,842;    0,409
656,338;34486,926;    0,703;    0,136
656,913;35419,464;   -0,297;    0,409
657,489;34753,003;    0,249;   -0,318
658,065;34728,450;    0,794;   -1,591
658,641;35325,897;    2,158;   -0,864
659,217;34709,435;    2,067;    0,409
659,792;34194,428;   -1,751;   -0,409
660,368;34516,239;   -0,388;   -0,682
660,944;34457,777;    1,794;    1,227
661,519;30836,406;    0,522;    0,409
662,095;26004,672;   -0,206;    0,591
662,670;22216,937;   -0,206;   -0,136
663,246;21335,112;   -0,660;   -0,409
663,821;20733,286;    0,431;    1,682
664,396;20213,007;    0,613;    1,864
664,972;20450,999;   -0,660;   -0,500
665,547;20769,810;    3,794;    0,136
666,122;20759,348;    1,340;    0,318
666,698;21021,341;    2,431;    0,318
667,273;20394,243;    0,885;    0,136
667,848;21122,690;    0,340;    1,500
668,423;20945,501;    1,795;    2,318
668,998;21343,130;    0,976;   -0,682
669,573;21765,214;    2,067;   -1,500
670,148;21676,207;    1,885;   -0,682
670,723;21449,563;   -0,024;    0,318
671,298;21798,374;   -1,296;    1,045
671,873;21836,549;   -0,296;   -0,136
672,448;21840,723;    1,704;    0,136
673,023;22150,625;    0,249;   -0,227
673,597;22444,709;    2,704;    2,318
674,172;22275,611;    2,431;    0,318
674,747;21799,512;   -0,205;   -1,045
675,321;21586,869;   -0,933;    3,318
675,896;21229,952;    2,158;    1,045
676,471;22104,491;    2,522;    1,591
677,045;21858,938;   -0,296;    0,682
677,620;21872,840;    2,158;    1,136
678,194;22218,287;    0,249;    1,136
678,769;21820,916;    0,886;   -0,318
679,343;22065,091;   -0,023;    1,773
679,917;21911,084;    0,340;    1,955
680,492;21997,167;    0,249;    3,227
681,066;22087,524;    0,613;    0,409
681,640;22060,789;    1,795;   -0,318
682,214;22780,600;    2,340;    0,500
682,788;22366,229;    0,613;   -0,773
683,363;22276,131;    1,977;    1,682
683,937;22026,306;    0,886;   -0,318
684,511;22729,207;   -1,023;   -0,591
685,085;22469,200;   -1,478;    0,318
685,659;22173,829;    1,431;    0,864
686,232;22414,004;    1,159;   -0,318
686,806;22181,997;    2,159;    0,409
687,380;22775,171;   -1,932;    0,591
687,954;23016,618;    2,432;    1,136
688,528;22652,884;    2,613;    1,955
689,101;23346,240;    0,432;    1,045
689,675;22917,324;    0,886;   -0,136
690,249;22374,680;    3,432;    0,409
690,822;22711,946;    1,159;    0,318
691,396;22824,848;    2,068;    1,227
691,969;22326,022;    2,523;    0,136
692,543;22757,651;   -0,568;   -1,955
693,116;22412,190;   -0,659;   -1,409
693,690;22318,728;   -0,296;    0,500
694,263;22873,357;    2,341;    2,955
694,836;22794,077;    2,795;    3,591
695,410;21598,524;    1,159;    1,773
695,983;22050,153;    1,614;    0,591
696,556;22030,237;   -0,750;   -1,045
697,129;22341,593;   -1,114;    1,409
697,703;22002,768;    1,341;    1,955
698,276;22013,215;    1,705;   -0,773
698,849;21806,390;   -1,023;    1,409
699,422;22212,201;    1,250;    0,591
699,995;21941,012;   -0,659;    0,136
700,568;22365,277;   -0,204;    3,045
701,140;22394,088;   -1,841;    1,682
701,713;22152,172;    0,341;    2,409
702,286;21902,164;    0,796;    0,864
702,859;21788,794;    0,614;   -0,591
703,432;21081,150;   -0,841;    0,682
704,004;21519,325;    1,978;    0,318
704,577;21384,590;    1,068;    0,136
705,150;21917,765;    0,887;    2,500
705,722;21700,030;    1,523;   -3,227
706,295;21490,114;    1,432;   -0,591
706,867;21332,197;    0,250;    1,955
707,440;21627,736;   -0,113;   -0,409
708,012;21850,547;   -0,022;    0,591
708,584;21705,448;    2,705;    0,227
709,157;21962,714;    1,160;   -0,591
709,729;21663,888;    1,069;    2,045
710,301;22453,518;   -1,204;    0,045
710,874;22476,328;    0,341;   -0,227
711,446;21437,321;   -0,295;    0,864
712,018;21296,587;   -3,022;    0,500
712,590;21090,034;   -0,204;    1,682
713,162;21557,663;   -0,477;    1,318
713,734;21811,565;    1,796;   -2,045
714,306;21706,467;    0,342;   -0,409
714,878;20514,096;   -0,295;    0,864
715,450;21271,998;   -0,113;    0,864
716,022;21527,809;    2,433;    1,318
716,593;21675,620;    0,978;    0,591
717,165;21626,794;    1,796;   -1,227
717,737;21375,605;    0,796;    0,409
718,309;21077,689;    1,160;   -0,045
718,880;21035,682;   -1,295;   -1,409
719,452;21266,674;    0,887;   -1,591
720,024;20932,122;    1,705;   -0,591
720,595;21412,569;    2,978;    0,955
721,167;21046,471;    1,160;   -2,045
721,738;20587,463;    2,069;   -1,045
722,309;20563,911;    1,251;   -1,227
722,881;20404,085;    2,705;    0,773
723,452;20907,442;    1,251;    2,864
724,023;21109,707;    1,524;    2,682
724,595;20938,155;    2,342;    0,682
725,166;20676,056;    1,524;   -0,409
725,737;20342,140;    1,887;    0,227
726,308;20436,587;    0,797;    0,318
726,879;20817,853;    1,069;    1,227
727,450;20652,846;   -2,022;   -0,045
728,021;20649,838;    1,069;    0,682
728,592;20493,740;    1,160;    0,500
729,163;20792,006;    1,433;   -0,136
729,734;20783,635;    2,160;   -0,227
730,305;21050,355;    0,615;    0,136
730,876;21375,802;    0,888;    2,955
731,447;21128,158;    0,797;    2,682
732,017;21248,333;   -0,840;    1,864
732,588;20820,508;   -0,021;    1,227
733,159;20885,228;    3,615;   -1,045
733,729;20713,220;    1,251;    0,409
734,300;20104,122;    0,160;    0,864
734,870;20499,024;   -1,385;    0,591
735,441;21001,744;    0,888;   -0,591
736,011;20794,282;    1,070;   -1,591
736,582;20744,002;    1,251;    0,045
737,152;20198,086;    0,979;   -2,045
737,722;20633,897;    1,070;   -0,682
738,293;20374,617;   -2,021;    1,318
738,863;20309,337;    1,797;    2,318
739,433;20159,512;    4,524;    0,318
740,003;20722,504;    1,524;   -0,682
740,573;20190,406;    2,252;   -1,591
741,143;20180,763;    3,615;    0,318
741,713;20869,664;    0,252;   -0,500
742,283;20607,566;    1,706;    1,591
742,853;20426,559;    0,524;    1,591
743,423;19959,461;    0,161;    0,045
743,993;20034,908;    1,070;    1,500
744,563;19503,628;    2,524;   -0,864
745,133;19474,257;   -0,112;   -0,864
745,702;20093,614;    2,797;    1,773
746,272;19347,606;    0,434;    0,591
746,842;19147,690;   -0,748;   -0,591
747,411;19544,501;   -0,839;   -0,318
747,981;19697,494;   -0,930;    0,500
748,551;19788,941;   -0,021;   -1,045
749,120;19655,025;   -0,112;   -0,227
749,690;19945,381;    2,161;    2,409
750,259;20236,556;    0,979;    2,955
750,828;20147,003;    4,070;   -1,955
751,398;20388,996;   -0,112;   -0,045
751,967;19934,443;    2,888;    0,409
752,536;20166,981;    1,161;   -0,227
753,105;20535,883;   -1,384;    0,227
753,675;20260,694;   -0,112;    1,773
754,244;20202,141;    0,888;    3,591
754,813;20244,316;    0,979;    1,227
755,382;19873,036;    0,798;    0,955
755,951;20334,120;   -0,112;    3,682
756,520;19919,567;    2,525;    1,864
757,089;20423,469;    1,888;    0,500
757,658;20522,734;    2,434;    1,227
758,227;20540,545;   -1,111;    0,318
758,795;20821,992;   -1,021;    1,136
759,364;21036,803;    0,525;   -0,591
759,933;20174,251;    1,343;   -0,045
760,501;19755,698;    0,252;   -1,318
761,070;20164,236;   -0,293;   -1,409
761,639;20848,229;    1,434;    1,318
762,207;20193,494;    0,889;   -0,955
762,776;20121,305;    2,889;    0,864
763,344;20097,116;    0,071;    0,591
763,913;19263,563;    1,616;    1,409
764,481;19999,920;    1,980;   -0,136
765,049;19858,367;    0,616;    1,409
765,618;19716,087;    1,434;    0,318
766,186;19787,353;    2,434;    0,136
766,754;19969,255;    1,798;    1,864
767,322;19102,065;    1,162;    0,409
767,890;19089,058;    0,525;   -1,773
768,459;19480,415;    2,616;   -0,318
769,027;19612,953;    2,525;    3,409
769,595;18723,036;    2,616;    2,591
770,163;19111,302;    3,344;    2,955
770,730;18965,749;    2,525;   -0,136
771,298;18804,742;    1,162;   -1,409
771,866;18886,371;    0,253;    4,955
772,434;19132,546;    1,162;   -1,864
773,002;19319,357;    2,616;    0,682
773,569;19016,531;    1,071;    1,682
774,137;18844,342;    0,889;   -0,045
774,705;19557,335;   -0,747;   -0,136
775,272;19159,419;    0,253;    0,682
775,840;18992,320;   -0,111;    2,682
776,407;18509,677;   -0,293;    1,955
776,975;18114,760;    1,162;    0,318
777,542;19100,480;    2,162;   -0,045
778,110;18939,382;    0,707;   -0,045
778,677;18632,011;    1,071;   -0,864
779,244;18455,368;   -1,020;    1,045
779,812;18503,179;    0,980;    0,864
780,379;18379,717;    2,435;    1,136
780,946;18606,801;    2,617;   -0,773
781,513;18889,612;   -0,565;    0,318
782,080;18334,241;    1,253;    2,864
782,647;18970,779;    1,708;    3,045
783,214;18636,681;   -0,201;    3,864
783,781;18266,673;    1,708;   -0,682
784,348;18170,484;    0,253;    1,500
784,915;18540,113;   -1,474;    0,318
785,482;18363,743;    2,708;    2,591
786,049;18826,190;    1,071;   -0,591
786,615;18900,819;    1,708;   -0,955
787,182;18654,084;   -3,201;   -0,682
787,749;18394,714;   -2,201;    1,409
788,315;17794,252;    0,253;   -0,409
788,882;18038,426;    0,981;   -1,227
789,448;18643,965;    1,435;   -0,955
790,015;18704,048;    1,799;    3,227
790,581;18312,496;    0,708;    0,227
791,148;18175,488;    1,344;    1,045
791,714;18354,936;   -1,019;    3,136
792,280;18102,292;    3,708;    1,591
792,847;17787,648;   -0,928;    2,500
793,413;18214,096;   -0,110;   -0,318
793,979;17848,816;    1,526;   -1,318
794,545;17925,081;    2,981;    2,682
795,111;17403,074;    2,435;    1,318
795,678;17543,521;    3,526;   -1,682
796,244;17243,969;    2,799;    0,136
796,810;17729,870;    0,799;    0,773
797,375;17507,409;   -0,292;   -2,136
797,941;17563,583;   -1,110;    0,591
798,507;17656,849;    0,254;   -0,955
799,073;17232,023;    2,708;    0,591
799,639;17344,107;    1,435;    3,136
800,205;17369,827;   -1,565;    2,682
800,770;16973,365;    1,345;    1,773
801,336;16981,994;    2,981;   -0,955
801,901;16777,169;    6,072;    3,136
802,467;17319,252;    0,526;    2,045
803,033;16694,882;   -0,019;    0,864
803,598;16847,147;    1,072;   -1,045
804,163;16922,594;    0,708;   -0,318
804,729;16892,496;   -0,110;    1,136
805,294;17217,398;    1,072;    2,227
805,859;17018,391;    0,890;   -0,409
806,425;16570,747;    3,890;    2,682
806,990;16231,831;    1,890;    4,318
807,555;16674,005;   -0,110;    2,591
808,120;16594,544;   -1,292;   -0,409
808,685;16706,173;    1,072;   -2,500
809,250;16263,802;    2,072;   -0,500
809,815;16521,340;   -0,201;    0,682
810,380;16960,515;    0,981;    1,591
810,945;17441,871;    2,890;    2,045
811,510;16747,046;   -0,200;    1,591
812,075;16460,675;    2,800;   -1,409
812,640;16506,486;    3,709;    1,409
813,204;16594,478;    2,163;   -0,227
813,769;17030,471;    0,254;   -0,045
814,334;16507,737;    0,527;    0,864
814,898;16569,638;    1,981;    0,591
815,463;16415,086;    0,981;   -0,773
816,027;16419,988;    1,345;   -2,318
816,592;16525,617;    2,163;   -2,045
817,156;16097,246;   -2,200;    1,136
817,721;15983,784;    0,982;    2,318
818,285;15957,413;    0,618;    1,500
818,849;16515,951;   -0,018;    1,682
819,414;16424,035;    0,073;    2,955
819,978;16074,937;   -0,291;    1,773
820,542;16570,111;    2,891;    0,500
821,106;16372,104;    2,800;    0,682
821,670;16385,915;    2,709;    2,591
822,234;16161,453;    1,073;    1,409
822,798;15637,264;   -0,836;    0,500
823,362;15616,712;    1,527;    4,227
823,926;15080,432;   -0,018;    1,136
824,490;15243,606;    3,527;   -0,682
825,054;15649,053;    2,527;   -1,136
825,618;15363,955;   -1,200;   -1,500
826,181;15299,766;    0,982;   -1,318
826,745;15206,123;   -0,745;   -1,045
827,309;15535,843;    2,255;    1,318
827,872;15104,744;    0,527;    0,955
828,436;15931,374;    1,982;   -0,773
828,999;16012,730;    2,436;    1,227
829,563;14989,177;   -0,654;    1,136
830,126;14818,534;   -0,018;   -0,591
830,690;14863,163;    0,709;    2,864
831,253;14407,156;   -0,473;    2,227
831,816;14547,330;   -0,018;    0,500
832,380;14477,505;    1,164;    0,864
832,943;14710,043;    3,073;   -0,500
833,506;14216,127;    0,255;   -1,227
834,069;14913,210;    2,164;   -0,955
834,632;15024,476;   -2,200;    1,318
835,195;14953,468;    1,346;    0,955
835,758;14260,461;    0,709;    1,955
836,321;14110,636;    1,073;   -1,045
836,884;14178,265;   -1,291;   -0,955
837,447;14225,894;    0,528;    1,773
838,010;14436,069;    1,800;    3,227
838,573;14726,061;    0,528;    0,773
839,135;14729,690;   -0,109;   -0,955
839,698;14244,501;    2,528;    0,409
840,261;13828,949;    0,255;   -0,227
840,823;13714,578;   -0,927;    0,864
841,386;13970,025;   -0,018;   -2,409
841,948;13883,381;    0,255;    1,773
842,511;13649,465;    0,255;    1,682
843,073;13749,276;    2,982;    0,227
843,636;13577,723;    0,619;   -0,227
844,198;13516,352;    1,255;    0,591
844,760;13641,982;    0,619;    1,955
845,322;13298,883;    0,164;    1,136
845,885;13652,785;   -0,290;    0,591
846,447;14113,414;    0,710;    0,227
847,009;13728,407;    3,983;   -0,682
847,571;13970,036;    1,346;   -2,045
848,133;14073,484;   -0,199;   -1,864
848,695;13946,385;    2,346;    1,409
849,257;13574,469;    1,346;   -1,682
849,819;13701,553;    2,983;   -0,409
850,381;13721,727;    1,801;   -0,864
850,942;14004,084;    1,892;   -0,591
851,504;13948,258;    0,983;    0,227
852,066;13989,796;    1,619;   -1,591
852,628;13616,698;    0,165;    1,955
853,189;13179,327;    0,256;    2,682
853,751;13332,229;   -0,654;    1,409
854,312;13127,767;    1,256;   -1,682
854,874;13581,942;   -0,108;   -0,773
855,435;14009,480;    0,528;   -1,682
855,997;14177,473;    3,983;   -0,136
856,558;13560,829;    0,801;    1,773
857,119;13641,004;   -0,744;    2,864
857,681;13337,178;   -0,108;    0,318
858,242;13398,989;    1,347;   -2,136
858,803;13787,528;    1,074;   -0,773
859,364;14324,157;    0,892;   -4,773
859,925;13764,968;   -0,290;   -0,955
860,486;13637,506;    0,529;   -0,955
861,047;13376,135;    0,165;   -1,227
861,608;13248,310;    0,165;   -0,773
862,169;13402,393;   -0,562;   -0,045
862,730;13176,841;   -0,290;    1,409
863,291;13392,924;    0,438;   -0,500
863,852;13671,826;   -0,926;    1,955
864,412;13215,910;   -1,835;   -0,864
864,973;11985,539;    1,892;    0,500
865,534;11895,622;    2,074;    0,227
866,094;13155,797;    2,620;    0,227
866,655;12886,426;    4,711;    3,318
867,215;13160,328;    0,074;    0,136
867,776;13037,593;   -1,199;   -0,136
868,336;13107,132;    1,529;    0,136
868,897;12704,397;    3,438;    1,682
869,457;12506,572;    3,256;    0,318
870,017;12692,837;    2,438;   -1,227
870,578;13174,375;    1,893;    0,773
871,138;12780,732;    2,620;   -0,955
871,698;12412,543;   -0,562;   -1,318
872,258;12319,626;    0,711;   -2,864
872,818;12657,437;    2,347;    0,045
873,378;12647,976;   -2,198;    1,045
873,938;12253,877;    4,984;    0,500
874,498;12521,052;    1,256;   -1,955
875,058;12440,681;    4,347;    1,773
875,618;12315,219;    1,438;   -2,682
876,177;12245,303;   -0,471;    0,136
876,737;11895,750;   -0,289;    1,955
877,297;11960,834;    2,711;    1,955
877,856;11963,554;    2,529;    0,318
878,416;11933,001;    2,438;   -0,136
878,976;12101,267;    3,438;    0,409
879,535;12269,350;    4,529;    3,136
880,095;12062,161;    1,347;    0,045
880,654;12160,881;    0,347;    1,318
881,213;12258,238;    2,347;    1,500
881,773;11932,230;    1,984;    2,682
882,332;12274,678;    6,075;    5,136
882,891;12105,034;    0,711;    2,136
883,451;12495,936;   -2,016;    1,682
884,010;12015,292;   -1,107;   -0,409
884,569;12102,285;   -2,289;   -0,045
885,128;12229,369;   -0,743;   -1,864
885,687;12263,634;   -0,743;    0,682
886,246;12022,082;    2,620;    2,136
886,805;11799,892;    1,620;    2,045
887,364;12048,976;    1,166;   -0,500
887,922;12346,969;   -0,016;    0,045
888,481;11900,053;    1,530;    0,591
889,040;12157,863;    3,711;    2,136
889,599;12729,220;    2,166;    1,409
890,157;12800,849;    2,166;    2,409
890,716;12413,569;    2,166;    0,227
891,274;12240,744;    0,075;   -1,136
891,833;12592,282;    1,166;    0,864
892,391;12491,275;    1,802;    0,500
892,950;12594,267;    0,166;   -0,773
893,508;12896,078;    0,984;   -0,409
894,067;12325,980;   -0,379;    0,136
894,625;12246,246;   -1,016;   -1,500
895,183;12475,329;   -0,198;   -0,682
895,741;12386,777;    2,257;   -1,773
896,299;12225,769;    1,621;   -2,409
896,858;12374,035;    1,530;   -1,591
897,416;12472,391;    0,166;   -1,318
897,974;12269,384;   -2,197;    0,318
898,532;12421,558;    6,530;    2,682
899,089;12363,551;    0,621;   -0,682
899,647;12427,544;    0,530;    1,318
900,205;12231,991;    0,257;    1,045
900,763;12378,711;    2,166;    0,227
901,321;12403,795;    3,530;   -1,409
901,878;11904,606;    3,257;   -0,773
902,436;11806,508;    0,257;    1,318
902,994;12210,410;    6,712;    3,682
903,551;11712,039;    1,439;    0,409
904,109;12070,395;    1,530;   -1,409
904,666;11728,842;    1,439;    1,045
905,224;11576,835;    3,894;   -0,409
905,781;11370,191;   -0,470;   -0,318
906,338;11419,093;    0,167;    1,045
906,895;11398,995;    1,894;    2,045
907,453;11305,079;    2,348;    1,136
908,010;11346,890;    3,348;    0,409
908,567;11045,428;   -0,561;    0,591
909,124;10621,239;    2,439;   -1,500
909,681;10665,959;   -1,288;    0,682
910,238;10907,043;   -0,106;   -1,318
910,795;11184,763;   -1,561;   -1,136
911,352;10862,944;   -0,379;   -2,682
911,909;10376,944;    2,803;   -0,864
912,466;10805,763;    1,985;    1,500
913,022;10396,763;   -0,924;    0,500
913,579;10711,308;   -0,470;    2,045
914,136;10470,581;   -2,561;    0,955
914,692;10772,854;    1,530;   -1,227
915,249;10435,672;    0,530;    0,409
915,806;10653,035;    1,803;    1,955
916,362;10502,672;    0,894;    1,864
916,918;10082,217;    2,439;    1,045
917,475;10065,672;    1,621;    0,955
918,031;10146,854;    0,076;   -0,045
918,587; 9693,763;    0,621;   -0,318
919,144; 9911,944;   -0,379;    0,227
919,700;10153,035;    0,167;    0,773
920,256; 9770,944;    0,439;    0,045
920,812; 9498,217;    1,439;   -1,045
921,368; 9536,672;    1,348;   -1,045
921,924; 9238,126;    0,439;   -0,136
922,480; 8879,035;    0,076;    1,227
923,036; 9457,854;   -0,652;    1,955
923,592; 9404,126;    0,621;    0,318
924,148; 9340,854;    1,894;   -0,955
924,704; 8799,854;    0,258;   -0,409
925,259; 9088,126;   -0,561;    0,591
925,815; 8878,944;    3,803;    0,500
926,371; 8462,944;    3,530;    1,409
926,926; 8384,399;    1,621;    0,591
927,482; 8104,854;    1,621;    0,773
928,037; 8042,490;   -0,833;    2,045
928,593; 8309,944;    0,258;    1,045
929,148; 8153,399;    1,167;   -1,500
929,704; 7730,672;    2,439;   -0,500
930,259; 7925,126;    0,894;   -0,136
930,814; 7226,763;    1,803;    1,955
931,369; 6955,763;    0,258;   -0,773
931,925; 6890,217;   -1,924;    0,136
932,480; 6810,399;    3,076;   -2,591
933,035; 6782,854;    3,985;   -0,318
933,590; 6611,581;   -1,742;   -1,773
934,145; 6360,581;   -1,288;   -0,318
934,700; 6625,854;    0,348;   -0,591
935,255; 6502,490;    4,803;    0,045
935,809; 6009,490;    6,258;    0,864
936,364; 5279,581;    2,167;   -0,136
936,919; 5301,490;    2,348;   -1,773
937,474; 5250,217;    1,348;    0,136
938,028; 5049,944;    3,076;    1,136
938,583; 4719,126;    6,348;    4,682
939,138; 4911,490;    0,167;    2,136
939,692; 4469,217;   -1,015;   -1,136
940,247; 4251,126;    1,167;   -1,045
940,801; 3966,672;    0,621;    0,227
941,355; 3908,217;    0,439;    2,591
941,910; 3610,035;    0,712;   -2,136
942,464; 3734,217;    2,712;   -0,318
943,018; 3646,944;    3,258;   -0,227
943,572; 3561,672;    2,803;   -0,682
944,126; 3135,126;   -0,924;   -0,409
944,681; 3026,763;    0,712;    0,227
945,235; 3004,763;    2,167;   -0,591
945,789; 2976,399;    1,258;   -1,864
946,342; 3141,308;   -0,561;   -0,591
946,896; 2897,217;    0,348;    0,955
947,450; 2704,944;   -0,561;   -0,227
948,004; 2946,308;    1,076;   -0,045
948,558; 2904,399;    1,258;   -0,864
949,111; 2827,854;   -1,197;   -0,318
949,665; 2940,763;   -0,106;   -0,682
950,219; 2840,490;    0,621;   -1,045
950,772; 2856,490;    0,258;    1,864
951,326; 2790,490;   -1,106;   -0,955
951,879; 2831,854;    1,076;   -2,318
952,433; 2891,763;    1,348;    2,227
952,986; 2709,944;    0,348;    0,682
953,539; 2666,035;    1,530;    0,591
954,093; 2619,399;    0,985;   -1,318
954,646; 2768,308;   -0,288;    1,318
955,199; 2588,399;    1,258;   -0,500
955,752; 2579,944;    1,985;    1,773
956,305; 2504,944;    0,894;    2,955
956,858; 2638,126;    0,621;   -0,318
957,411; 2776,035;    3,621;    2,136
957,964; 2639,944;    2,076;    2,136
958,517; 2623,217;    0,985;    3,136
959,070; 2472,581;   -1,197;    1,955
959,623; 2651,944;    1,076;    1,500
960,176; 2439,126;    0,712;    2,045
960,728; 2409,581;    1,712;    0,773
961,281; 2462,399;    2,258;    0,500
961,834; 2457,126;   -0,833;    0,864
962,386; 2404,490;    1,258;    1,045
962,939; 2324,490;    3,439;   -0,318
963,491; 2440,672;    2,621;    1,136
964,043; 2332,854;    0,076;    2,409
964,596; 2462,581;    1,712;    2,227
965,148; 2309,217;   -0,379;    1,773
965,700; 2230,672;   -0,015;   -0,227
966,253; 2385,763;   -0,833;    0,318
966,805; 2263,581;    1,894;    0,773
967,357; 2277,126;    0,439;   -1,500
967,909; 2302,490;    1,167;   -1,227
968,461; 2337,672;    0,894;    3,136
969,013; 2269,308;   -1,561;   -0,864
969,565; 2349,944;    1,803;   -1,136
970,117; 2554,217;    3,803;    1,045
970,669; 2308,217;    3,258;   -0,136
971,220; 2133,035;    2,167;   -1,500
971,772; 2096,581;    1,348;   -0,318
972,324; 2238,035;   -1,197;   -0,500
972,876; 2153,672;    0,167;   -0,045
973,427; 2305,944;   -1,197;   -1,045
973,979; 2290,581;    0,076;   -2,500
974,530; 2255,126;    0,803;    1,318
975,082; 2265,308;    2,167;    1,682
975,633; 2189,581;    2,894;    1,682
976,184; 2335,763;    2,076;    0,773
976,736; 2190,672;    0,348;    0,227
977,287; 2048,854;    0,258;   -0,500
977,838; 2156,672;   -0,924;   -0,318
978,389; 2209,490;    0,803;   -0,500
978,940; 2060,763;    1,258;   -0,409
979,491; 2092,944;    2,258;   -0,500
980,042; 2089,217;   -0,652;    3,045
980,593; 2087,581;    1,894;    0,227
981,144; 2199,672;    3,530;   -0,500
981,695; 2229,217;   -0,470;    1,500
982,246; 2161,763;   -1,833;    1,045
982,797; 2211,035;   -0,561;    0,682
983,347; 2319,854;    2,167;    0,591
983,898; 2519,854;    4,167;    0,409
984,449; 2390,035;    2,530;    0,773
984,999; 2231,126;    1,894;   -1,136
985,550; 2078,854;    3,167;   -0,318
986,100; 2044,672;    0,712;   -0,318
986,651; 2067,581;    0,258;    0,045
987,201; 2082,399;    0,894;   -0,591
987,751; 2134,672;   -0,288;    2,864
988,302; 2153,763;   -0,379;    1,500
988,852; 2160,490;    1,985;   -1,136
989,402; 2242,308;    0,985;    0,682
989,952; 2193,763;    1,621;    0,864
990,502; 2194,944;    1,076;    0,682
991,052; 2136,490;   -0,106;    0,045
991,602; 2041,944;    1,167;    1,318
992,152; 2065,217;    2,803;    0,682
992,702; 2057,217;    1,167;   -0,045
993,252; 1996,399;    0,076;   -0,500
993,802; 2097,854;    1,167;    1,318
994,352; 2260,399;   -0,742;    1,136
994,901; 2279,126;    1,076;    3,227
995,451; 2239,308;   -1,197;    0,318
996,000; 2306,217;    1,076;    0,318
996,550; 2086,581;    2,894;    0,227
997,100; 2104,581;   -0,561;   -0,045
997,649; 2356,490;   -0,197;    0,955
998,198; 2050,126;   -0,288;   -1,500
998,748; 2240,217;    0,348;   -2,318
999,297; 2130,672;    0,985;   -0,409
999,846; 2220,035;    1,894;   -0,773
1000,395; 2200,581;    1,530;    0,500
1000,945; 2236,490;    1,076;   -0,773
1001,494; 2299,854;    0,167;    0,682
1002,043; 2280,581;    0,712;    0,864
1002,592; 2100,854;    3,439;    1,955
1003,141; 2220,217;    2,439;   -0,682
1003,690; 2152,126;    1,258;    0,500
1004,238; 2166,126;   -0,106;   -0,045
1004,787; 1858,672;   -1,288;    1,227
1005,336; 2110,399;    1,621;    0,682
1005,885; 2188,672;   -0,197;   -2,773
1006,433; 2265,944;   -0,470;    0,955
1006,982; 2408,581;    2,167;    1,682
1007,531; 2284,763;    2,712;   -0,227
1008,079; 2196,126;    0,258;    0,500
1008,627; 2284,399;    1,621;    0,409
1009,176; 2108,399;    0,076;   -1,955
1009,724; 2150,035;   -2,742;    0,864
1010,273; 2243,035;    1,076;    0,500
1010,821; 2279,854;    1,076;    1,409
1011,369; 2055,308;    0,076;    1,318
1011,917; 2048,581;   -0,833;   -0,591
1012,465; 2294,944;    2,530;   -1,591
1013,013; 2353,217;    0,439;   -1,682
1013,561; 2300,581;   -1,288;   -0,773
1014,109; 2393,763;   -0,833;    1,682
1014,657; 2252,854;    1,348;    0,591
1015,205; 2304,763;    0,894;   -0,955
1015,753; 2296,490;    0,258;   -1,409
1016,301; 2348,308;    2,621;    3,045
1016,848; 2368,672;    2,167;    0,409
1017,396; 2416,308;    1,621;    0,045
1017,944; 2502,672;    2,621;    1,864
1018,491; 2278,308;   -0,197;    1,409
1019,039; 2538,490;   -0,652;    0,591
1019,586; 2370,944;    0,076;    1,682
1020,134; 2435,944;    0,712;    1,500
1020,681; 2462,035;    2,894;   -1,136
1021,228; 2422,399;   -0,561;   -2,227
1021,776; 2292,217;   -0,833;   -1,136
1022,323; 2538,126;    0,803;    0,773
1022,870; 2470,581;   -0,470;   -0,045
1023,417; 2413,854;    2,076;    1,864
1023,964; 2459,854;    0,621;    1,227
1024,511; 2363,763;   -0,652;    0,773
1025,058; 2199,399;    0,439;   -0,045
1025,605; 2233,217;   -1,742;    3,136
1026,152; 2471,672;   -0,106;   -0,591
1026,699; 2226,581;    0,167;    1,318
1027,245; 2330,217;    2,439;    0,318
1027,792; 2464,126;    0,712;    1,409
1028,339; 2476,126;    4,076;   -0,045
1028,885; 2322,217;    3,621;   -0,227
1029,432; 2241,308;   -0,106;    0,227
1029,978; 2331,672;    1,348;   -1,591
1030,525; 2235,672;    1,621;    0,409
1031,071; 2383,308;    0,348;    1,136
1031,618; 2601,763;    1,258;    1,682
1032,164; 2357,763;    2,076;    3,045
1032,710; 2386,399;    0,076;   -1,500
1033,256; 2303,763;    0,712;   -0,136
1033,803; 2244,217;   -0,288;    1,500
1034,349; 2025,399;    1,803;    0,136
1034,895; 2168,581;    2,621;   -0,318
1035,441; 2180,217;    0,439;    0,318
1035,987; 2201,944;   -2,288;   -0,682
1036,533; 2235,763;   -0,197;   -0,955
1037,078; 2430,763;    4,712;    1,682
1037,624; 2246,854;    2,439;   -0,955
1038,170; 2218,399;    1,712;   -0,318
1038,716; 2174,854;    2,167;   -0,409
1039,261; 2052,581;    2,167;   -0,773
1039,807; 2029,490;   -0,015;    3,409
1040,352; 2122,217;   -1,288;   -0,318
1040,898; 2147,399;    0,167;   -0,682
1041,443; 2033,854;    0,803;   -2,591
1041,989; 2185,490;    3,621;    1,591
1042,534; 2032,035;    0,985;    2,591
1043,079; 2050,399;    1,985;    0,955
1043,625; 1934,581;    0,258;    0,500
1044,170; 1998,763;    2,439;    1,045
1044,715; 2256,944;    0,167;    0,955
1045,260; 2077,035;   -0,833;   -0,955
1045,805; 2061,944;    0,258;   -0,591
1046,350; 1982,672;    0,530;   -0,409
1046,895; 2032,854;    0,803;    1,591
1047,440; 2014,763;    1,530;    0,409
1047,985; 1895,217;   -1,197;   -0,955
1048,530; 1813,763;    1,348;    1,227
1049,074; 1886,126;    2,803;    0,318
1049,619; 1835,763;   -0,924;    1,955
1050,164; 1693,854;    1,076;    0,227
1050,708; 1759,217;    2,621;    0,045
1051,253; 2150,763;    3,258;   -2,227
1051,797; 1851,763;   -0,197;   -1,318
1052,342; 1793,217;    1,348;    1,045
1052,886; 1816,126;    1,803;   -1,409
1053,430; 1685,581;    2,167;    0,136
1053,975; 1707,581;    0,894;   -0,318
1054,519; 1723,308;    1,803;    3,227
1055,063; 1796,944;    3,621;    1,318
1055,607; 1702,308;    1,348;    0,227
1056,151; 1717,126;    0,530;    1,682
1056,695; 1596,763;   -1,833;   -1,136
1057,239; 1660,308;   -1,197;   -0,682
1057,783; 1687,672;    2,258;   -1,500
1058,327; 1683,217;    3,076;    1,409
1058,871; 1916,490;    3,985;    1,318
1059,415; 1648,126;   -0,561;   -0,045
1059,958; 1910,944;    2,985;    2,591
1060,502; 1630,763;    1,348;   -0,773
1061,046; 1499,308;    1,712;   -0,955
1061,589; 1469,672;    2,803;   -1,136
1062,133; 1385,763;    0,985;    1,864
1062,676; 1361,035;    1,439;    0,864
1063,220; 1373,308;    0,985;    0,500
1063,763; 1410,126;    2,985;    1,136
1064,306; 1487,944;    0,985;    1,864
1064,849; 1390,854;    2,076;    0,591
1065,393; 1382,944;    2,894;   -1,500
1065,936; 1478,217;    2,530;   -0,409
1066,479; 1335,854;    2,621;    1,318
1067,022; 1365,126;    1,894;   -0,227
1067,565; 1294,035;   -1,197;   -1,318
1068,108; 1307,490;    1,258;   -0,591
1068,651; 1274,126;   -2,470;    1,409
1069,194; 1222,399;   -1,106;   -1,682
1069,736; 1243,581;    3,803;    0,955
1070,279; 1198,399;   -1,652;   -0,500
1070,822; 1285,035;    1,530;   -0,318
1071,364; 1409,490;    0,530;    1,318
1071,907; 1211,217;    0,348;    3,227
1072,450; 1088,854;    0,258;   -0,045
1072,992; 1110,490;   -0,561;    3,136
1073,535; 1259,763;    0,167;    2,136
1074,077; 1064,126;    2,985;    2,045
1074,619; 1044,217;    0,985;    0,591
1075,161; 1075,035;   -0,561;    1,500
1075,704; 1276,308;    0,258;    1,227
1076,246; 1057,581;    1,530;    0,682
1076,788;  972,217;   -1,015;    1,773
1077,330; 1036,126;   -2,106;    2,136
1077,872; 1037,217;   -1,924;    0,955
1078,414; 1272,672;    3,712;    0,773
1078,956; 1023,944;    0,167;   -0,227
1079,498; 1280,944;    0,439;    0,318
1080,040;  995,035;    0,985;   -1,318
1080,581;  929,944;    0,621;   -0,318
1081,123;  848,763;   -0,106;   -0,773
1081,665;  902,308;    3,803;   -0,955
1082,206; 1196,399;    3,258;   -0,500
1082,748; 1054,854;    3,258;    2,045
1083,289;  933,217;    0,167;    1,318
1083,831;  866,308;    0,258;    0,227
1084,372;  927,126;    0,894;    0,591
1084,913;  913,035;    3,348;    0,864
1085,455;  866,490;    1,530;   -2,045
1085,996;  856,490;    0,530;    0,136
1086,537;  890,944;    0,985;    0,864
1087,078;  909,399;    0,439;   -2,136
1087,619;  955,854;   -1,652;    0,227
1088,160;  879,581;    1,439;    1,318
1088,701;  854,944;   -0,742;    0,682
1089,242;  815,490;   -0,561;   -2,227
1089,783;  912,399;   -0,561;    1,409
1090,324;  882,035;   -0,833;    0,682
1090,865;  756,217;   -1,924;   -0,409
1091,405;  716,672;   -0,561;    2,227
1091,946;  761,490;   -0,197;   -0,955
1092,487;  681,217;   -1,288;   -1,409
1093,027;  855,581;    1,803;   -1,500
1093,568;  720,035;    2,258;    1,227
1094,108;  812,581;    0,621;    1,773
1094,649;  753,126;   -0,470;    0,136
1095,189;  689,399;    1,167;   -0,682
1095,729;  664,308;    0,712;    0,955
1096,269;  658,581;    1,258;   -0,955
1096,810;  960,035;   -0,197;    0,500
1097,350;  803,399;   -0,561;   -0,773
1097,890;  713,399;    2,985;    1,227
1098,430;  951,308;    4,985;    2,864
1098,970;  835,490;    1,894;    1,682
1099,510;  691,035;   -0,833;   -2,318
1100,050;  633,399;    0,258;   -1,591
1100,589;  613,308;    0,076;   -0,318
1101,129;  730,308;    0,894;   -0,955
1101,669;  868,308;    2,803;    2,136
1102,209;  714,126;    1,530;    2,227
1102,748;  660,399;    3,439;    0,955
1103,288;  660,308;    0,712;   -1,227
1103,827;  671,217;    3,530;   -2,227
1104,367;  569,399;    1,712;   -2,409
1104,906;  553,854;   -1,015;   -1,136
1105,445;  614,581;    0,985;   -1,136
1105,985;  560,944;   -0,652;    1,500
1106,524;  606,217;    1,530;   -0,682
1107,063;  586,035;    1,167;    1,409
1107,602;  553,672;    1,894;   -1,500
1108,141;  485,308;    1,621;    1,500
1108,680;  590,763;    3,985;   -0,591
1109,219;  536,854;    0,167;   -0,500
1109,758;  533,763;    4,167;    0,682
1110,297;  514,217;   -1,106;   -0,682
1110,836;  454,672;    1,439;    0,955
1111,375;  597,581;    0,348;    0,409
1111,913;  614,944;    0,985;    0,773
1112,452;  565,763;    0,894;    0,136
1112,991;  450,490;    1,076;    1,955
1113,529;  420,399;    0,167;   -0,045
1114,068;  488,035;    0,439;    2,955
1114,606;  404,854;   -0,561;   -0,955
1115,144;  552,399;    1,530;    1,045
1115,683;  494,490;    1,985;    0,318
1116,221;  538,490;    2,076;   -0,864
1116,759;  448,399;    1,621;   -0,864
1117,297;  633,399;    1,621;    1,864
1117,836;  452,490;    1,985;   -1,227
1118,374;  460,308;    0,258;   -0,682
1118,912;  417,217;    0,439;    2,682
1119,450;  403,217;    0,985;    0,864
1119,988;  454,399;    3,348;    2,136
1120,525;  888,308;    7,258;    3,318
1121,063;  595,763;    0,530;    1,864
1121,601;  426,854;    1,076;   -1,227
1122,139;  386,490;    1,076;   -2,045
1122,676;  570,581;   -1,652;    2,773
1123,214;  516,308;    0,712;    4,409
1123,751;  344,035;    0,621;    2,227
1124,289;  448,399;    0,894;   -0,409
1124,826;  336,035;   -0,379;    0,227
1125,364;  266,399;    0,712;   -0,955
1125,901;  444,126;    6,258;    1,227
1126,438;  526,672;    3,530;    0,955
1126,975;  288,672;    2,985;   -0,773
1127,513;  355,126;    2,621;    2,136
1128,050;  283,854;   -0,561;   -0,682
1128,587;  365,672;    1,348;   -0,227
1129,124;  399,490;   -0,015;    1,318
1129,661;  276,308;   -1,924;    0,227
1130,198;  435,672;    2,439;    0,773
1130,734;  385,399;   -0,379;    1,409
1131,271;  263,399;   -1,197;    0,864
1131,808;  422,126;    1,621;    3,045
1132,345;  307,672;    4,530;    0,318
1132,881;  187,217;   -0,561;   -1,864
1133,418;  313,581;    0,348;   -1,136
1133,954;  253,944;    0,712;   -2,682
1134,491;  334,854;    1,712;   -0,773
1135,027;  244,126;    2,167;    0,864
1135,564;  314,399;    1,439;    2,955
1136,100;  300,490;   -0,742;    2,136
1136,636;  203,035;   -1,015;   -1,045
1137,172;  293,126;    0,894;   -1,045
1137,708;  223,581;   -1,561;   -1,045
1138,245;  221,763;    0,803;   -1,227
1138,781;  177,763;    1,803;   -3,318
1139,317;  242,399;    1,894;   -1,409
1139,852;  229,763;    3,076;    0,136
1140,388;  323,944;    2,076;   -0,409
1140,924;  236,672;    1,076;   -2,227
1141,460;  177,217;   -0,288;    0,136
1141,996;  121,217;   -0,652;    2,682
1142,531;  166,672;    1,076;    3,318
1143,067;  355,672;    1,167;    1,045
1143,602;  409,035;    3,439;   -0,318
1144,138;  266,763;    0,803;    1,045
1144,673;  149,944;    1,621;    1,409
1145,209;  209,490;    2,894;   -0,318
1145,744;  136,308;    0,803;    0,864
1146,279;  258,854;    1,530;   -0,136
1146,815;  182,399;    1,530;   -2,682
1147,350;  219,308;   -0,924;    0,045
1147,885;  143,944;   -1,924;   -1,318
1148,420;  142,763;    2,439;    0,773
1148,955;  125,035;   -1,470;    1,864
1149,490;  150,763;   -1,106;   -1,591
1150,025;  135,490;   -1,106;   -1,773
1150,560;  234,490;   -0,288;   -0,955
1151,094;  197,126;    0,258;   -0,591
1151,629;  206,763;   -3,742;    0,864
1152,164;  144,763;   -1,288;    1,318
1152,698;  114,763;    1,258;   -0,136
1153,233;   81,126;   -1,379;   -0,682
1153,767;  120,581;   -0,288;   -2,318
1154,302;  151,217;   -0,379;    1,773
1154,836;  155,126;    0,803;   -2,136
1155,371;  208,308;    2,258;    3,682
1155,905;  164,399;    1,985;    1,682
1156,439;  135,399;    0,530;   -0,500
1156,973;  162,672;    0,439;    0,318
1157,507;  114,126;   -1,742;    0,682
1158,042;  133,399;   -0,652;    1,045
1158,576;  169,944;   -0,561;    1,773
1159,110;  163,672;    0,076;    2,409
1159,643;  139,126;   -2,470;   -0,045
1160,177;   86,944;   -2,015;    1,500

