
Integration time [ms]:   0,040
Averaging Nr. [scans]: 11
Smoothing Nr. [pixels]: 0
Data measured with spectrometer [name]: 7318044SP
Wave   ;Sample   ;Dark     ;Reference
[nm]   ;[counts] ;[counts] ;[counts] 

186,757;   30,877;   38,161;    1,318
187,357;   55,467;   26,706;    0,955
187,958;   36,632;   17,252;   -1,591
188,558;   79,556;   12,979;   -1,227
189,159;   48,040;   10,070;   -4,500
189,759;   22,765;    5,797;   -3,591
190,360;   18,098;    6,797;   -2,136
190,960;   46,678;    5,706;   -4,136
191,560;   62,575;    2,614;   -6,591
192,161;  274,694;    5,885;   -3,500
192,761;  131,448;    5,520;   -3,227
193,361;   96,143;    3,065;   -3,773
193,962;  146,495;    1,612;   -2,682
194,562;   63,150;   -0,114;   -3,955
195,162;   90,851;   -0,567;   -2,227
195,762;  246,364;    2,433;   -0,045
196,362;  199,021;    1,706;   -2,500
196,963;   75,052;    1,706;   -0,864
197,563;  144,353;    1,252;   -0,955
198,163;   81,097;   -0,111;   -0,682
198,763;  101,386;   -0,020;   -0,500
199,363;  202,936;    3,616;   -0,500
199,963;  165,083;    2,162;    0,409
200,563;  140,379;    6,344;   -1,409
201,163;  122,158;    5,435;   -0,227
201,763;  205,717;    1,435;    0,318
202,363;  148,778;    0,980;    1,500
202,963;  237,762;    1,526;    1,045
203,563;  346,925;    0,344;    0,500
204,162;  201,204;    1,889;   -1,864
204,762;  191,394;    2,071;    0,591
205,362;  156,636;    0,708;    1,955
205,962;  250,361;    3,435;    1,955
206,562;  245,666;    1,889;    2,318
207,161;  208,503;    1,708;    0,318
207,761;  369,326;    4,435;    2,409
208,361;  248,981;    1,889;    1,409
208,960;  324,909;    2,889;    1,500
209,560;  392,513;    0,435;    1,591
210,160;  373,533;    5,071;    1,864
210,759;  341,948;    0,708;    1,227
211,359;  343,743;   -0,474;    1,045
211,958;  596,289;    3,526;    2,045
212,558;  661,960;    0,799;    1,864
213,157;  512,778;   -0,929;    1,500
213,757;  919,890;    5,617;   -0,227
214,356;  633,795;    1,708;   -0,409
214,956;  945,198;    3,526;    0,409
215,555;  584,240;    0,617;    2,136
216,154;  525,445;   -0,292;   -0,591
216,754;  535,214;    1,253;    0,773
217,353;  649,995;   -0,383;   -1,045
217,952;  503,867;    2,072;    0,318
218,552;  732,119;    0,254;   -0,773
219,151;  622,254;   -1,110;    0,955
219,750;  615,175;    0,890;   -0,227
220,349;  691,082;   -2,292;    1,045
220,948;  806,243;    1,163;    1,136
221,548;  770,336;    0,617;    1,227
222,147;  872,828;   -1,292;   -0,409
222,746; 1153,487;    1,254;   -0,955
223,345; 1016,019;   -1,019;    0,500
223,944; 1017,667;    1,163;    0,773
224,543; 1143,667;    4,072;   -1,409
225,142; 1271,758;    1,345;    0,136
225,741; 1175,406;    1,163;    1,045
226,340; 1173,597;    1,254;   -0,955
226,939; 1578,779;    2,708;   -0,136
227,538; 1475,219;    1,163;   -0,773
228,137; 1649,468;    0,435;    0,864
228,735; 1708,035;    0,435;    1,227
229,334; 1496,895;   -0,474;   -0,227
229,933; 1863,900;    0,799;    0,591
230,532; 1968,060;   -1,201;   -0,409
231,131; 2024,252;    1,253;    0,318
231,729; 2055,095;    1,163;   -2,318
232,328; 2119,226;    0,435;   -1,500
232,927; 2169,445;    4,526;   -0,500
233,525; 2258,315;    0,981;    0,045
234,124; 2445,946;    1,890;   -1,591
234,723; 2430,324;    1,617;   -1,045
235,321; 2559,147;    1,163;    0,136
235,920; 2740,438;    2,526;   -1,227
236,518; 2988,079;    1,072;    0,318
237,117; 3078,291;    2,890;   -0,227
237,715; 3217,214;    1,163;   -0,500
238,314; 3291,270;    1,708;   -2,318
238,912; 3410,475;    0,526;   -1,409
239,510; 3399,923;    1,162;   -1,227
240,109; 3560,272;   -0,474;    3,773
240,707; 3595,144;   -0,474;    1,227
241,305; 3879,566;   -0,383;    0,136
241,904; 4074,112;   -0,292;   -2,045
242,502; 4066,412;    3,253;   -0,227
243,100; 4017,438;    3,344;   -0,955
243,698; 4252,997;    2,799;    1,682
244,297; 4384,510;   -0,656;    0,682
244,895; 4264,916;   -0,474;   -2,318
245,493; 4561,956;    2,981;   -0,591
246,091; 4580,289;    5,163;   -1,318
246,689; 4538,674;    2,163;    0,591
247,287; 4694,308;   -0,019;   -1,136
247,885; 4934,161;   -1,019;    1,227
248,483; 5037,396;   -0,201;   -0,500
249,081; 5148,376;    0,981;    1,591
249,679; 5266,119;   -1,019;    1,682
250,277; 5504,490;   -2,292;    0,864
250,875; 5479,963;    0,617;   -1,045
251,473; 5513,657;   -0,019;    0,500
252,071; 5695,396;   -0,383;    1,045
252,669; 5829,940;   -1,565;    0,318
253,267; 6050,772;    1,618;    0,773
253,864; 5994,671;    0,617;    0,682
254,462; 5899,951;    1,526;    1,591
255,060; 5865,238;    0,072;    1,318
255,658; 6150,394;   -3,292;   -0,136
256,255; 6508,601;   -0,201;   -2,045
256,853; 6403,525;    2,345;    1,409
257,451; 6409,725;    1,981;    1,864
258,048; 6686,557;    2,072;    1,864
258,646; 6399,063;    0,436;   -1,045
259,243; 6593,706;    2,981;    2,227
259,841; 6654,350;    1,799;    0,318
260,438; 6544,935;    0,254;    0,864
261,036; 7170,149;    0,617;    1,409
261,633; 7080,988;    1,526;    2,227
262,231; 6861,480;   -0,110;   -0,045
262,828; 6963,660;   -0,383;    1,136
263,425; 6998,145;   -1,928;   -0,591
264,023; 7243,238;    1,436;    0,045
264,620; 6833,832;    1,526;   -0,318
265,217; 7139,919;    2,890;    3,136
265,815; 7253,781;    2,527;    2,136
266,412; 7057,331;    0,072;    0,136
267,009; 7081,201;    0,526;    0,773
267,606; 7021,699;    0,345;   -0,955
268,203; 6993,452;   -0,383;   -0,591
268,801; 7262,438;   -0,474;    0,591
269,398; 7524,212;   -0,564;    2,500
269,995; 7493,841;    0,890;    1,591
270,592; 7259,918;    0,799;   -0,500
271,189; 7471,236;    1,981;    0,409
271,786; 7585,329;    2,072;    1,227
272,383; 7432,653;   -0,383;    0,227
272,980; 7609,044;    1,617;    0,318
273,577; 8031,715;    2,162;    1,227
274,174; 7602,109;    1,435;    2,591
274,771; 7558,940;    1,890;   -0,773
275,367; 7737,646;    3,253;    1,409
275,964; 7691,713;   -0,565;   -0,500
276,561; 7797,240;   -2,474;   -1,045
277,158; 7957,937;    1,799;   -1,773
277,755; 8092,557;   -0,110;    0,409
278,351; 7542,448;    0,436;   -1,500
278,948; 7826,646;   -0,201;    0,045
279,545; 7836,830;    0,527;    2,318
280,141; 8436,445;    1,254;   -2,045
280,738; 8293,345;    2,435;   -0,136
281,334; 8473,576;   -0,383;    0,591
281,931; 7933,952;    2,890;   -1,318
282,528; 8038,534;    4,072;   -0,500
283,124; 8696,224;    3,345;   -0,500
283,721; 8599,035;    0,709;    1,409
284,317; 8415,523;    0,163;    2,500
284,913; 8946,607;   -0,110;    0,591
285,510; 9150,879;    2,890;   -0,318
286,106; 9191,492;    2,345;   -0,955
286,703; 8771,504;    0,072;    1,955
287,299; 8987,895;    1,254;   -0,591
287,895; 9178,674;    0,890;   -1,045
288,491; 9723,394;    0,163;    2,136
289,088; 9417,455;    0,163;    2,409
289,684; 9501,576;    2,890;    1,500
290,280; 9498,235;    1,890;    0,682
290,876; 9614,648;    0,163;    5,500
291,472; 9497,415;    2,163;    2,227
292,068; 9595,541;    1,254;    0,227
292,665; 9347,532;   -0,564;    0,773
293,261; 9011,466;   -1,292;    2,136
293,857; 9368,277;    4,072;    2,136
294,453; 9307,284;   -0,928;    0,955
295,049; 9199,939;    0,253;    1,955
295,644; 9257,601;   -1,292;    0,136
296,240; 9159,934;    0,162;   -0,136
296,836; 9219,759;   -0,747;    0,318
297,432; 9468,887;    2,980;   -0,500
298,028; 9472,843;    0,435;    0,773
298,624; 9838,242;    0,889;    1,864
299,220;10073,135;    0,435;    0,591
299,815; 9732,384;    0,526;   -0,409
300,411; 9548,121;    0,435;    1,773
301,007; 9556,906;    1,889;    0,227
301,602; 9590,967;    2,071;   -2,318
302,198; 9747,025;    1,435;   -0,773
302,794;10086,720;    1,526;   -0,500
303,389;10192,748;    1,071;    1,045
303,985;10275,025;    1,253;    1,409
304,580;10223,650;    0,889;    1,591
305,176;10197,916;    0,344;    0,136
305,771;10119,477;   -0,929;   -1,227
306,367; 9998,944;    3,071;    0,136
306,962;10318,058;    2,889;    1,500
307,558;10053,466;    2,435;    0,136
308,153;10007,985;   -0,383;   -1,136
308,748;10201,815;    0,162;    1,682
309,344;10166,331;    0,253;   -1,318
309,939;10290,270;    2,071;   -1,318
310,534;10520,846;   -2,020;   -1,682
311,130;10437,023;   -0,656;   -2,500
311,725;10181,400;    0,526;   -0,500
312,320;10522,083;    1,253;    0,045
312,915;10367,007;    2,890;   -1,045
313,510;10431,039;    0,526;   -0,500
314,105;10920,186;   -3,565;    1,409
314,700;10348,018;   -1,656;   -1,045
315,295; 9983,650;   -0,020;    0,045
315,890; 9572,736;   -0,292;    0,864
316,485; 9948,359;    0,253;   -0,318
317,080;10026,652;   -0,929;    1,591
317,675;10529,426;    3,071;   -0,682
318,270; 9989,374;    6,889;    3,318
318,865; 9974,305;    2,435;    3,045
319,460; 9821,398;   -1,565;    0,591
320,055;10076,379;   -2,565;   -1,227
320,650; 9737,824;   -1,838;   -0,591
321,244; 9790,092;    0,889;   -1,409
321,839;10646,410;    0,980;   -0,227
322,434;10557,356;   -0,111;   -1,591
323,029;10242,929;   -0,474;    1,591
323,623;10090,633;    0,798;    0,773
324,218; 9885,531;    2,707;    1,409
324,812; 9796,335;    0,889;    1,591
325,407; 9648,307;   -0,929;    2,045
326,002; 9588,060;    0,526;   -0,409
326,596; 9893,808;   -0,656;    1,318
327,191;10062,165;   -0,383;   -1,045
327,785; 9691,081;   -0,747;   -0,227
328,379; 9923,461;   -0,383;    0,136
328,974; 9702,757;    1,798;   -3,955
329,568; 9917,065;    2,889;   -2,409
330,163; 9777,183;    2,435;    1,045
330,757;10119,272;    0,253;    1,591
331,351; 9492,072;   -0,292;    0,682
331,945; 9792,741;   -0,383;    1,409
332,540; 9410,233;    1,617;   -0,591
333,134; 9569,116;    3,344;    0,773
333,728; 9767,209;    2,799;    0,318
334,322;10073,890;    0,889;   -0,864
334,916; 9405,226;    0,344;    0,955
335,510; 9724,955;   -0,111;   -0,136
336,105; 9960,347;   -0,929;    1,591
336,699; 9653,897;   -1,292;    0,591
337,293; 9579,881;    1,071;    0,318
337,887; 9691,561;    0,071;    1,955
338,481; 9775,913;    2,980;    0,591
339,074; 9930,701;    2,071;    2,682
339,668; 9776,692;   -0,110;    1,227
340,262;10025,209;    7,708;    3,227
340,856; 9528,629;    1,708;   -0,682
341,450; 8939,326;    0,708;    1,864
342,044; 9754,699;    1,799;    0,136
342,637; 9528,363;    1,162;   -2,136
343,231; 9378,953;   -1,474;    0,682
343,825; 9373,282;   -0,747;   -0,591
344,419; 9357,524;   -0,474;    0,500
345,012; 9187,100;    2,889;    4,045
345,606; 9195,657;   -0,656;    1,591
346,199; 9044,498;   -0,111;   -0,227
346,793; 8634,034;    2,525;    2,045
347,386; 8802,878;    0,889;   -1,136
347,980; 8792,309;   -0,838;   -0,045
348,573; 8628,167;   -1,748;    0,409
349,167; 8369,975;    6,161;    4,773
349,760; 8677,775;    2,252;    2,682
350,354; 8643,148;    1,616;    1,136
350,947; 8408,276;    2,798;    1,682
351,540; 8121,432;    0,616;   -1,409
352,134; 8049,616;   -1,111;    1,136
352,727; 8147,959;   -0,657;    1,136
353,320; 7986,353;    2,343;    0,591
353,913; 7843,796;   -1,929;    1,864
354,507; 8000,600;    0,434;   -1,227
355,100; 8016,362;    0,071;    0,864
355,693; 7361,775;    4,798;    2,409
356,286; 7396,001;    0,980;    2,773
356,879; 7695,188;   -0,475;    1,227
357,472; 7320,421;    0,980;    1,500
358,065; 7548,097;    3,161;    2,500
358,658; 7492,209;    0,798;    2,318
359,251; 7172,530;    0,252;   -0,591
359,844; 6709,159;    0,343;   -1,136
360,437; 6899,843;    0,252;    0,045
361,030; 7133,689;    0,525;   -0,682
361,623; 6763,824;    0,434;    0,318
362,215; 6823,365;    0,979;    2,045
362,808; 6652,239;   -2,293;   -1,682
363,401; 6832,514;    0,798;    0,136
363,994; 6623,315;    3,252;   -1,500
364,586; 6554,310;    0,888;   -1,500
365,179; 6734,075;   -0,203;   -1,136
365,772; 6234,535;   -0,930;    2,045
366,364; 6499,525;    1,524;   -3,227
366,957; 6704,490;    1,342;   -0,045
367,549; 6717,401;   -0,203;   -0,864
368,142; 6427,016;    0,978;   -1,500
368,734; 6594,361;    2,523;   -2,136
369,327; 6542,395;    2,341;   -0,500
369,919; 6464,155;   -1,659;    0,409
370,512; 6300,003;   -1,023;   -0,500
371,104; 6087,692;    2,704;    1,591
371,696; 6229,764;    1,703;   -0,955
372,289; 6325,425;    0,157;    1,136
372,881; 6449,408;    1,156;    1,318
373,473; 6348,177;    4,064;    1,136
374,066; 6159,007;    1,336;    0,500
374,658; 6032,516;    0,879;    1,136
375,250; 6355,612;   -1,668;   -1,409
375,842; 6212,771;   -0,124;   -0,045
376,434; 6092,816;   -2,762;   -0,409
377,026; 6624,394;   -1,855;   -2,500
377,618; 6502,947;    0,779;   -0,682
378,210; 6376,164;    3,141;   -1,955
378,802; 6219,384;    3,412;   -0,591
379,394; 6200,427;    3,411;    0,682
379,986; 6692,186;    1,138;   -0,955
380,578; 6792,841;    1,410;    0,773
381,170; 6244,012;    0,320;    0,045
381,762; 6183,943;   -0,224;    1,409
382,354; 6329,763;   -0,223;   -1,318
382,945; 6445,452;    0,870;    0,318
383,537; 6563,517;    1,144;   -1,955
384,129; 6599,301;    0,963;   -1,136
384,721; 6742,810;    0,418;    0,955
385,312; 6651,197;   -1,399;   -0,955
385,904; 6750,894;   -0,945;    1,591
386,496; 6169,243;    0,691;    1,045
387,087; 6313,613;    0,418;    2,500
387,679; 6350,585;   -0,401;    0,045
388,270; 6434,340;   -2,401;    2,045
388,862; 6572,483;   -0,401;   -0,318
389,453; 6451,511;    1,054;    1,045
390,045; 6701,760;    3,236;   -2,682
390,636; 6642,485;    0,144;   -0,591
391,227; 6478,499;    2,054;   -0,045
391,819; 6579,142;    0,781;    0,773
392,410; 6634,070;    0,600;    0,045
393,001; 6611,150;    1,600;   -1,591
393,593; 6844,586;    0,600;   -0,045
394,184; 6706,199;    0,873;   -0,409
394,775; 6609,111;    1,146;    2,136
395,366; 6793,206;    1,782;    0,773
395,957; 6775,597;   -2,400;    0,136
396,548; 7068,052;    1,054;    2,682
397,139; 7351,618;    2,236;    0,591
397,730; 7118,679;    0,873;    0,955
398,321; 7147,267;    0,509;    0,955
398,912; 7139,759;   -0,764;    0,136
399,503; 7233,097;   -1,945;   -1,409
400,094; 6742,784;   -1,582;    1,682
400,685; 6594,737;    3,600;    0,045
401,276; 6645,087;   -0,400;   -0,955
401,867; 6940,598;   -1,127;    0,773
402,458; 7037,288;    1,509;   -2,318
403,048; 7011,996;    0,146;    0,591
403,639; 6671,101;    1,509;    0,864
404,230; 6911,614;    0,691;    0,318
404,821; 6846,733;   -0,127;    0,045
405,411; 6962,742;   -0,763;   -2,591
406,002; 6570,887;    3,237;   -1,136
406,592; 6467,453;    2,691;    0,045
407,183; 6717,239;    0,328;   -1,500
407,774; 6648,398;    1,419;   -0,136
408,364; 6906,654;    2,600;    0,409
408,954; 6567,946;   -0,036;    1,227
409,545; 6604,917;    1,873;    1,045
410,135; 6174,421;   -1,581;    0,500
410,726; 6314,305;    0,783;    0,318
411,316; 6657,400;    2,237;    0,773
411,906; 6370,962;    0,146;   -0,409
412,497; 5921,852;   -0,490;   -0,045
413,087; 6473,584;    0,783;   -0,227
413,677; 6798,965;   -2,490;    3,864
414,267; 6661,934;   -1,035;    1,409
414,857; 6647,900;    0,419;    4,227
415,448; 6889,957;   -0,763;    0,500
416,038; 6618,330;   -2,945;   -0,591
416,628; 6582,028;    0,965;    0,409
417,218; 6140,529;   -1,762;    3,318
417,808; 6358,767;    0,965;   -0,409
418,398; 6740,224;   -1,035;    2,682
418,988; 6730,459;   -2,217;    0,591
419,578; 6900,816;    3,601;    1,409
420,168; 7225,557;    0,692;   -0,955
420,757; 6840,072;    0,964;   -1,500
421,347; 6536,271;    1,601;   -0,227
421,937; 6682,448;    3,329;    1,409
422,527; 6682,448;    2,602;   -0,773
423,116; 6525,632;    2,692;   -0,045
423,706; 6792,790;    2,965;    0,318
424,296; 6734,469;    1,601;    0,682
424,885; 7099,559;    1,510;   -3,045
425,475; 7355,972;    1,147;   -2,864
426,065; 7273,856;   -1,489;   -0,318
426,654; 6927,497;    0,329;   -0,318
427,244; 7020,093;    1,147;    1,409
427,833; 6517,695;    1,056;   -0,500
428,423; 6931,613;    0,147;    1,136
429,012; 7609,229;    2,420;   -1,136
429,601; 7164,595;    2,057;    0,136
430,191; 7360,073;    2,511;    4,318
430,780; 7007,912;   -1,671;   -0,409
431,369; 6947,756;    1,329;   -0,045
431,959; 7494,311;    1,693;    0,500
432,548; 7269,635;   -1,398;   -0,045
433,137; 7383,838;    0,329;   -1,318
433,726; 7806,845;    0,148;    0,500
434,315; 7263,905;    0,148;    2,409
434,905; 7362,362;    0,693;    1,409
435,494; 7302,805;    3,148;    0,955
436,083; 7679,989;    1,420;   -0,955
436,672; 7551,919;    1,148;    0,500
437,261; 7187,071;    0,512;   -1,955
437,850; 7259,348;   -1,125;    0,682
438,439; 7241,095;    2,239;    1,955
439,027; 7111,472;    3,421;    1,773
439,616; 7378,440;    2,239;    1,227
440,205; 7247,724;    0,057;   -2,136
440,794; 7257,699;   -0,306;   -0,045
441,383; 7490,424;    1,603;   -0,591
441,971; 7358,962;   -0,306;    0,591
442,560; 7191,209;    0,603;   -1,773
443,149; 6926,864;    3,060;   -1,318
443,737; 7074,639;    0,968;   -2,318
444,326; 7289,874;    0,331;    0,318
444,915; 7350,729;   -1,851;    0,864
445,503; 7689,324;    0,058;   -0,318
446,092; 7026,428;    7,876;    2,136
446,680; 7495,478;    1,876;    0,318
447,269; 7619,447;   -1,487;   -0,318
447,857; 7432,482;    2,240;   -1,773
448,445; 7520,723;    2,149;    1,318
449,034; 7698,235;    0,876;   -1,136
449,622; 7789,033;    1,240;    3,500
450,210; 7120,585;    3,149;    2,227
450,799; 7616,711;    2,604;   -0,591
451,387; 7539,658;    1,786;   -0,591
451,975; 7238,434;   -1,305;    0,864
452,563; 7334,879;    0,422;    2,318
453,151; 7347,089;   -1,032;   -1,227
453,739; 7250,024;   -1,577;    0,136
454,328; 7123,637;    0,604;   -2,136
454,916; 6876,870;    1,150;   -0,136
455,504; 7050,754;    3,513;    1,227
456,092; 7200,959;    2,150;   -1,591
456,679; 7161,872;    0,604;    0,682
457,267; 7163,544;    3,604;    1,045
457,855; 7251,723;    3,241;    1,409
458,443; 6991,311;   -0,304;    1,682
459,031; 7148,898;    1,332;    2,409
459,619; 7549,511;   -3,577;    2,864
460,206; 7613,255;   -0,759;    2,045
460,794; 7686,985;   -0,668;   -0,227
461,382; 7853,743;    0,878;   -0,864
461,970; 7480,787;    0,605;    1,864
462,557; 7523,579;    0,878;   -0,682
463,145; 7674,968;   -0,304;   -1,682
463,732; 7801,025;    2,514;   -1,045
464,320; 7687,181;    1,514;   -3,045
464,907; 7429,256;    0,423;   -0,773
465,495; 7313,317;    2,696;   -1,227
466,082; 7443,722;    2,060;   -0,045
466,670; 7349,274;    2,605;    1,227
467,257; 7722,337;    0,060;    2,045
467,844; 7844,536;    1,514;    0,045
468,432; 7860,566;   -0,031;    3,500
469,019; 7450,955;    1,606;   -1,773
469,606; 7850,722;    0,969;    3,682
470,193; 7709,217;    2,151;    0,227
470,780; 7344,165;    0,333;    0,864
471,368; 7653,538;   -1,212;   -0,773
471,955; 7445,091;    1,060;   -0,682
472,542; 7113,478;   -0,303;   -1,136
473,129; 7310,851;   -0,485;    0,136
473,716; 7074,156;    0,060;    0,591
474,303; 7215,841;    1,333;   -0,864
474,890; 7465,243;    2,333;   -0,500
475,477; 7478,219;   -0,576;    0,409
476,064; 7373,157;    0,697;   -1,591
476,650; 7277,156;    2,152;    0,318
477,237; 7151,793;    1,879;    0,955
477,824; 7308,872;    3,879;    0,864
478,411; 7282,138;    0,606;   -0,318
478,997; 7427,019;    0,606;   -0,773
479,584; 7445,639;   -0,666;   -0,409
480,171; 8034,982;    1,243;   -0,773
480,757; 7748,530;   -0,848;    0,773
481,344; 7985,189;    0,334;    0,409
481,931; 7496,377;   -0,393;    1,045
482,517; 8323,362;    0,425;    0,318
483,104; 8739,980;    1,334;    2,864
483,690; 8934,099;    0,243;    0,045
484,276; 9194,297;    0,698;    0,227
484,863; 8982,660;    2,152;    1,136
485,449; 9452,647;    0,152;    0,318
486,035; 9410,586;   -0,666;   -0,136
486,622; 9809,845;   -2,393;    0,045
487,208; 9732,437;    1,334;    1,500
487,794; 9613,062;    0,971;    0,318
488,380; 9713,803;    0,698;   -1,409
488,967; 9758,167;   -1,120;   -0,409
489,553; 9844,162;   -1,029;   -1,409
490,139;10031,279;    0,971;    0,773
490,725; 9588,719;    0,789;   -0,227
491,311; 9288,346;    1,516;    3,045
491,897; 8747,465;   -0,665;    1,500
492,483; 8652,594;    0,426;    1,227
493,069; 8579,631;    5,426;    0,864
493,655; 8542,074;    1,789;    0,682
494,241; 8467,428;    1,517;   -0,955
494,826; 8783,274;    0,335;   -1,045
495,412; 8326,843;    0,335;   -0,682
495,998; 8525,683;    0,971;   -0,318
496,584; 8611,342;    2,244;    1,045
497,169; 8604,997;    2,335;   -0,682
497,755; 8633,310;    1,244;    1,227
498,341; 9150,018;    2,153;    0,318
498,926; 8761,750;    2,881;    1,955
499,512; 8930,753;   -0,028;    2,955
500,097; 9014,739;   -0,574;   -0,318
500,683; 9024,809;   -0,028;    2,136
501,268; 9411,881;    1,881;   -0,955
501,854; 9175,333;   -0,119;    1,227
502,439; 9130,201;   -0,573;   -1,773
503,024; 9309,597;    1,608;    0,500
503,610; 9399,592;    1,335;   -0,682
504,195; 9449,839;    1,245;    1,955
504,780; 9595,979;    2,335;    1,227
505,366; 9442,014;    4,063;    2,864
505,951; 9218,926;   -1,119;    1,045
506,536; 9291,439;    1,427;   -3,682
507,121; 9277,986;    1,699;   -0,318
507,706; 9789,287;   -0,392;    1,045
508,291;10142,632;   -2,937;    1,136
508,876; 9630,684;   -0,482;    2,591
509,461; 9171,579;    1,427;   -0,773
510,046; 9559,686;   -0,391;    0,318
510,631; 9806,043;   -0,119;   -0,773
511,216; 9504,635;   -0,664;   -0,500
511,801; 9890,625;   -0,755;    2,591
512,386;10124,851;    0,972;    0,500
512,971;10094,355;    0,427;    0,955
513,555; 9697,276;    1,154;   -1,500
514,140;10422,698;    1,336;   -3,136
514,725;10404,185;    1,791;   -1,136
515,309;10538,402;    1,064;    0,318
515,894;10084,490;   -0,300;   -2,227
516,479;10491,099;    1,973;   -0,955
517,063;10310,560;    0,882;    1,227
517,648;10446,113;    0,155;   -1,136
518,232;10103,927;   -1,300;   -1,409
518,817;10409,952;    1,337;    1,682
519,401;10619,055;    0,700;    0,591
519,985;10176,314;    2,700;    1,136
520,570;10069,596;   -0,118;   -1,955
521,154;10320,915;    0,064;    0,591
521,738;10503,419;    1,064;    2,409
522,323;11021,859;   -0,390;    1,682
522,907;10745,640;    2,428;   -0,136
523,491;10512,032;    1,155;    0,955
524,075;10499,694;    0,428;    0,591
524,659;10564,619;    0,973;    0,591
525,243;10099,377;    0,883;    0,409
525,827;10318,013;    0,883;   -0,045
526,411;11037,528;    1,155;   -0,136
526,995;11237,386;    0,337;    1,409
527,579;10865,974;    1,974;   -1,045
528,163;11159,389;    0,428;   -1,500
528,747;11103,676;    1,065;   -0,773
529,331;11372,349;    0,883;   -1,409
529,915;11508,825;    2,338;    0,955
530,499;11434,802;    0,247;    1,227
531,082;11214,016;    1,065;    1,591
531,666;10702,322;    0,520;    0,773
532,250;11273,338;    0,428;    2,682
532,833;11551,676;    0,610;    2,773
533,417;11447,930;    1,247;    0,864
534,001;11381,555;    0,429;   -0,318
534,584;12049,592;    1,974;    0,500
535,168;11876,362;    3,247;    1,409
535,751;11937,597;    4,520;    0,045
536,334;11411,135;    4,520;   -0,409
536,918;11935,767;    1,974;    1,591
537,501;11989,928;    1,520;    1,318
538,085;12000,054;    1,702;    1,045
538,668;12131,716;    0,883;    2,409
539,251;12409,105;    3,156;    3,773
539,834;12432,553;    0,156;    0,773
540,418;12356,807;    3,247;    4,318
541,001;12427,770;    2,702;    1,773
541,584;12375,761;    1,429;    2,227
542,167;12100,292;    0,702;    2,955
542,750;12243,854;    0,793;   -0,773
543,333;11830,229;    1,429;    2,136
543,916;12553,259;   -0,298;    2,500
544,499;13056,663;    2,520;    0,227
545,082;13021,304;    0,248;    3,591
545,665;13148,949;   -0,207;    1,500
546,248;13439,229;    0,520;   -0,318
546,830;13158,311;   -1,752;    1,955
547,413;13486,078;    0,157;   -0,773
547,996;13985,873;    0,157;    0,500
548,579;13784,584;   -0,843;    0,955
549,161;13583,134;    0,884;    2,682
549,744;13377,936;    0,612;    0,409
550,326;13833,712;    0,885;   -1,136
550,909;13595,941;    2,339;    0,591
551,492;13983,020;    0,521;    0,227
552,074;13759,433;   -0,024;   -1,318
552,657;14268,025;    2,430;    0,045
553,239;14096,193;   -3,024;   -0,773
553,821;14033,430;   -1,570;    1,045
554,404;13534,750;   -0,024;    1,136
554,986;13885,044;    2,248;    1,045
555,568;14398,121;    0,430;   -0,955
556,151;13714,510;    4,067;   -0,227
556,733;13880,421;   -1,388;   -0,864
557,315;14297,659;    4,703;    0,500
557,897;14067,902;    0,521;   -0,500
558,479;14203,156;    1,703;    1,318
559,061;14298,527;    1,067;   -0,864
559,643;14573,615;   -0,297;    0,045
560,225;14879,762;   -0,388;    2,864
560,807;14886,979;    0,340;    0,318
561,389;14444,011;   -1,206;    2,318
561,971;15081,942;   -0,660;    2,136
562,553;14958,165;    0,613;    1,591
563,135;15027,252;    1,249;    1,136
563,717;14619,613;    3,158;    1,136
564,298;15235,608;    3,976;   -0,045
564,880;14983,320;    0,340;   -1,409
565,462;15096,501;    1,977;    1,318
566,043;16106,035;   -0,933;    2,318
566,625;15680,420;    4,067;    1,227
567,207;15500,224;    0,704;    1,682
567,788;16450,574;   -0,114;    1,500
568,370;17165,481;   -1,841;   -0,500
568,951;16934,404;   -0,569;    0,227
569,533;17683,369;    0,977;   -0,500
570,114;18078,960;   -0,296;    0,682
570,695;18432,870;   -0,478;   -1,318
571,277;18790,618;   -0,205;   -1,682
571,858;19409,306;    2,704;   -1,136
572,439;20149,828;    0,795;   -1,045
573,021;20250,831;    0,432;   -2,773
573,602;20655,740;    1,795;    0,318
574,183;21405,625;   -0,114;    2,227
574,764;21451,574;    2,068;    0,409
575,345;21879,162;    0,250;   -0,136
575,926;22347,595;    2,704;    0,136
576,507;22338,761;    2,704;   -0,227
577,088;23332,465;    1,704;    1,682
577,669;23271,406;    1,704;    1,955
578,250;23883,080;   -0,750;   -1,045
578,831;24394,616;   -0,841;   -2,227
579,412;24604,068;   -1,205;    0,955
579,993;25487,346;    1,432;    0,227
580,573;25749,530;   -0,023;   -0,955
581,154;24754,591;    1,613;   -0,591
581,735;25551,586;    0,341;    0,773
582,315;25040,313;    0,523;    2,136
582,896;25344,029;   -1,750;    1,227
583,477;24846,525;    0,614;    1,227
584,057;25030,868;    1,159;    0,955
584,638;25276,437;   -2,750;    2,318
585,218;25269,001;    2,886;    2,682
585,799;25447,283;    1,977;   -0,227
586,379;25472,101;    1,250;    1,591
586,959;24392,854;    2,613;    0,318
587,540;23872,518;    0,432;    2,227
588,120;23449,955;   -1,113;   -0,045
588,700;22639,642;    2,977;    2,136
589,281;22938,574;    1,250;   -0,955
589,861;22856,290;   -0,296;   -1,682
590,441;22686,351;   -1,477;   -2,682
591,021;21760,367;    1,432;   -2,591
591,601;22077,635;    0,431;    0,500
592,181;22083,469;   -1,296;   -0,773
592,761;21404,950;    2,250;    1,409
593,341;21409,033;    1,522;    0,045
593,921;21416,168;   -0,569;    1,591
594,501;21341,605;    1,250;    1,318
595,081;21134,143;    0,522;   -0,318
595,661;21478,707;    1,068;    0,955
596,240;21966,294;   -1,023;    0,136
596,820;21556,625;    2,613;    1,955
597,400;21601,157;    1,977;    0,773
597,980;21857,122;   -0,750;    1,045
598,559;21913,129;    0,341;   -0,227
599,139;21736,003;   -0,750;   -1,227
599,718;21592,276;    0,795;   -0,409
600,298;21840,152;   -2,387;    0,682
600,877;22043,332;    4,795;    1,409
601,457;22263,844;    0,340;    1,136
602,036;22176,565;    1,795;    2,045
602,616;22361,779;    2,250;    1,682
603,195;22649,229;    0,431;    3,500
603,774;22220,989;   -0,296;    2,045
604,354;22087,378;    2,522;   -0,500
604,933;21651,879;    0,250;    1,864
605,512;21773,292;    2,340;    0,591
606,091;21791,261;    1,886;    3,773
606,671;22602,800;    0,249;    0,773
607,250;21740,667;    1,431;    3,136
607,829;21970,422;    1,158;    3,227
608,408;21825,098;    4,613;    2,591
608,987;20953,021;    2,704;    3,409
609,566;21216,504;    0,341;   -2,500
610,145;21356,550;    2,885;    0,682
610,723;21733,490;    1,613;    6,864
611,302;21082,846;    1,067;    1,682
611,881;20610,042;    5,158;   11,227
612,460;21364,592;    0,795;    3,955
613,039;21750,853;    1,703;    2,045
613,617;20565,725;    0,886;    4,773
614,196;20691,525;    1,613;    1,227
614,775;21062,417;    1,249;    2,409
615,353;20976,534;   -1,660;    0,864
615,932;20783,720;    0,249;    2,409
616,510;21304,893;    0,158;    0,591
617,089;20876,907;    8,794;   17,591
617,667;20691,972;    4,885;    6,136
618,246;20584,156;   -1,115;    1,318
618,824;20730,503;    1,612;   -0,955
619,402;20290,391;    0,431;   -1,773
619,981;20770,482;    1,067;   -1,045
620,559;20616,375;    0,794;    1,682
621,137;20276,226;    3,067;    1,864
621,715;20217,438;    3,703;   -0,682
622,293;20096,223;    1,885;   -0,773
622,871;20591,932;    0,340;    0,500
623,450;20237,687;    0,430;   -0,864
624,028;20139,419;   -0,388;   -0,955
624,606;19767,128;    2,339;    1,682
625,183;20099,853;   -0,661;   -1,136
625,761;19773,055;    1,885;    1,136
626,339;20080,727;    2,339;    2,591
626,917;20470,223;    0,339;   -0,045
627,495;20527,365;    2,794;    1,318
628,073;19953,249;    5,248;    2,864
628,650;19670,449;    3,067;    2,136
629,228;20038,158;    1,248;    4,409
629,806;19527,407;   -0,024;    1,136
630,383;19788,650;    0,066;   -0,318
630,961;19626,521;   -2,206;   -0,955
631,539;19323,941;   -2,479;    0,227
632,116;18809,612;   12,703;   15,409
632,694;19334,335;    4,885;    6,500
633,271;19494,757;    1,975;    2,682
633,848;19451,736;    1,430;    2,045
634,426;19507,943;    1,521;    1,773
635,003;18708,129;   -0,207;   -0,409
635,580;18988,486;    1,884;    3,682
636,158;19496,602;    3,793;    1,227
636,735;19474,780;    3,339;   -0,500
637,312;19585,335;    0,521;   -0,682
637,889;19648,570;    2,248;   -0,682
638,466;19214,339;    0,066;   -0,409
639,043;19177,698;    1,702;   -1,136
639,620;19488,968;    0,611;   -0,955
640,197;19779,390;    1,612;    1,682
640,774;19904,655;    1,430;    1,136
641,351;20266,012;    0,612;    1,136
641,928;19768,914;    2,794;    1,409
642,505;19441,543;    0,794;   -0,500
643,082;19538,445;    1,885;    1,227
643,658;18684,256;    1,157;    1,500
644,235;19346,249;   -2,479;    2,500
644,812;19557,514;    1,794;    0,773
645,388;19298,416;    1,612;    1,409
645,965;19362,500;    1,521;    1,682
646,542;19417,038;    3,430;   -0,227
647,118;19438,486;    3,703;   -0,955
647,695;19683,842;    0,339;    1,136
648,271;19645,199;   -2,115;    0,500
648,848;19887,646;    0,248;    2,227
649,424;19730,730;    0,976;    1,318
650,000;19442,086;   -0,388;   -1,045
650,577;19339,261;    0,158;   -0,955
651,153;19721,163;   -1,115;    0,955
651,729;20569,701;    0,521;    0,864
652,305;20667,876;    1,339;    2,773
652,881;24053,778;   -1,297;    1,136
653,458;29457,407;    0,249;    0,227
654,034;32454,673;    0,703;    1,591
654,610;33629,393;    0,339;    0,773
655,186;34763,931;    1,612;    3,045
655,762;34439,651;   -1,842;    0,409
656,338;34476,644;    0,703;    0,136
656,913;35445,455;   -0,297;    0,409
657,489;34797,721;    0,249;   -0,318
658,065;34774,986;    0,794;   -1,591
658,641;35334,343;    2,158;   -0,864
659,217;34753,517;    2,067;    0,409
659,792;34215,056;   -1,751;   -0,409
660,368;34555,503;   -0,388;   -0,682
660,944;34500,860;    1,794;    1,227
661,519;30897,125;    0,522;    0,409
662,095;26003,663;   -0,206;    0,591
662,670;22182,565;   -0,206;   -0,136
663,246;21313,922;   -0,660;   -0,409
663,821;20764,915;    0,431;    1,682
664,396;20242,362;    0,613;    1,864
664,972;20480,173;   -0,660;   -0,500
665,547;20833,711;    3,794;    0,136
666,122;20826,341;    1,340;    0,318
666,698;21062,515;    2,431;    0,318
667,273;20442,781;    0,885;    0,136
667,848;21182,047;    0,340;    1,500
668,423;20947,312;    1,795;    2,318
668,998;21376,850;    0,976;   -0,682
669,573;21826,843;    2,067;   -1,500
670,148;21692,200;    1,885;   -0,682
670,723;21449,374;   -0,024;    0,318
671,298;21814,822;   -1,296;    1,045
671,873;21926,906;   -0,296;   -0,136
672,448;21866,262;    1,704;    0,136
673,023;22163,073;    0,249;   -0,227
673,597;22465,975;    2,704;    2,318
674,172;22308,877;    2,431;    0,318
674,747;21816,052;   -0,205;   -1,045
675,321;21598,681;   -0,933;    3,318
675,896;21218,583;    2,158;    1,045
676,471;22094,848;    2,522;    1,591
677,045;21871,569;   -0,296;    0,682
677,620;21883,470;    2,158;    1,136
678,194;22237,463;    0,249;    1,136
678,769;21852,002;    0,886;   -0,318
679,343;22063,449;   -0,023;    1,773
679,917;21914,533;    0,340;    1,955
680,492;21981,435;    0,249;    3,227
681,066;22062,428;    0,613;    0,409
681,640;22131,148;    1,795;   -0,318
682,214;22863,959;    2,340;    0,500
682,788;22393,315;    0,613;   -0,773
683,363;22331,854;    1,977;    1,682
683,937;22041,755;    0,886;   -0,318
684,511;22717,476;   -1,023;   -0,591
685,085;22432,378;   -1,478;    0,318
685,659;22250,643;    1,431;    0,864
686,232;22438,272;    1,159;   -0,318
686,806;22183,811;    2,159;    0,409
687,380;22767,076;   -1,932;    0,591
687,954;22980,887;    2,432;    1,136
688,528;22629,698;    2,613;    1,955
689,101;23354,146;    0,432;    1,045
689,675;22959,957;    0,886;   -0,136
690,249;22414,313;    3,432;    0,409
690,822;22723,942;    1,159;    0,318
691,396;22785,572;    2,068;    1,227
691,969;22295,928;    2,523;    0,136
692,543;22782,012;   -0,568;   -1,955
693,116;22452,823;   -0,659;   -1,409
693,690;22309,270;   -0,296;    0,500
694,263;22815,900;    2,341;    2,955
694,836;22832,711;    2,795;    3,591
695,410;21587,431;    1,159;    1,773
695,983;22001,696;    1,614;    0,591
696,556;22016,780;   -0,750;   -1,045
697,129;22374,409;   -1,114;    1,409
697,703;22051,402;    1,341;    1,955
698,276;22035,122;    1,705;   -0,773
698,849;21832,388;   -1,023;    1,409
699,422;22202,017;    1,250;    0,591
699,995;21926,828;   -0,659;    0,136
700,568;22369,457;   -0,204;    3,045
701,140;22400,268;   -1,841;    1,682
701,713;22205,988;    0,341;    2,409
702,286;21944,345;    0,796;    0,864
702,859;21823,701;    0,614;   -0,591
703,432;21119,603;   -0,841;    0,682
704,004;21546,869;    1,978;    0,318
704,577;21391,407;    1,068;    0,136
705,150;21915,582;    0,887;    2,500
705,722;21717,302;    1,523;   -3,227
706,295;21546,204;    1,432;   -0,591
706,867;21388,742;    0,250;    1,955
707,440;21631,008;   -0,113;   -0,409
708,012;21822,092;   -0,022;    0,591
708,584;21743,266;    2,705;    0,227
709,157;21996,532;    1,160;   -0,591
709,729;21734,434;    1,069;    2,045
710,301;22472,245;   -1,204;    0,045
710,874;22461,419;    0,341;   -0,227
711,446;21381,503;   -0,295;    0,864
712,018;21369,223;   -3,022;    0,500
712,590;21165,125;   -0,204;    1,682
713,162;21594,391;   -0,477;    1,318
713,734;21812,202;    1,796;   -2,045
714,306;21735,831;    0,342;   -0,409
714,878;20560,460;   -0,295;    0,864
715,450;21288,090;   -0,113;    0,864
716,022;21550,810;    2,433;    1,318
716,593;21689,712;    0,978;    0,591
717,165;21634,795;    1,796;   -1,227
717,737;21385,243;    0,796;    0,409
718,309;21070,781;    1,160;   -0,045
718,880;21067,501;   -1,295;   -1,409
719,452;21266,767;    0,887;   -1,591
720,024;20914,032;    1,705;   -0,591
720,595;21400,662;    2,978;    0,955
721,167;21010,382;    1,160;   -2,045
721,738;20581,738;    2,069;   -1,045
722,309;20612,186;    1,251;   -1,227
722,881;20414,633;    2,705;    0,773
723,452;20960,353;    1,251;    2,864
724,023;21126,073;    1,524;    2,682
724,595;20920,157;    2,342;    0,682
725,166;20687,150;    1,524;   -0,409
725,737;20368,597;    1,887;    0,227
726,308;20478,045;    0,797;    0,318
726,879;20836,219;    1,069;    1,227
727,450;20686,667;   -2,022;   -0,045
728,021;20655,750;    1,069;    0,682
728,592;20514,198;    1,160;    0,500
729,163;20828,736;    1,433;   -0,136
729,734;20789,638;    2,160;   -0,227
730,305;21080,540;    0,615;    0,136
730,876;21415,260;    0,888;    2,955
731,447;21088,435;    0,797;    2,682
732,017;21202,973;   -0,840;    1,864
732,588;20772,875;   -0,021;    1,227
733,159;20933,777;    3,615;   -1,045
733,729;20781,224;    1,251;    0,409
734,300;20166,581;    0,160;    0,864
734,870;20544,028;   -1,385;    0,591
735,441;21039,658;    0,888;   -0,591
736,011;20792,741;    1,070;   -1,591
736,582;20766,098;    1,251;    0,045
737,152;20254,272;    0,979;   -2,045
737,722;20706,174;    1,070;   -0,682
738,293;20415,167;   -2,021;    1,318
738,863;20298,978;    1,797;    2,318
739,433;20199,698;    4,524;    0,318
740,003;20709,237;    1,524;   -0,682
740,573;20178,048;    2,252;   -1,591
741,143;20203,768;    3,615;    0,318
741,713;20884,306;    0,252;   -0,500
742,283;20600,117;    1,706;    1,591
742,853;20413,656;    0,524;    1,591
743,423;19938,376;    0,161;    0,045
743,993;20009,187;    1,070;    1,500
744,563;19493,089;    2,524;   -0,864
745,133;19444,991;   -0,112;   -0,864
745,702;20090,983;    2,797;    1,773
746,272;19346,522;    0,434;    0,591
746,842;19155,424;   -0,748;   -0,591
747,411;19557,598;   -0,839;   -0,318
747,981;19716,500;   -0,930;    0,500
748,551;19783,948;   -0,021;   -1,045
749,120;19598,304;   -0,112;   -0,227
749,690;19939,024;    2,161;    2,409
750,259;20276,653;    0,979;    2,955
750,828;20172,283;    4,070;   -1,955
751,398;20409,639;   -0,112;   -0,045
751,967;19937,905;    2,888;    0,409
752,536;20193,807;    1,161;   -0,227
753,105;20560,254;   -1,384;    0,227
753,675;20278,065;   -0,112;    1,773
754,244;20244,876;    0,888;    3,591
754,813;20262,324;    0,979;    1,227
755,382;19890,044;    0,798;    0,955
755,951;20343,127;   -0,112;    3,682
756,520;19950,575;    2,525;    1,864
757,089;20409,022;    1,888;    0,500
757,658;20560,288;    2,434;    1,227
758,227;20586,735;   -1,111;    0,318
758,795;20840,092;   -1,021;    1,136
759,364;21122,175;    0,525;   -0,591
759,933;20191,350;    1,343;   -0,045
760,501;19793,252;    0,252;   -1,318
761,070;20205,063;   -0,293;   -1,409
761,639;20847,692;    1,434;    1,318
762,207;20204,867;    0,889;   -0,955
762,776;20123,769;    2,889;    0,864
763,344;20138,853;    0,071;    0,591
763,913;19272,118;    1,616;    1,409
764,481;19998,566;    1,980;   -0,136
765,049;19825,559;    0,616;    1,409
765,618;19720,642;    1,434;    0,318
766,186;19828,453;    2,434;    0,136
766,754;19953,810;    1,798;    1,864
767,322;19087,166;    1,162;    0,409
767,890;19096,614;    0,525;   -1,773
768,459;19461,697;    2,616;   -0,318
769,027;19594,145;    2,525;    3,409
769,595;18736,047;    2,616;    2,591
770,163;19134,949;    3,344;    2,955
770,730;18928,942;    2,525;   -0,136
771,298;18816,025;    1,162;   -1,409
771,866;18866,473;    0,253;    4,955
772,434;19141,011;    1,162;   -1,864
773,002;19357,458;    2,616;    0,682
773,569;19012,088;    1,071;    1,682
774,137;18859,081;    0,889;   -0,045
774,705;19570,892;   -0,747;   -0,136
775,272;19152,612;    0,253;    0,682
775,840;18960,241;   -0,111;    2,682
776,407;18496,506;   -0,293;    1,955
776,975;18178,772;    1,162;    0,318
777,542;19096,947;    2,162;   -0,045
778,110;18958,576;    0,707;   -0,045
778,677;18631,296;    1,071;   -0,864
779,244;18458,743;   -1,020;    1,045
779,812;18511,918;    0,980;    0,864
780,379;18398,456;    2,435;    1,136
780,946;18633,358;    2,617;   -0,773
781,513;18926,988;   -0,565;    0,318
782,080;18319,980;    1,253;    2,864
782,647;18999,791;    1,708;    3,045
783,214;18667,693;   -0,201;    3,864
783,781;18291,323;    1,708;   -0,682
784,348;18178,497;    0,253;    1,500
784,915;18568,399;   -1,474;    0,318
785,482;18335,119;    2,708;    2,591
786,049;18782,749;    1,071;   -0,591
786,615;18964,741;    1,708;   -0,955
787,182;18661,643;   -3,201;   -0,682
787,749;18411,545;   -2,201;    1,409
788,315;17804,902;    0,253;   -0,409
788,882;18077,804;    0,981;   -1,227
789,448;18663,160;    1,435;   -0,955
790,015;18702,699;    1,799;    3,227
790,581;18336,055;    0,708;    0,227
791,148;18233,957;    1,344;    1,045
791,714;18399,223;   -1,019;    3,136
792,280;18138,670;    3,708;    1,591
792,847;17807,299;   -0,928;    2,500
793,413;18243,656;   -0,110;   -0,318
793,979;17829,921;    1,526;   -1,318
794,545;17967,187;    2,981;    2,682
795,111;17413,634;    2,435;    1,318
795,678;17584,263;    3,526;   -1,682
796,244;17261,347;    2,799;    0,136
796,810;17761,704;    0,799;    0,773
797,375;17493,333;   -0,292;   -2,136
797,941;17484,508;   -1,110;    0,591
798,507;17628,137;    0,254;   -0,955
799,073;17254,130;    2,708;    0,591
799,639;17363,395;    1,435;    3,136
800,205;17394,115;   -1,565;    2,682
800,770;16971,926;    1,345;    1,773
801,336;17017,101;    2,981;   -0,955
801,901;16773,276;    6,072;    3,136
802,467;17313,269;    0,526;    2,045
803,033;16704,443;   -0,019;    0,864
803,598;16899,891;    1,072;   -1,045
804,163;16952,338;    0,708;   -0,318
804,729;16891,422;   -0,110;    1,136
805,294;17201,506;    1,072;    2,227
805,859;17053,407;    0,890;   -0,409
806,425;16621,309;    3,890;    2,682
806,990;16292,302;    1,890;    4,318
807,555;16685,750;   -0,110;    2,591
808,120;16615,924;   -1,292;   -0,409
808,685;16696,372;    1,072;   -2,500
809,250;16307,001;    2,072;   -0,500
809,815;16536,357;   -0,201;    0,682
810,380;16970,078;    0,981;    1,591
810,945;17431,161;    2,890;    2,045
811,510;16755,518;   -0,200;    1,591
812,075;16495,420;    2,800;   -1,409
812,640;16509,594;    3,709;    1,409
813,204;16601,405;    2,163;   -0,227
813,769;17079,489;    0,254;   -0,045
814,334;16528,209;    0,527;    0,864
814,898;16576,202;    1,981;    0,591
815,463;16363,741;    0,981;   -0,773
816,027;16379,461;    1,345;   -2,318
816,592;16521,181;    2,163;   -2,045
817,156;16071,355;   -2,200;    1,136
817,721;15974,621;    0,982;    2,318
818,285;15966,250;    0,618;    1,500
818,849;16490,243;   -0,018;    1,682
819,414;16430,327;    0,073;    2,955
819,978;16048,320;   -0,291;    1,773
820,542;16555,767;    2,891;    0,500
821,106;16376,214;    2,800;    0,682
821,670;16423,116;    2,709;    2,591
822,234;16179,927;    1,073;    1,409
822,798;15656,193;   -0,836;    0,500
823,362;15649,731;    1,527;    4,227
823,926;15094,633;   -0,018;    1,136
824,490;15280,535;    3,527;   -0,682
825,054;15716,983;    2,527;   -1,136
825,618;15407,248;   -1,200;   -1,500
826,181;15308,332;    0,982;   -1,318
826,745;15243,779;   -0,745;   -1,045
827,309;15553,772;    2,255;    1,318
827,872;15072,492;    0,527;    0,955
828,436;15938,031;    1,982;   -0,773
828,999;16037,296;    2,436;    1,227
829,563;14976,107;   -0,654;    1,136
830,126;14813,373;   -0,018;   -0,591
830,690;14838,911;    0,709;    2,864
831,253;14379,540;   -0,473;    2,227
831,816;14516,260;   -0,018;    0,500
832,380;14494,344;    1,164;    0,864
832,943;14696,246;    3,073;   -0,500
833,506;14231,603;    0,255;   -1,227
834,069;14927,505;    2,164;   -0,955
834,632;15044,225;   -2,200;    1,318
835,195;14958,581;    1,346;    0,955
835,758;14259,847;    0,709;    1,955
836,321;14089,294;    1,073;   -1,045
836,884;14184,196;   -1,291;   -0,955
837,447;14232,825;    0,528;    1,773
838,010;14481,545;    1,800;    3,227
838,573;14766,175;    0,528;    0,773
839,135;14726,622;   -0,109;   -0,955
839,698;14222,615;    2,528;    0,409
840,261;13814,971;    0,255;   -0,227
840,823;13691,328;   -0,927;    0,864
841,386;13964,957;   -0,018;   -2,409
841,948;13858,495;    0,255;    1,773
842,511;13632,761;    0,255;    1,682
843,073;13749,663;    2,982;    0,227
843,636;13629,838;    0,619;   -0,227
844,198;13518,285;    1,255;    0,591
844,760;13632,369;    0,619;    1,955
845,322;13326,089;    0,164;    1,136
845,885;13706,991;   -0,290;    0,591
846,447;14117,256;    0,710;    0,227
847,009;13755,522;    3,983;   -0,682
847,571;13969,697;    1,346;   -2,045
848,133;14081,508;   -0,199;   -1,864
848,695;13895,501;    2,346;    1,409
849,257;13549,130;    1,346;   -1,682
849,819;13735,668;    2,983;   -0,409
850,381;13722,025;    1,801;   -0,864
850,942;14021,745;    1,892;   -0,591
851,504;13965,101;    0,983;    0,227
852,066;14021,821;    1,619;   -1,591
852,628;13599,723;    0,165;    1,955
853,189;13171,352;    0,256;    2,682
853,751;13329,891;   -0,654;    1,409
854,312;13144,156;    1,256;   -1,682
854,874;13583,331;   -0,108;   -0,773
855,435;14048,869;    0,528;   -1,682
855,997;14163,771;    3,983;   -0,136
856,558;13491,764;    0,801;    1,773
857,119;13655,121;   -0,744;    2,864
857,681;13375,477;   -0,108;    0,318
858,242;13429,015;    1,347;   -2,136
858,803;13850,190;    1,074;   -0,773
859,364;14351,728;    0,892;   -4,773
859,925;13776,539;   -0,290;   -0,955
860,486;13645,714;    0,529;   -0,955
861,047;13377,252;    0,165;   -1,227
861,608;13264,791;    0,165;   -0,773
862,169;13443,329;   -0,562;   -0,045
862,730;13184,413;   -0,290;    1,409
863,291;13409,587;    0,438;   -0,500
863,852;13704,398;   -0,926;    1,955
864,412;13254,028;   -1,835;   -0,864
864,973;12013,657;    1,892;    0,500
865,534;11903,195;    2,074;    0,227
866,094;13184,643;    2,620;    0,227
866,655;12863,363;    4,711;    3,318
867,215;13178,719;    0,074;    0,136
867,776;13054,076;   -1,199;   -0,136
868,336;13119,614;    1,529;    0,136
868,897;12685,789;    3,438;    1,682
869,457;12516,509;    3,256;    0,318
870,017;12722,138;    2,438;   -1,227
870,578;13182,131;    1,893;    0,773
871,138;12820,760;    2,620;   -0,955
871,698;12379,207;   -0,562;   -1,318
872,258;12278,564;    0,711;   -2,864
872,818;12684,375;    2,347;    0,045
873,378;12659,004;   -2,198;    1,045
873,938;12227,179;    4,984;    0,500
874,498;12557,990;    1,256;   -1,955
875,058;12461,892;    4,347;    1,773
875,618;12295,612;    1,438;   -2,682
876,177;12263,059;   -0,471;    0,136
876,737;11904,598;   -0,289;    1,955
877,297;11949,045;    2,711;    1,955
877,856;11983,947;    2,529;    0,318
878,416;11922,667;    2,438;   -0,136
878,976;12124,842;    3,438;    0,409
879,535;12287,471;    4,529;    3,136
880,095;12097,282;    1,347;    0,045
880,654;12173,184;    0,347;    1,318
881,213;12275,722;    2,347;    1,500
881,773;11959,806;    1,984;    2,682
882,332;12282,708;    6,075;    5,136
882,891;12141,610;    0,711;    2,136
883,451;12526,057;   -2,016;    1,682
884,010;12027,141;   -1,107;   -0,409
884,569;12109,952;   -2,289;   -0,045
885,128;12189,309;   -0,743;   -1,864
885,687;12298,301;   -0,743;    0,682
886,246;12080,749;    2,620;    2,136
886,805;11796,287;    1,620;    2,045
887,364;12033,371;    1,166;   -0,500
887,922;12356,727;   -0,016;    0,045
888,481;11894,357;    1,530;    0,591
889,040;12149,804;    3,711;    2,136
889,599;12743,979;    2,166;    1,409
890,157;12776,335;    2,166;    2,409
890,716;12415,692;    2,166;    0,227
891,274;12235,775;    0,075;   -1,136
891,833;12621,405;    1,166;    0,864
892,391;12514,125;    1,802;    0,500
892,950;12550,390;    0,166;   -0,773
893,508;12883,201;    0,984;   -0,409
894,067;12294,103;   -0,379;    0,136
894,625;12210,551;   -1,016;   -1,500
895,183;12448,362;   -0,198;   -0,682
895,741;12360,809;    2,257;   -1,773
896,299;12193,711;    1,621;   -2,409
896,858;12384,613;    1,530;   -1,591
897,416;12528,697;    0,166;   -1,318
897,974;12318,781;   -2,197;    0,318
898,532;12445,592;    6,530;    2,682
899,089;12369,221;    0,621;   -0,682
899,647;12448,305;    0,530;    1,318
900,205;12241,297;    0,257;    1,045
900,763;12394,654;    2,166;    0,227
901,321;12461,101;    3,530;   -1,409
901,878;11917,367;    3,257;   -0,773
902,436;11802,905;    0,257;    1,318
902,994;12241,080;    6,712;    3,682
903,551;11720,800;    1,439;    0,409
904,109;12055,247;    1,530;   -1,409
904,666;11707,422;    1,439;    1,045
905,224;11584,233;    3,894;   -0,409
905,781;11380,499;   -0,470;   -0,318
906,338;11461,946;    0,167;    1,045
906,895;11394,212;    1,894;    2,045
907,453;11303,477;    2,348;    1,136
908,010;11362,106;    3,348;    0,409
908,567;11054,463;   -0,561;    0,591
909,124;10632,729;    2,439;   -1,500
909,681;10669,630;   -1,288;    0,682
910,238;10871,987;   -0,106;   -1,318
910,795;11170,980;   -1,561;   -1,136
911,352;10824,434;   -0,379;   -2,682
911,909;10358,525;    2,803;   -0,864
912,466;10837,162;    1,985;    1,500
913,022;10403,889;   -0,924;    0,500
913,579;10743,162;   -0,470;    2,045
914,136;10485,980;   -2,561;    0,955
914,692;10793,980;    1,530;   -1,227
915,249;10394,889;    0,530;    0,409
915,806;10635,707;    1,803;    1,955
916,362;10505,434;    0,894;    1,864
916,918;10087,798;    2,439;    1,045
917,475;10082,525;    1,621;    0,955
918,031;10160,343;    0,076;   -0,045
918,587; 9685,525;    0,621;   -0,318
919,144; 9940,616;   -0,379;    0,227
919,700;10136,343;    0,167;    0,773
920,256; 9779,071;    0,439;    0,045
920,812; 9530,162;    1,439;   -1,045
921,368; 9566,889;    1,348;   -1,045
921,924; 9251,980;    0,439;   -0,136
922,480; 8908,434;    0,076;    1,227
923,036; 9467,889;   -0,652;    1,955
923,592; 9417,798;    0,621;    0,318
924,148; 9343,798;    1,894;   -0,955
924,704; 8781,889;    0,258;   -0,409
925,259; 9097,343;   -0,561;    0,591
925,815; 8882,889;    3,803;    0,500
926,371; 8460,889;    3,530;    1,409
926,926; 8384,798;    1,621;    0,591
927,482; 8137,434;    1,621;    0,773
928,037; 8056,525;   -0,833;    2,045
928,593; 8315,525;    0,258;    1,045
929,148; 8156,798;    1,167;   -1,500
929,704; 7759,980;    2,439;   -0,500
930,259; 7938,798;    0,894;   -0,136
930,814; 7194,616;    1,803;    1,955
931,369; 6959,162;    0,258;   -0,773
931,925; 6887,707;   -1,924;    0,136
932,480; 6819,253;    3,076;   -2,591
933,035; 6811,434;    3,985;   -0,318
933,590; 6622,434;   -1,742;   -1,773
934,145; 6350,343;   -1,288;   -0,318
934,700; 6666,707;    0,348;   -0,591
935,255; 6498,707;    4,803;    0,045
935,809; 5969,162;    6,258;    0,864
936,364; 5260,798;    2,167;   -0,136
936,919; 5310,162;    2,348;   -1,773
937,474; 5246,616;    1,348;    0,136
938,028; 5064,343;    3,076;    1,136
938,583; 4699,525;    6,348;    4,682
939,138; 4902,162;    0,167;    2,136
939,692; 4471,434;   -1,015;   -1,136
940,247; 4272,616;    1,167;   -1,045
940,801; 3983,162;    0,621;    0,227
941,355; 3906,798;    0,439;    2,591
941,910; 3606,798;    0,712;   -2,136
942,464; 3711,980;    2,712;   -0,318
943,018; 3640,707;    3,258;   -0,227
943,572; 3563,071;    2,803;   -0,682
944,126; 3144,253;   -0,924;   -0,409
944,681; 3050,343;    0,712;    0,227
945,235; 3011,616;    2,167;   -0,591
945,789; 2960,071;    1,258;   -1,864
946,342; 3142,889;   -0,561;   -0,591
946,896; 2911,525;    0,348;    0,955
947,450; 2704,798;   -0,561;   -0,227
948,004; 2958,525;    1,076;   -0,045
948,558; 2916,434;    1,258;   -0,864
949,111; 2839,798;   -1,197;   -0,318
949,665; 2947,343;   -0,106;   -0,682
950,219; 2837,616;    0,621;   -1,045
950,772; 2865,434;    0,258;    1,864
951,326; 2803,980;   -1,106;   -0,955
951,879; 2824,343;    1,076;   -2,318
952,433; 2891,071;    1,348;    2,227
952,986; 2724,253;    0,348;    0,682
953,539; 2673,071;    1,530;    0,591
954,093; 2635,889;    0,985;   -1,318
954,646; 2772,071;   -0,288;    1,318
955,199; 2603,071;    1,258;   -0,500
955,752; 2580,707;    1,985;    1,773
956,305; 2514,071;    0,894;    2,955
956,858; 2639,343;    0,621;   -0,318
957,411; 2782,525;    3,621;    2,136
957,964; 2633,434;    2,076;    2,136
958,517; 2590,616;    0,985;    3,136
959,070; 2469,889;   -1,197;    1,955
959,623; 2643,434;    1,076;    1,500
960,176; 2429,071;    0,712;    2,045
960,728; 2400,434;    1,712;    0,773
961,281; 2455,525;    2,258;    0,500
961,834; 2443,071;   -0,833;    0,864
962,386; 2388,980;    1,258;    1,045
962,939; 2310,980;    3,439;   -0,318
963,491; 2432,798;    2,621;    1,136
964,043; 2326,798;    0,076;    2,409
964,596; 2468,980;    1,712;    2,227
965,148; 2331,798;   -0,379;    1,773
965,700; 2247,707;   -0,015;   -0,227
966,253; 2411,162;   -0,833;    0,318
966,805; 2289,343;    1,894;    0,773
967,357; 2276,707;    0,439;   -1,500
967,909; 2295,253;    1,167;   -1,227
968,461; 2318,616;    0,894;    3,136
969,013; 2261,980;   -1,561;   -0,864
969,565; 2337,525;    1,803;   -1,136
970,117; 2545,616;    3,803;    1,045
970,669; 2301,253;    3,258;   -0,136
971,220; 2128,343;    2,167;   -1,500
971,772; 2099,798;    1,348;   -0,318
972,324; 2230,434;   -1,197;   -0,500
972,876; 2147,343;    0,167;   -0,045
973,427; 2295,616;   -1,197;   -1,045
973,979; 2286,434;    0,076;   -2,500
974,530; 2245,798;    0,803;    1,318
975,082; 2257,707;    2,167;    1,682
975,633; 2172,434;    2,894;    1,682
976,184; 2318,616;    2,076;    0,773
976,736; 2185,798;    0,348;    0,227
977,287; 2044,343;    0,258;   -0,500
977,838; 2163,889;   -0,924;   -0,318
978,389; 2204,071;    0,803;   -0,500
978,940; 2074,616;    1,258;   -0,409
979,491; 2098,253;    2,258;   -0,500
980,042; 2107,434;   -0,652;    3,045
980,593; 2118,525;    1,894;    0,227
981,144; 2208,162;    3,530;   -0,500
981,695; 2227,980;   -0,470;    1,500
982,246; 2155,071;   -1,833;    1,045
982,797; 2206,434;   -0,561;    0,682
983,347; 2340,889;    2,167;    0,591
983,898; 2542,525;    4,167;    0,409
984,449; 2391,253;    2,530;    0,773
984,999; 2228,525;    1,894;   -1,136
985,550; 2080,707;    3,167;   -0,318
986,100; 2041,162;    0,712;   -0,318
986,651; 2070,707;    0,258;    0,045
987,201; 2078,707;    0,894;   -0,591
987,751; 2143,071;   -0,288;    2,864
988,302; 2150,253;   -0,379;    1,500
988,852; 2150,616;    1,985;   -1,136
989,402; 2246,343;    0,985;    0,682
989,952; 2190,343;    1,621;    0,864
990,502; 2201,343;    1,076;    0,682
991,052; 2129,616;   -0,106;    0,045
991,602; 2041,889;    1,167;    1,318
992,152; 2071,071;    2,803;    0,682
992,702; 2062,798;    1,167;   -0,045
993,252; 1985,253;    0,076;   -0,500
993,802; 2087,253;    1,167;    1,318
994,352; 2260,707;   -0,742;    1,136
994,901; 2291,889;    1,076;    3,227
995,451; 2235,616;   -1,197;    0,318
996,000; 2309,798;    1,076;    0,318
996,550; 2091,889;    2,894;    0,227
997,100; 2091,798;   -0,561;   -0,045
997,649; 2340,525;   -0,197;    0,955
998,198; 2053,162;   -0,288;   -1,500
998,748; 2229,253;    0,348;   -2,318
999,297; 2109,525;    0,985;   -0,409
999,846; 2225,525;    1,894;   -0,773
1000,395; 2205,707;    1,530;    0,500
1000,945; 2231,798;    1,076;   -0,773
1001,494; 2304,889;    0,167;    0,682
1002,043; 2274,707;    0,712;    0,864
1002,592; 2094,616;    3,439;    1,955
1003,141; 2219,434;    2,439;   -0,682
1003,690; 2153,434;    1,258;    0,500
1004,238; 2164,253;   -0,106;   -0,045
1004,787; 1871,707;   -1,288;    1,227
1005,336; 2138,071;    1,621;    0,682
1005,885; 2204,253;   -0,197;   -2,773
1006,433; 2278,253;   -0,470;    0,955
1006,982; 2428,707;    2,167;    1,682
1007,531; 2278,889;    2,712;   -0,227
1008,079; 2188,616;    0,258;    0,500
1008,627; 2292,980;    1,621;    0,409
1009,176; 2106,889;    0,076;   -1,955
1009,724; 2123,343;   -2,742;    0,864
1010,273; 2238,434;    1,076;    0,500
1010,821; 2276,343;    1,076;    1,409
1011,369; 2063,616;    0,076;    1,318
1011,917; 2045,525;   -0,833;   -0,591
1012,465; 2294,162;    2,530;   -1,591
1013,013; 2358,343;    0,439;   -1,682
1013,561; 2317,162;   -1,288;   -0,773
1014,109; 2395,253;   -0,833;    1,682
1014,657; 2270,980;    1,348;    0,591
1015,205; 2314,162;    0,894;   -0,955
1015,753; 2296,980;    0,258;   -1,409
1016,301; 2355,707;    2,621;    3,045
1016,848; 2376,434;    2,167;    0,409
1017,396; 2420,343;    1,621;    0,045
1017,944; 2496,253;    2,621;    1,864
1018,491; 2271,071;   -0,197;    1,409
1019,039; 2542,162;   -0,652;    0,591
1019,586; 2370,980;    0,076;    1,682
1020,134; 2415,798;    0,712;    1,500
1020,681; 2460,253;    2,894;   -1,136
1021,228; 2431,980;   -0,561;   -2,227
1021,776; 2298,162;   -0,833;   -1,136
1022,323; 2543,253;    0,803;    0,773
1022,870; 2469,889;   -0,470;   -0,045
1023,417; 2433,071;    2,076;    1,864
1023,964; 2469,525;    0,621;    1,227
1024,511; 2371,162;   -0,652;    0,773
1025,058; 2206,071;    0,439;   -0,045
1025,605; 2240,616;   -1,742;    3,136
1026,152; 2483,071;   -0,106;   -0,591
1026,699; 2208,343;    0,167;    1,318
1027,245; 2332,616;    2,439;    0,318
1027,792; 2468,343;    0,712;    1,409
1028,339; 2467,889;    4,076;   -0,045
1028,885; 2315,253;    3,621;   -0,227
1029,432; 2232,434;   -0,106;    0,227
1029,978; 2333,525;    1,348;   -1,591
1030,525; 2238,343;    1,621;    0,409
1031,071; 2374,798;    0,348;    1,136
1031,618; 2582,980;    1,258;    1,682
1032,164; 2361,525;    2,076;    3,045
1032,710; 2403,162;    0,076;   -1,500
1033,256; 2298,525;    0,712;   -0,136
1033,803; 2250,253;   -0,288;    1,500
1034,349; 2032,162;    1,803;    0,136
1034,895; 2174,253;    2,621;   -0,318
1035,441; 2159,798;    0,439;    0,318
1035,987; 2174,162;   -2,288;   -0,682
1036,533; 2224,071;   -0,197;   -0,955
1037,078; 2436,434;    4,712;    1,682
1037,624; 2236,434;    2,439;   -0,955
1038,170; 2204,434;    1,712;   -0,318
1038,716; 2192,889;    2,167;   -0,409
1039,261; 2069,071;    2,167;   -0,773
1039,807; 2033,343;   -0,015;    3,409
1040,352; 2132,434;   -1,288;   -0,318
1040,898; 2140,889;    0,167;   -0,682
1041,443; 2043,071;    0,803;   -2,591
1041,989; 2176,162;    3,621;    1,591
1042,534; 2009,525;    0,985;    2,591
1043,079; 2054,707;    1,985;    0,955
1043,625; 1931,525;    0,258;    0,500
1044,170; 1983,707;    2,439;    1,045
1044,715; 2248,707;    0,167;    0,955
1045,260; 2077,253;   -0,833;   -0,955
1045,805; 2077,434;    0,258;   -0,591
1046,350; 1994,525;    0,530;   -0,409
1046,895; 2047,525;    0,803;    1,591
1047,440; 2017,343;    1,530;    0,409
1047,985; 1877,707;   -1,197;   -0,955
1048,530; 1809,798;    1,348;    1,227
1049,074; 1891,980;    2,803;    0,318
1049,619; 1850,525;   -0,924;    1,955
1050,164; 1701,253;    1,076;    0,227
1050,708; 1747,889;    2,621;    0,045
1051,253; 2142,162;    3,258;   -2,227
1051,797; 1859,343;   -0,197;   -1,318
1052,342; 1803,343;    1,348;    1,045
1052,886; 1815,162;    1,803;   -1,409
1053,430; 1690,616;    2,167;    0,136
1053,975; 1727,253;    0,894;   -0,318
1054,519; 1729,162;    1,803;    3,227
1055,063; 1774,162;    3,621;    1,318
1055,607; 1702,707;    1,348;    0,227
1056,151; 1714,889;    0,530;    1,682
1056,695; 1600,889;   -1,833;   -1,136
1057,239; 1652,798;   -1,197;   -0,682
1057,783; 1682,889;    2,258;   -1,500
1058,327; 1687,798;    3,076;    1,409
1058,871; 1902,707;    3,985;    1,318
1059,415; 1633,162;   -0,561;   -0,045
1059,958; 1914,616;    2,985;    2,591
1060,502; 1620,980;    1,348;   -0,773
1061,046; 1492,253;    1,712;   -0,955
1061,589; 1472,253;    2,803;   -1,136
1062,133; 1383,343;    0,985;    1,864
1062,676; 1358,616;    1,439;    0,864
1063,220; 1392,798;    0,985;    0,500
1063,763; 1422,525;    2,985;    1,136
1064,306; 1474,889;    0,985;    1,864
1064,849; 1387,162;    2,076;    0,591
1065,393; 1389,616;    2,894;   -1,500
1065,936; 1457,980;    2,530;   -0,409
1066,479; 1338,889;    2,621;    1,318
1067,022; 1374,434;    1,894;   -0,227
1067,565; 1300,889;   -1,197;   -1,318
1068,108; 1298,798;    1,258;   -0,591
1068,651; 1268,071;   -2,470;    1,409
1069,194; 1218,707;   -1,106;   -1,682
1069,736; 1241,071;    3,803;    0,955
1070,279; 1216,889;   -1,652;   -0,500
1070,822; 1300,525;    1,530;   -0,318
1071,364; 1404,616;    0,530;    1,318
1071,907; 1223,253;    0,348;    3,227
1072,450; 1089,162;    0,258;   -0,045
1072,992; 1114,343;   -0,561;    3,136
1073,535; 1268,798;    0,167;    2,136
1074,077; 1070,798;    2,985;    2,045
1074,619; 1047,525;    0,985;    0,591
1075,161; 1096,889;   -0,561;    1,500
1075,704; 1273,343;    0,258;    1,227
1076,246; 1048,162;    1,530;    0,682
1076,788;  963,798;   -1,015;    1,773
1077,330; 1031,253;   -2,106;    2,136
1077,872; 1029,434;   -1,924;    0,955
1078,414; 1262,889;    3,712;    0,773
1078,956; 1015,434;    0,167;   -0,227
1079,498; 1274,980;    0,439;    0,318
1080,040;  990,434;    0,985;   -1,318
1080,581;  931,616;    0,621;   -0,318
1081,123;  858,071;   -0,106;   -0,773
1081,665;  891,616;    3,803;   -0,955
1082,206; 1201,162;    3,258;   -0,500
1082,748; 1067,980;    3,258;    2,045
1083,289;  926,889;    0,167;    1,318
1083,831;  866,525;    0,258;    0,227
1084,372;  908,980;    0,894;    0,591
1084,913;  912,889;    3,348;    0,864
1085,455;  867,071;    1,530;   -2,045
1085,996;  859,707;    0,530;    0,136
1086,537;  897,253;    0,985;    0,864
1087,078;  906,162;    0,439;   -2,136
1087,619;  954,707;   -1,652;    0,227
1088,160;  872,798;    1,439;    1,318
1088,701;  861,980;   -0,742;    0,682
1089,242;  822,253;   -0,561;   -2,227
1089,783;  906,707;   -0,561;    1,409
1090,324;  877,889;   -0,833;    0,682
1090,865;  762,616;   -1,924;   -0,409
1091,405;  728,798;   -0,561;    2,227
1091,946;  754,434;   -0,197;   -0,955
1092,487;  678,889;   -1,288;   -1,409
1093,027;  860,434;    1,803;   -1,500
1093,568;  721,253;    2,258;    1,227
1094,108;  812,343;    0,621;    1,773
1094,649;  750,162;   -0,470;    0,136
1095,189;  691,616;    1,167;   -0,682
1095,729;  665,253;    0,712;    0,955
1096,269;  647,889;    1,258;   -0,955
1096,810;  958,798;   -0,197;    0,500
1097,350;  803,253;   -0,561;   -0,773
1097,890;  706,707;    2,985;    1,227
1098,430;  958,980;    4,985;    2,864
1098,970;  841,980;    1,894;    1,682
1099,510;  693,980;   -0,833;   -2,318
1100,050;  623,798;    0,258;   -1,591
1100,589;  616,343;    0,076;   -0,318
1101,129;  729,525;    0,894;   -0,955
1101,669;  878,525;    2,803;    2,136
1102,209;  708,162;    1,530;    2,227
1102,748;  664,253;    3,439;    0,955
1103,288;  661,434;    0,712;   -1,227
1103,827;  676,253;    3,530;   -2,227
1104,367;  581,798;    1,712;   -2,409
1104,906;  543,889;   -1,015;   -1,136
1105,445;  616,980;    0,985;   -1,136
1105,985;  567,889;   -0,652;    1,500
1106,524;  609,798;    1,530;   -0,682
1107,063;  591,434;    1,167;    1,409
1107,602;  555,162;    1,894;   -1,500
1108,141;  491,889;    1,621;    1,500
1108,680;  596,889;    3,985;   -0,591
1109,219;  534,434;    0,167;   -0,500
1109,758;  531,253;    4,167;    0,682
1110,297;  514,253;   -1,106;   -0,682
1110,836;  459,253;    1,439;    0,955
1111,375;  595,616;    0,348;    0,409
1111,913;  617,616;    0,985;    0,773
1112,452;  560,434;    0,894;    0,136
1112,991;  456,889;    1,076;    1,955
1113,529;  421,798;    0,167;   -0,045
1114,068;  488,707;    0,439;    2,955
1114,606;  396,798;   -0,561;   -0,955
1115,144;  554,253;    1,530;    1,045
1115,683;  481,253;    1,985;    0,318
1116,221;  523,162;    2,076;   -0,864
1116,759;  443,616;    1,621;   -0,864
1117,297;  630,343;    1,621;    1,864
1117,836;  458,525;    1,985;   -1,227
1118,374;  464,162;    0,258;   -0,682
1118,912;  419,343;    0,439;    2,682
1119,450;  408,525;    0,985;    0,864
1119,988;  452,889;    3,348;    2,136
1120,525;  884,162;    7,258;    3,318
1121,063;  596,071;    0,530;    1,864
1121,601;  424,798;    1,076;   -1,227
1122,139;  384,525;    1,076;   -2,045
1122,676;  576,616;   -1,652;    2,773
1123,214;  507,343;    0,712;    4,409
1123,751;  334,434;    0,621;    2,227
1124,289;  452,980;    0,894;   -0,409
1124,826;  339,980;   -0,379;    0,227
1125,364;  260,616;    0,712;   -0,955
1125,901;  445,525;    6,258;    1,227
1126,438;  543,162;    3,530;    0,955
1126,975;  289,162;    2,985;   -0,773
1127,513;  353,525;    2,621;    2,136
1128,050;  273,798;   -0,561;   -0,682
1128,587;  360,071;    1,348;   -0,227
1129,124;  403,616;   -0,015;    1,318
1129,661;  275,343;   -1,924;    0,227
1130,198;  431,980;    2,439;    0,773
1130,734;  382,798;   -0,379;    1,409
1131,271;  260,980;   -1,197;    0,864
1131,808;  416,162;    1,621;    3,045
1132,345;  299,616;    4,530;    0,318
1132,881;  187,798;   -0,561;   -1,864
1133,418;  314,162;    0,348;   -1,136
1133,954;  254,616;    0,712;   -2,682
1134,491;  329,434;    1,712;   -0,773
1135,027;  228,071;    2,167;    0,864
1135,564;  311,253;    1,439;    2,955
1136,100;  302,071;   -0,742;    2,136
1136,636;  201,980;   -1,015;   -1,045
1137,172;  286,980;    0,894;   -1,045
1137,708;  229,253;   -1,561;   -1,045
1138,245;  225,707;    0,803;   -1,227
1138,781;  179,616;    1,803;   -3,318
1139,317;  240,071;    1,894;   -1,409
1139,852;  233,616;    3,076;    0,136
1140,388;  332,707;    2,076;   -0,409
1140,924;  229,616;    1,076;   -2,227
1141,460;  182,798;   -0,288;    0,136
1141,996;  126,434;   -0,652;    2,682
1142,531;  166,707;    1,076;    3,318
1143,067;  356,616;    1,167;    1,045
1143,602;  405,434;    3,439;   -0,318
1144,138;  269,616;    0,803;    1,045
1144,673;  151,889;    1,621;    1,409
1145,209;  210,889;    2,894;   -0,318
1145,744;  140,162;    0,803;    0,864
1146,279;  257,525;    1,530;   -0,136
1146,815;  181,798;    1,530;   -2,682
1147,350;  223,889;   -0,924;    0,045
1147,885;  145,343;   -1,924;   -1,318
1148,420;  146,343;    2,439;    0,773
1148,955;  131,434;   -1,470;    1,864
1149,490;  148,253;   -1,106;   -1,591
1150,025;  127,616;   -1,106;   -1,773
1150,560;  236,980;   -0,288;   -0,955
1151,094;  206,071;    0,258;   -0,591
1151,629;  196,525;   -3,742;    0,864
1152,164;  143,980;   -1,288;    1,318
1152,698;  108,707;    1,258;   -0,136
1153,233;   71,071;   -1,379;   -0,682
1153,767;  109,071;   -0,288;   -2,318
1154,302;  151,707;   -0,379;    1,773
1154,836;  154,071;    0,803;   -2,136
1155,371;  206,616;    2,258;    3,682
1155,905;  162,525;    1,985;    1,682
1156,439;  132,162;    0,530;   -0,500
1156,973;  164,798;    0,439;    0,318
1157,507;  110,434;   -1,742;    0,682
1158,042;  137,707;   -0,652;    1,045
1158,576;  173,343;   -0,561;    1,773
1159,110;  157,434;    0,076;    2,409
1159,643;  138,525;   -2,470;   -0,045
1160,177;   79,889;   -2,015;    1,500

