
Integration time [ms]:   0,050
Averaging Nr. [scans]: 11
Smoothing Nr. [pixels]: 0
Data measured with spectrometer [name]: 7318044SP
Wave   ;Sample   ;Dark     ;Reference
[nm]   ;[counts] ;[counts] ;[counts] 

186,757;  -16,412;   38,161;    1,318
187,357;   13,694;   26,706;    0,955
187,958;   -0,412;   17,252;   -1,591
188,558;   47,489;   12,979;   -1,227
189,159;   15,343;   10,070;   -4,500
189,759;  -13,784;    5,797;   -3,591
190,360;   -8,805;    6,797;   -2,136
190,960;   14,017;    5,706;   -4,136
191,560;   22,659;    2,614;   -6,591
192,161;  224,243;    5,885;   -3,500
192,761;   92,843;    5,520;   -3,227
193,361;   44,527;    3,065;   -3,773
193,962;   89,177;    1,612;   -2,682
194,562;   22,227;   -0,114;   -3,955
195,162;   42,277;   -0,567;   -2,227
195,762;  174,270;    2,433;   -0,045
196,362;  119,045;    1,706;   -2,500
196,963;   31,872;    1,706;   -0,864
197,563;   81,948;    1,252;   -0,955
198,163;   32,846;   -0,111;   -0,682
198,763;   48,992;   -0,020;   -0,500
199,363;  115,063;    3,616;   -0,500
199,963;   81,463;    2,162;    0,409
200,563;   66,183;    6,344;   -1,409
201,163;   43,369;    5,435;   -0,227
201,763;  103,894;    1,435;    0,318
202,363;   52,898;    0,980;    1,500
202,963;  117,298;    1,526;    1,045
203,563;  206,104;    0,344;    0,500
204,162;  103,756;    1,889;   -1,864
204,762;   94,473;    2,071;    0,591
205,362;   75,465;    0,708;    1,955
205,962;  135,001;    3,435;    1,955
206,562;  124,097;    1,889;    2,318
207,161;  107,303;    1,708;    0,318
207,761;  226,401;    4,435;    2,409
208,361;  127,946;    1,889;    1,409
208,960;  190,958;    2,889;    1,500
209,560;  226,757;    0,435;    1,591
210,160;  230,338;    5,071;    1,864
210,759;  198,876;    0,708;    1,227
211,359;  191,363;   -0,474;    1,045
211,958;  403,805;    3,526;    2,045
212,558;  447,690;    0,799;    1,864
213,157;  321,469;   -0,929;    1,500
213,757;  651,932;    5,617;   -0,227
214,356;  412,264;    1,708;   -0,409
214,956;  672,662;    3,526;    0,409
215,555;  387,679;    0,617;    2,136
216,154;  325,074;   -0,292;   -0,591
216,754;  322,612;    1,253;    0,773
217,353;  409,678;   -0,383;   -1,045
217,952;  285,549;    2,072;    0,318
218,552;  481,553;    0,254;   -0,773
219,151;  381,360;   -1,110;    0,955
219,750;  381,317;    0,890;   -0,227
220,349;  403,087;   -2,292;    1,045
220,948;  522,688;    1,163;    1,136
221,548;  442,438;    0,617;    1,227
222,147;  538,177;   -1,292;   -0,409
222,746;  776,767;    1,254;   -0,955
223,345;  629,241;   -1,019;    0,500
223,944;  631,407;    1,163;    0,773
224,543;  707,628;    4,072;   -1,409
225,142;  791,744;    1,345;    0,136
225,741;  709,130;    1,163;    1,045
226,340;  691,727;    1,254;   -0,955
226,939;  973,351;    2,708;   -0,136
227,538;  790,877;    1,163;   -0,773
228,137;  991,015;    0,435;    0,864
228,735;  939,647;    0,435;    1,227
229,334;  752,912;   -0,474;   -0,227
229,933; 1075,892;    0,799;    0,591
230,532; 1133,117;   -1,201;   -0,409
231,131; 1211,663;    1,253;    0,318
231,729; 1107,691;    1,163;   -2,318
232,328; 1034,102;    0,435;   -1,500
232,927; 1029,607;    4,526;   -0,500
233,525; 1037,806;    0,981;    0,045
234,124; 1155,540;    1,890;   -1,591
234,723; 1077,481;    1,617;   -1,045
235,321; 1128,331;    1,163;    0,136
235,920; 1243,240;    2,526;   -1,227
236,518; 1518,181;    1,072;    0,318
237,117; 1402,774;    2,890;   -0,227
237,715; 1477,521;    1,163;   -0,500
238,314; 1575,948;    1,708;   -2,318
238,912; 1787,070;    0,526;   -1,409
239,510; 1675,509;    1,162;   -1,227
240,109; 1892,880;   -0,474;    3,773
240,707; 1882,959;   -0,474;    1,227
241,305; 1970,018;   -0,383;    0,136
241,904; 2162,928;   -0,292;   -2,045
242,502; 2253,667;    3,253;   -0,227
243,100; 2213,240;    3,344;   -0,955
243,698; 2395,169;    2,799;    1,682
244,297; 2532,280;   -0,656;    0,682
244,895; 2534,596;   -0,474;   -2,318
245,493; 2856,877;    2,981;   -0,591
246,091; 2898,375;    5,163;   -1,318
246,689; 2894,916;    2,163;    0,591
247,287; 3012,245;   -0,019;   -1,136
247,885; 3310,051;   -1,019;    1,227
248,483; 3384,663;   -0,201;   -0,500
249,081; 3540,277;    0,981;    1,591
249,679; 3710,202;   -1,019;    1,682
250,277; 3934,114;   -2,292;    0,864
250,875; 3943,699;    0,617;   -1,045
251,473; 4010,628;   -0,019;    0,500
252,071; 4216,754;   -0,383;    1,045
252,669; 4354,861;   -1,565;    0,318
253,267; 4561,724;    1,618;    0,773
253,864; 4486,063;    0,617;    0,682
254,462; 4555,767;    1,526;    1,591
255,060; 4516,565;    0,072;    1,318
255,658; 4784,316;   -3,292;   -0,136
256,255; 5180,695;   -0,201;   -2,045
256,853; 5101,506;    2,345;    1,409
257,451; 5124,233;    1,981;    1,864
258,048; 5501,577;    2,072;    1,864
258,646; 5197,490;    0,436;   -1,045
259,243; 5392,960;    2,981;    2,227
259,841; 5443,288;    1,799;    0,318
260,438; 5380,569;    0,254;    0,864
261,036; 5961,679;    0,617;    1,409
261,633; 5939,687;    1,526;    2,227
262,231; 5787,881;   -0,110;   -0,045
262,828; 5881,378;   -0,383;    1,136
263,425; 5909,387;   -1,928;   -0,591
264,023; 6163,747;    1,436;    0,045
264,620; 5783,573;    1,526;   -0,318
265,217; 6125,411;    2,890;    3,136
265,815; 6220,087;    2,527;    2,136
266,412; 6113,964;    0,072;    0,136
267,009; 6140,138;    0,526;    0,773
267,606; 6137,854;    0,345;   -0,955
268,203; 6086,363;   -0,383;   -0,591
268,801; 6326,434;   -0,474;    0,591
269,398; 6561,368;   -0,564;    2,500
269,995; 6574,378;    0,890;    1,591
270,592; 6378,126;    0,799;   -0,500
271,189; 6566,945;    1,981;    0,409
271,786; 6667,331;    2,072;    1,227
272,383; 6570,323;   -0,383;    0,227
272,980; 6669,660;    1,617;    0,318
273,577; 7110,987;    2,162;    1,227
274,174; 6667,125;    1,435;    2,591
274,771; 6653,134;    1,890;   -0,773
275,367; 6865,619;    3,253;    1,409
275,964; 6850,639;   -0,565;   -0,500
276,561; 6948,237;   -2,474;   -1,045
277,158; 7127,656;    1,799;   -1,773
277,755; 7296,186;   -0,110;    0,409
278,351; 6749,031;    0,436;   -1,500
278,948; 7100,969;   -0,201;    0,045
279,545; 7154,953;    0,527;    2,318
280,141; 7813,853;    1,254;   -2,045
280,738; 7659,762;    2,435;   -0,136
281,334; 7828,731;   -0,383;    0,591
281,931; 7378,831;    2,890;   -1,318
282,528; 7591,570;    4,072;   -0,500
283,124; 8271,494;    3,345;   -0,500
283,721; 8191,997;    0,709;    1,409
284,317; 8113,353;    0,163;    2,500
284,913; 8701,518;   -0,110;    0,591
285,510; 8952,246;    2,890;   -0,318
286,106; 9042,344;    2,345;   -0,955
286,703; 8634,743;    0,072;    1,955
287,299; 8912,652;    1,254;   -0,591
287,895; 9188,150;    0,890;   -1,045
288,491; 9822,368;    0,163;    2,136
289,088; 9617,917;    0,163;    2,409
289,684; 9731,134;    2,890;    1,500
290,280; 9802,841;    1,890;    0,682
290,876; 9919,992;    0,163;    5,500
291,472; 9928,143;    2,163;    2,227
292,068;10054,807;    1,254;    0,227
292,665; 9827,743;   -0,564;    0,773
293,261; 9571,134;   -1,292;    2,136
293,857;10008,197;    4,072;    2,136
294,453; 9989,161;   -0,928;    0,955
295,049; 9892,551;    0,253;    1,955
295,644; 9994,449;   -1,292;    0,136
296,240; 9971,532;    0,162;   -0,136
296,836;10055,899;   -0,747;    0,318
297,432;10378,404;    2,980;   -0,500
298,028;10498,013;    0,435;    0,773
298,624;10909,456;    0,889;    1,864
299,220;11188,571;    0,435;    0,591
299,815;10859,136;    0,526;   -0,409
300,411;10701,551;    0,435;    1,773
301,007;10748,910;    1,889;    0,227
301,602;10823,421;    2,071;   -2,318
302,198;10997,870;    1,435;   -0,773
302,794;11344,527;    1,526;   -0,500
303,389;11526,630;    1,071;    1,045
303,985;11572,701;    1,253;    1,409
304,580;11541,159;    0,889;    1,591
305,176;11519,883;    0,344;    0,136
305,771;11474,042;   -0,929;   -1,227
306,367;11348,311;    3,071;    0,136
306,962;11683,057;    2,889;    1,500
307,558;11404,266;    2,435;    0,136
308,153;11356,251;   -0,383;   -1,136
308,748;11536,195;    0,162;    1,682
309,344;11456,433;    0,253;   -1,318
309,939;11585,065;    2,071;   -1,318
310,534;11891,386;   -2,020;   -1,682
311,130;11793,263;   -0,656;   -2,500
311,725;11527,385;    0,526;   -0,500
312,320;11810,306;    1,253;    0,045
312,915;11686,753;    2,890;   -1,045
313,510;11678,512;    0,526;   -0,500
314,105;12176,290;   -3,565;    1,409
314,700;11560,776;   -1,656;   -1,045
315,295;11206,796;   -0,020;    0,045
315,890;10803,140;   -0,292;    0,864
316,485;11078,393;    0,253;   -0,318
317,080;11177,338;   -0,929;    1,591
317,675;11692,128;    3,071;   -0,682
318,270;11102,254;    6,889;    3,318
318,865;11134,432;    2,435;    3,045
319,460;10927,298;   -1,565;    0,591
320,055;11161,819;   -2,565;   -1,227
320,650;10836,677;   -1,838;   -0,591
321,244;10863,112;    0,889;   -1,409
321,839;11814,697;    0,980;   -0,227
322,434;11699,306;   -0,111;   -1,591
323,029;11347,033;   -0,474;    1,591
323,623;11210,650;    0,798;    0,773
324,218;11003,460;    2,707;    1,409
324,812;10926,713;    0,889;    1,591
325,407;10762,480;   -0,929;    2,045
326,002;10705,911;    0,526;   -0,409
326,596;11069,128;   -0,656;    1,318
327,191;11310,436;   -0,383;   -1,045
327,785;10910,491;   -0,747;   -0,227
328,379;11179,013;   -0,383;    0,136
328,974;10977,681;    1,798;   -3,955
329,568;11273,021;    2,889;   -2,409
330,163;11136,436;    2,435;    1,045
330,757;11518,919;    0,253;    1,591
331,351;10904,907;   -0,292;    0,682
331,945;11204,978;   -0,383;    1,409
332,540;10873,638;    1,617;   -0,591
333,134;11051,895;    3,344;    0,773
333,728;11282,697;    2,799;    0,318
334,322;11689,673;    0,889;   -0,864
334,916;11024,271;    0,344;    0,955
335,510;11374,203;   -0,111;   -0,136
336,105;11658,436;   -0,929;    1,591
336,699;11363,741;   -1,292;    0,591
337,293;11341,868;    1,071;    0,318
337,887;11490,247;    0,071;    1,955
338,481;11594,575;    2,980;    0,591
339,074;11815,176;    2,071;    2,682
339,668;11640,670;   -0,110;    1,227
340,262;11928,022;    7,708;    3,227
340,856;11462,097;    1,708;   -0,682
341,450;10853,102;    0,708;    1,864
342,044;11789,141;    1,799;    0,136
342,637;11584,153;    1,162;   -2,136
343,231;11458,660;   -1,474;    0,682
343,825;11382,192;   -0,747;   -0,591
344,419;11351,911;   -0,474;    0,500
345,012;11154,361;    2,889;    4,045
345,606;11146,851;   -0,656;    1,591
346,199;11031,467;   -0,111;   -0,227
346,793;10564,052;    2,525;    2,045
347,386;10796,950;    0,889;   -1,136
347,980;10806,036;   -0,838;   -0,045
348,573;10573,577;   -1,748;    0,409
349,167;10249,110;    6,161;    4,773
349,760;10623,059;    2,252;    2,682
350,354;10597,722;    1,616;    1,136
350,947;10314,019;    2,798;    1,682
351,540;10024,588;    0,616;   -1,409
352,134; 9986,818;   -1,111;    1,136
352,727;10028,834;   -0,657;    1,136
353,320; 9853,960;    2,343;    0,591
353,913; 9672,925;   -1,929;    1,864
354,507; 9823,945;    0,434;   -1,227
355,100; 9856,648;    0,071;    0,864
355,693; 9013,228;    4,798;    2,409
356,286; 9055,814;    0,980;    2,773
356,879; 9442,885;   -0,475;    1,227
357,472; 9009,201;    0,980;    1,500
358,065; 9226,652;    3,161;    2,500
358,658; 9149,427;    0,798;    2,318
359,251; 8739,980;    0,252;   -0,591
359,844; 8207,094;    0,343;   -1,136
360,437; 8368,715;    0,252;    0,045
361,030; 8647,494;    0,525;   -0,682
361,623; 8230,236;    0,434;    0,318
362,215; 8225,126;    0,979;    2,045
362,808; 8073,968;   -2,293;   -1,682
363,401; 8236,355;    0,798;    0,136
363,994; 7960,924;    3,252;   -1,500
364,586; 7879,840;    0,888;   -1,500
365,179; 8087,436;   -0,203;   -1,136
365,772; 7551,402;   -0,930;    2,045
366,364; 7838,144;    1,524;   -3,227
366,957; 8053,780;    1,342;   -0,045
367,549; 8034,309;   -0,203;   -0,864
368,142; 7669,210;    0,978;   -1,500
368,734; 7856,315;    2,523;   -2,136
369,327; 7806,694;    2,341;   -0,500
369,919; 7747,713;   -1,659;    0,409
370,512; 7505,736;   -1,023;   -0,500
371,104; 7212,362;    2,704;    1,591
371,696; 7379,625;    1,703;   -0,955
372,289; 7459,161;    0,157;    1,136
372,881; 7595,226;    1,156;    1,318
373,473; 7515,310;    4,064;    1,136
374,066; 7307,619;    1,336;    0,500
374,658; 7182,712;    0,879;    1,136
375,250; 7509,577;   -1,668;   -1,409
375,842; 7342,781;   -0,124;   -0,045
376,434; 7184,524;   -2,762;   -0,409
377,026; 7802,830;   -1,855;   -2,500
377,618; 7676,029;    0,779;   -0,682
378,210; 7514,617;    3,141;   -1,955
378,802; 7338,226;    3,412;   -0,591
379,394; 7278,737;    3,411;    0,682
379,986; 7865,498;    1,138;   -0,955
380,578; 7952,809;    1,410;    0,773
381,170; 7303,408;    0,320;    0,045
381,762; 7253,194;   -0,224;    1,409
382,354; 7463,372;   -0,223;   -1,318
382,945; 7553,139;    0,870;    0,318
383,537; 7727,499;    1,144;   -1,955
384,129; 7739,053;    0,963;   -1,136
384,721; 7874,975;    0,418;    0,955
385,312; 7796,980;   -1,399;   -0,955
385,904; 7888,738;   -0,945;    1,591
386,496; 7240,694;    0,691;    1,045
387,087; 7386,360;    0,418;    2,500
387,679; 7412,336;   -0,401;    0,045
388,270; 7529,699;   -2,401;    2,045
388,862; 7652,703;   -0,401;   -0,318
389,453; 7505,300;    1,054;    1,045
390,045; 7806,905;    3,236;   -2,682
390,636; 7756,857;    0,144;   -0,591
391,227; 7605,446;    2,054;   -0,045
391,819; 7670,787;    0,781;    0,773
392,410; 7749,032;    0,600;    0,045
393,001; 7703,528;    1,600;   -1,591
393,593; 7965,983;    0,600;   -0,045
394,184; 7788,808;    0,873;   -0,409
394,775; 7699,026;    1,146;    2,136
395,366; 7918,578;    1,782;    0,773
395,957; 7906,072;   -2,400;    0,136
396,548; 8234,357;    1,054;    2,682
397,139; 8522,925;    2,236;    0,591
397,730; 8231,448;    0,873;    0,955
398,321; 8293,089;    0,509;    0,955
398,912; 8293,698;   -0,764;    0,136
399,503; 8417,267;   -1,945;   -1,409
400,094; 7825,998;   -1,582;    1,682
400,685; 7715,014;    3,600;    0,045
401,276; 7769,436;   -0,400;   -0,955
401,867; 8067,330;   -1,127;    0,773
402,458; 8147,579;    1,509;   -2,318
403,048; 8152,176;    0,146;    0,591
403,639; 7720,598;    1,509;    0,864
404,230; 7985,579;    0,691;    0,318
404,821; 7906,994;   -0,127;    0,045
405,411; 8001,461;   -0,763;   -2,591
406,002; 7597,579;    3,237;   -1,136
406,592; 7441,315;    2,691;    0,045
407,183; 7692,387;    0,328;   -1,500
407,774; 7573,576;    1,419;   -0,136
408,364; 7893,145;    2,600;    0,409
408,954; 7476,521;   -0,036;    1,227
409,545; 7512,055;    1,873;    1,045
410,135; 6979,530;   -1,581;    0,500
410,726; 7153,124;    0,783;    0,318
411,316; 7480,858;    2,237;    0,773
411,906; 7145,886;    0,146;   -0,409
412,497; 6609,316;   -0,490;   -0,045
413,087; 7167,296;    0,783;   -0,227
413,677; 7493,064;   -2,490;    3,864
414,267; 7303,835;   -1,035;    1,409
414,857; 7240,768;    0,419;    4,227
415,448; 7508,984;   -0,763;    0,500
416,038; 7169,218;   -2,945;   -0,591
416,628; 7061,780;    0,965;    0,409
417,218; 6559,895;   -1,762;    3,318
417,808; 6768,464;    0,965;   -0,409
418,398; 7126,136;   -1,035;    2,682
418,988; 7062,851;   -2,217;    0,591
419,578; 7225,238;    3,601;    1,409
420,168; 7502,621;    0,692;   -0,955
420,757; 7074,834;    0,964;   -1,500
421,347; 6718,757;    1,601;   -0,227
421,937; 6811,140;    3,329;    1,409
422,527; 6701,465;    2,602;   -0,773
423,116; 6448,891;    2,692;   -0,045
423,706; 6749,184;    2,965;    0,318
424,296; 6650,994;    1,601;    0,682
424,885; 7015,903;    1,510;   -3,045
425,475; 7211,963;    1,147;   -2,864
426,065; 7073,623;   -1,489;   -0,318
426,654; 6695,031;    0,329;   -0,318
427,244; 6767,374;    1,147;    1,409
427,833; 6221,619;    1,056;   -0,500
428,423; 6535,592;    0,147;    1,136
429,012; 7193,063;    2,420;   -1,136
429,601; 6668,423;    2,057;    0,136
430,191; 6834,987;    2,511;    4,318
430,780; 6387,841;   -1,671;   -0,409
431,369; 6344,972;    1,329;   -0,045
431,959; 6840,296;    1,693;    0,500
432,548; 6565,431;   -1,398;   -0,045
433,137; 6594,751;    0,329;   -1,318
433,726; 7012,534;    0,148;    0,500
434,315; 6438,265;    0,148;    2,409
434,905; 6461,637;    0,693;    1,409
435,494; 6376,317;    3,148;    0,955
436,083; 6635,522;    1,420;   -0,955
436,672; 6392,751;    1,148;    0,500
437,261; 6053,444;    0,512;   -1,955
437,850; 6126,918;   -1,125;    0,682
438,439; 6032,942;    2,239;    1,955
439,027; 5833,065;    3,421;    1,773
439,616; 6070,085;    2,239;    1,227
440,205; 5825,342;    0,057;   -2,136
440,794; 5685,014;   -0,306;   -0,045
441,383; 5765,991;    1,603;   -0,591
441,971; 5595,702;   -0,306;    0,591
442,560; 5375,193;    0,603;   -1,773
443,149; 5144,255;    3,060;   -1,318
443,737; 5204,436;    0,968;   -2,318
444,326; 5295,114;    0,331;    0,318
444,915; 5225,217;   -1,851;    0,864
445,503; 5404,809;    0,058;   -0,318
446,092; 4952,932;    7,876;    2,136
446,680; 5266,173;    1,876;    0,318
447,269; 5263,814;   -1,487;   -0,318
447,857; 5000,984;    2,240;   -1,773
448,445; 5043,953;    2,149;    1,318
449,034; 5139,324;    0,876;   -1,136
449,622; 5106,965;    1,240;    3,500
450,210; 4719,590;    3,149;    2,227
450,799; 4955,891;    2,604;   -0,591
451,387; 4777,045;    1,786;   -0,591
451,975; 4539,274;   -1,305;    0,864
452,563; 4661,898;    0,422;    2,318
453,151; 4531,559;   -1,032;   -1,227
453,739; 4401,599;   -1,577;    0,136
454,328; 4359,152;    0,604;   -2,136
454,916; 4121,884;    1,150;   -0,136
455,504; 4164,765;    3,513;    1,227
456,092; 4242,472;    2,150;   -1,591
456,679; 4114,634;    0,604;    0,682
457,267; 4370,441;    3,604;    1,045
457,855; 4195,639;    3,241;    1,409
458,443; 3856,734;   -0,304;    1,682
459,031; 4084,584;    1,332;    2,409
459,619; 4284,228;   -3,577;    2,864
460,206; 4179,659;   -0,759;    2,045
460,794; 4246,837;   -0,668;   -0,227
461,382; 4367,352;    0,878;   -0,864
461,970; 4052,652;    0,605;    1,864
462,557; 4093,585;    0,878;   -0,682
463,145; 4221,782;   -0,304;   -1,682
463,732; 4306,637;    2,514;   -1,045
464,320; 4093,309;    1,514;   -3,045
464,907; 3987,969;    0,423;   -0,773
465,495; 3838,128;    2,696;   -1,227
466,082; 3827,783;    2,060;   -0,045
466,670; 3664,890;    2,605;    1,227
467,257; 3924,021;    0,060;    2,045
467,844; 4075,270;    1,514;    0,045
468,432; 4027,408;   -0,031;    3,500
469,019; 3730,397;    1,606;   -1,773
469,606; 3904,120;    0,969;    3,682
470,193; 3819,323;    2,151;    0,227
470,780; 3608,176;    0,333;    0,864
471,368; 3671,006;   -1,212;   -0,773
471,955; 3544,879;    1,060;   -0,682
472,542; 3298,105;   -0,303;   -1,136
473,129; 3320,326;   -0,485;    0,136
473,716; 3130,085;    0,060;    0,591
474,303; 3167,457;    1,333;   -0,864
474,890; 3262,402;    2,333;   -0,500
475,477; 3287,968;   -0,576;    0,409
476,064; 3129,265;    0,697;   -1,591
476,650; 3059,525;    2,152;    0,318
477,237; 2911,616;    1,879;    0,955
477,824; 2917,944;    3,879;    0,864
478,411; 2794,019;    0,606;   -0,318
478,997; 2808,474;    0,606;   -0,773
479,584; 2738,653;   -0,666;   -0,409
480,171; 3132,969;    1,243;   -0,773
480,757; 3033,017;   -0,848;    0,773
481,344; 2945,945;    0,334;    0,409
481,931; 2605,781;   -0,393;    1,045
482,517; 2999,828;    0,425;    0,318
483,104; 3154,621;    1,334;    2,864
483,690; 3114,542;    0,243;    0,045
484,276; 3111,025;    0,698;    0,227
484,863; 3184,610;    2,152;    1,136
485,449; 3179,915;    0,152;    0,318
486,035; 3071,599;   -0,666;   -0,136
486,622; 3304,606;   -2,393;    0,045
487,208; 3154,539;    1,334;    1,500
487,794; 3092,101;    0,971;    0,318
488,380; 3166,769;    0,698;   -1,409
488,967; 3132,106;   -1,120;   -0,409
489,553; 3199,892;   -1,029;   -1,409
490,139; 3317,414;    0,971;    0,773
490,725; 3133,616;    0,789;   -0,227
491,311; 3033,655;    1,516;    3,045
491,897; 2763,849;   -0,665;    1,500
492,483; 2886,367;    0,426;    1,227
493,069; 3484,651;    5,426;    0,864
493,655; 3129,395;    1,789;    0,682
494,241; 3078,525;    1,517;   -0,955
494,826; 3329,343;    0,335;   -1,045
495,412; 3184,374;    0,335;   -0,682
495,998; 3372,759;    0,971;   -0,318
496,584; 3455,102;    2,244;    1,045
497,169; 3509,569;    2,335;   -0,682
497,755; 3634,408;    1,244;    1,227
498,341; 4229,838;    2,153;    0,318
498,926; 4203,597;    2,881;    1,955
499,512; 4361,761;   -0,028;    2,955
500,097; 4476,262;   -0,574;   -0,318
500,683; 4698,033;   -0,028;    2,136
501,268; 5177,163;    1,881;   -0,955
501,854; 5320,543;   -0,119;    1,227
502,439; 5495,200;   -0,573;   -1,773
503,024; 5790,088;    1,608;    0,500
503,610; 6099,563;    1,335;   -0,682
504,195; 6368,093;    1,245;    1,955
504,780; 6780,270;    2,335;    1,227
505,366; 6977,155;    4,063;    2,864
505,951; 7039,540;   -1,119;    1,045
506,536; 7378,639;    1,427;   -3,682
507,121; 7665,895;    1,699;   -0,318
507,706; 8411,089;   -0,392;    1,045
508,291; 8964,908;   -2,937;    1,136
508,876; 8788,249;   -0,482;    2,591
509,461; 8638,620;    1,427;   -0,773
510,046; 9308,272;   -0,391;    0,318
510,631; 9743,932;   -0,119;   -0,773
511,216; 9725,774;   -0,664;   -0,500
511,801;10350,983;   -0,755;    2,591
512,386;10836,386;    0,972;    0,500
512,971;10997,861;    0,427;    0,955
513,555;10828,118;    1,154;   -1,500
514,140;11798,632;    1,336;   -3,136
514,725;11980,273;    1,791;   -1,136
515,309;12318,340;    1,064;    0,318
515,894;11979,850;   -0,300;   -2,227
516,479;12569,071;    1,973;   -0,955
517,063;12553,308;    0,882;    1,227
517,648;12876,052;    0,155;   -1,136
518,232;12628,369;   -1,300;   -1,409
518,817;13100,800;    1,337;    1,682
519,401;13425,653;    0,700;    0,591
519,985;13023,440;    2,700;    1,136
520,570;12997,452;   -0,118;   -1,955
521,154;13393,931;    0,064;    0,591
521,738;13674,587;    1,064;    2,409
522,323;14325,270;   -0,390;    1,682
522,907;14123,453;    2,428;   -0,136
523,491;13891,283;    1,155;    0,955
524,075;13988,987;    0,428;    0,591
524,659;14083,496;    0,973;    0,591
525,243;13519,816;    0,883;    0,409
525,827;13811,050;    0,883;   -0,045
526,411;14790,860;    1,155;   -0,136
526,995;15075,413;    0,337;    1,409
527,579;14669,288;    1,974;   -1,045
528,163;14995,837;    0,428;   -1,500
528,747;14960,545;    1,065;   -0,773
529,331;15264,920;    0,883;   -1,409
529,915;15470,422;    2,338;    0,955
530,499;15471,118;    0,247;    1,227
531,082;15144,371;    1,065;    1,591
531,666;14578,972;    0,520;    0,773
532,250;15301,612;    0,428;    2,682
532,833;15667,830;    0,610;    2,773
533,417;15611,779;    1,247;    0,864
534,001;15592,977;    0,429;   -0,318
534,584;16356,365;    1,974;    0,500
535,168;16147,811;    3,247;    1,409
535,751;16177,008;    4,520;    0,045
536,334;15636,589;    4,520;   -0,409
536,918;16293,973;    1,974;    1,591
537,501;16385,028;    1,520;    1,318
538,085;16323,874;    1,702;    1,045
538,668;16502,669;    0,883;    2,409
539,251;16874,190;    3,156;    3,773
539,834;16897,902;    0,156;    0,773
540,418;16812,772;    3,247;    4,318
541,001;16948,072;    2,702;    1,773
541,584;16946,955;    1,429;    2,227
542,167;16643,365;    0,702;    2,955
542,750;16840,251;    0,793;   -0,773
543,333;16393,623;    1,429;    2,136
543,916;17219,294;   -0,298;    2,500
544,499;17843,121;    2,520;    0,227
545,082;17825,556;    0,248;    3,591
545,665;18017,828;   -0,207;    1,500
546,248;18339,441;    0,520;   -0,318
546,830;18031,844;   -1,752;    1,955
547,413;18455,177;    0,157;   -0,773
547,996;19023,924;    0,157;    0,500
548,579;18728,051;   -0,843;    0,955
549,161;18563,122;    0,884;    2,682
549,744;18368,794;    0,612;    0,409
550,326;18928,893;    0,885;   -1,136
550,909;18633,917;    2,339;    0,591
551,492;19041,324;    0,521;    0,227
552,074;18831,799;   -0,024;   -1,318
552,657;19417,226;    2,430;    0,045
553,239;19156,973;   -3,024;   -0,773
553,821;19089,621;   -1,570;    1,045
554,404;18539,008;   -0,024;    1,136
554,986;18965,601;    2,248;    1,045
555,568;19594,621;    0,430;   -0,955
556,151;18741,961;    4,067;   -0,227
556,733;18942,036;   -1,388;   -0,864
557,315;19468,709;    4,703;    0,500
557,897;19251,025;    0,521;   -0,500
558,479;19401,337;    1,703;    1,318
559,061;19515,820;    1,067;   -0,864
559,643;19857,824;   -0,297;    0,045
560,225;20259,783;   -0,388;    2,864
560,807;20282,551;    0,340;    0,318
561,389;19771,907;   -1,206;    2,318
561,971;20447,876;   -0,660;    2,136
562,553;20300,310;    0,613;    1,591
563,135;20415,239;    1,249;    1,136
563,717;20063,476;    3,158;    1,136
564,298;20763,275;    3,976;   -0,045
564,880;20434,869;    0,340;   -1,409
565,462;20675,960;    1,977;    1,318
566,043;21896,224;   -0,933;    2,318
566,625;21403,129;    4,067;    1,227
567,207;21231,928;    0,704;    1,682
567,788;22373,038;   -0,114;    1,500
568,370;23262,288;   -1,841;   -0,500
568,951;23041,035;   -0,569;    0,227
569,533;23965,798;    0,977;   -0,500
570,114;24449,837;   -0,296;    0,682
570,695;24965,719;   -0,478;   -1,318
571,277;25479,948;   -0,205;   -1,682
571,858;26269,122;    2,704;   -1,136
572,439;27192,493;    0,795;   -1,045
573,021;27386,099;    0,432;   -2,773
573,602;27951,775;    1,795;    0,318
574,183;28839,704;   -0,114;    2,227
574,764;29032,206;    2,068;    0,409
575,345;29596,068;    0,250;   -0,136
575,926;30200,332;    2,704;    0,136
576,507;30273,589;    2,704;   -0,227
577,088;31331,285;    1,704;    1,682
577,669;31357,783;    1,704;    1,955
578,250;32120,431;   -0,750;   -1,045
578,831;32801,808;   -0,841;   -2,227
579,412;33081,669;   -1,205;    0,955
579,993;34065,285;    1,432;    0,227
580,573;34389,957;   -0,023;   -0,955
581,154;33295,546;    1,613;   -0,591
581,735;34176,475;    0,341;    0,773
582,315;33658,838;    0,523;    2,136
582,896;33988,933;   -1,750;    1,227
583,477;33432,756;    0,614;    1,227
584,057;33669,708;    1,159;    0,955
584,638;33914,103;   -2,750;    2,318
585,218;33884,427;    2,886;    2,682
585,799;34042,700;    1,977;   -0,227
586,379;34035,921;    1,250;    1,591
586,959;32859,495;    2,613;    0,318
587,540;32157,701;    0,432;    2,227
588,120;31623,935;   -1,113;   -0,045
588,700;30555,784;    2,977;    2,136
589,281;30829,439;    1,250;   -0,955
589,861;30755,949;   -0,296;   -1,682
590,441;30606,175;   -1,477;   -2,682
591,021;29547,554;    1,432;   -2,591
591,601;29811,470;    0,431;    0,500
592,181;29802,395;   -1,296;   -0,773
592,761;29100,266;    2,250;    1,409
593,341;28941,550;    1,522;    0,045
593,921;28859,889;   -0,569;    1,591
594,501;28763,708;    1,250;    1,318
595,081;28651,640;    0,522;   -0,318
595,661;28979,471;    1,068;    0,955
596,240;29495,411;   -1,023;    0,136
596,820;29115,185;    2,613;    1,955
597,400;29310,490;    1,977;    0,773
597,980;29593,865;   -0,750;    1,045
598,559;29618,660;    0,341;   -0,227
599,139;29312,593;   -0,750;   -1,227
599,718;29151,502;    0,795;   -0,409
600,298;29370,328;   -2,387;    0,682
600,877;29635,059;    4,795;    1,409
601,457;29950,833;    0,340;    1,136
602,036;29838,012;    1,795;    2,045
602,616;30059,407;    2,250;    1,682
603,195;30380,102;    0,431;    3,500
603,774;29930,549;   -0,296;    2,045
604,354;29817,343;    2,522;   -0,500
604,933;29247,186;    0,250;    1,864
605,512;29406,415;    2,340;    0,591
606,091;29439,952;    1,886;    3,773
606,671;30250,988;    0,249;    0,773
607,250;29292,541;    1,431;    3,136
607,829;29599,450;    1,158;    3,227
608,408;29447,185;    4,613;    2,591
608,987;28433,789;    2,704;    3,409
609,566;28752,929;    0,341;   -2,500
610,145;28783,137;    2,885;    0,682
610,723;29266,730;    1,613;    6,864
611,302;28490,481;    1,067;    1,682
611,881;27950,240;    5,158;   11,227
612,460;28798,038;    0,795;    3,955
613,039;29198,263;    1,703;    2,045
613,617;27944,315;    0,886;    4,773
614,196;28089,342;    1,613;    1,227
614,775;28418,223;    1,249;    2,409
615,353;28364,966;   -1,660;    0,864
615,932;28081,946;    0,249;    2,409
616,510;28711,765;    0,158;    0,591
617,089;28191,472;    8,794;   17,591
617,667;27981,132;    4,885;    6,136
618,246;27765,389;   -1,115;    1,318
618,824;27928,464;    1,612;   -0,955
619,402;27447,468;    0,431;   -1,773
619,981;27977,962;    1,067;   -1,045
620,559;27889,985;    0,794;    1,682
621,137;27396,432;    3,067;    1,864
621,715;27345,480;    3,703;   -0,682
622,293;27273,397;    1,885;   -0,773
622,871;27763,072;    0,340;    0,500
623,450;27329,799;    0,430;   -0,864
624,028;27217,922;   -0,388;   -0,955
624,606;26773,365;    2,339;    1,682
625,183;27155,186;   -0,661;   -1,136
625,761;26852,546;    1,885;    1,136
626,339;27126,353;    2,339;    2,591
626,917;27510,917;    0,339;   -0,045
627,495;27541,961;    2,794;    1,318
628,073;26970,933;    5,248;    2,864
628,650;26662,542;    3,067;    2,136
629,228;27109,360;    1,248;    4,409
629,806;26477,459;   -0,024;    1,136
630,383;26732,905;    0,066;   -0,318
630,961;26499,127;   -2,206;   -0,955
631,539;26206,956;   -2,479;    0,227
632,116;25473,036;   12,703;   15,409
632,694;26111,913;    4,885;    6,500
633,271;26424,636;    1,975;    2,682
633,848;26354,873;    1,430;    2,045
634,426;26376,019;    1,521;    1,773
635,003;25548,662;   -0,207;   -0,409
635,580;25828,010;    1,884;    3,682
636,158;26340,453;    3,793;    1,227
636,735;26361,213;    3,339;   -0,500
637,312;26447,952;    0,521;   -0,682
637,889;26552,058;    2,248;   -0,682
638,466;26060,441;    0,066;   -0,409
639,043;26093,266;    1,702;   -1,136
639,620;26394,776;    0,611;   -0,955
640,197;26703,495;    1,612;    1,682
640,774;26842,913;    1,430;    1,136
641,351;27272,787;    0,612;    1,136
641,928;26611,387;    2,794;    1,409
642,505;26322,352;    0,794;   -0,500
643,082;26447,498;    1,885;    1,227
643,658;25415,280;    1,157;    1,500
644,235;26173,426;   -2,479;    2,500
644,812;26434,754;    1,794;    0,773
645,388;26243,082;    1,612;    1,409
645,965;26299,864;    1,521;    1,682
646,542;26315,829;    3,430;   -0,227
647,118;26319,066;    3,703;   -0,955
647,695;26614,757;    0,339;    1,136
648,271;26565,449;   -2,115;    0,500
648,848;26899,322;    0,248;    2,227
649,424;26682,559;    0,976;    1,318
650,000;26436,523;   -0,388;   -1,045
650,577;26266,851;    0,158;   -0,955
651,153;26749,724;   -1,115;    0,955
651,729;27695,870;    0,521;    0,864
652,305;27911,926;    1,339;    2,773
652,881;32364,890;   -1,297;    1,136
653,458;39303,672;    0,249;    0,227
654,034;43298,546;    0,703;    1,591
654,610;44878,146;    0,339;    0,773
655,186;46228,656;    1,612;    3,045
655,762;45933,802;   -1,842;    0,409
656,338;46083,130;    0,703;    0,136
656,913;47090,185;   -0,297;    0,409
657,489;46360,604;    0,249;   -0,318
658,065;46368,841;    0,794;   -1,591
658,641;46965,987;    2,158;   -0,864
659,217;46251,860;    2,067;    0,409
659,792;45700,915;   -1,751;   -0,409
660,368;45974,243;   -0,388;   -0,682
660,944;45753,753;    1,794;    1,227
661,519;41088,444;    0,522;    0,409
662,095;34722,591;   -0,206;    0,591
662,670;29892,828;   -0,206;   -0,136
663,246;28680,792;   -0,660;   -0,409
663,821;27948,392;    0,431;    1,682
664,396;27473,357;    0,613;    1,864
664,972;27711,139;   -0,660;   -0,500
665,547;28087,740;    3,794;    0,136
666,122;28043,522;    1,340;    0,318
666,698;28357,668;    2,431;    0,318
667,273;27666,723;    0,885;    0,136
667,848;28485,051;    0,340;    1,500
668,423;28200,106;    1,795;    2,318
668,998;28851,616;    0,976;   -0,682
669,573;29370,398;    2,067;   -1,500
670,148;29107,726;    1,885;   -0,682
670,723;28988,691;   -0,024;    0,318
671,298;29465,655;   -1,296;    1,045
671,873;29542,619;   -0,296;   -0,136
672,448;29514,220;    1,704;    0,136
673,023;29852,457;    0,249;   -0,227
673,597;30155,330;    2,704;    2,318
674,172;29917,385;    2,431;    0,318
674,747;29451,895;   -0,205;   -1,045
675,321;29281,314;   -0,933;    3,318
675,896;28855,460;    2,158;    1,045
676,471;29829,878;    2,522;    1,591
677,045;29602,570;   -0,296;    0,682
677,620;29571,262;    2,158;    1,136
678,194;29956,044;    0,249;    1,136
678,769;29460,281;    0,886;   -0,318
679,343;29675,518;   -0,023;    1,773
679,917;29564,573;    0,340;    1,955
680,492;29653,083;    0,249;    3,227
681,066;29800,047;    0,613;    0,409
681,640;29809,011;    1,795;   -0,318
682,214;30693,339;    2,340;    0,500
682,788;30133,031;    0,613;   -0,773
683,363;30100,722;    1,977;    1,682
683,937;29802,414;    0,886;   -0,318
684,511;30593,287;   -1,023;   -0,591
685,085;30318,069;   -1,478;    0,318
685,659;30068,488;    1,431;    0,864
686,232;30281,634;    1,159;   -0,318
686,806;30051,599;    2,159;    0,409
687,380;30675,654;   -1,932;    0,591
687,954;30922,254;    2,432;    1,136
688,528;30561,309;    2,613;    1,955
689,101;31418,546;    0,432;    1,045
689,675;30924,420;    0,886;   -0,136
690,249;30254,293;    3,432;    0,409
690,822;30637,075;    1,159;    0,318
691,396;30701,767;    2,068;    1,227
691,969;30129,004;    2,523;    0,136
692,543;30658,423;   -0,568;   -1,955
693,116;30263,478;   -0,659;   -1,409
693,690;30073,897;   -0,296;    0,500
694,263;30643,134;    2,341;    2,955
694,836;30682,734;    2,795;    3,591
695,410;29270,244;    1,159;    1,773
695,983;29838,845;    1,614;    0,591
696,556;29739,627;   -0,750;   -1,045
697,129;30168,864;   -1,114;    1,409
697,703;29731,010;    1,341;    1,955
698,276;29756,338;    1,705;   -0,773
698,849;29533,757;   -1,023;    1,409
699,422;29929,266;    1,250;    0,591
699,995;29587,231;   -0,659;    0,136
700,568;30139,740;   -0,204;    3,045
701,140;30163,068;   -1,841;    1,682
701,713;29878,942;    0,341;    2,409
702,286;29635,088;    0,796;    0,864
702,859;29479,688;    0,614;   -0,591
703,432;28621,653;   -0,841;    0,682
704,004;29167,162;    1,978;    0,318
704,577;29020,217;    1,068;    0,136
705,150;29610,909;    0,887;    2,500
705,722;29380,146;    1,523;   -3,227
706,295;29130,474;    1,432;   -0,591
706,867;28963,529;    0,250;    1,955
707,440;29250,584;   -0,113;   -0,409
708,012;29523,185;   -0,022;    0,591
708,584;29335,513;    2,705;    0,227
709,157;29670,931;    1,160;   -0,591
709,729;29344,623;    1,069;    2,045
710,301;30208,587;   -1,204;    0,045
710,874;30219,006;    0,341;   -0,227
711,446;29043,334;   -0,295;    0,864
712,018;28956,207;   -3,022;    0,500
712,590;28703,626;   -0,204;    1,682
713,162;29207,772;   -0,477;    1,318
713,734;29421,918;    1,796;   -2,045
714,306;29309,519;    0,342;   -0,409
714,878;27928,028;   -0,295;    0,864
715,450;28796,993;   -0,113;    0,864
716,022;29055,502;    2,433;    1,318
716,593;29260,921;    0,978;    0,591
717,165;29154,067;    1,796;   -1,227
717,737;28868,759;    0,796;    0,409
718,309;28526,814;    1,160;   -0,045
718,880;28437,596;   -1,295;   -1,409
719,452;28697,742;    0,887;   -1,591
720,024;28241,070;    1,705;   -0,591
720,595;28835,307;    2,978;    0,955
721,167;28432,090;    1,160;   -2,045
721,738;27918,145;    2,069;   -1,045
722,309;27785,836;    1,251;   -1,227
722,881;27595,528;    2,705;    0,773
723,452;28300,947;    1,251;    2,864
724,023;28431,638;    1,524;    2,682
724,595;28238,057;    2,342;    0,682
725,166;27968,385;    1,524;   -0,409
725,737;27562,076;    1,887;    0,227
726,308;27613,768;    0,797;    0,318
726,879;28052,277;    1,069;    1,227
727,450;27943,605;   -2,022;   -0,045
728,021;27931,206;    1,069;    0,682
728,592;27758,807;    1,160;    0,500
729,163;28024,407;    1,433;   -0,136
729,734;28085,917;    2,160;   -0,227
730,305;28404,245;    0,615;    0,136
730,876;28752,482;    0,888;    2,955
731,447;28420,264;    0,797;    2,682
732,017;28538,774;   -0,840;    1,864
732,588;28045,102;   -0,021;    1,227
733,159;28248,430;    3,615;   -1,045
733,729;28082,030;    1,251;    0,409
734,300;27393,267;    0,160;    0,864
734,870;27782,504;   -1,385;    0,591
735,441;28323,650;    0,888;   -0,591
736,011;28075,887;    1,070;   -1,591
736,582;28012,124;    1,251;    0,045
737,152;27474,997;    0,979;   -2,045
737,722;27927,325;    1,070;   -0,682
738,293;27678,926;   -2,021;    1,318
738,863;27565,163;    1,797;    2,318
739,433;27347,309;    4,524;    0,318
740,003;27950,728;    1,524;   -0,682
740,573;27316,601;    2,252;   -1,591
741,143;27333,474;    3,615;    0,318
741,713;28132,984;    0,252;   -0,500
742,283;27777,767;    1,706;    1,591
742,853;27531,004;    0,524;    1,591
743,423;27017,877;    0,161;    0,045
743,993;27124,750;    1,070;    1,500
744,563;26498,351;    2,524;   -0,864
745,133;26470,224;   -0,112;   -0,864
745,702;27154,098;    2,797;    1,773
746,272;26297,062;    0,434;    0,591
746,842;26077,117;   -0,748;   -0,591
747,411;26557,808;   -0,839;   -0,318
747,981;26720,955;   -0,930;    0,500
748,551;26765,282;   -0,021;   -1,045
749,120;26621,610;   -0,112;   -0,227
749,690;27029,120;    2,161;    2,409
750,259;27310,266;    0,979;    2,955
750,828;27235,867;    4,070;   -1,955
751,398;27448,467;   -0,112;   -0,045
751,967;26942,522;    2,888;    0,409
752,536;27178,032;    1,161;   -0,227
753,105;27563,815;   -1,384;    0,227
753,675;27377,870;   -0,112;    1,773
754,244;27354,198;    0,888;    3,591
754,813;27378,071;    0,979;    1,227
755,382;27008,035;    0,798;    0,955
755,951;27521,636;   -0,112;    3,682
756,520;27048,327;    2,525;    1,864
757,089;27628,201;    1,888;    0,500
757,658;27773,983;    2,434;    1,227
758,227;27783,856;   -1,111;    0,318
758,795;28130,730;   -1,021;    1,136
759,364;28343,421;    0,525;   -0,591
759,933;27316,749;    1,343;   -0,045
760,501;26857,713;    0,252;   -1,318
761,070;27291,768;   -0,293;   -1,409
761,639;28032,187;    1,434;    1,318
762,207;27291,152;    0,889;   -0,955
762,776;27281,389;    2,889;    0,864
763,344;27208,898;    0,071;    0,591
763,913;26307,317;    1,616;    1,409
764,481;27127,099;    1,980;   -0,136
765,049;26889,064;    0,616;    1,409
765,618;26757,028;    1,434;    0,318
766,186;26849,992;    2,434;    0,136
766,754;27020,138;    1,798;    1,864
767,322;25942,284;    1,162;    0,409
767,890;25974,067;    0,525;   -1,773
768,459;26427,758;    2,616;   -0,318
769,027;26575,904;    2,525;    3,409
769,595;25582,959;    2,616;    2,591
770,163;26008,015;    3,344;    2,955
770,730;25729,888;    2,525;   -0,136
771,298;25632,579;    1,162;   -1,409
771,866;25703,544;    0,253;    4,955
772,434;26005,508;    1,162;   -1,864
773,002;26186,836;    2,616;    0,682
773,569;25768,527;    1,071;    1,682
774,137;25603,492;    0,889;   -0,045
774,705;26429,547;   -0,747;   -0,136
775,272;25897,056;    0,253;    0,682
775,840;25647,475;   -0,111;    2,682
776,407;25157,894;   -0,293;    1,955
776,975;24767,586;    1,162;    0,318
777,542;25850,277;    2,162;   -0,045
778,110;25625,605;    0,707;   -0,045
778,677;25280,842;    1,071;   -0,864
779,244;25009,443;   -1,020;    1,045
779,812;25166,407;    0,980;    0,864
780,379;24998,916;    2,435;    1,136
780,946;25254,426;    2,617;   -0,773
781,513;25507,027;   -0,565;    0,318
782,080;24835,173;    1,253;    2,864
782,647;25604,773;    1,708;    3,045
783,214;25207,738;   -0,201;    3,864
783,781;24832,520;    1,708;   -0,682
784,348;24679,939;    0,253;    1,500
784,915;25189,540;   -1,474;    0,318
785,482;24933,049;    2,708;    2,591
786,049;25405,741;    1,071;   -0,591
786,615;25500,069;    1,708;   -0,955
787,182;25257,124;   -3,201;   -0,682
787,749;24997,815;   -2,201;    1,409
788,315;24268,143;    0,253;   -0,409
788,882;24575,380;    0,981;   -1,227
789,448;25197,890;    1,435;   -0,955
790,015;25229,854;    1,799;    3,227
790,581;24799,000;    0,708;    0,227
791,148;24667,783;    1,344;    1,045
791,714;24911,020;   -1,019;    3,136
792,280;24628,166;    3,708;    1,591
792,847;24201,221;   -0,928;    2,500
793,413;24709,912;   -0,110;   -0,318
793,979;24253,877;    1,526;   -1,318
794,545;24323,932;    2,981;    2,682
795,111;23716,078;    2,435;    1,318
795,678;23830,678;    3,526;   -1,682
796,244;23529,552;    2,799;    0,136
796,810;24129,152;    0,799;    0,773
797,375;23828,298;   -0,292;   -2,136
797,941;23850,172;   -1,110;    0,591
798,507;23950,409;    0,254;   -0,955
799,073;23532,918;    2,708;    0,591
799,639;23556,973;    1,435;    3,136
800,205;23648,210;   -1,565;    2,682
800,770;23117,175;    1,345;    1,773
801,336;23178,957;    2,981;   -0,955
801,901;22846,649;    6,072;    3,136
802,467;23461,340;    0,526;    2,045
803,033;22765,668;   -0,019;    0,864
803,598;22967,541;    1,072;   -1,045
804,163;23058,142;    0,708;   -0,318
804,729;22973,015;   -0,110;    1,136
805,294;23358,980;    1,072;    2,227
805,859;23166,398;    0,890;   -0,409
806,425;22629,726;    3,890;    2,682
806,990;22295,600;    1,890;    4,318
807,555;22806,291;   -0,110;    2,591
808,120;22697,983;   -1,292;   -0,409
808,685;22767,401;    1,072;   -2,500
809,250;22252,275;    2,072;   -0,500
809,815;22583,966;   -0,201;    0,682
810,380;23121,021;    0,981;    1,591
810,945;23611,804;    2,890;    2,045
811,510;22816,586;   -0,200;    1,591
812,075;22531,823;    2,800;   -1,409
812,640;22507,606;    3,709;    1,409
813,204;22544,115;    2,163;   -0,227
813,769;23095,352;    0,254;   -0,045
814,334;22425,498;    0,527;    0,864
814,898;22513,008;    1,981;    0,591
815,463;22387,154;    0,981;   -0,773
816,027;22358,573;    1,345;   -2,318
816,592;22473,810;    2,163;   -2,045
817,156;21976,865;   -2,200;    1,136
817,721;21751,920;    0,982;    2,318
818,285;21751,157;    0,618;    1,500
818,849;22406,940;   -0,018;    1,682
819,414;22310,995;    0,073;    2,955
819,978;21881,777;   -0,291;    1,773
820,542;22439,105;    2,891;    0,500
821,106;22177,069;    2,800;    0,682
821,670;22304,943;    2,709;    2,591
822,234;21969,907;    1,073;    1,409
822,798;21387,871;   -0,836;    0,500
823,362;21374,926;    1,527;    4,227
823,926;20635,436;   -0,018;    1,136
824,490;20852,037;    3,527;   -0,682
825,054;21356,637;    2,527;   -1,136
825,618;20951,511;   -1,200;   -1,500
826,181;20846,657;    0,982;   -1,318
826,745;20787,712;   -0,745;   -1,045
827,309;21136,676;    2,255;    1,318
827,872;20538,731;    0,527;    0,955
828,436;21511,059;    1,982;   -0,773
828,999;21587,478;    2,436;    1,227
829,563;20389,715;   -0,654;    1,136
830,126;20257,315;   -0,018;   -0,591
830,690;20228,916;    0,709;    2,864
831,253;19750,971;   -0,473;    2,227
831,816;19874,026;   -0,018;    0,500
832,380;19807,809;    1,164;    0,864
832,943;19982,682;    3,073;   -0,500
833,506;19507,192;    0,255;   -1,227
834,069;20306,156;    2,164;   -0,955
834,632;20348,848;   -2,200;    1,318
835,195;20230,357;    1,346;    0,955
835,758;19447,231;    0,709;    1,955
836,321;19285,013;    1,073;   -1,045
836,884;19371,705;   -1,291;   -0,955
837,447;19404,214;    0,528;    1,773
838,010;19650,724;    1,800;    3,227
838,573;19982,234;    0,528;    0,773
839,135;19925,743;   -0,109;   -0,955
839,698;19391,435;    2,528;    0,409
840,261;18882,217;    0,255;   -0,227
840,823;18785,454;   -0,927;    0,864
841,386;19044,146;   -0,018;   -2,409
841,948;18948,292;    0,255;    1,773
842,511;18636,074;    0,255;    1,682
843,073;18784,311;    2,982;    0,227
843,636;18615,548;    0,619;   -0,227
844,198;18517,240;    1,255;    0,591
844,760;18674,022;    0,619;    1,955
845,322;18278,532;    0,164;    1,136
845,885;18731,314;   -0,290;    0,591
846,447;19139,279;    0,710;    0,227
847,009;18634,152;    3,983;   -0,682
847,571;19026,571;    1,346;   -2,045
848,133;19152,080;   -0,199;   -1,864
848,695;18903,590;    2,346;    1,409
849,257;18484,100;    1,346;   -1,682
849,819;18661,337;    2,983;   -0,409
850,381;18723,483;    1,801;   -0,864
850,942;19090,174;    1,892;   -0,591
851,504;18994,048;    0,983;    0,227
852,066;19032,376;    1,619;   -1,591
852,628;18633,703;    0,165;    1,955
853,189;18145,486;    0,256;    2,682
853,751;18303,541;   -0,654;    1,409
854,312;18087,778;    1,256;   -1,682
854,874;18602,288;   -0,108;   -0,773
855,435;19033,434;    0,528;   -1,682
855,997;19211,943;    3,983;   -0,136
856,558;18464,362;    0,801;    1,773
857,119;18613,236;   -0,744;    2,864
857,681;18288,291;   -0,108;    0,318
858,242;18267,346;    1,347;   -2,136
858,803;18776,856;    1,074;   -0,773
859,364;19353,729;    0,892;   -4,773
859,925;18713,420;   -0,290;   -0,955
860,486;18602,930;    0,529;   -0,955
861,047;18317,531;    0,165;   -1,227
861,608;18104,495;    0,165;   -0,773
862,169;18252,005;   -0,562;   -0,045
862,730;17997,242;   -0,290;    1,409
863,291;18276,206;    0,438;   -0,500
863,852;18582,806;   -0,926;    1,955
864,412;18080,953;   -1,835;   -0,864
864,973;16625,462;    1,892;    0,500
865,534;16458,245;    2,074;    0,227
866,094;18001,391;    2,620;    0,227
866,655;17640,991;    4,711;    3,318
867,215;17949,774;    0,074;    0,136
867,776;17808,193;   -1,199;   -0,136
868,336;17875,066;    1,529;    0,136
868,897;17339,757;    3,438;    1,682
869,457;17126,176;    3,256;    0,318
870,017;17374,868;    2,438;   -1,227
870,578;17909,105;    1,893;    0,773
871,138;17483,887;    2,620;   -0,955
871,698;17042,942;   -0,562;   -1,318
872,258;16908,907;    0,711;   -2,864
872,818;17259,962;    2,347;    0,045
873,378;17251,471;   -2,198;    1,045
873,938;16832,708;    4,984;    0,500
874,498;17155,945;    1,256;   -1,955
875,058;17014,182;    4,347;    1,773
875,618;16863,601;    1,438;   -2,682
876,177;16796,111;   -0,471;    0,136
876,737;16364,075;   -0,289;    1,955
877,297;16400,403;    2,711;    1,955
877,856;16405,640;    2,529;    0,318
878,416;16319,513;    2,438;   -0,136
878,976;16562,023;    3,438;    0,409
879,535;16795,351;    4,529;    3,136
880,095;16553,406;    1,347;    0,045
880,654;16632,097;    0,347;    1,318
881,213;16705,607;    2,347;    1,500
881,773;16396,571;    1,984;    2,682
882,332;16707,990;    6,075;    5,136
882,891;16575,500;    0,711;    2,136
883,451;17026,828;   -2,016;    1,682
884,010;16479,065;   -1,107;   -0,409
884,569;16570,484;   -2,289;   -0,045
885,128;16680,811;   -0,743;   -1,864
885,687;16787,412;   -0,743;    0,682
886,246;16474,285;    2,620;    2,136
886,805;16255,522;    1,620;    2,045
887,364;16526,123;    1,166;   -0,500
887,922;16908,360;   -0,016;    0,045
888,481;16360,870;    1,530;    0,591
889,040;16680,834;    3,711;    2,136
889,599;17362,525;    2,166;    1,409
890,157;17433,217;    2,166;    2,409
890,716;17098,181;    2,166;    0,227
891,274;16902,418;    0,075;   -1,136
891,833;17302,201;    1,166;    0,864
892,391;17197,347;    1,802;    0,500
892,950;17270,311;    0,166;   -0,773
893,508;17626,730;    0,984;   -0,409
894,067;17002,967;   -0,379;    0,136
894,625;16893,113;   -1,016;   -1,500
895,183;17057,077;   -0,198;   -0,682
895,741;17026,678;    2,257;   -1,773
896,299;16808,096;    1,621;   -2,409
896,858;17013,697;    1,530;   -1,591
897,416;17101,479;    0,166;   -1,318
897,974;16886,989;   -2,197;    0,318
898,532;17025,408;    6,530;    2,682
899,089;16913,827;    0,621;   -0,682
899,647;17012,518;    0,530;    1,318
900,205;16737,391;    0,257;    1,045
900,763;16902,356;    2,166;    0,227
901,321;16938,865;    3,530;   -1,409
901,878;16369,466;    3,257;   -0,773
902,436;16210,158;    0,257;    1,318
902,994;16609,213;    6,712;    3,682
903,551;16032,813;    1,439;    0,409
904,109;16438,050;    1,530;   -1,409
904,666;16042,196;    1,439;    1,045
905,224;15832,433;    3,894;   -0,409
905,781;15556,943;   -0,470;   -0,318
906,338;15679,089;    0,167;    1,045
906,895;15604,781;    1,894;    2,045
907,453;15526,108;    2,348;    1,136
908,010;15573,709;    3,348;    0,409
908,567;15201,492;   -0,561;    0,591
909,124;14708,728;    2,439;   -1,500
909,681;14789,693;   -1,288;    0,682
910,238;14939,475;   -0,106;   -1,318
910,795;15247,530;   -1,561;   -1,136
911,352;14849,530;   -0,379;   -2,682
911,909;14316,076;    2,803;   -0,864
912,466;14787,348;    1,985;    1,500
913,022;14311,985;   -0,924;    0,500
913,579;14728,894;   -0,470;    2,045
914,136;14449,894;   -2,561;    0,955
914,692;14786,439;    1,530;   -1,227
915,249;14322,712;    0,530;    0,409
915,806;14523,985;    1,803;    1,955
916,362;14236,076;    0,894;    1,864
916,918;13809,621;    2,439;    1,045
917,475;13792,712;    1,621;    0,955
918,031;13925,258;    0,076;   -0,045
918,587;13376,803;    0,621;   -0,318
919,144;13614,803;   -0,379;    0,227
919,700;13948,258;    0,167;    0,773
920,256;13499,076;    0,439;    0,045
920,812;13105,621;    1,439;   -1,045
921,368;13130,076;    1,348;   -1,045
921,924;12777,258;    0,439;   -0,136
922,480;12313,530;    0,076;    1,227
923,036;12952,439;   -0,652;    1,955
923,592;12901,258;    0,621;    0,318
924,148;12790,258;    1,894;   -0,955
924,704;12156,712;    0,258;   -0,409
925,259;12428,439;   -0,561;    0,591
925,815;12144,258;    3,803;    0,500
926,371;11718,894;    3,530;    1,409
926,926;11605,712;    1,621;    0,591
927,482;11212,894;    1,621;    0,773
928,037;11096,439;   -0,833;    2,045
928,593;11406,803;    0,258;    1,045
929,148;11201,985;    1,167;   -1,500
929,704;10755,439;    2,439;   -0,500
930,259;10889,894;    0,894;   -0,136
930,814; 9995,894;    1,803;    1,955
931,369; 9718,621;    0,258;   -0,773
931,925; 9653,712;   -1,924;    0,136
932,480; 9497,439;    3,076;   -2,591
933,035; 9367,076;    3,985;   -0,318
933,590; 9132,167;   -1,742;   -1,773
934,145; 8800,167;   -1,288;   -0,318
934,700; 9160,621;    0,348;   -0,591
935,255; 8959,439;    4,803;    0,045
935,809; 8236,348;    6,258;    0,864
936,364; 7388,803;    2,167;   -0,136
936,919; 7378,621;    2,348;   -1,773
937,474; 7282,803;    1,348;    0,136
938,028; 7025,621;    3,076;    1,136
938,583; 6459,530;    6,348;    4,682
939,138; 6787,258;    0,167;    2,136
939,692; 6282,076;   -1,015;   -1,136
940,247; 5932,894;    1,167;   -1,045
940,801; 5491,439;    0,621;    0,227
941,355; 5388,894;    0,439;    2,591
941,910; 5060,076;    0,712;   -2,136
942,464; 5131,348;    2,712;   -0,318
943,018; 4936,348;    3,258;   -0,227
943,572; 4875,894;    2,803;   -0,682
944,126; 4308,803;   -0,924;   -0,409
944,681; 4204,985;    0,712;    0,227
945,235; 4188,167;    2,167;   -0,591
945,789; 4112,530;    1,258;   -1,864
946,342; 4206,712;   -0,561;   -0,591
946,896; 4036,530;    0,348;    0,955
947,450; 3804,348;   -0,561;   -0,227
948,004; 3968,712;    1,076;   -0,045
948,558; 3999,258;    1,258;   -0,864
949,111; 3911,712;   -1,197;   -0,318
949,665; 3927,621;   -0,106;   -0,682
950,219; 3813,985;    0,621;   -1,045
950,772; 3893,712;    0,258;    1,864
951,326; 3803,530;   -1,106;   -0,955
951,879; 3899,985;    1,076;   -2,318
952,433; 3910,712;    1,348;    2,227
952,986; 3743,258;    0,348;    0,682
953,539; 3701,894;    1,530;    0,591
954,093; 3647,712;    0,985;   -1,318
954,646; 3770,076;   -0,288;    1,318
955,199; 3589,167;    1,258;   -0,500
955,752; 3473,530;    1,985;    1,773
956,305; 3423,258;    0,894;    2,955
956,858; 3590,530;    0,621;   -0,318
957,411; 3783,985;    3,621;    2,136
957,964; 3588,258;    2,076;    2,136
958,517; 3578,803;    0,985;    3,136
959,070; 3424,803;   -1,197;    1,955
959,623; 3488,894;    1,076;    1,500
960,176; 3271,530;    0,712;    2,045
960,728; 3245,530;    1,712;    0,773
961,281; 3324,348;    2,258;    0,500
961,834; 3349,167;   -0,833;    0,864
962,386; 3258,894;    1,258;    1,045
962,939; 3179,348;    3,439;   -0,318
963,491; 3328,439;    2,621;    1,136
964,043; 3200,985;    0,076;    2,409
964,596; 3334,439;    1,712;    2,227
965,148; 3152,803;   -0,379;    1,773
965,700; 3088,803;   -0,015;   -0,227
966,253; 3256,348;   -0,833;    0,318
966,805; 3089,894;    1,894;    0,773
967,357; 3124,712;    0,439;   -1,500
967,909; 3083,985;    1,167;   -1,227
968,461; 3179,076;    0,894;    3,136
969,013; 3105,530;   -1,561;   -0,864
969,565; 3184,076;    1,803;   -1,136
970,117; 3273,076;    3,803;    1,045
970,669; 3105,985;    3,258;   -0,136
971,220; 2963,076;    2,167;   -1,500
971,772; 2894,167;    1,348;   -0,318
972,324; 3011,985;   -1,197;   -0,500
972,876; 2965,076;    0,167;   -0,045
973,427; 3076,621;   -1,197;   -1,045
973,979; 3075,530;    0,076;   -2,500
974,530; 3087,985;    0,803;    1,318
975,082; 3098,348;    2,167;    1,682
975,633; 2985,712;    2,894;    1,682
976,184; 3130,803;    2,076;    0,773
976,736; 2943,348;    0,348;    0,227
977,287; 2721,076;    0,258;   -0,500
977,838; 2906,985;   -0,924;   -0,318
978,389; 2958,076;    0,803;   -0,500
978,940; 2834,894;    1,258;   -0,409
979,491; 2846,894;    2,258;   -0,500
980,042; 2793,076;   -0,652;    3,045
980,593; 2870,530;    1,894;    0,227
981,144; 2932,894;    3,530;   -0,500
981,695; 2911,894;   -0,470;    1,500
982,246; 2871,439;   -1,833;    1,045
982,797; 3023,258;   -0,561;    0,682
983,347; 3150,167;    2,167;    0,591
983,898; 3297,621;    4,167;    0,409
984,449; 3100,076;    2,530;    0,773
984,999; 3022,985;    1,894;   -1,136
985,550; 2792,985;    3,167;   -0,318
986,100; 2841,803;    0,712;   -0,318
986,651; 2867,167;    0,258;    0,045
987,201; 2850,621;    0,894;   -0,591
987,751; 2924,167;   -0,288;    2,864
988,302; 2890,985;   -0,379;    1,500
988,852; 2919,076;    1,985;   -1,136
989,402; 2970,803;    0,985;    0,682
989,952; 2883,803;    1,621;    0,864
990,502; 2986,348;    1,076;    0,682
991,052; 2955,167;   -0,106;    0,045
991,602; 2806,439;    1,167;    1,318
992,152; 2806,803;    2,803;    0,682
992,702; 2789,439;    1,167;   -0,045
993,252; 2706,712;    0,076;   -0,500
993,802; 2788,985;    1,167;    1,318
994,352; 3045,439;   -0,742;    1,136
994,901; 3150,348;    1,076;    3,227
995,451; 3070,621;   -1,197;    0,318
996,000; 3154,258;    1,076;    0,318
996,550; 2856,076;    2,894;    0,227
997,100; 2844,803;   -0,561;   -0,045
997,649; 3143,803;   -0,197;    0,955
998,198; 2777,621;   -0,288;   -1,500
998,748; 2944,439;    0,348;   -2,318
999,297; 2856,076;    0,985;   -0,409
999,846; 2948,348;    1,894;   -0,773
1000,395; 2990,348;    1,530;    0,500
1000,945; 2920,076;    1,076;   -0,773
1001,494; 3009,621;    0,167;    0,682
1002,043; 3004,894;    0,712;    0,864
1002,592; 2835,621;    3,439;    1,955
1003,141; 2986,621;    2,439;   -0,682
1003,690; 2820,985;    1,258;    0,500
1004,238; 2897,258;   -0,106;   -0,045
1004,787; 2549,439;   -1,288;    1,227
1005,336; 2780,439;    1,621;    0,682
1005,885; 2931,621;   -0,197;   -2,773
1006,433; 3062,439;   -0,470;    0,955
1006,982; 3137,712;    2,167;    1,682
1007,531; 3049,076;    2,712;   -0,227
1008,079; 2983,167;    0,258;    0,500
1008,627; 3132,076;    1,621;    0,409
1009,176; 2870,894;    0,076;   -1,955
1009,724; 2918,167;   -2,742;    0,864
1010,273; 2975,803;    1,076;    0,500
1010,821; 3103,985;    1,076;    1,409
1011,369; 2818,530;    0,076;    1,318
1011,917; 2807,894;   -0,833;   -0,591
1012,465; 3102,167;    2,530;   -1,591
1013,013; 3192,712;    0,439;   -1,682
1013,561; 3054,530;   -1,288;   -0,773
1014,109; 3119,712;   -0,833;    1,682
1014,657; 2998,348;    1,348;    0,591
1015,205; 3108,530;    0,894;   -0,955
1015,753; 3154,621;    0,258;   -1,409
1016,301; 3187,076;    2,621;    3,045
1016,848; 3198,712;    2,167;    0,409
1017,396; 3219,439;    1,621;    0,045
1017,944; 3357,439;    2,621;    1,864
1018,491; 3105,621;   -0,197;    1,409
1019,039; 3287,530;   -0,652;    0,591
1019,586; 3193,076;    0,076;    1,682
1020,134; 3289,621;    0,712;    1,500
1020,681; 3297,803;    2,894;   -1,136
1021,228; 3329,167;   -0,561;   -2,227
1021,776; 3149,530;   -0,833;   -1,136
1022,323; 3346,894;    0,803;    0,773
1022,870; 3302,348;   -0,470;   -0,045
1023,417; 3213,621;    2,076;    1,864
1023,964; 3361,803;    0,621;    1,227
1024,511; 3184,894;   -0,652;    0,773
1025,058; 2964,167;    0,439;   -0,045
1025,605; 3010,985;   -1,742;    3,136
1026,152; 3223,894;   -0,106;   -0,591
1026,699; 2972,439;    0,167;    1,318
1027,245; 3145,985;    2,439;    0,318
1027,792; 3376,803;    0,712;    1,409
1028,339; 3245,348;    4,076;   -0,045
1028,885; 3072,258;    3,621;   -0,227
1029,432; 3017,530;   -0,106;    0,227
1029,978; 3074,439;    1,348;   -1,591
1030,525; 2975,894;    1,621;    0,409
1031,071; 3242,167;    0,348;    1,136
1031,618; 3336,167;    1,258;    1,682
1032,164; 3136,167;    2,076;    3,045
1032,710; 3165,258;    0,076;   -1,500
1033,256; 3092,985;    0,712;   -0,136
1033,803; 3065,167;   -0,288;    1,500
1034,349; 2815,530;    1,803;    0,136
1034,895; 2975,439;    2,621;   -0,318
1035,441; 2943,621;    0,439;    0,318
1035,987; 2973,439;   -2,288;   -0,682
1036,533; 2955,076;   -0,197;   -0,955
1037,078; 3154,258;    4,712;    1,682
1037,624; 2961,076;    2,439;   -0,955
1038,170; 2993,712;    1,712;   -0,318
1038,716; 2896,530;    2,167;   -0,409
1039,261; 2814,712;    2,167;   -0,773
1039,807; 2738,439;   -0,015;    3,409
1040,352; 2786,530;   -1,288;   -0,318
1040,898; 2827,439;    0,167;   -0,682
1041,443; 2742,167;    0,803;   -2,591
1041,989; 2794,985;    3,621;    1,591
1042,534; 2681,076;    0,985;    2,591
1043,079; 2796,167;    1,985;    0,955
1043,625; 2579,076;    0,258;    0,500
1044,170; 2620,803;    2,439;    1,045
1044,715; 2876,439;    0,167;    0,955
1045,260; 2688,167;   -0,833;   -0,955
1045,805; 2735,894;    0,258;   -0,591
1046,350; 2694,621;    0,530;   -0,409
1046,895; 2645,621;    0,803;    1,591
1047,440; 2588,894;    1,530;    0,409
1047,985; 2501,439;   -1,197;   -0,955
1048,530; 2407,530;    1,348;    1,227
1049,074; 2476,803;    2,803;    0,318
1049,619; 2457,258;   -0,924;    1,955
1050,164; 2263,167;    1,076;    0,227
1050,708; 2324,985;    2,621;    0,045
1051,253; 2681,167;    3,258;   -2,227
1051,797; 2391,985;   -0,197;   -1,318
1052,342; 2388,985;    1,348;    1,045
1052,886; 2377,894;    1,803;   -1,409
1053,430; 2295,076;    2,167;    0,136
1053,975; 2305,167;    0,894;   -0,318
1054,519; 2266,985;    1,803;    3,227
1055,063; 2279,803;    3,621;    1,318
1055,607; 2162,439;    1,348;    0,227
1056,151; 2200,076;    0,530;    1,682
1056,695; 2124,712;   -1,833;   -1,136
1057,239; 2173,439;   -1,197;   -0,682
1057,783; 2187,621;    2,258;   -1,500
1058,327; 2131,712;    3,076;    1,409
1058,871; 2363,167;    3,985;    1,318
1059,415; 2075,076;   -0,561;   -0,045
1059,958; 2324,167;    2,985;    2,591
1060,502; 2052,712;    1,348;   -0,773
1061,046; 1960,712;    1,712;   -0,955
1061,589; 1932,167;    2,803;   -1,136
1062,133; 1821,803;    0,985;    1,864
1062,676; 1753,621;    1,439;    0,864
1063,220; 1765,167;    0,985;    0,500
1063,763; 1785,439;    2,985;    1,136
1064,306; 1853,803;    0,985;    1,864
1064,849; 1748,621;    2,076;    0,591
1065,393; 1747,985;    2,894;   -1,500
1065,936; 1868,985;    2,530;   -0,409
1066,479; 1752,712;    2,621;    1,318
1067,022; 1785,530;    1,894;   -0,227
1067,565; 1678,621;   -1,197;   -1,318
1068,108; 1713,803;    1,258;   -0,591
1068,651; 1682,076;   -2,470;    1,409
1069,194; 1617,167;   -1,106;   -1,682
1069,736; 1617,348;    3,803;    0,955
1070,279; 1596,803;   -1,652;   -0,500
1070,822; 1647,076;    1,530;   -0,318
1071,364; 1716,258;    0,530;    1,318
1071,907; 1541,439;    0,348;    3,227
1072,450; 1477,076;    0,258;   -0,045
1072,992; 1456,985;   -0,561;    3,136
1073,535; 1584,712;    0,167;    2,136
1074,077; 1381,258;    2,985;    2,045
1074,619; 1345,803;    0,985;    0,591
1075,161; 1368,985;   -0,561;    1,500
1075,704; 1546,167;    0,258;    1,227
1076,246; 1360,348;    1,530;    0,682
1076,788; 1296,803;   -1,015;    1,773
1077,330; 1378,621;   -2,106;    2,136
1077,872; 1334,712;   -1,924;    0,955
1078,414; 1551,803;    3,712;    0,773
1078,956; 1284,167;    0,167;   -0,227
1079,498; 1538,258;    0,439;    0,318
1080,040; 1233,076;    0,985;   -1,318
1080,581; 1192,712;    0,621;   -0,318
1081,123; 1130,621;   -0,106;   -0,773
1081,665; 1168,076;    3,803;   -0,955
1082,206; 1459,076;    3,258;   -0,500
1082,748; 1331,621;    3,258;    2,045
1083,289; 1215,621;    0,167;    1,318
1083,831; 1121,712;    0,258;    0,227
1084,372; 1143,076;    0,894;    0,591
1084,913; 1140,894;    3,348;    0,864
1085,455; 1125,894;    1,530;   -2,045
1085,996; 1088,076;    0,530;    0,136
1086,537; 1121,985;    0,985;    0,864
1087,078; 1141,258;    0,439;   -2,136
1087,619; 1179,803;   -1,652;    0,227
1088,160; 1089,167;    1,439;    1,318
1088,701; 1075,712;   -0,742;    0,682
1089,242; 1034,258;   -0,561;   -2,227
1089,783; 1107,076;   -0,561;    1,409
1090,324; 1080,894;   -0,833;    0,682
1090,865;  965,530;   -1,924;   -0,409
1091,405;  957,258;   -0,561;    2,227
1091,946;  978,803;   -0,197;   -0,955
1092,487;  906,348;   -1,288;   -1,409
1093,027; 1056,894;    1,803;   -1,500
1093,568;  912,803;    2,258;    1,227
1094,108;  998,530;    0,621;    1,773
1094,649;  954,076;   -0,470;    0,136
1095,189;  893,258;    1,167;   -0,682
1095,729;  838,167;    0,712;    0,955
1096,269;  853,076;    1,258;   -0,955
1096,810; 1149,712;   -0,197;    0,500
1097,350;  982,621;   -0,561;   -0,773
1097,890;  879,167;    2,985;    1,227
1098,430; 1116,712;    4,985;    2,864
1098,970; 1006,621;    1,894;    1,682
1099,510;  876,621;   -0,833;   -2,318
1100,050;  806,621;    0,258;   -1,591
1100,589;  777,894;    0,076;   -0,318
1101,129;  892,076;    0,894;   -0,955
1101,669; 1024,894;    2,803;    2,136
1102,209;  856,348;    1,530;    2,227
1102,748;  817,439;    3,439;    0,955
1103,288;  804,803;    0,712;   -1,227
1103,827;  816,621;    3,530;   -2,227
1104,367;  711,712;    1,712;   -2,409
1104,906;  687,167;   -1,015;   -1,136
1105,445;  762,803;    0,985;   -1,136
1105,985;  704,439;   -0,652;    1,500
1106,524;  733,621;    1,530;   -0,682
1107,063;  712,712;    1,167;    1,409
1107,602;  683,894;    1,894;   -1,500
1108,141;  613,803;    1,621;    1,500
1108,680;  710,258;    3,985;   -0,591
1109,219;  661,530;    0,167;   -0,500
1109,758;  658,348;    4,167;    0,682
1110,297;  632,258;   -1,106;   -0,682
1110,836;  583,258;    1,439;    0,955
1111,375;  729,985;    0,348;    0,409
1111,913;  737,985;    0,985;    0,773
1112,452;  675,530;    0,894;    0,136
1112,991;  578,530;    1,076;    1,955
1113,529;  529,621;    0,167;   -0,045
1114,068;  601,530;    0,439;    2,955
1114,606;  492,258;   -0,561;   -0,955
1115,144;  642,530;    1,530;    1,045
1115,683;  586,985;    1,985;    0,318
1116,221;  639,712;    2,076;   -0,864
1116,759;  556,348;    1,621;   -0,864
1117,297;  724,712;    1,621;    1,864
1117,836;  558,803;    1,985;   -1,227
1118,374;  557,258;    0,258;   -0,682
1118,912;  511,803;    0,439;    2,682
1119,450;  500,803;    0,985;    0,864
1119,988;  543,712;    3,348;    2,136
1120,525;  990,621;    7,258;    3,318
1121,063;  693,894;    0,530;    1,864
1121,601;  501,985;    1,076;   -1,227
1122,139;  462,803;    1,076;   -2,045
1122,676;  647,712;   -1,652;    2,773
1123,214;  582,439;    0,712;    4,409
1123,751;  400,803;    0,621;    2,227
1124,289;  532,803;    0,894;   -0,409
1124,826;  410,894;   -0,379;    0,227
1125,364;  346,621;    0,712;   -0,955
1125,901;  521,530;    6,258;    1,227
1126,438;  611,985;    3,530;    0,955
1126,975;  363,167;    2,985;   -0,773
1127,513;  425,076;    2,621;    2,136
1128,050;  342,712;   -0,561;   -0,682
1128,587;  427,167;    1,348;   -0,227
1129,124;  456,258;   -0,015;    1,318
1129,661;  346,803;   -1,924;    0,227
1130,198;  497,712;    2,439;    0,773
1130,734;  451,712;   -0,379;    1,409
1131,271;  313,167;   -1,197;    0,864
1131,808;  475,076;    1,621;    3,045
1132,345;  355,439;    4,530;    0,318
1132,881;  245,712;   -0,561;   -1,864
1133,418;  367,439;    0,348;   -1,136
1133,954;  313,621;    0,712;   -2,682
1134,491;  375,439;    1,712;   -0,773
1135,027;  286,258;    2,167;    0,864
1135,564;  364,985;    1,439;    2,955
1136,100;  354,076;   -0,742;    2,136
1136,636;  255,076;   -1,015;   -1,045
1137,172;  339,348;    0,894;   -1,045
1137,708;  268,258;   -1,561;   -1,045
1138,245;  268,076;    0,803;   -1,227
1138,781;  221,530;    1,803;   -3,318
1139,317;  275,803;    1,894;   -1,409
1139,852;  269,803;    3,076;    0,136
1140,388;  380,348;    2,076;   -0,409
1140,924;  276,621;    1,076;   -2,227
1141,460;  224,439;   -0,288;    0,136
1141,996;  152,167;   -0,652;    2,682
1142,531;  194,167;    1,076;    3,318
1143,067;  395,076;    1,167;    1,045
1143,602;  445,985;    3,439;   -0,318
1144,138;  300,530;    0,803;    1,045
1144,673;  188,348;    1,621;    1,409
1145,209;  252,621;    2,894;   -0,318
1145,744;  169,167;    0,803;    0,864
1146,279;  279,258;    1,530;   -0,136
1146,815;  222,439;    1,530;   -2,682
1147,350;  252,439;   -0,924;    0,045
1147,885;  170,894;   -1,924;   -1,318
1148,420;  178,985;    2,439;    0,773
1148,955;  158,803;   -1,470;    1,864
1149,490;  186,167;   -1,106;   -1,591
1150,025;  161,894;   -1,106;   -1,773
1150,560;  265,258;   -0,288;   -0,955
1151,094;  235,985;    0,258;   -0,591
1151,629;  230,712;   -3,742;    0,864
1152,164;  171,167;   -1,288;    1,318
1152,698;  142,258;    1,258;   -0,136
1153,233;   97,076;   -1,379;   -0,682
1153,767;  139,712;   -0,288;   -2,318
1154,302;  179,167;   -0,379;    1,773
1154,836;  180,803;    0,803;   -2,136
1155,371;  240,076;    2,258;    3,682
1155,905;  193,258;    1,985;    1,682
1156,439;  165,167;    0,530;   -0,500
1156,973;  191,803;    0,439;    0,318
1157,507;  127,439;   -1,742;    0,682
1158,042;  157,530;   -0,652;    1,045
1158,576;  191,530;   -0,561;    1,773
1159,110;  185,621;    0,076;    2,409
1159,643;  161,803;   -2,470;   -0,045
1160,177;  110,076;   -2,015;    1,500

