
Integration time [ms]:   0,040
Averaging Nr. [scans]: 11
Smoothing Nr. [pixels]: 0
Data measured with spectrometer [name]: 7318044SP
Wave   ;Sample   ;Dark     ;Reference
[nm]   ;[counts] ;[counts] ;[counts] 

186,757;   30,632;   38,161;    1,318
187,357;   61,954;   26,706;    0,955
187,958;   36,028;   17,252;   -1,591
188,558;   72,766;   12,979;   -1,227
189,159;   48,345;   10,070;   -4,500
189,759;   15,161;    5,797;   -3,591
190,360;   20,138;    6,797;   -2,136
190,960;   55,089;    5,706;   -4,136
191,560;   63,911;    2,614;   -6,591
192,161;  283,155;    5,885;   -3,500
192,761;  138,214;    5,520;   -3,227
193,361;   93,366;    3,065;   -3,773
193,962;  143,064;    1,612;   -2,682
194,562;   80,949;   -0,114;   -3,955
195,162;  109,537;   -0,567;   -2,227
195,762;  260,313;    2,433;   -0,045
196,362;  207,878;    1,706;   -2,500
196,963;   76,360;    1,706;   -0,864
197,563;  158,381;    1,252;   -0,955
198,163;  100,664;   -0,111;   -0,682
198,763;  125,229;   -0,020;   -0,500
199,363;  214,688;    3,616;   -0,500
199,963;  175,011;    2,162;    0,409
200,563;  153,305;    6,344;   -1,409
201,163;  133,172;    5,435;   -0,227
201,763;  213,005;    1,435;    0,318
202,363;  161,246;    0,980;    1,500
202,963;  259,681;    1,526;    1,045
203,563;  372,846;    0,344;    0,500
204,162;  222,671;    1,889;   -1,864
204,762;  210,944;    2,071;    0,591
205,362;  184,916;    0,708;    1,955
205,962;  282,193;    3,435;    1,955
206,562;  271,221;    1,889;    2,318
207,161;  236,142;    1,708;    0,318
207,761;  390,426;    4,435;    2,409
208,361;  271,356;    1,889;    1,409
208,960;  358,282;    2,889;    1,500
209,560;  417,062;    0,435;    1,591
210,160;  411,722;    5,071;    1,864
210,759;  375,956;    0,708;    1,227
211,359;  378,563;   -0,474;    1,045
211,958;  622,022;    3,526;    2,045
212,558;  699,785;    0,799;    1,864
213,157;  539,147;   -0,929;    1,500
213,757;  960,346;    5,617;   -0,227
214,356;  664,616;    1,708;   -0,409
214,956;  981,115;    3,526;    0,409
215,555;  617,058;    0,617;    2,136
216,154;  564,081;   -0,292;   -0,591
216,754;  568,851;    1,253;    0,773
217,353;  680,271;   -0,383;   -1,045
217,952;  545,227;    2,072;    0,318
218,552;  786,933;    0,254;   -0,773
219,151;  677,976;   -1,110;    0,955
219,750;  675,439;    0,890;   -0,227
220,349;  770,532;   -2,292;    1,045
220,948;  854,963;    1,163;    1,136
221,548;  842,060;    0,617;    1,227
222,147;  936,462;   -1,292;   -0,409
222,746; 1221,390;    1,254;   -0,955
223,345; 1092,012;   -1,019;    0,500
223,944; 1093,481;    1,163;    0,773
224,543; 1238,938;    4,072;   -1,409
225,142; 1352,384;    1,345;    0,136
225,741; 1260,219;    1,163;    1,045
226,340; 1283,773;    1,254;   -0,955
226,939; 1695,231;    2,708;   -0,136
227,538; 1595,760;    1,163;   -0,773
228,137; 1779,014;    0,435;    0,864
228,735; 1882,580;    0,435;    1,227
229,334; 1639,441;   -0,474;   -0,227
229,933; 2019,627;    0,799;    0,591
230,532; 2136,153;   -1,201;   -0,409
231,131; 2177,436;    1,253;    0,318
231,729; 2249,641;    1,163;   -2,318
232,328; 2334,318;    0,435;   -1,500
232,927; 2387,813;    4,526;   -0,500
233,525; 2499,494;    0,981;    0,045
234,124; 2717,584;    1,890;   -1,591
234,723; 2721,870;    1,617;   -1,045
235,321; 2847,236;    1,163;    0,136
235,920; 3043,439;    2,526;   -1,227
236,518; 3286,168;    1,072;    0,318
237,117; 3434,925;    2,890;   -0,227
237,715; 3596,305;    1,163;   -0,500
238,314; 3618,726;    1,708;   -2,318
238,912; 3731,567;    0,526;   -1,409
239,510; 3734,379;    1,162;   -1,227
240,109; 3896,550;   -0,474;    3,773
240,707; 3933,240;   -0,474;    1,227
241,305; 4253,297;   -0,383;    0,136
241,904; 4456,388;   -0,292;   -2,045
242,502; 4414,052;    3,253;   -0,227
243,100; 4350,257;    3,344;   -0,955
243,698; 4581,274;    2,799;    1,682
244,297; 4736,329;   -0,656;    0,682
244,895; 4584,096;   -0,474;   -2,318
245,493; 4888,680;    2,981;   -0,591
246,091; 4895,105;    5,163;   -1,318
246,689; 4877,671;    2,163;    0,591
247,287; 5011,396;   -0,019;   -1,136
247,885; 5275,155;   -1,019;    1,227
248,483; 5365,212;   -0,201;   -0,500
249,081; 5467,549;    0,981;    1,591
249,679; 5627,838;   -1,019;    1,682
250,277; 5863,758;   -2,292;    0,864
250,875; 5846,872;    0,617;   -1,045
251,473; 5862,200;   -0,019;    0,500
252,071; 6028,849;   -0,383;    1,045
252,669; 6160,845;   -1,565;    0,318
253,267; 6383,308;    1,618;    0,773
253,864; 6310,578;    0,617;    0,682
254,462; 6239,582;    1,526;    1,591
255,060; 6194,052;    0,072;    1,318
255,658; 6455,390;   -3,292;   -0,136
256,255; 6868,417;   -0,201;   -2,045
256,853; 6732,883;    2,345;    1,409
257,451; 6729,449;    1,981;    1,864
258,048; 6996,373;    2,072;    1,864
258,646; 6719,785;    0,436;   -1,045
259,243; 6904,064;    2,981;    2,227
259,841; 6968,618;    1,799;    0,318
260,438; 6860,384;    0,254;    0,864
261,036; 7535,967;    0,617;    1,409
261,633; 7427,439;    1,526;    2,227
262,231; 7182,477;   -0,110;   -0,045
262,828; 7266,661;   -0,383;    1,136
263,425; 7308,052;   -1,928;   -0,591
264,023; 7566,597;    1,436;    0,045
264,620; 7149,100;    1,526;   -0,318
265,217; 7446,823;    2,890;    3,136
265,815; 7562,591;    2,527;    2,136
266,412; 7393,508;    0,072;    0,136
267,009; 7411,470;    0,526;    0,773
267,606; 7341,876;    0,345;   -0,955
268,203; 7303,997;   -0,383;   -0,591
268,801; 7563,343;   -0,474;    0,591
269,398; 7827,388;   -0,564;    2,500
269,995; 7797,661;    0,890;    1,591
270,592; 7612,191;    0,799;   -0,500
271,189; 7801,048;    1,981;    0,409
271,786; 7907,599;    2,072;    1,227
272,383; 7776,561;   -0,383;    0,227
272,980; 7934,314;    1,617;    0,318
273,577; 8389,081;    2,162;    1,227
274,174; 7964,565;    1,435;    2,591
274,771; 7906,208;    1,890;   -0,773
275,367; 8058,739;    3,253;    1,409
275,964; 8013,622;   -0,565;   -0,500
276,561; 8117,417;   -2,474;   -1,045
277,158; 8311,293;    1,799;   -1,773
277,755; 8435,367;   -0,110;    0,409
278,351; 7852,170;    0,436;   -1,500
278,948; 8146,365;   -0,201;    0,045
279,545; 8169,278;    0,527;    2,318
280,141; 8736,625;    1,254;   -2,045
280,738; 8584,887;    2,435;   -0,136
281,334; 8785,661;   -0,383;    0,591
281,931; 8208,394;    2,890;   -1,318
282,528; 8321,978;    4,072;   -0,500
283,124; 8986,401;    3,345;   -0,500
283,721; 8880,024;    0,709;    1,409
284,317; 8689,147;    0,163;    2,500
284,913; 9204,868;   -0,110;    0,591
285,510; 9378,686;    2,890;   -0,318
286,106; 9434,574;    2,345;   -0,955
286,703; 9050,859;    0,072;    1,955
287,299; 9245,255;    1,254;   -0,591
287,895; 9415,215;    0,890;   -1,045
288,491; 9954,206;    0,163;    2,136
289,088; 9694,993;    0,163;    2,409
289,684; 9755,663;    2,890;    1,500
290,280; 9721,688;    1,890;    0,682
290,876; 9814,189;    0,163;    5,500
291,472; 9725,952;    2,163;    2,227
292,068; 9811,532;    1,254;    0,227
292,665; 9530,255;   -0,564;    0,773
293,261; 9221,187;   -1,292;    2,136
293,857; 9594,367;    4,072;    2,136
294,453; 9513,375;   -0,928;    0,955
295,049; 9411,130;    0,253;    1,955
295,644; 9435,333;   -1,292;    0,136
296,240; 9329,669;    0,162;   -0,136
296,836; 9378,316;   -0,747;    0,318
297,432; 9636,447;    2,980;   -0,500
298,028; 9675,948;    0,435;    0,773
298,624;10023,889;    0,889;    1,864
299,220;10264,965;    0,435;    0,591
299,815; 9920,576;    0,526;   -0,409
300,411; 9731,857;    0,435;    1,773
301,007; 9742,557;    1,889;    0,227
301,602; 9770,341;    2,071;   -2,318
302,198; 9940,313;    1,435;   -0,773
302,794;10256,641;    1,526;   -0,500
303,389;10342,578;    1,071;    1,045
303,985;10405,946;    1,253;    1,409
304,580;10387,026;    0,889;    1,591
305,176;10356,743;    0,344;    0,136
305,771;10294,303;   -0,929;   -1,227
306,367;10178,314;    3,071;    0,136
306,962;10465,159;    2,889;    1,500
307,558;10173,385;    2,435;    0,136
308,153;10114,540;   -0,383;   -1,136
308,748;10357,007;    0,162;    1,682
309,344;10355,882;    0,253;   -1,318
309,939;10429,732;    2,071;   -1,318
310,534;10713,944;   -2,020;   -1,682
311,130;10627,396;   -0,656;   -2,500
311,725;10362,136;    0,526;   -0,500
312,320;10692,366;    1,253;    0,045
312,915;10537,468;    2,890;   -1,045
313,510;10618,865;    0,526;   -0,500
314,105;11091,472;   -3,565;    1,409
314,700;10516,394;   -1,656;   -1,045
315,295;10174,935;   -0,020;    0,045
315,890; 9774,747;   -0,292;    0,864
316,485;10091,003;    0,253;   -0,318
317,080;10184,481;   -0,929;    1,591
317,675;10716,891;    3,071;   -0,682
318,270;10131,662;    6,889;    3,318
318,865;10186,138;    2,435;    3,045
319,460;10008,045;   -1,565;    0,591
320,055;10217,214;   -2,565;   -1,227
320,650; 9914,206;   -1,838;   -0,591
321,244; 9950,472;    0,889;   -1,409
321,839;10852,330;    0,980;   -0,227
322,434;10729,548;   -0,111;   -1,591
323,029;10404,034;   -0,474;    1,591
323,623;10224,825;    0,798;    0,773
324,218;10034,637;    2,707;    1,409
324,812; 9993,984;    0,889;    1,591
325,407; 9825,136;   -0,929;    2,045
326,002; 9740,616;    0,526;   -0,409
326,596;10059,185;   -0,656;    1,318
327,191;10222,994;   -0,383;   -1,045
327,785; 9838,003;   -0,747;   -0,227
328,379;10079,927;   -0,383;    0,136
328,974; 9845,495;    1,798;   -3,955
329,568;10091,440;    2,889;   -2,409
330,163; 9906,834;    2,435;    1,045
330,757;10250,371;    0,253;    1,591
331,351; 9612,717;   -0,292;    0,682
331,945; 9912,299;   -0,383;    1,409
332,540; 9551,787;    1,617;   -0,591
333,134; 9688,760;    3,344;    0,773
333,728; 9888,491;    2,799;    0,318
334,322;10190,083;    0,889;   -0,864
334,916; 9521,595;    0,344;    0,955
335,510; 9826,419;   -0,111;   -0,136
336,105;10065,722;   -0,929;    1,591
336,699; 9771,087;   -1,292;    0,591
337,293; 9700,250;    1,071;    0,318
337,887; 9825,208;    0,071;    1,955
338,481; 9906,832;    2,980;    0,591
339,074;10021,889;    2,071;    2,682
339,668; 9884,426;   -0,110;    1,227
340,262;10157,489;    7,708;    3,227
340,856; 9683,815;    1,708;   -0,682
341,450; 9082,329;    0,708;    1,864
342,044; 9865,523;    1,799;    0,136
342,637; 9648,641;    1,162;   -2,136
343,231; 9471,223;   -1,474;    0,682
343,825; 9459,018;   -0,747;   -0,591
344,419; 9438,354;   -0,474;    0,500
345,012; 9274,113;    2,889;    4,045
345,606; 9283,489;   -0,656;    1,591
346,199; 9131,514;   -0,111;   -0,227
346,793; 8711,415;    2,525;    2,045
347,386; 8877,345;    0,889;   -1,136
347,980; 8902,965;   -0,838;   -0,045
348,573; 8711,825;   -1,748;    0,409
349,167; 8432,728;    6,161;    4,773
349,760; 8757,800;    2,252;    2,682
350,354; 8725,271;    1,616;    1,136
350,947; 8496,578;    2,798;    1,682
351,540; 8182,552;    0,616;   -1,409
352,134; 8159,823;   -1,111;    1,136
352,727; 8251,888;   -0,657;    1,136
353,320; 8112,013;    2,343;    0,591
353,913; 7933,273;   -1,929;    1,864
354,507; 8089,895;    0,434;   -1,227
355,100; 8145,203;    0,071;    0,864
355,693; 7447,167;    4,798;    2,409
356,286; 7482,662;    0,980;    2,773
356,879; 7828,939;   -0,475;    1,227
357,472; 7423,899;    0,980;    1,500
358,065; 7634,032;    3,161;    2,500
358,658; 7570,688;    0,798;    2,318
359,251; 7249,463;    0,252;   -0,591
359,844; 6788,914;    0,343;   -1,136
360,437; 6959,956;    0,252;    0,045
361,030; 7208,440;    0,525;   -0,682
361,623; 6823,943;    0,434;    0,318
362,215; 6895,937;    0,979;    2,045
362,808; 6737,810;   -2,293;   -1,682
363,401; 6948,544;    0,798;    0,136
363,994; 6694,074;    3,252;   -1,500
364,586; 6632,165;    0,888;   -1,500
365,179; 6812,205;   -0,203;   -1,136
365,772; 6319,199;   -0,930;    2,045
366,364; 6619,108;    1,524;   -3,227
366,957; 6831,171;    1,342;   -0,045
367,549; 6802,994;   -0,203;   -0,864
368,142; 6495,068;    0,978;   -1,500
368,734; 6685,602;    2,523;   -2,136
369,327; 6651,822;    2,341;   -0,500
369,919; 6553,678;   -1,659;    0,409
370,512; 6390,080;   -1,023;   -0,500
371,104; 6160,693;    2,704;    1,591
371,696; 6341,781;    1,703;   -0,955
372,289; 6403,908;    0,157;    1,136
372,881; 6536,455;    1,156;    1,318
373,473; 6450,148;    4,064;    1,136
374,066; 6279,462;    1,336;    0,500
374,658; 6152,009;    0,879;    1,136
375,250; 6468,778;   -1,668;   -1,409
375,842; 6313,796;   -0,124;   -0,045
376,434; 6194,056;   -2,762;   -0,409
377,026; 6721,224;   -1,855;   -2,500
377,618; 6605,001;    0,779;   -0,682
378,210; 6470,529;    3,141;   -1,955
378,802; 6338,230;    3,412;   -0,591
379,394; 6321,841;    3,411;    0,682
379,986; 6838,798;    1,138;   -0,955
380,578; 6931,003;    1,410;    0,773
381,170; 6332,976;    0,320;    0,045
381,762; 6280,067;   -0,224;    1,409
382,354; 6461,311;   -0,223;   -1,318
382,945; 6547,515;    0,870;    0,318
383,537; 6670,727;    1,144;   -1,955
384,129; 6681,575;    0,963;   -1,136
384,721; 6867,620;    0,418;    0,955
385,312; 6778,546;   -1,399;   -0,955
385,904; 6868,520;   -0,945;    1,591
386,496; 6273,148;    0,691;    1,045
387,087; 6415,074;    0,418;    2,500
387,679; 6466,869;   -0,401;    0,045
388,270; 6600,719;   -2,401;    2,045
388,862; 6684,313;   -0,401;   -0,318
389,453; 6552,797;    1,054;    1,045
390,045; 6794,683;    3,236;   -2,682
390,636; 6734,867;    0,144;   -0,591
391,227; 6597,875;    2,054;   -0,045
391,819; 6708,607;    0,781;    0,773
392,410; 6752,985;    0,600;    0,045
393,001; 6690,780;    1,600;   -1,591
393,593; 6960,032;    0,600;   -0,045
394,184; 6840,829;    0,873;   -0,409
394,775; 6733,377;    1,146;    2,136
395,366; 6910,660;    1,782;    0,773
395,957; 6903,421;   -2,400;    0,136
396,548; 7171,871;    1,054;    2,682
397,139; 7463,171;    2,236;    0,591
397,730; 7207,224;    0,873;    0,955
398,321; 7238,808;    0,509;    0,955
398,912; 7269,207;   -0,764;    0,136
399,503; 7367,364;   -1,945;   -1,409
400,094; 6847,503;   -1,582;    1,682
400,685; 6732,825;    3,600;    0,045
401,276; 6798,994;   -0,400;   -0,955
401,867; 7074,683;   -1,127;    0,773
402,458; 7152,831;    1,509;   -2,318
403,048; 7147,081;    0,146;    0,591
403,639; 6780,736;    1,509;    0,864
404,230; 7047,334;    0,691;    0,318
404,821; 6971,818;   -0,127;    0,045
405,411; 7056,916;   -0,763;   -2,591
406,002; 6682,425;    3,237;   -1,136
406,592; 6575,351;    2,691;    0,045
407,183; 6824,586;    0,328;   -1,500
407,774; 6766,565;    1,419;   -0,136
408,364; 7057,277;    2,600;    0,409
408,954; 6724,749;   -0,036;    1,227
409,545; 6753,358;    1,873;    1,045
410,135; 6348,493;   -1,581;    0,500
410,726; 6483,641;    0,783;    0,318
411,316; 6815,015;    2,237;    0,773
411,906; 6508,119;    0,146;   -0,409
412,497; 6083,833;   -0,490;   -0,045
413,087; 6640,929;    0,783;   -0,227
413,677; 6968,755;   -2,490;    3,864
414,267; 6817,635;   -1,035;    1,409
414,857; 6797,599;    0,419;    4,227
415,448; 7065,119;   -0,763;    0,500
416,038; 6812,127;   -2,945;   -0,591
416,628; 6772,546;    0,965;    0,409
417,218; 6323,409;   -1,762;    3,318
417,808; 6539,646;    0,965;   -0,409
418,398; 6935,102;   -1,035;    2,682
418,988; 6924,519;   -2,217;    0,591
419,578; 7143,333;    3,601;    1,409
420,168; 7469,168;    0,692;   -0,955
420,757; 7078,779;    0,964;   -1,500
421,347; 6770,145;    1,601;   -0,227
421,937; 6925,959;    3,329;    1,409
422,527; 6891,502;    2,602;   -0,773
423,116; 6722,419;    2,692;   -0,045
423,706; 7040,212;    2,965;    0,318
424,296; 6989,527;    1,601;    0,682
424,885; 7375,164;    1,510;   -3,045
425,475; 7642,028;    1,147;   -2,864
426,065; 7547,730;   -1,489;   -0,318
426,654; 7229,365;    0,329;   -0,318
427,244; 7339,967;    1,147;    1,409
427,833; 6822,933;    1,056;   -0,500
428,423; 7256,210;    0,147;    1,136
429,012; 7911,912;    2,420;   -1,136
429,601; 7430,185;    2,057;    0,136
430,191; 7647,940;    2,511;    4,318
430,780; 7327,690;   -1,671;   -0,409
431,369; 7270,437;    1,329;   -0,045
431,959; 7839,718;    1,693;    0,500
432,548; 7596,496;   -1,398;   -0,045
433,137; 7705,515;    0,329;   -1,318
433,726; 8216,705;    0,148;    0,500
434,315; 7628,219;    0,148;    2,409
434,905; 7734,215;    0,693;    1,409
435,494; 7670,843;    3,148;    0,955
436,083; 8065,758;    1,420;   -0,955
436,672; 7934,777;    1,148;    0,500
437,261; 7581,198;    0,512;   -1,955
437,850; 7698,568;   -1,125;    0,682
438,439; 7635,308;    2,239;    1,955
439,027; 7500,684;    3,421;    1,773
439,616; 7833,103;    2,239;    1,227
440,205; 7696,663;    0,057;   -2,136
440,794; 7727,088;   -0,306;   -0,045
441,383; 7937,355;    1,603;   -0,591
441,971; 7814,348;   -0,306;    0,591
442,560; 7679,591;    0,603;   -1,773
443,149; 7436,108;    3,060;   -1,318
443,737; 7562,372;    0,968;   -2,318
444,326; 7834,983;    0,331;    0,318
444,915; 7865,021;   -1,851;    0,864
445,503; 8190,617;    0,058;   -0,318
446,092; 7550,539;    7,876;    2,136
446,680; 8047,858;    1,876;    0,318
447,269; 8206,917;   -1,487;   -0,318
447,857; 7991,949;    2,240;   -1,773
448,445; 8060,460;    2,149;    1,318
449,034; 8269,520;    0,876;   -1,136
449,622; 8394,226;    1,240;    3,500
450,210; 7725,680;    3,149;    2,227
450,799; 8215,987;    2,604;   -0,591
451,387; 8133,205;    1,786;   -0,591
451,975; 7858,346;   -1,305;    0,864
452,563; 7927,249;    0,422;    2,318
453,151; 7938,363;   -1,032;   -1,227
453,739; 7889,473;   -1,577;    0,136
454,328; 7770,634;    0,604;   -2,136
454,916; 7532,592;    1,150;   -0,136
455,504; 7706,296;    3,513;    1,227
456,092; 7870,685;    2,150;   -1,591
456,679; 7816,871;    0,604;    0,682
457,267; 7770,448;    3,604;    1,045
457,855; 7873,535;    3,241;    1,409
458,443; 7655,664;   -0,304;    1,682
459,031; 7823,163;    1,332;    2,409
459,619; 8201,687;   -3,577;    2,864
460,206; 8296,793;   -0,759;    2,045
460,794; 8386,429;   -0,668;   -0,227
461,382; 8582,000;    0,878;   -0,864
461,970; 8196,317;    0,605;    1,864
462,557; 8236,565;    0,878;   -0,682
463,145; 8377,410;   -0,304;   -1,682
463,732; 8501,825;    2,514;   -1,045
464,320; 8461,250;    1,514;   -3,045
464,907; 8148,780;    0,423;   -0,773
465,495; 8020,470;    2,696;   -1,227
466,082; 8152,791;    2,060;   -0,045
466,670; 8056,979;    2,605;    1,227
467,257; 8479,950;    0,060;    2,045
467,844; 8614,783;    1,514;    0,045
468,432; 8650,903;   -0,031;    3,500
469,019; 8196,833;    1,606;   -1,773
469,606; 8610,512;    0,969;    3,682
470,193; 8469,455;    2,151;    0,227
470,780; 8075,045;    0,333;    0,864
471,368; 8410,506;   -1,212;   -0,773
471,955; 8214,696;    1,060;   -0,682
472,542; 7846,533;   -0,303;   -1,136
473,129; 8083,455;   -0,485;    0,136
473,716; 7840,398;    0,060;    0,591
474,303; 8010,628;    1,333;   -0,864
474,890; 8266,294;    2,333;   -0,500
475,477; 8274,905;   -0,576;    0,409
476,064; 8193,747;    0,697;   -1,591
476,650; 8122,751;    2,152;    0,318
477,237; 7965,206;    1,879;    0,955
477,824; 8104,102;    3,879;    0,864
478,411; 8114,005;    0,606;   -0,318
478,997; 8305,973;    0,606;   -0,773
479,584; 8352,679;   -0,666;   -0,409
480,171; 8981,751;    1,243;   -0,773
480,757; 8675,749;   -0,848;    0,773
481,344; 8936,140;    0,334;    0,409
481,931; 8462,859;   -0,393;    1,045
482,517; 9330,214;    0,425;    0,318
483,104; 9786,747;    1,334;    2,864
483,690; 9992,865;    0,243;    0,045
484,276;10283,515;    0,698;    0,227
484,863;10032,880;    2,152;    1,136
485,449;10597,861;    0,152;    0,318
486,035;10575,800;   -0,666;   -0,136
486,622;10985,335;   -2,393;    0,045
487,208;10916,379;    1,334;    1,500
487,794;10789,637;    0,971;    0,318
488,380;10868,559;    0,698;   -1,409
488,967;10928,826;   -1,120;   -0,409
489,553;11013,824;   -1,029;   -1,409
490,139;11172,213;    0,971;    0,773
490,725;10681,380;    0,789;   -0,227
491,311;10318,189;    1,516;    3,045
491,897; 9746,580;   -0,665;    1,500
492,483; 9598,162;    0,426;    1,227
493,069; 9468,018;    5,426;    0,864
493,655; 9398,821;    1,789;    0,682
494,241; 9327,995;    1,517;   -0,955
494,826; 9684,936;    0,335;   -1,045
495,412; 9196,141;    0,335;   -0,682
495,998; 9326,153;    0,971;   -0,318
496,584; 9415,906;    2,244;    1,045
497,169; 9373,559;    2,335;   -0,682
497,755; 9353,321;    1,244;    1,227
498,341; 9848,762;    2,153;    0,318
498,926; 9463,037;    2,881;    1,955
499,512; 9633,209;   -0,028;    2,955
500,097; 9694,109;   -0,574;   -0,318
500,683; 9645,908;   -0,028;    2,136
501,268; 9971,253;    1,881;   -0,955
501,854; 9740,158;   -0,119;    1,227
502,439; 9659,930;   -0,573;   -1,773
503,024; 9832,420;    1,608;    0,500
503,610; 9879,870;    1,335;   -0,682
504,195; 9859,116;    1,245;    1,955
504,780; 9988,078;    2,335;    1,227
505,366; 9822,659;    4,063;    2,864
505,951; 9595,651;   -1,119;    1,045
506,536; 9618,801;    1,427;   -3,682
507,121; 9593,805;    1,699;   -0,318
507,706;10060,287;   -0,392;    1,045
508,291;10438,720;   -2,937;    1,136
508,876; 9897,308;   -0,482;    2,591
509,461; 9385,298;    1,427;   -0,773
510,046; 9802,587;   -0,391;    0,318
510,631;10045,492;   -0,119;   -0,773
511,216; 9706,082;   -0,664;   -0,500
511,801;10030,260;   -0,755;    2,591
512,386;10294,754;    0,972;    0,500
512,971;10214,526;    0,427;    0,955
513,555; 9830,450;    1,154;   -1,500
514,140;10568,689;    1,336;   -3,136
514,725;10522,626;    1,791;   -1,136
515,309;10612,389;    1,064;    0,318
515,894;10137,841;   -0,300;   -2,227
516,479;10555,357;    1,973;   -0,955
517,063;10362,820;    0,882;    1,227
517,648;10517,463;    0,155;   -1,136
518,232;10141,450;   -1,300;   -1,409
518,817;10457,566;    1,337;    1,682
519,401;10684,579;    0,700;    0,591
519,985;10210,385;    2,700;    1,136
520,570;10112,664;   -0,118;   -1,955
521,154;10385,345;    0,064;    0,591
521,738;10506,298;    1,064;    2,409
522,323;11051,290;   -0,390;    1,682
522,907;10779,611;    2,428;   -0,136
523,491;10545,911;    1,155;    0,955
524,075;10485,482;    0,428;    0,591
524,659;10580,683;    0,973;    0,591
525,243;10122,622;    0,883;    0,409
525,827;10317,529;    0,883;   -0,045
526,411;11068,865;    1,155;   -0,136
526,995;11243,903;    0,337;    1,409
527,579;10888,757;    1,974;   -1,045
528,163;11154,806;    0,428;   -1,500
528,747;11086,093;    1,065;   -0,773
529,331;11338,313;    0,883;   -1,409
529,915;11473,787;    2,338;    0,955
530,499;11399,309;    0,247;    1,227
531,082;11162,981;    1,065;    1,591
531,666;10713,734;    0,520;    0,773
532,250;11298,300;    0,428;    2,682
532,833;11547,271;    0,610;    2,773
533,417;11431,252;    1,247;    0,864
534,001;11374,146;    0,429;   -0,318
534,584;11979,453;    1,974;    0,500
535,168;11851,950;    3,247;    1,409
535,751;11888,736;    4,520;    0,045
536,334;11370,000;    4,520;   -0,409
536,918;11911,996;    1,974;    1,591
537,501;11969,882;    1,520;    1,318
538,085;11986,189;    1,702;    1,045
538,668;12099,305;    0,883;    2,409
539,251;12394,603;    3,156;    3,773
539,834;12396,324;    0,156;    0,773
540,418;12319,755;    3,247;    4,318
541,001;12395,174;    2,702;    1,773
541,584;12389,703;    1,429;    2,227
542,167;12086,421;    0,702;    2,955
542,750;12184,072;    0,793;   -0,773
543,333;11812,442;    1,429;    2,136
543,916;12483,476;   -0,298;    2,500
544,499;13020,151;    2,520;    0,227
545,082;13032,700;    0,248;    3,591
545,665;13156,711;   -0,207;    1,500
546,248;13424,442;    0,520;   -0,318
546,830;13143,343;   -1,752;    1,955
547,413;13481,470;    0,157;   -0,773
547,996;13985,263;    0,157;    0,500
548,579;13762,335;   -0,843;    0,955
549,161;13562,612;    0,884;    2,682
549,744;13342,593;    0,612;    0,409
550,326;13782,641;    0,885;   -1,136
550,909;13567,140;    2,339;    0,591
551,492;13944,496;    0,521;    0,227
552,074;13752,995;   -0,024;   -1,318
552,657;14237,859;    2,430;    0,045
553,239;14030,299;   -3,024;   -0,773
553,821;13948,631;   -1,570;    1,045
554,404;13498,130;   -0,024;    1,136
554,986;13826,694;    2,248;    1,045
555,568;14356,952;    0,430;   -0,955
556,151;13672,069;    4,067;   -0,227
556,733;13827,891;   -1,388;   -0,864
557,315;14219,942;    4,703;    0,500
557,897;14015,730;    0,521;   -0,500
558,479;14136,166;    1,703;    1,318
559,061;14260,986;    1,067;   -0,864
559,643;14556,259;   -0,297;    0,045
560,225;14840,775;   -0,388;    2,864
560,807;14821,895;    0,340;    0,318
561,389;14443,927;   -1,206;    2,318
561,971;15075,215;   -0,660;    2,136
562,553;14918,261;    0,613;    1,591
563,135;15016,893;    1,249;    1,136
563,717;14622,164;    3,158;    1,136
564,298;15226,885;    3,976;   -0,045
564,880;14942,680;    0,340;   -1,409
565,462;15076,044;    1,977;    1,318
566,043;16094,946;   -0,933;    2,318
566,625;15623,058;    4,067;    1,227
567,207;15474,314;    0,704;    1,682
567,788;16407,299;   -0,114;    1,500
568,370;17127,748;   -1,841;   -0,500
568,951;16899,401;   -0,569;    0,227
569,533;17609,815;    0,977;   -0,500
570,114;17997,234;   -0,296;    0,682
570,695;18411,955;   -0,478;   -1,318
571,277;18748,519;   -0,205;   -1,682
571,858;19343,936;    2,704;   -1,136
572,439;20130,460;    0,795;   -1,045
573,021;20171,636;    0,432;   -2,773
573,602;20576,274;    1,795;    0,318
574,183;21380,976;   -0,114;    2,227
574,764;21372,016;    2,068;    0,409
575,345;21772,147;    0,250;   -0,136
575,926;22312,858;    2,704;    0,136
576,507;22314,568;    2,704;   -0,227
577,088;23278,999;    1,704;    1,682
577,669;23270,574;    1,704;    1,955
578,250;23877,794;   -0,750;   -1,045
578,831;24331,507;   -0,841;   -2,227
579,412;24507,691;   -1,205;    0,955
579,993;25373,786;    1,432;    0,227
580,573;25630,333;   -0,023;   -0,955
581,154;24635,122;    1,613;   -0,591
581,735;25420,481;    0,341;    0,773
582,315;24956,027;    0,523;    2,136
582,896;25264,016;   -1,750;    1,227
583,477;24761,691;    0,614;    1,227
584,057;24936,581;    1,159;    0,955
584,638;25184,240;   -2,750;    2,318
585,218;25219,805;    2,886;    2,682
585,799;25422,452;    1,977;   -0,227
586,379;25391,454;    1,250;    1,591
586,959;24318,204;    2,613;    0,318
587,540;23791,137;    0,432;    2,227
588,120;23395,205;   -1,113;   -0,045
588,700;22572,441;    2,977;    2,136
589,281;22852,923;    1,250;   -0,955
589,861;22780,911;   -0,296;   -1,682
590,441;22641,063;   -1,477;   -2,682
591,021;21744,898;    1,432;   -2,591
591,601;22002,989;    0,431;    0,500
592,181;22034,824;   -1,296;   -0,773
592,761;21370,293;    2,250;    1,409
593,341;21334,566;    1,522;    0,045
593,921;21326,612;   -0,569;    1,591
594,501;21218,864;    1,250;    1,318
595,081;21076,133;    0,522;   -0,318
595,661;21425,695;    1,068;    0,955
596,240;21881,376;   -1,023;    0,136
596,820;21483,619;    2,613;    1,955
597,400;21589,145;    1,977;    0,773
597,980;21835,932;   -0,750;    1,045
598,559;21887,118;    0,341;   -0,227
599,139;21675,264;   -0,750;   -1,227
599,718;21526,809;    0,795;   -0,409
600,298;21738,232;   -2,387;    0,682
600,877;21965,232;    4,795;    1,409
601,457;22169,475;    0,340;    1,136
602,036;22065,464;    1,795;    2,045
602,616;22297,135;    2,250;    1,682
603,195;22605,587;    0,431;    3,500
603,774;22123,982;   -0,296;    2,045
604,354;21993,644;    2,522;   -0,500
604,933;21632,779;    0,250;    1,864
605,512;21662,648;    2,340;    0,591
606,091;21737,984;    1,886;    3,773
606,671;22503,703;    0,249;    0,773
607,250;21719,479;    1,431;    3,136
607,829;21897,511;    1,158;    3,227
608,408;21769,185;    4,613;    2,591
608,987;20912,295;    2,704;    3,409
609,566;21143,492;    0,341;   -2,500
610,145;21250,824;    2,885;    0,682
610,723;21675,308;    1,613;    6,864
611,302;21022,031;    1,067;    1,682
611,881;20557,498;    5,158;   11,227
612,460;21320,866;    0,795;    3,955
613,039;21653,494;    1,703;    2,045
613,617;20498,359;    0,886;    4,773
614,196;20672,980;    1,613;    1,227
614,775;21030,331;    1,249;    2,409
615,353;20954,722;   -1,660;    0,864
615,932;20730,454;    0,249;    2,409
616,510;21284,443;    0,158;    0,591
617,089;20855,094;    8,794;   17,591
617,667;20663,796;    4,885;    6,136
618,246;20534,528;   -1,115;    1,318
618,824;20664,329;    1,612;   -0,955
619,402;20228,671;    0,431;   -1,773
619,981;20659,582;    1,067;   -1,045
620,559;20578,568;    0,794;    1,682
621,137;20171,963;    3,067;    1,864
621,715;20132,629;    3,703;   -0,682
622,293;20084,234;    1,885;   -0,773
622,871;20553,305;    0,340;    0,500
623,450;20187,155;    0,430;   -0,864
624,028;20076,703;   -0,388;   -0,955
624,606;19690,868;    2,339;    1,682
625,183;20031,050;   -0,661;   -1,136
625,761;19742,434;    1,885;    1,136
626,339;19980,739;    2,339;    2,591
626,917;20317,424;    0,339;   -0,045
627,495;20397,838;    2,794;    1,318
628,073;19884,178;    5,248;    2,864
628,650;19577,466;    3,067;    2,136
629,228;19988,899;    1,248;    4,409
629,806;19499,606;   -0,024;    1,136
630,383;19697,942;    0,066;   -0,318
630,961;19545,356;   -2,206;   -0,955
631,539;19304,779;   -2,479;    0,227
632,116;18731,447;   12,703;   15,409
632,694;19275,172;    4,885;    6,500
633,271;19425,054;    1,975;    2,682
633,848;19429,394;    1,430;    2,045
634,426;19466,514;    1,521;    1,773
635,003;18683,161;   -0,207;   -0,409
635,580;18952,337;    1,884;    3,682
636,158;19477,903;    3,793;    1,227
636,735;19421,986;    3,339;   -0,500
637,312;19553,447;    0,521;   -0,682
637,889;19625,961;    2,248;   -0,682
638,466;19165,645;    0,066;   -0,409
639,043;19169,827;    1,702;   -1,136
639,620;19392,825;    0,611;   -0,955
640,197;19707,049;    1,612;    1,682
640,774;19910,223;    1,430;    1,136
641,351;20212,579;    0,612;    1,136
641,928;19697,117;    2,794;    1,409
642,505;19392,110;    0,794;   -0,500
643,082;19510,647;    1,885;    1,227
643,658;18620,367;    1,157;    1,500
644,235;19235,996;   -2,479;    2,500
644,812;19476,988;    1,794;    0,773
645,388;19274,435;    1,612;    1,409
645,965;19333,246;    1,521;    1,682
646,542;19436,784;    3,430;   -0,227
647,118;19435,413;    3,703;   -0,955
647,695;19655,769;    0,339;    1,136
648,271;19584,488;   -2,115;    0,500
648,848;19810,572;    0,248;    2,227
649,424;19691,291;    0,976;    1,318
650,000;19446,193;   -0,388;   -1,045
650,577;19261,185;    0,158;   -0,955
651,153;19654,996;   -1,115;    0,955
651,729;20480,625;    0,521;    0,864
652,305;20593,799;    1,339;    2,773
652,881;23959,701;   -1,297;    1,136
653,458;29378,602;    0,249;    0,227
654,034;32326,867;    0,703;    1,591
654,610;33487,405;    0,339;    0,773
655,186;34680,034;    1,612;    3,045
655,762;34324,208;   -1,842;    0,409
656,338;34357,564;    0,703;    0,136
656,913;35349,102;   -0,297;    0,409
657,489;34744,822;    0,249;   -0,318
658,065;34690,451;    0,794;   -1,591
658,641;35208,989;    2,158;   -0,864
659,217;34670,981;    2,067;    0,409
659,792;34138,428;   -1,751;   -0,409
660,368;34459,693;   -0,388;   -0,682
660,944;34411,140;    1,794;    1,227
661,519;30820,314;    0,522;    0,409
662,095;25998,580;   -0,206;    0,591
662,670;22177,936;   -0,206;   -0,136
663,246;21271,746;   -0,660;   -0,409
663,821;20714,375;    0,431;    1,682
664,396;20208,095;    0,613;    1,864
664,972;20446,633;   -0,660;   -0,500
665,547;20739,080;    3,794;    0,136
666,122;20740,617;    1,340;    0,318
666,698;20981,519;    2,431;    0,318
667,273;20364,421;    0,885;    0,136
667,848;21132,049;    0,340;    1,500
668,423;20884,860;    1,795;    2,318
668,998;21322,307;    0,976;   -0,682
669,573;21743,208;    2,067;   -1,500
670,148;21602,655;    1,885;   -0,682
670,723;21385,557;   -0,024;    0,318
671,298;21721,095;   -1,296;    1,045
671,873;21861,087;   -0,296;   -0,136
672,448;21840,443;    1,704;    0,136
673,023;22118,254;    0,249;   -0,227
673,597;22353,246;    2,704;    2,318
674,172;22213,512;    2,431;    0,318
674,747;21740,686;   -0,205;   -1,045
675,321;21571,587;   -0,933;    3,318
675,896;21188,852;    2,158;    1,045
676,471;22033,572;    2,522;    1,591
677,045;21821,746;   -0,296;    0,682
677,620;21823,012;    2,158;    1,136
678,194;22175,822;    0,249;    1,136
678,769;21817,178;    0,886;   -0,318
679,343;22001,807;   -0,023;    1,773
679,917;21893,163;    0,340;    1,955
680,492;21928,519;    0,249;    3,227
681,066;22030,239;    0,613;    0,409
681,640;22070,868;    1,795;   -0,318
682,214;22789,860;    2,340;    0,500
682,788;22356,671;    0,613;   -0,773
683,363;22206,663;    1,977;    1,682
683,937;21987,565;    0,886;   -0,318
684,511;22658,284;   -1,023;   -0,591
685,085;22413,731;   -1,478;    0,318
685,659;22140,087;    1,431;    0,864
686,232;22348,898;    1,159;   -0,318
686,806;22129,981;    2,159;    0,409
687,380;22714,610;   -1,932;    0,591
687,954;22902,421;    2,432;    1,136
688,528;22578,050;    2,613;    1,955
689,101;23316,224;    0,432;    1,045
689,675;22911,944;    0,886;   -0,136
690,249;22318,845;    3,432;    0,409
690,822;22613,019;    1,159;    0,318
691,396;22746,830;    2,068;    1,227
691,969;22294,459;    2,523;    0,136
692,543;22722,269;   -0,568;   -1,955
693,116;22415,444;   -0,659;   -1,409
693,690;22276,891;   -0,296;    0,500
694,263;22768,156;    2,341;    2,955
694,836;22785,785;    2,795;    3,591
695,410;21574,686;    1,159;    1,773
695,983;21997,315;    1,614;    0,591
696,556;21983,944;   -0,750;   -1,045
697,129;22279,845;   -1,114;    1,409
697,703;21967,474;    1,341;    1,955
698,276;22041,194;    1,705;   -0,773
698,849;21851,277;   -1,023;    1,409
699,422;22177,815;    1,250;    0,591
699,995;21920,716;   -0,659;    0,136
700,568;22304,527;   -0,204;    3,045
701,140;22337,610;   -1,841;    1,682
701,713;22111,148;    0,341;    2,409
702,286;21882,413;    0,796;    0,864
702,859;21762,133;    0,614;   -0,591
703,432;21041,126;   -0,841;    0,682
704,004;21467,936;    1,978;    0,318
704,577;21330,474;    1,068;    0,136
705,150;21893,467;    0,887;    2,500
705,722;21669,004;    1,523;   -3,227
706,295;21427,724;    1,432;   -0,591
706,867;21281,171;    0,250;    1,955
707,440;21550,982;   -0,113;   -0,409
708,012;21805,338;   -0,022;    0,591
708,584;21673,785;    2,705;    0,227
709,157;21926,141;    1,160;   -0,591
709,729;21660,406;    1,069;    2,045
710,301;22408,580;   -1,204;    0,045
710,874;22422,391;    0,341;   -0,227
711,446;21355,838;   -0,295;    0,864
712,018;21302,285;   -3,022;    0,500
712,590;21047,368;   -0,204;    1,682
713,162;21496,542;   -0,477;    1,318
713,734;21745,444;    1,796;   -2,045
714,306;21688,800;    0,342;   -0,409
714,878;20503,156;   -0,295;    0,864
715,450;21282,967;   -0,113;    0,864
716,022;21466,777;    2,433;    1,318
716,593;21662,497;    0,978;    0,591
717,165;21610,671;    1,796;   -1,227
717,737;21326,936;    0,796;    0,409
718,309;21049,929;    1,160;   -0,045
718,880;21019,103;   -1,295;   -1,409
719,452;21228,368;    0,887;   -1,591
720,024;20902,815;    1,705;   -0,591
720,595;21338,262;    2,978;    0,955
721,167;20972,800;    1,160;   -2,045
721,738;20513,974;    2,069;   -1,045
722,309;20547,967;    1,251;   -1,227
722,881;20363,141;    2,705;    0,773
723,452;20909,588;    1,251;    2,864
724,023;21073,217;    1,524;    2,682
724,595;20848,118;    2,342;    0,682
725,166;20638,565;    1,524;   -0,409
725,737;20348,285;    1,887;    0,227
726,308;20450,187;    0,797;    0,318
726,879;20774,815;    1,069;    1,227
727,450;20640,899;   -2,022;   -0,045
728,021;20615,800;    1,069;    0,682
728,592;20468,611;    1,160;    0,500
729,163;20737,421;    1,433;   -0,136
729,734;20703,414;    2,160;   -0,227
730,305;21036,588;    0,615;    0,136
730,876;21324,399;    0,888;    2,955
731,447;21093,573;    0,797;    2,682
732,017;21155,020;   -0,840;    1,864
732,588;20706,376;   -0,021;    1,227
733,159;20888,096;    3,615;   -1,045
733,729;20703,361;    1,251;    0,409
734,300;20047,626;    0,160;    0,864
734,870;20403,528;   -1,385;    0,591
735,441;20940,156;    0,888;   -0,591
736,011;20734,422;    1,070;   -1,591
736,582;20685,778;    1,251;    0,045
737,152;20149,588;    0,979;   -2,045
737,722;20608,490;    1,070;   -0,682
738,293;20358,664;   -2,021;    1,318
738,863;20280,293;    1,797;    2,318
739,433;20142,649;    4,524;    0,318
740,003;20712,914;    1,524;   -0,682
740,573;20145,906;    2,252;   -1,591
741,143;20153,899;    3,615;    0,318
741,713;20839,800;    0,252;   -0,500
742,283;20560,156;    1,706;    1,591
742,853;20396,694;    0,524;    1,591
743,423;19935,141;    0,161;    0,045
743,993;20013,861;    1,070;    1,500
744,563;19491,672;    2,524;   -0,864
745,133;19392,573;   -0,112;   -0,864
745,702;20055,838;    2,797;    1,773
746,272;19366,104;    0,434;    0,591
746,842;19125,914;   -0,748;   -0,591
747,411;19537,543;   -0,839;   -0,318
747,981;19665,081;   -0,930;    0,500
748,551;19728,073;   -0,021;   -1,045
749,120;19545,975;   -0,112;   -0,227
749,690;19880,694;    2,161;    2,409
750,259;20187,960;    0,979;    2,955
750,828;20115,770;    4,070;   -1,955
751,398;20345,672;   -0,112;   -0,045
751,967;19902,301;    2,888;    0,409
752,536;20110,566;    1,161;   -0,227
753,105;20495,922;   -1,384;    0,227
753,675;20243,551;   -0,112;    1,773
754,244;20216,452;    0,888;    3,591
754,813;20234,172;    0,979;    1,227
755,382;19826,710;    0,798;    0,955
755,951;20284,611;   -0,112;    3,682
756,520;19904,422;    2,525;    1,864
757,089;20380,414;    1,888;    0,500
757,658;20509,498;    2,434;    1,227
758,227;20543,217;   -1,111;    0,318
758,795;20767,755;   -1,021;    1,136
759,364;21021,748;    0,525;   -0,591
759,933;20114,922;    1,343;   -0,045
760,501;19739,914;    0,252;   -1,318
761,070;20106,180;   -0,293;   -1,409
761,639;20745,899;    1,434;    1,318
762,207;20139,346;    0,889;   -0,955
762,776;20110,611;    2,889;    0,864
763,344;20113,331;    0,071;    0,591
763,913;19222,323;    1,616;    1,409
764,481;19936,589;    1,980;   -0,136
765,049;19787,217;    0,616;    1,409
765,618;19694,392;    1,434;    0,318
766,186;19747,475;    2,434;    0,136
766,754;19940,013;    1,798;    1,864
767,322;18997,005;    1,162;    0,409
767,890;18991,271;    0,525;   -1,773
768,459;19435,808;    2,616;   -0,318
769,027;19590,346;    2,525;    3,409
769,595;18674,521;    2,616;    2,591
770,163;19070,513;    3,344;    2,955
770,730;18870,687;    2,525;   -0,136
771,298;18758,316;    1,162;   -1,409
771,866;18864,127;    0,253;    4,955
772,434;19102,665;    1,162;   -1,864
773,002;19270,202;    2,616;    0,682
773,569;18956,195;    1,071;    1,682
774,137;18794,551;    0,889;   -0,045
774,705;19500,271;   -0,747;   -0,136
775,272;19110,172;    0,253;    0,682
775,840;18956,437;   -0,111;    2,682
776,407;18487,521;   -0,293;    1,955
776,975;18105,786;    1,162;    0,318
777,542;19018,778;    2,162;   -0,045
778,110;18886,771;    0,707;   -0,045
778,677;18579,763;    1,071;   -0,864
779,244;18420,846;   -1,020;    1,045
779,812;18509,293;    0,980;    0,864
780,379;18359,195;    2,435;    1,136
780,946;18555,733;    2,617;   -0,773
781,513;18824,907;   -0,565;    0,318
782,080;18264,445;    1,253;    2,864
782,647;18894,619;    1,708;    3,045
783,214;18618,793;   -0,201;    3,864
783,781;18247,604;    1,708;   -0,682
784,348;18098,233;    0,253;    1,500
784,915;18452,134;   -1,474;    0,318
785,482;18334,400;    2,708;    2,591
786,049;18785,483;    1,071;   -0,591
786,615;18867,021;    1,708;   -0,955
787,182;18629,831;   -3,201;   -0,682
787,749;18330,097;   -2,201;    1,409
788,315;17730,089;    0,253;   -0,409
788,882;18011,809;    0,981;   -1,227
789,448;18624,983;    1,435;   -0,955
790,015;18647,339;    1,799;    3,227
790,581;18217,968;    0,708;    0,227
791,148;18113,960;    1,344;    1,045
791,714;18330,589;   -1,019;    3,136
792,280;18063,672;    3,708;    1,591
792,847;17741,665;   -0,928;    2,500
793,413;18182,385;   -0,110;   -0,318
793,979;17810,559;    1,526;   -1,318
794,545;17889,369;    2,981;    2,682
795,111;17373,907;    2,435;    1,318
795,678;17538,718;    3,526;   -1,682
796,244;17237,801;    2,799;    0,136
796,810;17691,976;    0,799;    0,773
797,375;17462,968;   -0,292;   -2,136
797,941;17438,142;   -1,110;    0,591
798,507;17553,407;    0,254;   -0,955
799,073;17193,309;    2,708;    0,591
799,639;17294,847;    1,435;    3,136
800,205;17366,930;   -1,565;    2,682
800,770;16970,832;    1,345;    1,773
801,336;16955,279;    2,981;   -0,955
801,901;16709,726;    6,072;    3,136
802,467;17283,536;    0,526;    2,045
803,033;16641,438;   -0,019;    0,864
803,598;16814,521;    1,072;   -1,045
804,163;16892,604;    0,708;   -0,318
804,729;16840,597;   -0,110;    1,136
805,294;17170,589;    1,072;    2,227
805,859;16995,764;    0,890;   -0,409
806,425;16542,847;    3,890;    2,682
806,990;16281,021;    1,890;    4,318
807,555;16682,832;   -0,110;    2,591
808,120;16600,279;   -1,292;   -0,409
808,685;16641,453;    1,072;   -2,500
809,250;16248,354;    2,072;   -0,500
809,815;16498,165;   -0,201;    0,682
810,380;16928,430;    0,981;    1,591
810,945;17409,968;    2,890;    2,045
811,510;16733,779;   -0,200;    1,591
812,075;16425,771;    2,800;   -1,409
812,640;16504,582;    3,709;    1,409
813,204;16597,756;    2,163;   -0,227
813,769;16989,930;    0,254;   -0,045
814,334;16484,014;    0,527;    0,864
814,898;16529,006;    1,981;    0,591
815,463;16377,817;    0,981;   -0,773
816,027;16396,718;    1,345;   -2,318
816,592;16534,620;    2,163;   -2,045
817,156;16062,703;   -2,200;    1,136
817,721;15909,059;    0,982;    2,318
818,285;15922,415;    0,618;    1,500
818,849;16484,953;   -0,018;    1,682
819,414;16368,673;    0,073;    2,955
819,978;15990,847;   -0,291;    1,773
820,542;16540,840;    2,891;    0,500
821,106;16337,923;    2,800;    0,682
821,670;16388,370;    2,709;    2,591
822,234;16156,544;    1,073;    1,409
822,798;15623,718;   -0,836;    0,500
823,362;15643,256;    1,527;    4,227
823,926;15039,703;   -0,018;    1,136
824,490;15186,150;    3,527;   -0,682
825,054;15597,143;    2,527;   -1,136
825,618;15329,135;   -1,200;   -1,500
826,181;15266,218;    0,982;   -1,318
826,745;15172,029;   -0,745;   -1,045
827,309;15489,294;    2,255;    1,318
827,872;15017,923;    0,527;    0,955
828,436;15851,643;    1,982;   -0,773
828,999;15977,271;    2,436;    1,227
829,563;14946,082;   -0,654;    1,136
830,126;14801,802;   -0,018;   -0,591
830,690;14828,521;    0,709;    2,864
831,253;14397,423;   -0,473;    2,227
831,816;14495,506;   -0,018;    0,500
832,380;14442,499;    1,164;    0,864
832,943;14666,491;    3,073;   -0,500
833,506;14220,847;    0,255;   -1,227
834,069;14933,385;    2,164;   -0,955
834,632;15025,196;   -2,200;    1,318
835,195;14883,006;    1,346;    0,955
835,758;14195,181;    0,709;    1,955
836,321;14062,537;    1,073;   -1,045
836,884;14168,166;   -1,291;   -0,955
837,447;14188,340;    0,528;    1,773
838,010;14447,605;    1,800;    3,227
838,573;14670,688;    0,528;    0,773
839,135;14677,953;   -0,109;   -0,955
839,698;14186,128;    2,528;    0,409
840,261;13791,484;    0,255;   -0,227
840,823;13674,658;   -0,927;    0,864
841,386;13911,650;   -0,018;   -2,409
841,948;13861,461;    0,255;    1,773
842,511;13599,544;    0,255;    1,682
843,073;13702,173;    2,982;    0,227
843,636;13580,347;    0,619;   -0,227
844,198;13508,340;    1,255;    0,591
844,760;13608,787;    0,619;    1,955
845,322;13294,870;    0,164;    1,136
845,885;13664,772;   -0,290;    0,591
846,447;14072,219;    0,710;    0,227
847,009;13718,757;    3,983;   -0,682
847,571;13975,931;    1,346;   -2,045
848,133;14040,832;   -0,199;   -1,864
848,695;13875,279;    2,346;    1,409
849,257;13494,181;    1,346;   -1,682
849,819;13664,901;    2,983;   -0,409
850,381;13713,711;    1,801;   -0,864
850,942;13981,885;    1,892;   -0,591
851,504;13915,969;    0,983;    0,227
852,066;13950,688;    1,619;   -1,591
852,628;13610,226;    0,165;    1,955
853,189;13167,219;    0,256;    2,682
853,751;13297,302;   -0,654;    1,409
854,312;13119,476;    1,256;   -1,682
854,874;13592,287;   -0,108;   -0,773
855,435;14002,825;    0,528;   -1,682
855,997;14122,908;    3,983;   -0,136
856,558;13488,901;    0,801;    1,773
857,119;13581,620;   -0,744;    2,864
857,681;13321,976;   -0,108;    0,318
858,242;13351,423;    1,347;   -2,136
858,803;13742,052;    1,074;   -0,773
859,364;14285,590;    0,892;   -4,773
859,925;13716,583;   -0,290;   -0,955
860,486;13620,939;    0,529;   -0,955
861,047;13365,204;    0,165;   -1,227
861,608;13203,014;    0,165;   -0,773
862,169;13409,280;   -0,562;   -0,045
862,730;13132,272;   -0,290;    1,409
863,291;13376,719;    0,438;   -0,500
863,852;13667,075;   -0,926;    1,955
864,412;13196,613;   -1,835;   -0,864
864,973;11958,969;    1,892;    0,500
865,534;11872,780;    2,074;    0,227
866,094;13168,590;    2,620;    0,227
866,655;12890,219;    4,711;    3,318
867,215;13169,575;    0,074;    0,136
867,776;13032,295;   -1,199;   -0,136
868,336;13070,014;    1,529;    0,136
868,897;12709,098;    3,438;    1,682
869,457;12468,545;    3,256;    0,318
870,017;12695,628;    2,438;   -1,227
870,578;13144,984;    1,893;    0,773
871,138;12795,977;    2,620;   -0,955
871,698;12372,151;   -0,562;   -1,318
872,258;12264,507;    0,711;   -2,864
872,818;12653,318;    2,347;    0,045
873,378;12613,128;   -2,198;    1,045
873,938;12220,939;    4,984;    0,500
874,498;12478,749;    1,256;   -1,955
875,058;12420,106;    4,347;    1,773
875,618;12269,371;    1,438;   -2,682
876,177;12235,363;   -0,471;    0,136
876,737;11900,537;   -0,289;    1,955
877,297;11903,075;    2,711;    1,955
877,856;11924,886;    2,529;    0,318
878,416;11896,060;    2,438;   -0,136
878,976;12085,780;    3,438;    0,409
879,535;12276,954;    4,529;    3,136
880,095;12043,674;    1,347;    0,045
880,654;12123,121;    0,347;    1,318
881,213;12228,568;    2,347;    1,500
881,773;11904,651;    1,984;    2,682
882,332;12222,371;    6,075;    5,136
882,891;12111,545;    0,711;    2,136
883,451;12495,992;   -2,016;    1,682
884,010;11983,803;   -1,107;   -0,409
884,569;12075,704;   -2,289;   -0,045
885,128;12216,333;   -0,743;   -1,864
885,687;12263,325;   -0,743;    0,682
886,246;12018,318;    2,620;    2,136
886,805;11770,038;    1,620;    2,045
887,364;11997,030;    1,166;   -0,500
887,922;12327,568;   -0,016;    0,045
888,481;11839,651;    1,530;    0,591
889,040;12108,371;    3,711;    2,136
889,599;12654,727;    2,166;    1,409
890,157;12740,174;    2,166;    2,409
890,716;12410,075;    2,166;    0,227
891,274;12235,250;    0,075;   -1,136
891,833;12628,788;    1,166;    0,864
892,391;12486,780;    1,802;    0,500
892,950;12519,500;    0,166;   -0,773
893,508;12865,765;    0,984;   -0,409
894,067;12278,666;   -0,379;    0,136
894,625;12215,022;   -1,016;   -1,500
895,183;12377,742;   -0,198;   -0,682
895,741;12316,735;    2,257;   -1,773
896,299;12200,727;    1,621;   -2,409
896,858;12357,629;    1,530;   -1,591
897,416;12473,166;    0,166;   -1,318
897,974;12286,886;   -2,197;    0,318
898,532;12425,879;    6,530;    2,682
899,089;12341,144;    0,621;   -0,682
899,647;12423,409;    0,530;    1,318
900,205;12212,310;    0,257;    1,045
900,763;12378,939;    2,166;    0,227
901,321;12387,932;    3,530;   -1,409
901,878;11878,470;    3,257;   -0,773
902,436;11788,462;    0,257;    1,318
902,994;12188,636;    6,712;    3,682
903,551;11693,629;    1,439;    0,409
904,109;12047,257;    1,530;   -1,409
904,666;11714,977;    1,439;    1,045
905,224;11528,970;    3,894;   -0,409
905,781;11343,417;   -0,470;   -0,318
906,338;11418,500;    0,167;    1,045
906,895;11364,220;    1,894;    2,045
907,453;11296,303;    2,348;    1,136
908,010;11352,386;    3,348;    0,409
908,567;11043,288;   -0,561;    0,591
909,124;10581,553;    2,439;   -1,500
909,681;10642,364;   -1,288;    0,682
910,238;10841,629;   -0,106;   -1,318
910,795;11136,348;   -1,561;   -1,136
911,352;10816,439;   -0,379;   -2,682
911,909;10372,348;    2,803;   -0,864
912,466;10779,076;    1,985;    1,500
913,022;10340,348;   -0,924;    0,500
913,579;10711,894;   -0,470;    2,045
914,136;10493,712;   -2,561;    0,955
914,692;10813,985;    1,530;   -1,227
915,249;10406,348;    0,530;    0,409
915,806;10602,985;    1,803;    1,955
916,362;10483,894;    0,894;    1,864
916,918;10015,530;    2,439;    1,045
917,475;10062,167;    1,621;    0,955
918,031;10120,167;    0,076;   -0,045
918,587; 9662,621;    0,621;   -0,318
919,144; 9910,530;   -0,379;    0,227
919,700;10149,621;    0,167;    0,773
920,256; 9751,439;    0,439;    0,045
920,812; 9483,348;    1,439;   -1,045
921,368; 9543,621;    1,348;   -1,045
921,924; 9210,530;    0,439;   -0,136
922,480; 8871,621;    0,076;    1,227
923,036; 9411,894;   -0,652;    1,955
923,592; 9374,803;    0,621;    0,318
924,148; 9304,621;    1,894;   -0,955
924,704; 8772,530;    0,258;   -0,409
925,259; 9064,530;   -0,561;    0,591
925,815; 8847,258;    3,803;    0,500
926,371; 8454,803;    3,530;    1,409
926,926; 8410,439;    1,621;    0,591
927,482; 8073,076;    1,621;    0,773
928,037; 7994,621;   -0,833;    2,045
928,593; 8266,348;    0,258;    1,045
929,148; 8137,712;    1,167;   -1,500
929,704; 7750,985;    2,439;   -0,500
930,259; 7924,621;    0,894;   -0,136
930,814; 7173,076;    1,803;    1,955
931,369; 6941,530;    0,258;   -0,773
931,925; 6868,985;   -1,924;    0,136
932,480; 6791,258;    3,076;   -2,591
933,035; 6785,621;    3,985;   -0,318
933,590; 6611,985;   -1,742;   -1,773
934,145; 6320,712;   -1,288;   -0,318
934,700; 6617,894;    0,348;   -0,591
935,255; 6466,258;    4,803;    0,045
935,809; 5960,439;    6,258;    0,864
936,364; 5270,258;    2,167;   -0,136
936,919; 5293,439;    2,348;   -1,773
937,474; 5230,712;    1,348;    0,136
938,028; 5042,167;    3,076;    1,136
938,583; 4685,985;    6,348;    4,682
939,138; 4935,985;    0,167;    2,136
939,692; 4489,621;   -1,015;   -1,136
940,247; 4257,985;    1,167;   -1,045
940,801; 3968,894;    0,621;    0,227
941,355; 3903,530;    0,439;    2,591
941,910; 3607,076;    0,712;   -2,136
942,464; 3725,348;    2,712;   -0,318
943,018; 3616,803;    3,258;   -0,227
943,572; 3556,712;    2,803;   -0,682
944,126; 3122,894;   -0,924;   -0,409
944,681; 3018,167;    0,712;    0,227
945,235; 3015,348;    2,167;   -0,591
945,789; 2959,985;    1,258;   -1,864
946,342; 3155,076;   -0,561;   -0,591
946,896; 2908,894;    0,348;    0,955
947,450; 2717,076;   -0,561;   -0,227
948,004; 2955,894;    1,076;   -0,045
948,558; 2910,076;    1,258;   -0,864
949,111; 2823,894;   -1,197;   -0,318
949,665; 2929,803;   -0,106;   -0,682
950,219; 2833,621;    0,621;   -1,045
950,772; 2851,439;    0,258;    1,864
951,326; 2795,530;   -1,106;   -0,955
951,879; 2831,167;    1,076;   -2,318
952,433; 2892,530;    1,348;    2,227
952,986; 2734,076;    0,348;    0,682
953,539; 2672,985;    1,530;    0,591
954,093; 2629,621;    0,985;   -1,318
954,646; 2770,348;   -0,288;    1,318
955,199; 2589,803;    1,258;   -0,500
955,752; 2569,530;    1,985;    1,773
956,305; 2517,258;    0,894;    2,955
956,858; 2644,894;    0,621;   -0,318
957,411; 2789,985;    3,621;    2,136
957,964; 2612,167;    2,076;    2,136
958,517; 2590,439;    0,985;    3,136
959,070; 2464,894;   -1,197;    1,955
959,623; 2615,985;    1,076;    1,500
960,176; 2431,621;    0,712;    2,045
960,728; 2418,439;    1,712;    0,773
961,281; 2462,167;    2,258;    0,500
961,834; 2473,985;   -0,833;    0,864
962,386; 2395,894;    1,258;    1,045
962,939; 2322,439;    3,439;   -0,318
963,491; 2447,258;    2,621;    1,136
964,043; 2327,803;    0,076;    2,409
964,596; 2465,348;    1,712;    2,227
965,148; 2328,167;   -0,379;    1,773
965,700; 2244,348;   -0,015;   -0,227
966,253; 2392,621;   -0,833;    0,318
966,805; 2278,439;    1,894;    0,773
967,357; 2282,348;    0,439;   -1,500
967,909; 2290,258;    1,167;   -1,227
968,461; 2326,076;    0,894;    3,136
969,013; 2255,258;   -1,561;   -0,864
969,565; 2357,439;    1,803;   -1,136
970,117; 2548,621;    3,803;    1,045
970,669; 2292,076;    3,258;   -0,136
971,220; 2121,803;    2,167;   -1,500
971,772; 2090,803;    1,348;   -0,318
972,324; 2216,621;   -1,197;   -0,500
972,876; 2146,348;    0,167;   -0,045
973,427; 2305,712;   -1,197;   -1,045
973,979; 2289,258;    0,076;   -2,500
974,530; 2237,712;    0,803;    1,318
975,082; 2255,530;    2,167;    1,682
975,633; 2175,985;    2,894;    1,682
976,184; 2332,167;    2,076;    0,773
976,736; 2187,439;    0,348;    0,227
977,287; 2047,621;    0,258;   -0,500
977,838; 2151,439;   -0,924;   -0,318
978,389; 2207,530;    0,803;   -0,500
978,940; 2050,712;    1,258;   -0,409
979,491; 2088,894;    2,258;   -0,500
980,042; 2080,621;   -0,652;    3,045
980,593; 2101,167;    1,894;    0,227
981,144; 2207,076;    3,530;   -0,500
981,695; 2218,439;   -0,470;    1,500
982,246; 2141,712;   -1,833;    1,045
982,797; 2192,167;   -0,561;    0,682
983,347; 2318,348;    2,167;    0,591
983,898; 2510,712;    4,167;    0,409
984,449; 2385,530;    2,530;    0,773
984,999; 2232,985;    1,894;   -1,136
985,550; 2091,348;    3,167;   -0,318
986,100; 2055,076;    0,712;   -0,318
986,651; 2078,076;    0,258;    0,045
987,201; 2078,621;    0,894;   -0,591
987,751; 2137,985;   -0,288;    2,864
988,302; 2151,348;   -0,379;    1,500
988,852; 2162,712;    1,985;   -1,136
989,402; 2242,439;    0,985;    0,682
989,952; 2188,621;    1,621;    0,864
990,502; 2188,258;    1,076;    0,682
991,052; 2116,985;   -0,106;    0,045
991,602; 2050,258;    1,167;    1,318
992,152; 2079,530;    2,803;    0,682
992,702; 2063,803;    1,167;   -0,045
993,252; 2000,076;    0,076;   -0,500
993,802; 2109,530;    1,167;    1,318
994,352; 2255,076;   -0,742;    1,136
994,901; 2283,258;    1,076;    3,227
995,451; 2227,985;   -1,197;    0,318
996,000; 2296,803;    1,076;    0,318
996,550; 2087,712;    2,894;    0,227
997,100; 2097,712;   -0,561;   -0,045
997,649; 2347,348;   -0,197;    0,955
998,198; 2035,167;   -0,288;   -1,500
998,748; 2232,258;    0,348;   -2,318
999,297; 2126,985;    0,985;   -0,409
999,846; 2212,712;    1,894;   -0,773
1000,395; 2211,167;    1,530;    0,500
1000,945; 2247,167;    1,076;   -0,773
1001,494; 2285,348;    0,167;    0,682
1002,043; 2251,348;    0,712;    0,864
1002,592; 2078,894;    3,439;    1,955
1003,141; 2220,258;    2,439;   -0,682
1003,690; 2148,712;    1,258;    0,500
1004,238; 2165,439;   -0,106;   -0,045
1004,787; 1870,348;   -1,288;    1,227
1005,336; 2126,530;    1,621;    0,682
1005,885; 2194,530;   -0,197;   -2,773
1006,433; 2264,803;   -0,470;    0,955
1006,982; 2421,803;    2,167;    1,682
1007,531; 2279,076;    2,712;   -0,227
1008,079; 2181,985;    0,258;    0,500
1008,627; 2284,530;    1,621;    0,409
1009,176; 2109,803;    0,076;   -1,955
1009,724; 2134,530;   -2,742;    0,864
1010,273; 2246,894;    1,076;    0,500
1010,821; 2294,712;    1,076;    1,409
1011,369; 2056,621;    0,076;    1,318
1011,917; 2035,985;   -0,833;   -0,591
1012,465; 2292,258;    2,530;   -1,591
1013,013; 2356,258;    0,439;   -1,682
1013,561; 2316,076;   -1,288;   -0,773
1014,109; 2389,985;   -0,833;    1,682
1014,657; 2268,439;    1,348;    0,591
1015,205; 2320,348;    0,894;   -0,955
1015,753; 2298,348;    0,258;   -1,409
1016,301; 2343,076;    2,621;    3,045
1016,848; 2359,167;    2,167;    0,409
1017,396; 2394,348;    1,621;    0,045
1017,944; 2492,621;    2,621;    1,864
1018,491; 2279,076;   -0,197;    1,409
1019,039; 2555,621;   -0,652;    0,591
1019,586; 2378,258;    0,076;    1,682
1020,134; 2413,803;    0,712;    1,500
1020,681; 2456,439;    2,894;   -1,136
1021,228; 2422,439;   -0,561;   -2,227
1021,776; 2298,621;   -0,833;   -1,136
1022,323; 2559,258;    0,803;    0,773
1022,870; 2470,076;   -0,470;   -0,045
1023,417; 2418,621;    2,076;    1,864
1023,964; 2447,258;    0,621;    1,227
1024,511; 2350,621;   -0,652;    0,773
1025,058; 2199,985;    0,439;   -0,045
1025,605; 2223,348;   -1,742;    3,136
1026,152; 2479,439;   -0,106;   -0,591
1026,699; 2215,258;    0,167;    1,318
1027,245; 2327,439;    2,439;    0,318
1027,792; 2457,348;    0,712;    1,409
1028,339; 2464,894;    4,076;   -0,045
1028,885; 2314,530;    3,621;   -0,227
1029,432; 2237,985;   -0,106;    0,227
1029,978; 2340,712;    1,348;   -1,591
1030,525; 2247,258;    1,621;    0,409
1031,071; 2375,530;    0,348;    1,136
1031,618; 2594,439;    1,258;    1,682
1032,164; 2363,530;    2,076;    3,045
1032,710; 2399,076;    0,076;   -1,500
1033,256; 2317,258;    0,712;   -0,136
1033,803; 2241,530;   -0,288;    1,500
1034,349; 2032,439;    1,803;    0,136
1034,895; 2164,803;    2,621;   -0,318
1035,441; 2162,803;    0,439;    0,318
1035,987; 2176,894;   -2,288;   -0,682
1036,533; 2222,530;   -0,197;   -0,955
1037,078; 2439,894;    4,712;    1,682
1037,624; 2265,803;    2,439;   -0,955
1038,170; 2208,712;    1,712;   -0,318
1038,716; 2178,985;    2,167;   -0,409
1039,261; 2071,712;    2,167;   -0,773
1039,807; 2028,076;   -0,015;    3,409
1040,352; 2122,076;   -1,288;   -0,318
1040,898; 2156,439;    0,167;   -0,682
1041,443; 2034,258;    0,803;   -2,591
1041,989; 2178,621;    3,621;    1,591
1042,534; 2017,621;    0,985;    2,591
1043,079; 2049,348;    1,985;    0,955
1043,625; 1935,258;    0,258;    0,500
1044,170; 1999,712;    2,439;    1,045
1044,715; 2241,985;    0,167;    0,955
1045,260; 2060,258;   -0,833;   -0,955
1045,805; 2064,712;    0,258;   -0,591
1046,350; 1979,530;    0,530;   -0,409
1046,895; 2034,712;    0,803;    1,591
1047,440; 2014,985;    1,530;    0,409
1047,985; 1890,985;   -1,197;   -0,955
1048,530; 1813,894;    1,348;    1,227
1049,074; 1898,258;    2,803;    0,318
1049,619; 1848,985;   -0,924;    1,955
1050,164; 1702,439;    1,076;    0,227
1050,708; 1758,985;    2,621;    0,045
1051,253; 2149,439;    3,258;   -2,227
1051,797; 1851,712;   -0,197;   -1,318
1052,342; 1785,348;    1,348;    1,045
1052,886; 1813,258;    1,803;   -1,409
1053,430; 1697,167;    2,167;    0,136
1053,975; 1736,348;    0,894;   -0,318
1054,519; 1727,258;    1,803;    3,227
1055,063; 1781,258;    3,621;    1,318
1055,607; 1693,894;    1,348;    0,227
1056,151; 1705,167;    0,530;    1,682
1056,695; 1590,258;   -1,833;   -1,136
1057,239; 1662,894;   -1,197;   -0,682
1057,783; 1689,439;    2,258;   -1,500
1058,327; 1679,803;    3,076;    1,409
1058,871; 1912,258;    3,985;    1,318
1059,415; 1647,621;   -0,561;   -0,045
1059,958; 1907,167;    2,985;    2,591
1060,502; 1614,348;    1,348;   -0,773
1061,046; 1488,985;    1,712;   -0,955
1061,589; 1470,712;    2,803;   -1,136
1062,133; 1374,348;    0,985;    1,864
1062,676; 1351,076;    1,439;    0,864
1063,220; 1378,167;    0,985;    0,500
1063,763; 1407,076;    2,985;    1,136
1064,306; 1468,621;    0,985;    1,864
1064,849; 1389,894;    2,076;    0,591
1065,393; 1392,167;    2,894;   -1,500
1065,936; 1470,712;    2,530;   -0,409
1066,479; 1348,712;    2,621;    1,318
1067,022; 1370,803;    1,894;   -0,227
1067,565; 1300,258;   -1,197;   -1,318
1068,108; 1292,803;    1,258;   -0,591
1068,651; 1272,076;   -2,470;    1,409
1069,194; 1229,076;   -1,106;   -1,682
1069,736; 1248,076;    3,803;    0,955
1070,279; 1212,712;   -1,652;   -0,500
1070,822; 1290,894;    1,530;   -0,318
1071,364; 1414,348;    0,530;    1,318
1071,907; 1214,348;    0,348;    3,227
1072,450; 1082,076;    0,258;   -0,045
1072,992; 1113,439;   -0,561;    3,136
1073,535; 1250,076;    0,167;    2,136
1074,077; 1059,712;    2,985;    2,045
1074,619; 1050,621;    0,985;    0,591
1075,161; 1097,348;   -0,561;    1,500
1075,704; 1271,439;    0,258;    1,227
1076,246; 1054,621;    1,530;    0,682
1076,788;  978,076;   -1,015;    1,773
1077,330; 1029,167;   -2,106;    2,136
1077,872; 1036,985;   -1,924;    0,955
1078,414; 1275,803;    3,712;    0,773
1078,956; 1026,530;    0,167;   -0,227
1079,498; 1280,894;    0,439;    0,318
1080,040;  999,894;    0,985;   -1,318
1080,581;  930,076;    0,621;   -0,318
1081,123;  853,076;   -0,106;   -0,773
1081,665;  891,076;    3,803;   -0,955
1082,206; 1195,985;    3,258;   -0,500
1082,748; 1058,894;    3,258;    2,045
1083,289;  928,167;    0,167;    1,318
1083,831;  864,894;    0,258;    0,227
1084,372;  912,167;    0,894;    0,591
1084,913;  916,439;    3,348;    0,864
1085,455;  867,167;    1,530;   -2,045
1085,996;  855,803;    0,530;    0,136
1086,537;  899,076;    0,985;    0,864
1087,078;  916,803;    0,439;   -2,136
1087,619;  951,621;   -1,652;    0,227
1088,160;  874,167;    1,439;    1,318
1088,701;  849,530;   -0,742;    0,682
1089,242;  812,439;   -0,561;   -2,227
1089,783;  913,712;   -0,561;    1,409
1090,324;  870,076;   -0,833;    0,682
1090,865;  756,712;   -1,924;   -0,409
1091,405;  716,712;   -0,561;    2,227
1091,946;  748,348;   -0,197;   -0,955
1092,487;  684,439;   -1,288;   -1,409
1093,027;  865,076;    1,803;   -1,500
1093,568;  727,621;    2,258;    1,227
1094,108;  820,621;    0,621;    1,773
1094,649;  759,985;   -0,470;    0,136
1095,189;  691,167;    1,167;   -0,682
1095,729;  660,439;    0,712;    0,955
1096,269;  656,621;    1,258;   -0,955
1096,810;  962,258;   -0,197;    0,500
1097,350;  806,712;   -0,561;   -0,773
1097,890;  701,621;    2,985;    1,227
1098,430;  960,258;    4,985;    2,864
1098,970;  843,167;    1,894;    1,682
1099,510;  689,712;   -0,833;   -2,318
1100,050;  635,258;    0,258;   -1,591
1100,589;  614,076;    0,076;   -0,318
1101,129;  730,985;    0,894;   -0,955
1101,669;  877,348;    2,803;    2,136
1102,209;  713,621;    1,530;    2,227
1102,748;  668,167;    3,439;    0,955
1103,288;  653,803;    0,712;   -1,227
1103,827;  677,985;    3,530;   -2,227
1104,367;  576,258;    1,712;   -2,409
1104,906;  543,894;   -1,015;   -1,136
1105,445;  615,258;    0,985;   -1,136
1105,985;  563,894;   -0,652;    1,500
1106,524;  605,348;    1,530;   -0,682
1107,063;  578,530;    1,167;    1,409
1107,602;  554,348;    1,894;   -1,500
1108,141;  489,803;    1,621;    1,500
1108,680;  593,530;    3,985;   -0,591
1109,219;  532,258;    0,167;   -0,500
1109,758;  529,439;    4,167;    0,682
1110,297;  513,348;   -1,106;   -0,682
1110,836;  452,621;    1,439;    0,955
1111,375;  595,530;    0,348;    0,409
1111,913;  616,712;    0,985;    0,773
1112,452;  557,803;    0,894;    0,136
1112,991;  452,348;    1,076;    1,955
1113,529;  428,621;    0,167;   -0,045
1114,068;  489,439;    0,439;    2,955
1114,606;  402,803;   -0,561;   -0,955
1115,144;  556,258;    1,530;    1,045
1115,683;  493,439;    1,985;    0,318
1116,221;  542,348;    2,076;   -0,864
1116,759;  454,348;    1,621;   -0,864
1117,297;  641,076;    1,621;    1,864
1117,836;  463,076;    1,985;   -1,227
1118,374;  461,985;    0,258;   -0,682
1118,912;  423,439;    0,439;    2,682
1119,450;  409,803;    0,985;    0,864
1119,988;  456,439;    3,348;    2,136
1120,525;  892,803;    7,258;    3,318
1121,063;  596,258;    0,530;    1,864
1121,601;  427,076;    1,076;   -1,227
1122,139;  394,076;    1,076;   -2,045
1122,676;  576,076;   -1,652;    2,773
1123,214;  510,894;    0,712;    4,409
1123,751;  332,712;    0,621;    2,227
1124,289;  455,621;    0,894;   -0,409
1124,826;  340,258;   -0,379;    0,227
1125,364;  263,803;    0,712;   -0,955
1125,901;  446,712;    6,258;    1,227
1126,438;  532,803;    3,530;    0,955
1126,975;  282,621;    2,985;   -0,773
1127,513;  353,894;    2,621;    2,136
1128,050;  274,439;   -0,561;   -0,682
1128,587;  365,258;    1,348;   -0,227
1129,124;  405,439;   -0,015;    1,318
1129,661;  286,439;   -1,924;    0,227
1130,198;  437,712;    2,439;    0,773
1130,734;  380,803;   -0,379;    1,409
1131,271;  259,985;   -1,197;    0,864
1131,808;  413,348;    1,621;    3,045
1132,345;  298,439;    4,530;    0,318
1132,881;  189,712;   -0,561;   -1,864
1133,418;  308,712;    0,348;   -1,136
1133,954;  255,621;    0,712;   -2,682
1134,491;  328,258;    1,712;   -0,773
1135,027;  239,348;    2,167;    0,864
1135,564;  312,167;    1,439;    2,955
1136,100;  294,894;   -0,742;    2,136
1136,636;  194,348;   -1,015;   -1,045
1137,172;  280,348;    0,894;   -1,045
1137,708;  218,439;   -1,561;   -1,045
1138,245;  215,076;    0,803;   -1,227
1138,781;  174,076;    1,803;   -3,318
1139,317;  246,076;    1,894;   -1,409
1139,852;  237,894;    3,076;    0,136
1140,388;  332,167;    2,076;   -0,409
1140,924;  232,076;    1,076;   -2,227
1141,460;  178,530;   -0,288;    0,136
1141,996;  122,439;   -0,652;    2,682
1142,531;  166,258;    1,076;    3,318
1143,067;  350,076;    1,167;    1,045
1143,602;  404,530;    3,439;   -0,318
1144,138;  263,167;    0,803;    1,045
1144,673;  150,258;    1,621;    1,409
1145,209;  206,258;    2,894;   -0,318
1145,744;  138,258;    0,803;    0,864
1146,279;  257,985;    1,530;   -0,136
1146,815;  183,439;    1,530;   -2,682
1147,350;  224,621;   -0,924;    0,045
1147,885;  148,348;   -1,924;   -1,318
1148,420;  144,803;    2,439;    0,773
1148,955;  133,803;   -1,470;    1,864
1149,490;  151,894;   -1,106;   -1,591
1150,025;  139,076;   -1,106;   -1,773
1150,560;  240,167;   -0,288;   -0,955
1151,094;  203,076;    0,258;   -0,591
1151,629;  210,894;   -3,742;    0,864
1152,164;  148,894;   -1,288;    1,318
1152,698;  111,530;    1,258;   -0,136
1153,233;   76,076;   -1,379;   -0,682
1153,767;  120,712;   -0,288;   -2,318
1154,302;  160,985;   -0,379;    1,773
1154,836;  163,985;    0,803;   -2,136
1155,371;  213,712;    2,258;    3,682
1155,905;  160,803;    1,985;    1,682
1156,439;  142,621;    0,530;   -0,500
1156,973;  160,258;    0,439;    0,318
1157,507;  108,985;   -1,742;    0,682
1158,042;  132,076;   -0,652;    1,045
1158,576;  169,439;   -0,561;    1,773
1159,110;  163,258;    0,076;    2,409
1159,643;  137,985;   -2,470;   -0,045
1160,177;   87,621;   -2,015;    1,500

