
Integration time [ms]:   0,050
Averaging Nr. [scans]: 11
Smoothing Nr. [pixels]: 0
Data measured with spectrometer [name]: 7318044SP
Wave   ;Sample   ;Dark     ;Reference
[nm]   ;[counts] ;[counts] ;[counts] 

186,757;   -5,866;   38,161;    1,318
187,357;   20,062;   26,706;    0,955
187,958;   -0,136;   17,252;   -1,591
188,558;   38,126;   12,979;   -1,227
189,159;   17,164;   10,070;   -4,500
189,759;   -1,962;    5,797;   -3,591
190,360;   -9,160;    6,797;   -2,136
190,960;   26,758;    5,706;   -4,136
191,560;   33,502;    2,614;   -6,591
192,161;  240,657;    5,885;   -3,500
192,761;  102,280;    5,520;   -3,227
193,361;   58,238;    3,065;   -3,773
193,962;   96,058;    1,612;   -2,682
194,562;   34,440;   -0,114;   -3,955
195,162;   64,111;   -0,567;   -2,227
195,762;  200,279;    2,433;   -0,045
196,362;  148,053;    1,706;   -2,500
196,963;   44,423;    1,706;   -0,864
197,563;  100,403;    1,252;   -0,955
198,163;   43,751;   -0,111;   -0,682
198,763;   66,536;   -0,020;   -0,500
199,363;  142,516;    3,616;   -0,500
199,963;  114,548;    2,162;    0,409
200,563;   98,266;    6,344;   -1,409
201,163;   77,723;    5,435;   -0,227
201,763;  141,431;    1,435;    0,318
202,363;  103,070;    0,980;    1,500
202,963;  176,286;    1,526;    1,045
203,563;  268,003;    0,344;    0,500
204,162;  149,745;    1,889;   -1,864
204,762;  140,911;    2,071;    0,591
205,362;  124,269;    0,708;    1,955
205,962;  196,446;    3,435;    1,955
206,562;  183,084;    1,889;    2,318
207,161;  160,467;    1,708;    0,318
207,761;  302,570;    4,435;    2,409
208,361;  192,208;    1,889;    1,409
208,960;  264,764;    2,889;    1,500
209,560;  312,923;    0,435;    1,591
210,160;  313,505;    5,071;    1,864
210,759;  281,862;    0,708;    1,227
211,359;  283,072;   -0,474;    1,045
211,958;  517,335;    3,526;    2,045
212,558;  580,403;    0,799;    1,864
213,157;  427,816;   -0,929;    1,500
213,757;  811,549;    5,617;   -0,227
214,356;  545,519;    1,708;   -0,409
214,956;  844,103;    3,526;    0,409
215,555;  508,387;    0,617;    2,136
216,154;  457,327;   -0,292;   -0,591
216,754;  460,956;    1,253;    0,773
217,353;  559,207;   -0,383;   -1,045
217,952;  435,072;    2,072;    0,318
218,552;  655,985;    0,254;   -0,773
219,151;  546,609;   -1,110;    0,955
219,750;  557,109;    0,890;   -0,227
220,349;  605,882;   -2,292;    1,045
220,948;  709,663;    1,163;    1,136
221,548;  666,962;    0,617;    1,227
222,147;  764,611;   -1,292;   -0,409
222,746; 1036,561;    1,254;   -0,955
223,345;  888,398;   -1,019;    0,500
223,944;  894,657;    1,163;    0,773
224,543; 1011,243;    4,072;   -1,409
225,142; 1126,353;    1,345;    0,136
225,741; 1025,107;    1,163;    1,045
226,340; 1008,794;    1,254;   -0,955
226,939; 1362,058;    2,708;   -0,136
227,538; 1232,673;    1,163;   -0,773
228,137; 1414,995;    0,435;    0,864
228,735; 1435,901;    0,435;    1,227
229,334; 1207,529;   -0,474;   -0,227
229,933; 1570,873;    0,799;    0,591
230,532; 1652,554;   -1,201;   -0,409
231,131; 1721,009;    1,253;    0,318
231,729; 1685,853;    1,163;   -2,318
232,328; 1690,810;    0,435;   -1,500
232,927; 1726,318;    4,526;   -0,500
233,525; 1772,421;    0,981;    0,045
234,124; 1916,068;    1,890;   -1,591
234,723; 1917,644;    1,617;   -1,045
235,321; 2015,674;    1,163;    0,136
235,920; 2158,948;    2,526;   -1,227
236,518; 2426,797;    1,072;    0,318
237,117; 2490,025;    2,890;   -0,227
237,715; 2599,956;    1,163;   -0,500
238,314; 2675,747;    1,708;   -2,318
238,912; 2847,961;    0,526;   -1,409
239,510; 2845,218;    1,162;   -1,227
240,109; 3027,228;   -0,474;    3,773
240,707; 3051,397;   -0,474;    1,227
241,305; 3329,365;   -0,383;    0,136
241,904; 3562,183;   -0,292;   -2,045
242,502; 3603,377;    3,253;   -0,227
243,100; 3573,857;    3,344;   -0,955
243,698; 3810,970;    2,799;    1,682
244,297; 4004,442;   -0,656;    0,682
244,895; 3926,485;   -0,474;   -2,318
245,493; 4250,764;    2,981;   -0,591
246,091; 4343,354;    5,163;   -1,318
246,689; 4349,986;    2,163;    0,591
247,287; 4511,496;   -0,019;   -1,136
247,885; 4854,664;   -1,019;    1,227
248,483; 4960,279;   -0,201;   -0,500
249,081; 5126,069;    0,981;    1,591
249,679; 5309,904;   -1,019;    1,682
250,277; 5583,183;   -2,292;    0,864
250,875; 5565,952;    0,617;   -1,045
251,473; 5650,697;   -0,019;    0,500
252,071; 5847,915;   -0,383;    1,045
252,669; 6009,748;   -1,565;    0,318
253,267; 6265,425;    1,618;    0,773
253,864; 6224,314;    0,617;    0,682
254,462; 6181,653;    1,526;    1,591
255,060; 6176,088;    0,072;    1,318
255,658; 6489,839;   -3,292;   -0,136
256,255; 6877,310;   -0,201;   -2,045
256,853; 6780,664;    2,345;    1,409
257,451; 6810,029;    1,981;    1,864
258,048; 7143,828;    2,072;    1,864
258,646; 6877,194;    0,436;   -1,045
259,243; 7059,119;    2,981;    2,227
259,841; 7118,538;    1,799;    0,318
260,438; 7060,818;    0,254;    0,864
261,036; 7751,841;    0,617;    1,409
261,633; 7694,028;    1,526;    2,227
262,231; 7491,495;   -0,110;   -0,045
262,828; 7575,905;   -0,383;    1,136
263,425; 7643,639;   -1,928;   -0,591
264,023; 7891,361;    1,436;    0,045
264,620; 7480,368;    1,526;   -0,318
265,217; 7835,570;    2,890;    3,136
265,815; 7950,607;    2,527;    2,136
266,412; 7804,578;    0,072;    0,136
267,009; 7811,025;    0,526;    0,773
267,606; 7776,558;    0,345;   -0,955
268,203; 7734,343;   -0,383;   -0,591
268,801; 7966,594;   -0,474;    0,591
269,398; 8276,889;   -0,564;    2,500
269,995; 8270,814;    0,890;    1,591
270,592; 8063,652;    0,799;   -0,500
271,189; 8269,284;    1,981;    0,409
271,786; 8404,674;    2,072;    1,227
272,383; 8263,213;   -0,383;    0,227
272,980; 8394,365;    1,617;    0,318
273,577; 8866,787;    2,162;    1,227
274,174; 8423,743;    1,435;    2,591
274,771; 8445,839;    1,890;   -0,773
275,367; 8619,238;    3,253;    1,409
275,964; 8570,438;   -0,565;   -0,500
276,561; 8699,851;   -2,474;   -1,045
277,158; 8919,086;    1,799;   -1,773
277,755; 9086,160;   -0,110;    0,409
278,351; 8463,736;    0,436;   -1,500
278,948; 8830,670;   -0,201;    0,045
279,545; 8899,565;    0,527;    2,318
280,141; 9560,287;    1,254;   -2,045
280,738; 9404,377;    2,435;   -0,136
281,334; 9671,525;   -0,383;    0,591
281,931; 9117,621;    2,890;   -1,318
282,528; 9328,452;    4,072;   -0,500
283,124;10070,562;    3,345;   -0,500
283,721; 9994,424;    0,709;    1,409
284,317; 9871,597;    0,163;    2,500
284,913;10450,582;   -0,110;    0,591
285,510;10703,127;    2,890;   -0,318
286,106;10806,591;    2,345;   -0,955
286,703;10384,536;    0,072;    1,955
287,299;10626,448;    1,254;   -0,591
287,895;10899,036;    0,890;   -1,045
288,491;11517,889;    0,163;    2,136
289,088;11265,801;    0,163;    2,409
289,684;11393,021;    2,890;    1,500
290,280;11455,093;    1,890;    0,682
290,876;11535,696;    0,163;    5,500
291,472;11510,481;    2,163;    2,227
292,068;11653,144;    1,254;    0,227
292,665;11362,084;   -0,564;    0,773
293,261;10999,474;   -1,292;    2,136
293,857;11441,176;    4,072;    2,136
294,453;11401,414;   -0,928;    0,955
295,049;11314,993;    0,253;    1,955
295,644;11365,796;   -1,292;    0,136
296,240;11332,245;    0,162;   -0,136
296,836;11383,160;   -0,747;    0,318
297,432;11667,849;    2,980;   -0,500
298,028;11759,367;    0,435;    0,773
298,624;12185,444;    0,889;    1,864
299,220;12529,742;    0,435;    0,591
299,815;12161,124;    0,526;   -0,409
300,411;11943,993;    0,435;    1,773
301,007;11993,265;    1,889;    0,227
301,602;12064,227;    2,071;   -2,318
302,198;12225,953;    1,435;   -0,773
302,794;12602,244;    1,526;   -0,500
303,389;12755,619;    1,071;    1,045
303,985;12774,781;    1,253;    1,409
304,580;12752,149;    0,889;    1,591
305,176;12725,416;    0,344;    0,136
305,771;12684,573;   -0,929;   -1,227
306,367;12493,932;    3,071;    0,136
306,962;12894,318;    2,889;    1,500
307,558;12597,346;    2,435;    0,136
308,153;12546,056;   -0,383;   -1,136
308,748;12772,456;    0,162;    1,682
309,344;12724,418;    0,253;   -1,318
309,939;12830,233;    2,071;   -1,318
310,534;13111,917;   -2,020;   -1,682
311,130;13041,614;   -0,656;   -2,500
311,725;12753,554;    0,526;   -0,500
312,320;13043,385;    1,253;    0,045
312,915;12929,375;    2,890;   -1,045
313,510;12958,498;    0,526;   -0,500
314,105;13512,098;   -3,565;    1,409
314,700;12855,947;   -1,656;   -1,045
315,295;12473,967;   -0,020;    0,045
315,890;12038,401;   -0,292;    0,864
316,485;12353,925;    0,253;   -0,318
317,080;12485,689;   -0,929;    1,591
317,675;13037,843;    3,071;   -0,682
318,270;12362,245;    6,889;    3,318
318,865;12440,151;    2,435;    3,045
319,460;12268,832;   -1,565;    0,591
320,055;12545,902;   -2,565;   -1,227
320,650;12166,033;   -1,838;   -0,591
321,244;12225,376;    0,889;   -1,409
321,839;13204,595;    0,980;   -0,227
322,434;13044,294;   -0,111;   -1,591
323,029;12690,114;   -0,474;    1,591
323,623;12582,092;    0,798;    0,773
324,218;12346,269;    2,707;    1,409
324,812;12244,157;    0,889;    1,591
325,407;12076,195;   -0,929;    2,045
326,002;11987,808;    0,526;   -0,409
326,596;12370,390;   -0,656;    1,318
327,191;12594,243;   -0,383;   -1,045
327,785;12137,481;   -0,747;   -0,227
328,379;12447,911;   -0,383;    0,136
328,974;12213,034;    1,798;   -3,955
329,568;12452,465;    2,889;   -2,409
330,163;12275,517;    2,435;    1,045
330,757;12725,996;    0,253;    1,591
331,351;12030,712;   -0,292;    0,682
331,945;12337,513;   -0,383;    1,409
332,540;11943,989;    1,617;   -0,591
333,134;12124,517;    3,344;    0,773
333,728;12340,866;    2,799;    0,318
334,322;12709,026;    0,889;   -0,864
334,916;12012,074;    0,344;    0,955
335,510;12392,373;   -0,111;   -0,136
336,105;12661,607;   -0,929;    1,591
336,699;12343,273;   -1,292;    0,591
337,293;12269,398;    1,071;    0,318
337,887;12443,235;    0,071;    1,955
338,481;12538,017;    2,980;    0,591
339,074;12721,161;    2,071;    2,682
339,668;12522,655;   -0,110;    1,227
340,262;12814,462;    7,708;    3,227
340,856;12320,353;    1,708;   -0,682
341,450;11645,447;    0,708;    1,864
342,044;12568,671;    1,799;    0,136
342,637;12333,228;    1,162;   -2,136
343,231;12191,365;   -1,474;    0,682
343,825;12131,269;   -0,747;   -0,591
344,419;12116,718;   -0,474;    0,500
345,012;11820,533;    2,889;    4,045
345,606;11878,751;   -0,656;    1,591
346,199;11731,914;   -0,111;   -0,227
346,793;11265,318;    2,525;    2,045
347,386;11445,485;    0,889;   -1,136
347,980;11465,121;   -0,838;   -0,045
348,573;11248,392;   -1,748;    0,409
349,167;10828,563;    6,161;    4,773
349,760;11250,330;    2,252;    2,682
350,354;11230,271;    1,616;    1,136
350,947;10947,838;    2,798;    1,682
351,540;10613,408;    0,616;   -1,409
352,134;10534,907;   -1,111;    1,136
352,727;10595,829;   -0,657;    1,136
353,320;10390,049;    2,343;    0,591
353,913;10270,831;   -1,929;    1,864
354,507;10414,759;    0,434;   -1,227
355,100;10399,190;    0,071;    0,864
355,693; 9550,048;    4,798;    2,409
356,286; 9603,630;    0,980;    2,773
356,879; 9999,065;   -0,475;    1,227
357,472; 9593,653;    0,980;    1,500
358,065; 9791,742;    3,161;    2,500
358,658; 9684,334;    0,798;    2,318
359,251; 9298,978;    0,252;   -0,591
359,844; 8736,730;    0,343;   -1,136
360,437; 8874,894;    0,252;    0,045
361,030; 9196,674;    0,525;   -0,682
361,623; 8771,056;    0,434;    0,318
362,215; 8781,853;    0,979;    2,045
362,808; 8644,967;   -2,293;   -1,682
363,401; 8820,448;    0,798;    0,136
363,994; 8528,472;    3,252;   -1,500
364,586; 8441,574;    0,888;   -1,500
365,179; 8650,991;   -0,203;   -1,136
365,772; 8112,858;   -0,930;    2,045
366,364; 8404,243;    1,524;   -3,227
366,957; 8604,702;    1,342;   -0,045
367,549; 8611,232;   -0,203;   -0,864
368,142; 8225,045;    0,978;   -1,500
368,734; 8431,157;    2,523;   -2,136
369,327; 8396,356;    2,341;   -0,500
369,919; 8295,106;   -1,659;    0,409
370,512; 8084,771;   -1,023;   -0,500
371,104; 7813,771;    2,704;    1,591
371,696; 7959,319;    1,703;   -0,955
372,289; 8073,408;    0,157;    1,136
372,881; 8182,850;    1,156;    1,318
373,473; 8114,219;    4,064;    1,136
374,066; 7873,002;    1,336;    0,500
374,658; 7734,669;    0,879;    1,136
375,250; 8106,468;   -1,668;   -1,409
375,842; 7947,065;   -0,124;   -0,045
376,434; 7787,831;   -2,762;   -0,409
377,026; 8383,078;   -1,855;   -2,500
377,618; 8286,036;    0,779;   -0,682
378,210; 8119,469;    3,141;   -1,955
378,802; 7953,006;    3,412;   -0,591
379,394; 7859,533;    3,411;    0,682
379,986; 8511,669;    1,138;   -0,955
380,578; 8597,075;    1,410;    0,773
381,170; 7892,935;    0,320;    0,045
381,762; 7857,614;   -0,224;    1,409
382,354; 8073,679;   -0,223;   -1,318
382,945; 8188,242;    0,870;    0,318
383,537; 8352,214;    1,144;   -1,955
384,129; 8342,384;    0,963;   -1,136
384,721; 8516,300;    0,418;    0,955
385,312; 8434,482;   -1,399;   -0,955
385,904; 8536,335;   -0,945;    1,591
386,496; 7869,476;    0,691;    1,045
387,087; 8028,968;    0,418;    2,500
387,679; 8052,947;   -0,401;    0,045
388,270; 8200,222;   -2,401;    2,045
388,862; 8316,861;   -0,401;   -0,318
389,453; 8161,368;    1,054;    1,045
390,045; 8485,064;    3,236;   -2,682
390,636; 8439,292;    0,144;   -0,591
391,227; 8264,695;    2,054;   -0,045
391,819; 8356,852;    0,781;    0,773
392,410; 8438,822;    0,600;    0,045
393,001; 8337,582;    1,600;   -1,591
393,593; 8640,308;    0,600;   -0,045
394,184; 8443,226;    0,873;   -0,409
394,775; 8390,625;    1,146;    2,136
395,366; 8626,546;    1,782;    0,773
395,957; 8655,134;   -2,400;    0,136
396,548; 8952,598;    1,054;    2,682
397,139; 9220,989;    2,236;    0,591
397,730; 8935,506;    0,873;    0,955
398,321; 8985,417;    0,509;    0,955
398,912; 9007,934;   -0,764;    0,136
399,503; 9150,867;   -1,945;   -1,409
400,094; 8570,415;   -1,582;    1,682
400,685; 8396,342;    3,600;    0,045
401,276; 8449,039;   -0,400;   -0,955
401,867; 8792,748;   -1,127;    0,773
402,458; 8917,545;    1,509;   -2,318
403,048; 8858,957;    0,146;    0,591
403,639; 8491,747;    1,509;    0,864
404,230; 8731,178;    0,691;    0,318
404,821; 8623,140;   -0,127;    0,045
405,411; 8756,513;   -0,763;   -2,591
406,002; 8307,451;    3,237;   -1,136
406,592; 8150,184;    2,691;    0,045
407,183; 8430,797;    0,328;   -1,500
407,774; 8282,261;    1,419;   -0,136
408,364; 8658,740;    2,600;    0,409
408,954; 8239,205;   -0,036;    1,227
409,545; 8285,194;    1,873;    1,045
410,135; 7755,393;   -1,581;    0,500
410,726; 7917,708;    0,783;    0,318
411,316; 8289,628;    2,237;    0,773
411,906; 7946,563;    0,146;   -0,409
412,497; 7391,452;   -0,490;   -0,045
413,087; 8011,341;    0,783;   -0,227
413,677; 8377,012;   -2,490;    3,864
414,267; 8194,602;   -1,035;    1,409
414,857; 8148,625;    0,419;    4,227
415,448; 8411,119;   -0,763;    0,500
416,038; 8089,170;   -2,945;   -0,591
416,628; 7976,637;    0,965;    0,409
417,218; 7448,205;   -1,762;    3,318
417,808; 7703,683;    0,965;   -0,409
418,398; 8137,445;   -1,035;    2,682
418,988; 8077,887;   -2,217;    0,591
419,578; 8297,458;    3,601;    1,409
420,168; 8584,843;    0,692;   -0,955
420,757; 8130,151;    0,964;   -1,500
421,347; 7791,245;    1,601;   -0,227
421,937; 7917,992;    3,329;    1,409
422,527; 7847,406;    2,602;   -0,773
423,116; 7616,473;    2,692;   -0,045
423,706; 7954,946;    2,965;    0,318
424,296; 7870,302;    1,601;    0,682
424,885; 8294,393;    1,510;   -3,045
425,475; 8528,996;    1,147;   -2,864
426,065; 8407,929;   -1,489;   -0,318
426,654; 8007,514;    0,329;   -0,318
427,244; 8094,043;    1,147;    1,409
427,833; 7468,471;    1,056;   -0,500
428,423; 7880,531;    0,147;    1,136
429,012; 8610,362;    2,420;   -1,136
429,601; 8078,539;    2,057;    0,136
430,191; 8291,743;    2,511;    4,318
430,780; 7861,871;   -1,671;   -0,409
431,369; 7787,724;    1,329;   -0,045
431,959; 8358,139;    1,693;    0,500
432,548; 8112,818;   -1,398;   -0,045
433,137; 8202,956;    0,329;   -1,318
433,726; 8651,012;    0,148;    0,500
434,315; 8019,560;    0,148;    2,409
434,905; 8114,110;    0,693;    1,409
435,494; 7989,246;    3,148;    0,955
436,083; 8343,090;    1,420;   -0,955
436,672; 8143,591;    1,148;    0,500
437,261; 7772,554;    0,512;   -1,955
437,850; 7814,483;   -1,125;    0,682
438,439; 7729,867;    2,239;    1,955
439,027; 7522,989;    3,421;    1,773
439,616; 7814,189;    2,239;    1,227
440,205; 7639,811;    0,057;   -2,136
440,794; 7579,299;   -0,306;   -0,045
441,383; 7702,545;    1,603;   -0,591
441,971; 7544,439;   -0,306;    0,591
442,560; 7340,200;    0,603;   -1,773
443,149; 7088,409;    3,060;   -1,318
443,737; 7186,433;    0,968;   -2,318
444,326; 7330,484;    0,331;    0,318
444,915; 7296,042;   -1,851;    0,864
445,503; 7554,454;    0,058;   -0,318
446,092; 6928,485;    7,876;    2,136
446,680; 7366,270;    1,876;    0,318
447,269; 7444,273;   -1,487;   -0,318
447,857; 7199,532;    2,240;   -1,773
448,445; 7269,863;    2,149;    1,318
449,034; 7422,235;    0,876;   -1,136
449,622; 7440,057;    1,240;    3,500
450,210; 6815,132;    3,149;    2,227
450,799; 7226,977;    2,604;   -0,591
451,387; 7080,131;    1,786;   -0,591
451,975; 6767,634;   -1,305;    0,864
452,563; 6905,624;    0,422;    2,318
453,151; 6822,281;   -1,032;   -1,227
453,739; 6665,407;   -1,577;    0,136
454,328; 6591,053;    0,604;   -2,136
454,916; 6305,419;    1,150;   -0,136
455,504; 6425,484;    3,513;    1,227
456,092; 6582,192;    2,150;   -1,591
456,679; 6453,536;    0,604;    0,682
457,267; 6483,886;    3,604;    1,045
457,855; 6526,537;    3,241;    1,409
458,443; 6231,720;   -0,304;    1,682
459,031; 6398,844;    1,332;    2,409
459,619; 6741,581;   -3,577;    2,864
460,206; 6723,102;   -0,759;    2,045
460,794; 6799,096;   -0,668;   -0,227
461,382; 6968,334;    0,878;   -0,864
461,970; 6594,271;    0,605;    1,864
462,557; 6648,477;    0,878;   -0,682
463,145; 6789,494;   -0,304;   -1,682
463,732; 6883,526;    2,514;   -1,045
464,320; 6728,469;    1,514;   -3,045
464,907; 6477,402;    0,423;   -0,773
465,495; 6329,647;    2,696;   -1,227
466,082; 6404,579;    2,060;   -0,045
466,670; 6270,504;    2,605;    1,227
467,257; 6633,633;    0,060;    2,045
467,844; 6777,700;    1,514;    0,045
468,432; 6760,292;   -0,031;    3,500
469,019; 6343,187;    1,606;   -1,773
469,606; 6655,548;    0,969;    3,682
470,193; 6494,837;    2,151;    0,227
470,780; 6151,785;    0,333;    0,864
471,368; 6368,613;   -1,212;   -0,773
471,955; 6163,851;    1,060;   -0,682
472,542; 5820,164;   -0,303;   -1,136
473,129; 5960,297;   -0,485;    0,136
473,716; 5750,693;    0,060;    0,591
474,303; 5822,064;    1,333;   -0,864
474,890; 5983,822;    2,333;   -0,500
475,477; 5969,932;   -0,576;    0,409
476,064; 5836,680;    0,697;   -1,591
476,650; 5688,943;    2,152;    0,318
477,237; 5540,125;    1,879;    0,955
477,824; 5642,453;    3,879;    0,864
478,411; 5557,801;    0,606;   -0,318
478,997; 5646,526;    0,606;   -0,773
479,584; 5626,337;   -0,666;   -0,409
480,171; 6117,746;    1,243;   -0,773
480,757; 5873,245;   -0,848;    0,773
481,344; 5958,358;    0,334;    0,409
481,931; 5519,730;   -0,393;    1,045
482,517; 6159,508;    0,425;    0,318
483,104; 6433,397;    1,334;    2,864
483,690; 6554,045;    0,243;    0,045
484,276; 6666,797;    0,698;    0,227
484,863; 6505,656;    2,152;    1,136
485,449; 6835,230;    0,152;    0,318
486,035; 6764,277;   -0,666;   -0,136
486,622; 7092,469;   -2,393;    0,045
487,208; 6966,310;    1,334;    1,500
487,794; 6923,960;    0,971;    0,318
488,380; 7008,173;    0,698;   -1,409
488,967; 7065,596;   -1,120;   -0,409
489,553; 7128,384;   -1,029;   -1,409
490,139; 7267,451;    0,971;    0,773
490,725; 6968,925;    0,789;   -0,227
491,311; 6719,238;    1,516;    3,045
491,897; 6257,431;   -0,665;    1,500
492,483; 6369,221;    0,426;    1,227
493,069; 6549,687;    5,426;    0,864
493,655; 6466,247;    1,789;    0,682
494,241; 6477,196;    1,517;   -0,955
494,826; 6857,653;    0,335;   -1,045
495,412; 6490,593;    0,335;   -0,682
495,998; 6755,790;    0,971;   -0,318
496,584; 6935,135;    2,244;    1,045
497,169; 7013,146;    2,335;   -0,682
497,755; 7090,617;    1,244;    1,227
498,341; 7766,142;    2,153;    0,318
498,926; 7551,354;    2,881;    1,955
499,512; 7873,236;   -0,028;    2,955
500,097; 8017,650;   -0,574;   -0,318
500,683; 8190,695;   -0,028;    2,136
501,268; 8724,007;    1,881;   -0,955
501,854; 8671,476;   -0,119;    1,227
502,439; 8778,129;   -0,573;   -1,773
503,024; 9129,748;    1,608;    0,500
503,610; 9375,041;    1,335;   -0,682
504,195; 9591,933;    1,245;    1,955
504,780; 9905,659;    2,335;    1,227
505,366; 9957,454;    4,063;    2,864
505,951; 9907,376;   -1,119;    1,045
506,536;10138,021;    1,427;   -3,682
507,121;10286,097;    1,699;   -0,318
507,706;10983,381;   -0,392;    1,045
508,291;11479,471;   -2,937;    1,136
508,876;11160,078;   -0,482;    2,591
509,461;10830,270;    1,427;   -0,773
510,046;11382,922;   -0,391;    0,318
510,631;11744,493;   -0,119;   -0,773
511,216;11577,697;   -0,664;   -0,500
511,801;12106,728;   -0,755;    2,591
512,386;12508,038;    0,972;    0,500
512,971;12546,600;    0,427;    0,955
513,555;12229,041;    1,154;   -1,500
514,140;13201,372;    1,336;   -3,136
514,725;13267,646;    1,791;   -1,136
515,309;13497,895;    1,064;    0,318
515,894;13026,678;   -0,300;   -2,227
516,479;13569,171;    1,973;   -0,955
517,063;13448,500;    0,882;    1,227
517,648;13685,243;    0,155;   -1,136
518,232;13344,100;   -1,300;   -1,409
518,817;13805,349;    1,337;    1,682
519,401;14088,294;    0,700;    0,591
519,985;13584,263;    2,700;    1,136
520,570;13507,546;   -0,118;   -1,955
521,154;13887,659;    0,064;    0,591
521,738;14103,313;    1,064;    2,409
522,323;14750,272;   -0,390;    1,682
522,907;14522,451;    2,428;   -0,136
523,491;14233,008;    1,155;    0,955
524,075;14220,257;    0,428;    0,591
524,659;14312,950;    0,973;    0,591
525,243;13786,452;    0,883;    0,409
525,827;14068,229;    0,883;   -0,045
526,411;14977,314;    1,155;   -0,136
526,995;15200,139;    0,337;    1,409
527,579;14790,646;    1,974;   -1,045
528,163;15122,830;    0,428;   -1,500
528,747;15084,901;    1,065;   -0,773
529,331;15413,550;    0,883;   -1,409
529,915;15623,414;    2,338;    0,955
530,499;15556,019;    0,247;    1,227
531,082;15263,638;    1,065;    1,591
531,666;14694,962;    0,520;    0,773
532,250;15426,514;    0,428;    2,682
532,833;15771,093;    0,610;    2,773
533,417;15646,405;    1,247;    0,864
534,001;15630,237;    0,429;   -0,318
534,584;16323,804;    1,974;    0,500
535,168;16178,432;    3,247;    1,409
535,751;16219,270;    4,520;    0,045
536,334;15683,123;    4,520;   -0,409
536,918;16312,597;    1,974;    1,591
537,501;16398,651;    1,520;    1,318
538,085;16393,496;    1,702;    1,045
538,668;16589,200;    0,883;    2,409
539,251;16891,449;    3,156;    3,773
539,834;16939,342;    0,156;    0,773
540,418;16854,391;    3,247;    4,318
541,001;16973,510;    2,702;    1,773
541,584;16994,296;    1,429;    2,227
542,167;16656,620;    0,702;    2,955
542,750;16825,868;    0,793;   -0,773
543,333;16404,873;    1,429;    2,136
543,916;17211,365;   -0,298;    2,500
544,499;17859,826;    2,520;    0,227
545,082;17850,170;    0,248;    3,591
545,665;17996,716;   -0,207;    1,500
546,248;18348,236;    0,520;   -0,318
546,830;18023,549;   -1,752;    1,955
547,413;18438,061;    0,157;   -0,773
547,996;18986,079;    0,157;    0,500
548,579;18735,749;   -0,843;    0,955
549,161;18554,911;    0,884;    2,682
549,744;18356,309;    0,612;    0,409
550,326;18856,135;    0,885;   -1,136
550,909;18627,793;    2,339;    0,591
551,492;19063,021;    0,521;    0,227
552,074;18830,583;   -0,024;   -1,318
552,657;19444,283;    2,430;    0,045
553,239;19188,029;   -3,024;   -0,773
553,821;19094,498;   -1,570;    1,045
554,404;18528,702;   -0,024;    1,136
554,986;18920,839;    2,248;    1,045
555,568;19578,586;    0,430;   -0,955
556,151;18777,289;    4,067;   -0,227
556,733;18953,911;   -1,388;   -0,864
557,315;19438,307;    4,703;    0,500
557,897;19236,169;    0,521;   -0,500
558,479;19370,572;    1,703;    1,318
559,061;19501,597;    1,067;   -0,864
559,643;19834,420;   -0,297;    0,045
560,225;20187,202;   -0,388;    2,864
560,807;20260,329;    0,340;    0,318
561,389;19792,593;   -1,206;    2,318
561,971;20457,740;   -0,660;    2,136
562,553;20309,541;    0,613;    1,591
563,135;20458,470;    1,249;    1,136
563,717;20032,071;    3,158;    1,136
564,298;20764,505;    3,976;   -0,045
564,880;20469,366;    0,340;   -1,409
565,462;20649,639;    1,977;    1,318
566,043;21899,998;   -0,933;    2,318
566,625;21391,267;    4,067;    1,227
567,207;21229,609;    0,704;    1,682
567,788;22372,265;   -0,114;    1,500
568,370;23220,693;   -1,841;   -0,500
568,951;23027,896;   -0,569;    0,227
569,533;23922,202;    0,977;   -0,500
570,114;24456,973;   -0,296;    0,682
570,695;24931,760;   -0,478;   -1,318
571,277;25484,443;   -0,205;   -1,682
571,858;26268,527;    2,704;   -1,136
572,439;27142,718;    0,795;   -1,045
573,021;27350,499;    0,432;   -2,773
573,602;27938,358;    1,795;    0,318
574,183;28818,922;   -0,114;    2,227
574,764;29005,970;    2,068;    0,409
575,345;29607,467;    0,250;   -0,136
575,926;30214,734;    2,704;    0,136
576,507;30268,718;    2,704;   -0,227
577,088;31367,777;    1,704;    1,682
577,669;31323,273;    1,704;    1,955
578,250;32108,922;   -0,750;   -1,045
578,831;32814,112;   -0,841;   -2,227
579,412;33051,340;   -1,205;    0,955
579,993;34034,139;    1,432;    0,227
580,573;34341,629;   -0,023;   -0,955
581,154;33280,036;    1,613;   -0,591
581,735;34212,511;    0,341;    0,773
582,315;33654,056;    0,523;    2,136
582,896;34019,606;   -1,750;    1,227
583,477;33438,517;    0,614;    1,227
584,057;33635,652;    1,159;    0,955
584,638;33935,411;   -2,750;    2,318
585,218;33906,372;    2,886;    2,682
585,799;34054,191;    1,977;   -0,227
586,379;34098,050;    1,250;    1,591
586,959;32803,440;    2,613;    0,318
587,540;32151,279;    0,432;    2,227
588,120;31617,418;   -1,113;   -0,045
588,700;30557,089;    2,977;    2,136
589,281;30902,565;    1,250;   -0,955
589,861;30788,984;   -0,296;   -1,682
590,441;30610,664;   -1,477;   -2,682
591,021;29533,226;    1,432;   -2,591
591,601;29799,600;    0,431;    0,500
592,181;29746,707;   -1,296;   -0,773
592,761;29006,934;    2,250;    1,409
593,341;28902,132;    1,522;    0,045
593,921;28889,200;   -0,569;    1,591
594,501;28792,835;    1,250;    1,318
595,081;28653,497;    0,522;   -0,318
595,661;29010,962;    1,068;    0,955
596,240;29497,904;   -1,023;    0,136
596,820;29098,590;    2,613;    1,955
597,400;29279,346;    1,977;    0,773
597,980;29510,360;   -0,750;    1,045
598,559;29576,243;    0,341;   -0,227
599,139;29261,721;   -0,750;   -1,227
599,718;29118,903;    0,795;   -0,409
600,298;29410,275;   -2,387;    0,682
600,877;29661,189;    4,795;    1,409
601,457;29942,602;    0,340;    1,136
602,036;29799,142;    1,795;    2,045
602,616;30051,719;    2,250;    1,682
603,195;30371,962;    0,431;    3,500
603,774;29919,953;   -0,296;    2,045
604,354;29827,566;    2,522;   -0,500
604,933;29282,497;    0,250;    1,864
605,512;29436,273;    2,340;    0,591
606,091;29374,176;    1,886;    3,773
606,671;30228,756;    0,249;    0,773
607,250;29273,218;    1,431;    3,136
607,829;29532,584;    1,158;    3,227
608,408;29435,500;    4,613;    2,591
608,987;28438,199;    2,704;    3,409
609,566;28711,875;    0,341;   -2,500
610,145;28791,910;    2,885;    0,682
610,723;29255,230;    1,613;    6,864
611,302;28421,164;    1,067;    1,682
611,881;27920,559;    5,158;   11,227
612,460;28763,539;    0,795;    3,955
613,039;29232,402;    1,703;    2,045
613,617;27893,995;    0,886;    4,773
614,196;28083,570;    1,613;    1,227
614,775;28431,454;    1,249;    2,409
615,353;28346,198;   -1,660;    0,864
615,932;28056,087;    0,249;    2,409
616,510;28635,723;    0,158;    0,591
617,089;28159,158;    8,794;   17,591
617,667;27963,727;    4,885;    6,136
618,246;27776,167;   -1,115;    1,318
618,824;27957,969;    1,612;   -0,955
619,402;27480,791;    0,431;   -1,773
619,981;27951,287;    1,067;   -1,045
620,559;27823,948;    0,794;    1,682
621,137;27388,212;    3,067;    1,864
621,715;27358,804;    3,703;   -0,682
622,293;27240,358;    1,885;   -0,773
622,871;27727,489;    0,340;    0,500
623,450;27262,854;    0,430;   -0,864
624,028;27146,612;   -0,388;   -0,955
624,606;26740,965;    2,339;    1,682
625,183;27167,879;   -0,661;   -1,136
625,761;26769,784;    1,885;    1,136
626,339;27056,134;    2,339;    2,591
626,917;27499,703;    0,339;   -0,045
627,495;27551,474;    2,794;    1,318
628,073;27016,084;    5,248;    2,864
628,650;26644,963;    3,067;    2,136
629,228;27060,871;    1,248;    4,409
629,806;26423,607;   -0,024;    1,136
630,383;26694,328;    0,066;   -0,318
630,961;26485,639;   -2,206;   -0,955
631,539;26259,652;   -2,479;    0,227
632,116;25484,366;   12,703;   15,409
632,694;26088,972;    4,885;    6,500
633,271;26414,517;    1,975;    2,682
633,848;26341,480;    1,430;    2,045
634,426;26431,538;    1,521;    1,773
635,003;25536,913;   -0,207;   -0,409
635,580;25814,988;    1,884;    3,682
636,158;26401,792;    3,793;    1,227
636,735;26396,367;    3,339;   -0,500
637,312;26476,377;    0,521;   -0,682
637,889;26555,487;    2,248;   -0,682
638,466;26056,965;    0,066;   -0,409
639,043;26051,703;    1,702;   -1,136
639,620;26379,213;    0,611;   -0,955
640,197;26733,193;    1,612;    1,682
640,774;26794,248;    1,430;    1,136
641,351;27181,121;    0,612;    1,136
641,928;26627,630;    2,794;    1,409
642,505;26285,049;    0,794;   -0,500
643,082;26481,467;    1,885;    1,227
643,658;25428,522;    1,157;    1,500
644,235;26156,395;   -2,479;    2,500
644,812;26405,359;    1,794;    0,773
645,388;26206,596;    1,612;    1,409
645,965;26274,741;    1,521;    1,682
646,542;26282,978;    3,430;   -0,227
647,118;26312,851;    3,703;   -0,955
647,695;26654,179;    0,339;    1,136
648,271;26547,234;   -2,115;    0,500
648,848;26826,288;    0,248;    2,227
649,424;26697,434;    0,976;    1,318
650,000;26421,125;   -0,388;   -1,045
650,577;26236,089;    0,158;   -0,955
651,153;26656,144;   -1,115;    0,955
651,729;27684,744;    0,521;    0,864
652,305;27865,708;    1,339;    2,773
652,881;32377,309;   -1,297;    1,136
653,458;39362,818;    0,249;    0,227
654,034;43345,964;    0,703;    1,591
654,610;44887,837;    0,339;    0,773
655,186;46236,165;    1,612;    3,045
655,762;45969,219;   -1,842;    0,409
656,338;46056,365;    0,703;    0,136
656,913;47095,511;   -0,297;    0,409
657,489;46460,020;    0,249;   -0,318
658,065;46359,802;    0,794;   -1,591
658,641;46965,948;    2,158;   -0,864
659,217;46302,639;    2,067;    0,409
659,792;45740,967;   -1,751;   -0,409
660,368;46004,476;   -0,388;   -0,682
660,944;45742,895;    1,794;    1,227
661,519;41090,313;    0,522;    0,409
662,095;34728,277;   -0,206;    0,591
662,670;29831,332;   -0,206;   -0,136
663,246;28695,660;   -0,660;   -0,409
663,821;27932,351;    0,431;    1,682
664,396;27419,497;    0,613;    1,864
664,972;27708,643;   -0,660;   -0,500
665,547;28049,152;    3,794;    0,136
666,122;28034,661;    1,340;    0,318
666,698;28316,625;    2,431;    0,318
667,273;27639,135;    0,885;    0,136
667,848;28429,371;    0,340;    1,500
668,423;28183,699;    1,795;    2,318
668,998;28777,572;    0,976;   -0,682
669,573;29369,354;    2,067;   -1,500
670,148;29120,318;    1,885;   -0,682
670,723;28947,918;   -0,024;    0,318
671,298;29398,519;   -1,296;    1,045
671,873;29535,846;   -0,296;   -0,136
672,448;29542,810;    1,704;    0,136
673,023;29825,229;    0,249;   -0,227
673,597;30105,011;    2,704;    2,318
674,172;29893,429;    2,431;    0,318
674,747;29420,666;   -0,205;   -1,045
675,321;29281,903;   -0,933;    3,318
675,896;28792,321;    2,158;    1,045
676,471;29799,831;    2,522;    1,591
677,045;29558,249;   -0,296;    0,682
677,620;29603,668;    2,158;    1,136
678,194;29943,086;    0,249;    1,136
678,769;29473,595;    0,886;   -0,318
679,343;29702,741;   -0,023;    1,773
679,917;29558,796;    0,340;    1,955
680,492;29664,396;    0,249;    3,227
681,066;29814,633;    0,613;    0,409
681,640;29829,870;    1,795;   -0,318
682,214;30605,834;    2,340;    0,500
682,788;30119,616;    0,613;   -0,773
683,363;30098,852;    1,977;    1,682
683,937;29829,635;    0,886;   -0,318
684,511;30623,235;   -1,023;   -0,591
685,085;30289,926;   -1,478;    0,318
685,659;30013,708;    1,431;    0,864
686,232;30207,763;    1,159;   -0,318
686,806;29952,454;    2,159;    0,409
687,380;30622,782;   -1,932;    0,591
687,954;30867,564;    2,432;    1,136
688,528;30510,982;    2,613;    1,955
689,101;31331,765;    0,432;    1,045
689,675;30938,092;    0,886;   -0,136
690,249;30284,147;    3,432;    0,409
690,822;30582,838;    1,159;    0,318
691,396;30677,257;    2,068;    1,227
691,969;30093,675;    2,523;    0,136
692,543;30643,912;   -0,568;   -1,955
693,116;30253,149;   -0,659;   -1,409
693,690;30076,840;   -0,296;    0,500
694,263;30646,713;    2,341;    2,955
694,836;30693,222;    2,795;    3,591
695,410;29288,459;    1,159;    1,773
695,983;29742,150;    1,614;    0,591
696,556;29677,114;   -0,750;   -1,045
697,129;30086,896;   -1,114;    1,409
697,703;29669,133;    1,341;    1,955
698,276;29750,551;    1,705;   -0,773
698,849;29511,061;   -1,023;    1,409
699,422;29909,025;    1,250;    0,591
699,995;29577,261;   -0,659;    0,136
700,568;30098,225;   -0,204;    3,045
701,140;30051,098;   -1,841;    1,682
701,713;29822,244;    0,341;    2,409
702,286;29613,754;    0,796;    0,864
702,859;29472,081;    0,614;   -0,591
703,432;28598,772;   -0,841;    0,682
704,004;29138,554;    1,978;    0,318
704,577;29015,791;    1,068;    0,136
705,150;29534,755;    0,887;    2,500
705,722;29397,355;    1,523;   -3,227
706,295;29148,228;    1,432;   -0,591
706,867;28950,101;    0,250;    1,955
707,440;29184,247;   -0,113;   -0,409
708,012;29492,120;   -0,022;    0,591
708,584;29341,084;    2,705;    0,227
709,157;29623,321;    1,160;   -0,591
709,729;29309,103;    1,069;    2,045
710,301;30184,340;   -1,204;    0,045
710,874;30151,667;    0,341;   -0,227
711,446;28978,358;   -0,295;    0,864
712,018;28926,777;   -3,022;    0,500
712,590;28619,014;   -0,204;    1,682
713,162;29203,705;   -0,477;    1,318
713,734;29430,032;    1,796;   -2,045
714,306;29307,360;    0,342;   -0,409
714,878;27966,233;   -0,295;    0,864
715,450;28817,470;   -0,113;    0,864
716,022;29077,252;    2,433;    1,318
716,593;29224,034;    0,978;    0,591
717,165;29098,271;    1,796;   -1,227
717,737;28868,144;    0,796;    0,409
718,309;28574,653;    1,160;   -0,045
718,880;28502,526;   -1,295;   -1,409
719,452;28707,854;    0,887;   -1,591
720,024;28254,181;    1,705;   -0,591
720,595;28861,418;    2,978;    0,955
721,167;28359,927;    1,160;   -2,045
721,738;27842,073;    2,069;   -1,045
722,309;27760,764;    1,251;   -1,227
722,881;27582,274;    2,705;    0,773
723,452;28275,783;    1,251;    2,864
724,023;28480,020;    1,524;    2,682
724,595;28221,075;    2,342;    0,682
725,166;27945,675;    1,524;   -0,409
725,737;27544,821;    1,887;    0,227
726,308;27665,603;    0,797;    0,318
726,879;28089,930;    1,069;    1,227
727,450;27965,894;   -2,022;   -0,045
728,021;27912,131;    1,069;    0,682
728,592;27777,640;    1,160;    0,500
729,163;28088,514;    1,433;   -0,136
729,734;28012,750;    2,160;   -0,227
730,305;28399,078;    0,615;    0,136
730,876;28731,042;    0,888;    2,955
731,447;28420,551;    0,797;    2,682
732,017;28572,424;   -0,840;    1,864
732,588;28073,661;   -0,021;    1,227
733,159;28230,170;    3,615;   -1,045
733,729;28009,225;    1,251;    0,409
734,300;27329,371;    0,160;    0,864
734,870;27749,517;   -1,385;    0,591
735,441;28264,753;    0,888;   -0,591
736,011;28017,445;    1,070;   -1,591
736,582;27993,499;    1,251;    0,045
737,152;27482,009;    0,979;   -2,045
737,722;27928,609;    1,070;   -0,682
738,293;27565,118;   -2,021;    1,318
738,863;27512,082;    1,797;    2,318
739,433;27302,683;    4,524;    0,318
740,003;27905,647;    1,524;   -0,682
740,573;27303,883;    2,252;   -1,591
741,143;27390,302;    3,615;    0,318
741,713;28044,629;    0,252;   -0,500
742,283;27773,412;    1,706;    1,591
742,853;27502,103;    0,524;    1,591
743,423;26986,249;    0,161;    0,045
743,993;27100,667;    1,070;    1,500
744,563;26458,267;    2,524;   -0,864
745,133;26382,413;   -0,112;   -0,864
745,702;27146,104;    2,797;    1,773
746,272;26301,341;    0,434;    0,591
746,842;26003,487;   -0,748;   -0,591
747,411;26474,723;   -0,839;   -0,318
747,981;26645,596;   -0,930;    0,500
748,551;26753,924;   -0,021;   -1,045
749,120;26549,797;   -0,112;   -0,227
749,690;26953,579;    2,161;    2,409
750,259;27280,452;    0,979;    2,955
750,828;27190,871;    4,070;   -1,955
751,398;27413,107;   -0,112;   -0,045
751,967;26919,526;    2,888;    0,409
752,536;27163,399;    1,161;   -0,227
753,105;27571,908;   -1,384;    0,227
753,675;27356,963;   -0,112;    1,773
754,244;27336,745;    0,888;    3,591
754,813;27323,982;    0,979;    1,227
755,382;26935,582;    0,798;    0,955
755,951;27471,728;   -0,112;    3,682
756,520;27043,056;    2,525;    1,864
757,089;27591,656;    1,888;    0,500
757,658;27709,438;    2,434;    1,227
758,227;27699,857;   -1,111;    0,318
758,795;28034,457;   -1,021;    1,136
759,364;28294,694;    0,525;   -0,591
759,933;27258,839;    1,343;   -0,045
760,501;26784,531;    0,252;   -1,318
761,070;27258,313;   -0,293;   -1,409
761,639;27972,640;    1,434;    1,318
762,207;27256,331;    0,889;   -0,955
762,776;27186,750;    2,889;    0,864
763,344;27170,259;    0,071;    0,591
763,913;26270,496;    1,616;    1,409
764,481;27030,460;    1,980;   -0,136
765,049;26828,969;    0,616;    1,409
765,618;26702,024;    1,434;    0,318
766,186;26808,261;    2,434;    0,136
766,754;26991,043;    1,798;    1,864
767,322;25923,462;    1,162;    0,409
767,890;25933,880;    0,525;   -1,773
768,459;26330,571;    2,616;   -0,318
769,027;26512,990;    2,525;    3,409
769,595;25547,135;    2,616;    2,591
770,163;25991,645;    3,344;    2,955
770,730;25666,972;    2,525;   -0,136
771,298;25558,391;    1,162;   -1,409
771,866;25640,082;    0,253;    4,955
772,434;25965,046;    1,162;   -1,864
773,002;26149,465;    2,616;    0,682
773,569;25711,792;    1,071;    1,682
774,137;25541,847;    0,889;   -0,045
774,705;26346,356;   -0,747;   -0,136
775,272;25879,229;    0,253;    0,682
775,840;25670,466;   -0,111;    2,682
776,407;25104,066;   -0,293;    1,955
776,975;24694,667;    1,162;    0,318
777,542;25765,358;    2,162;   -0,045
778,110;25660,776;    0,707;   -0,045
778,677;25312,104;    1,071;   -0,864
779,244;25016,432;   -1,020;    1,045
779,812;25184,850;    0,980;    0,864
780,379;24951,541;    2,435;    1,136
780,946;25234,596;    2,617;   -0,773
781,513;25534,833;   -0,565;    0,318
782,080;24869,797;    1,253;    2,864
782,647;25608,761;    1,708;    3,045
783,214;25198,634;   -0,201;    3,864
783,781;24757,598;    1,708;   -0,682
784,348;24660,016;    0,253;    1,500
784,915;25134,344;   -1,474;    0,318
785,482;24917,126;    2,708;    2,591
786,049;25388,272;    1,071;   -0,591
786,615;25485,599;    1,708;   -0,955
787,182;25263,200;   -3,201;   -0,682
787,749;24916,345;   -2,201;    1,409
788,315;24250,309;    0,253;   -0,409
788,882;24552,001;    0,981;   -1,227
789,448;25222,146;    1,435;   -0,955
790,015;25202,474;    1,799;    3,227
790,581;24770,620;    0,708;    0,227
791,148;24664,856;    1,344;    1,045
791,714;24890,093;   -1,019;    3,136
792,280;24602,966;    3,708;    1,591
792,847;24163,385;   -0,928;    2,500
793,413;24700,348;   -0,110;   -0,318
793,979;24215,312;    1,526;   -1,318
794,545;24255,367;    2,981;    2,682
795,111;23701,149;    2,435;    1,318
795,678;23854,386;    3,526;   -1,682
796,244;23498,259;    2,799;    0,136
796,810;24070,405;    0,799;    0,773
797,375;23805,914;   -0,292;   -2,136
797,941;23799,333;   -1,110;    0,591
798,507;23914,660;    0,254;   -0,955
799,073;23488,533;    2,708;    0,591
799,639;23569,497;    1,435;    3,136
800,205;23592,370;   -1,565;    2,682
800,770;23113,607;    1,345;    1,773
801,336;23128,662;    2,981;   -0,955
801,901;22848,171;    6,072;    3,136
802,467;23450,044;    0,526;    2,045
803,033;22756,008;   -0,019;    0,864
803,598;22932,063;    1,072;   -1,045
804,163;23016,754;    0,708;   -0,318
804,729;22899,991;   -0,110;    1,136
805,294;23323,773;    1,072;    2,227
805,859;23099,555;    0,890;   -0,409
806,425;22609,156;    3,890;    2,682
806,990;22319,210;    1,890;    4,318
807,555;22836,993;   -0,110;    2,591
808,120;22693,047;   -1,292;   -0,409
808,685;22745,466;    1,072;   -2,500
809,250;22182,066;    2,072;   -0,500
809,815;22518,121;   -0,201;    0,682
810,380;23068,903;    0,981;    1,591
810,945;23558,140;    2,890;    2,045
811,510;22743,195;   -0,200;    1,591
812,075;22444,886;    2,800;   -1,409
812,640;22552,123;    3,709;    1,409
813,204;22554,177;    2,163;   -0,227
813,769;23053,505;    0,254;   -0,045
814,334;22442,378;    0,527;    0,864
814,898;22453,888;    1,981;    0,591
815,463;22385,124;    0,981;   -0,773
816,027;22328,997;    1,345;   -2,318
816,592;22417,507;    2,163;   -2,045
817,156;21900,925;   -2,200;    1,136
817,721;21719,344;    0,982;    2,318
818,285;21706,853;    0,618;    1,500
818,849;22355,181;   -0,018;    1,682
819,414;22278,872;    0,073;    2,955
819,978;21859,654;   -0,291;    1,773
820,542;22443,709;    2,891;    0,500
821,106;22189,309;    2,800;    0,682
821,670;22217,455;    2,709;    2,591
822,234;21908,328;    1,073;    1,409
822,798;21370,383;   -0,836;    0,500
823,362;21354,347;    1,527;    4,227
823,926;20573,765;   -0,018;    1,136
824,490;20812,184;    3,527;   -0,682
825,054;21304,602;    2,527;   -1,136
825,618;20940,293;   -1,200;   -1,500
826,181;20862,894;    0,982;   -1,318
826,745;20718,585;   -0,745;   -1,045
827,309;21066,822;    2,255;    1,318
827,872;20494,149;    0,527;    0,955
828,436;21464,568;    1,982;   -0,773
828,999;21565,532;    2,436;    1,227
829,563;20381,677;   -0,654;    1,136
830,126;20214,550;   -0,018;   -0,591
830,690;20218,878;    0,709;    2,864
831,253;19710,296;   -0,473;    2,227
831,816;19848,897;   -0,018;    0,500
832,380;19787,679;    1,164;    0,864
832,943;19940,734;    3,073;   -0,500
833,506;19433,243;    0,255;   -1,227
834,069;20267,389;    2,164;   -0,955
834,632;20311,171;   -2,200;    1,318
835,195;20221,771;    1,346;    0,955
835,758;19412,281;    0,709;    1,955
836,321;19210,699;    1,073;   -1,045
836,884;19341,481;   -1,291;   -0,955
837,447;19376,991;    0,528;    1,773
838,010;19605,682;    1,800;    3,227
838,573;19971,282;    0,528;    0,773
839,135;19928,792;   -0,109;   -0,955
839,698;19298,937;    2,528;    0,409
840,261;18829,901;    0,255;   -0,227
840,823;18714,774;   -0,927;    0,864
841,386;19023,102;   -0,018;   -2,409
841,948;18895,884;    0,255;    1,773
842,511;18608,303;    0,255;    1,682
843,073;18747,812;    2,982;    0,227
843,636;18579,140;    0,619;   -0,227
844,198;18496,558;    1,255;    0,591
844,760;18619,795;    0,619;    1,955
845,322;18285,031;    0,164;    1,136
845,885;18724,995;   -0,290;    0,591
846,447;19160,414;    0,710;    0,227
847,009;18674,651;    3,983;   -0,682
847,571;19003,615;    1,346;   -2,045
848,133;19067,397;   -0,199;   -1,864
848,695;18930,088;    2,346;    1,409
849,257;18495,870;    1,346;   -1,682
849,819;18677,470;    2,983;   -0,409
850,381;18686,980;    1,801;   -0,864
850,942;19054,762;    1,892;   -0,591
851,504;18960,999;    0,983;    0,227
852,066;18999,962;    1,619;   -1,591
852,628;18600,108;    0,165;    1,955
853,189;18090,072;    0,256;    2,682
853,751;18207,400;   -0,654;    1,409
854,312;18041,364;    1,256;   -1,682
854,874;18566,237;   -0,108;   -0,773
855,435;19028,837;    0,528;   -1,682
855,997;19216,165;    3,983;   -0,136
856,558;18453,947;    0,801;    1,773
857,119;18584,820;   -0,744;    2,864
857,681;18280,329;   -0,108;    0,318
858,242;18297,020;    1,347;   -2,136
858,803;18750,893;    1,074;   -0,773
859,364;19301,857;    0,892;   -4,773
859,925;18647,367;   -0,290;   -0,955
860,486;18558,603;    0,529;   -0,955
861,047;18283,749;    0,165;   -1,227
861,608;18090,622;    0,165;   -0,773
862,169;18269,495;   -0,562;   -0,045
862,730;18042,459;   -0,290;    1,409
863,291;18248,332;    0,438;   -0,500
863,852;18561,296;   -0,926;    1,955
864,412;18040,715;   -1,835;   -0,864
864,973;16601,406;    1,892;    0,500
865,534;16456,006;    2,074;    0,227
866,094;17997,697;    2,620;    0,227
866,655;17677,843;    4,711;    3,318
867,215;17914,807;    0,074;    0,136
867,776;17749,771;   -1,199;   -0,136
868,336;17883,281;    1,529;    0,136
868,897;17306,881;    3,438;    1,682
869,457;17132,754;    3,256;    0,318
870,017;17367,627;    2,438;   -1,227
870,578;17851,409;    1,893;    0,773
871,138;17506,009;    2,620;   -0,955
871,698;17033,337;   -0,562;   -1,318
872,258;16849,028;    0,711;   -2,864
872,818;17256,356;    2,347;    0,045
873,378;17246,229;   -2,198;    1,045
873,938;16751,375;    4,984;    0,500
874,498;17030,157;    1,256;   -1,955
875,058;16938,121;    4,347;    1,773
875,618;16847,812;    1,438;   -2,682
876,177;16822,685;   -0,471;    0,136
876,737;16335,376;   -0,289;    1,955
877,297;16340,704;    2,711;    1,955
877,856;16374,849;    2,529;    0,318
878,416;16280,450;    2,438;   -0,136
878,976;16544,050;    3,438;    0,409
879,535;16728,559;    4,529;    3,136
880,095;16503,887;    1,347;    0,045
880,654;16594,396;    0,347;    1,318
881,213;16651,997;    2,347;    1,500
881,773;16325,415;    1,984;    2,682
882,332;16720,470;    6,075;    5,136
882,891;16549,707;    0,711;    2,136
883,451;17005,762;   -2,016;    1,682
884,010;16482,816;   -1,107;   -0,409
884,569;16573,508;   -2,289;   -0,045
885,128;16671,290;   -0,743;   -1,864
885,687;16718,163;   -0,743;    0,682
886,246;16453,763;    2,620;    2,136
886,805;16151,636;    1,620;    2,045
887,364;16508,509;    1,166;   -0,500
887,922;16879,655;   -0,016;    0,045
888,481;16337,983;    1,530;    0,591
889,040;16677,947;    3,711;    2,136
889,599;17310,183;    2,166;    1,409
890,157;17415,329;    2,166;    2,409
890,716;17111,384;    2,166;    0,227
891,274;16912,348;    0,075;   -1,136
891,833;17290,766;    1,166;    0,864
892,391;17176,548;    1,802;    0,500
892,950;17262,240;    0,166;   -0,773
893,508;17560,476;    0,984;   -0,409
894,067;16945,167;   -0,379;    0,136
894,625;16891,677;   -1,016;   -1,500
895,183;17087,277;   -0,198;   -0,682
895,741;17012,605;    2,257;   -1,773
896,299;16843,296;    1,621;   -2,409
896,858;17037,169;    1,530;   -1,591
897,416;17119,678;    0,166;   -1,318
897,974;16849,733;   -2,197;    0,318
898,532;17011,515;    6,530;    2,682
899,089;16910,025;    0,621;   -0,682
899,647;16980,171;    0,530;    1,318
900,205;16716,498;    0,257;    1,045
900,763;16894,189;    2,166;    0,227
901,321;16897,062;    3,530;   -1,409
901,878;16340,845;    3,257;   -0,773
902,436;16205,990;    0,257;    1,318
902,994;16582,682;    6,712;    3,682
903,551;16044,191;    1,439;    0,409
904,109;16443,973;    1,530;   -1,409
904,666;16053,301;    1,439;    1,045
905,224;15863,901;    3,894;   -0,409
905,781;15580,410;   -0,470;   -0,318
906,338;15667,920;    0,167;    1,045
906,895;15603,793;    1,894;    2,045
907,453;15492,393;    2,348;    1,136
908,010;15493,721;    3,348;    0,409
908,567;15167,776;   -0,561;    0,591
909,124;14690,649;    2,439;   -1,500
909,681;14761,794;   -1,288;    0,682
910,238;14957,940;   -0,106;   -1,318
910,795;15245,449;   -1,561;   -1,136
911,352;14900,086;   -0,379;   -2,682
911,909;14294,813;    2,803;   -0,864
912,466;14785,540;    1,985;    1,500
913,022;14300,813;   -0,924;    0,500
913,579;14639,631;   -0,470;    2,045
914,136;14358,359;   -2,561;    0,955
914,692;14736,177;    1,530;   -1,227
915,249;14321,268;    0,530;    0,409
915,806;14520,177;    1,803;    1,955
916,362;14248,540;    0,894;    1,864
916,918;13798,722;    2,439;    1,045
917,475;13804,904;    1,621;    0,955
918,031;13909,540;    0,076;   -0,045
918,587;13381,631;    0,621;   -0,318
919,144;13599,359;   -0,379;    0,227
919,700;13905,540;    0,167;    0,773
920,256;13456,268;    0,439;    0,045
920,812;13091,995;    1,439;   -1,045
921,368;13106,631;    1,348;   -1,045
921,924;12774,722;    0,439;   -0,136
922,480;12311,359;    0,076;    1,227
923,036;12946,722;   -0,652;    1,955
923,592;12899,268;    0,621;    0,318
924,148;12827,177;    1,894;   -0,955
924,704;12123,359;    0,258;   -0,409
925,259;12396,813;   -0,561;    0,591
925,815;12144,904;    3,803;    0,500
926,371;11705,904;    3,530;    1,409
926,926;11557,449;    1,621;    0,591
927,482;11193,722;    1,621;    0,773
928,037;11070,177;   -0,833;    2,045
928,593;11377,722;    0,258;    1,045
929,148;11188,631;    1,167;   -1,500
929,704;10726,449;    2,439;   -0,500
930,259;10925,086;    0,894;   -0,136
930,814; 9987,177;    1,803;    1,955
931,369; 9700,631;    0,258;   -0,773
931,925; 9587,086;   -1,924;    0,136
932,480; 9483,086;    3,076;   -2,591
933,035; 9354,631;    3,985;   -0,318
933,590; 9104,722;   -1,742;   -1,773
934,145; 8757,268;   -1,288;   -0,318
934,700; 9132,359;    0,348;   -0,591
935,255; 8908,631;    4,803;    0,045
935,809; 8185,268;    6,258;    0,864
936,364; 7350,086;    2,167;   -0,136
936,919; 7314,359;    2,348;   -1,773
937,474; 7221,722;    1,348;    0,136
938,028; 6993,268;    3,076;    1,136
938,583; 6454,540;    6,348;    4,682
939,138; 6767,268;    0,167;    2,136
939,692; 6243,359;   -1,015;   -1,136
940,247; 5927,631;    1,167;   -1,045
940,801; 5470,995;    0,621;    0,227
941,355; 5391,995;    0,439;    2,591
941,910; 5056,449;    0,712;   -2,136
942,464; 5151,813;    2,712;   -0,318
943,018; 4929,904;    3,258;   -0,227
943,572; 4882,086;    2,803;   -0,682
944,126; 4287,904;   -0,924;   -0,409
944,681; 4179,995;    0,712;    0,227
945,235; 4196,268;    2,167;   -0,591
945,789; 4127,449;    1,258;   -1,864
946,342; 4200,995;   -0,561;   -0,591
946,896; 4015,268;    0,348;    0,955
947,450; 3777,904;   -0,561;   -0,227
948,004; 3968,086;    1,076;   -0,045
948,558; 3975,540;    1,258;   -0,864
949,111; 3889,449;   -1,197;   -0,318
949,665; 3923,449;   -0,106;   -0,682
950,219; 3784,268;    0,621;   -1,045
950,772; 3878,631;    0,258;    1,864
951,326; 3809,631;   -1,106;   -0,955
951,879; 3891,722;    1,076;   -2,318
952,433; 3924,813;    1,348;    2,227
952,986; 3762,722;    0,348;    0,682
953,539; 3685,086;    1,530;    0,591
954,093; 3617,813;    0,985;   -1,318
954,646; 3758,359;   -0,288;    1,318
955,199; 3587,904;    1,258;   -0,500
955,752; 3449,813;    1,985;    1,773
956,305; 3430,086;    0,894;    2,955
956,858; 3592,904;    0,621;   -0,318
957,411; 3782,995;    3,621;    2,136
957,964; 3581,177;    2,076;    2,136
958,517; 3578,995;    0,985;    3,136
959,070; 3419,904;   -1,197;    1,955
959,623; 3497,540;    1,076;    1,500
960,176; 3267,086;    0,712;    2,045
960,728; 3260,177;    1,712;    0,773
961,281; 3324,359;    2,258;    0,500
961,834; 3339,904;   -0,833;    0,864
962,386; 3255,813;    1,258;    1,045
962,939; 3180,268;    3,439;   -0,318
963,491; 3325,722;    2,621;    1,136
964,043; 3194,540;    0,076;    2,409
964,596; 3310,813;    1,712;    2,227
965,148; 3140,631;   -0,379;    1,773
965,700; 3090,086;   -0,015;   -0,227
966,253; 3243,177;   -0,833;    0,318
966,805; 3063,540;    1,894;    0,773
967,357; 3113,631;    0,439;   -1,500
967,909; 3051,904;    1,167;   -1,227
968,461; 3176,904;    0,894;    3,136
969,013; 3086,268;   -1,561;   -0,864
969,565; 3163,813;    1,803;   -1,136
970,117; 3257,540;    3,803;    1,045
970,669; 3089,177;    3,258;   -0,136
971,220; 2949,722;    2,167;   -1,500
971,772; 2887,631;    1,348;   -0,318
972,324; 3011,449;   -1,197;   -0,500
972,876; 2953,995;    0,167;   -0,045
973,427; 3061,722;   -1,197;   -1,045
973,979; 3049,995;    0,076;   -2,500
974,530; 3069,722;    0,803;    1,318
975,082; 3090,540;    2,167;    1,682
975,633; 2980,359;    2,894;    1,682
976,184; 3143,359;    2,076;    0,773
976,736; 2913,540;    0,348;    0,227
977,287; 2714,177;    0,258;   -0,500
977,838; 2910,449;   -0,924;   -0,318
978,389; 2951,177;    0,803;   -0,500
978,940; 2817,359;    1,258;   -0,409
979,491; 2847,904;    2,258;   -0,500
980,042; 2816,813;   -0,652;    3,045
980,593; 2871,540;    1,894;    0,227
981,144; 2931,722;    3,530;   -0,500
981,695; 2886,722;   -0,470;    1,500
982,246; 2852,813;   -1,833;    1,045
982,797; 3008,177;   -0,561;    0,682
983,347; 3121,359;    2,167;    0,591
983,898; 3283,904;    4,167;    0,409
984,449; 3114,904;    2,530;    0,773
984,999; 3026,359;    1,894;   -1,136
985,550; 2795,904;    3,167;   -0,318
986,100; 2838,631;    0,712;   -0,318
986,651; 2868,449;    0,258;    0,045
987,201; 2836,631;    0,894;   -0,591
987,751; 2909,813;   -0,288;    2,864
988,302; 2897,449;   -0,379;    1,500
988,852; 2925,813;    1,985;   -1,136
989,402; 2960,268;    0,985;    0,682
989,952; 2871,995;    1,621;    0,864
990,502; 2989,449;    1,076;    0,682
991,052; 2943,813;   -0,106;    0,045
991,602; 2817,449;    1,167;    1,318
992,152; 2813,904;    2,803;    0,682
992,702; 2783,995;    1,167;   -0,045
993,252; 2712,631;    0,076;   -0,500
993,802; 2800,449;    1,167;    1,318
994,352; 3043,177;   -0,742;    1,136
994,901; 3152,722;    1,076;    3,227
995,451; 3043,995;   -1,197;    0,318
996,000; 3124,722;    1,076;    0,318
996,550; 2831,086;    2,894;    0,227
997,100; 2857,268;   -0,561;   -0,045
997,649; 3143,268;   -0,197;    0,955
998,198; 2774,995;   -0,288;   -1,500
998,748; 2966,631;    0,348;   -2,318
999,297; 2862,722;    0,985;   -0,409
999,846; 2951,813;    1,894;   -0,773
1000,395; 2995,086;    1,530;    0,500
1000,945; 2937,086;    1,076;   -0,773
1001,494; 2993,540;    0,167;    0,682
1002,043; 2997,086;    0,712;    0,864
1002,592; 2835,177;    3,439;    1,955
1003,141; 2994,813;    2,439;   -0,682
1003,690; 2837,631;    1,258;    0,500
1004,238; 2901,359;   -0,106;   -0,045
1004,787; 2546,086;   -1,288;    1,227
1005,336; 2771,995;    1,621;    0,682
1005,885; 2932,540;   -0,197;   -2,773
1006,433; 3079,449;   -0,470;    0,955
1006,982; 3143,086;    2,167;    1,682
1007,531; 3057,813;    2,712;   -0,227
1008,079; 3004,722;    0,258;    0,500
1008,627; 3143,177;    1,621;    0,409
1009,176; 2888,813;    0,076;   -1,955
1009,724; 2936,086;   -2,742;    0,864
1010,273; 2968,722;    1,076;    0,500
1010,821; 3087,631;    1,076;    1,409
1011,369; 2833,722;    0,076;    1,318
1011,917; 2810,631;   -0,833;   -0,591
1012,465; 3091,449;    2,530;   -1,591
1013,013; 3196,177;    0,439;   -1,682
1013,561; 3076,540;   -1,288;   -0,773
1014,109; 3125,631;   -0,833;    1,682
1014,657; 2995,359;    1,348;    0,591
1015,205; 3105,086;    0,894;   -0,955
1015,753; 3158,995;    0,258;   -1,409
1016,301; 3196,722;    2,621;    3,045
1016,848; 3197,904;    2,167;    0,409
1017,396; 3226,449;    1,621;    0,045
1017,944; 3349,177;    2,621;    1,864
1018,491; 3110,995;   -0,197;    1,409
1019,039; 3260,904;   -0,652;    0,591
1019,586; 3195,722;    0,076;    1,682
1020,134; 3292,995;    0,712;    1,500
1020,681; 3291,631;    2,894;   -1,136
1021,228; 3314,631;   -0,561;   -2,227
1021,776; 3149,995;   -0,833;   -1,136
1022,323; 3367,722;    0,803;    0,773
1022,870; 3296,722;   -0,470;   -0,045
1023,417; 3203,813;    2,076;    1,864
1023,964; 3345,449;    0,621;    1,227
1024,511; 3167,086;   -0,652;    0,773
1025,058; 2956,359;    0,439;   -0,045
1025,605; 3019,631;   -1,742;    3,136
1026,152; 3240,813;   -0,106;   -0,591
1026,699; 2970,995;    0,167;    1,318
1027,245; 3140,359;    2,439;    0,318
1027,792; 3365,722;    0,712;    1,409
1028,339; 3232,086;    4,076;   -0,045
1028,885; 3074,449;    3,621;   -0,227
1029,432; 2997,449;   -0,106;    0,227
1029,978; 3074,995;    1,348;   -1,591
1030,525; 2960,813;    1,621;    0,409
1031,071; 3222,449;    0,348;    1,136
1031,618; 3339,995;    1,258;    1,682
1032,164; 3124,904;    2,076;    3,045
1032,710; 3173,722;    0,076;   -1,500
1033,256; 3099,813;    0,712;   -0,136
1033,803; 3081,359;   -0,288;    1,500
1034,349; 2822,449;    1,803;    0,136
1034,895; 2960,995;    2,621;   -0,318
1035,441; 2932,540;    0,439;    0,318
1035,987; 2944,813;   -2,288;   -0,682
1036,533; 2943,813;   -0,197;   -0,955
1037,078; 3148,722;    4,712;    1,682
1037,624; 2977,904;    2,439;   -0,955
1038,170; 2977,177;    1,712;   -0,318
1038,716; 2888,359;    2,167;   -0,409
1039,261; 2811,177;    2,167;   -0,773
1039,807; 2736,449;   -0,015;    3,409
1040,352; 2802,086;   -1,288;   -0,318
1040,898; 2843,086;    0,167;   -0,682
1041,443; 2766,540;    0,803;   -2,591
1041,989; 2801,631;    3,621;    1,591
1042,534; 2675,449;    0,985;    2,591
1043,079; 2801,268;    1,985;    0,955
1043,625; 2561,449;    0,258;    0,500
1044,170; 2610,995;    2,439;    1,045
1044,715; 2875,268;    0,167;    0,955
1045,260; 2679,540;   -0,833;   -0,955
1045,805; 2738,086;    0,258;   -0,591
1046,350; 2692,177;    0,530;   -0,409
1046,895; 2657,449;    0,803;    1,591
1047,440; 2593,904;    1,530;    0,409
1047,985; 2505,904;   -1,197;   -0,955
1048,530; 2402,995;    1,348;    1,227
1049,074; 2463,995;    2,803;    0,318
1049,619; 2440,995;   -0,924;    1,955
1050,164; 2260,359;    1,076;    0,227
1050,708; 2307,177;    2,621;    0,045
1051,253; 2659,631;    3,258;   -2,227
1051,797; 2389,449;   -0,197;   -1,318
1052,342; 2408,995;    1,348;    1,045
1052,886; 2399,086;    1,803;   -1,409
1053,430; 2283,268;    2,167;    0,136
1053,975; 2296,540;    0,894;   -0,318
1054,519; 2253,086;    1,803;    3,227
1055,063; 2274,722;    3,621;    1,318
1055,607; 2163,631;    1,348;    0,227
1056,151; 2172,359;    0,530;    1,682
1056,695; 2110,813;   -1,833;   -1,136
1057,239; 2175,995;   -1,197;   -0,682
1057,783; 2176,540;    2,258;   -1,500
1058,327; 2127,904;    3,076;    1,409
1058,871; 2361,904;    3,985;    1,318
1059,415; 2062,449;   -0,561;   -0,045
1059,958; 2322,722;    2,985;    2,591
1060,502; 2048,722;    1,348;   -0,773
1061,046; 1957,904;    1,712;   -0,955
1061,589; 1925,540;    2,803;   -1,136
1062,133; 1817,631;    0,985;    1,864
1062,676; 1762,540;    1,439;    0,864
1063,220; 1755,359;    0,985;    0,500
1063,763; 1775,722;    2,985;    1,136
1064,306; 1859,631;    0,985;    1,864
1064,849; 1756,995;    2,076;    0,591
1065,393; 1752,177;    2,894;   -1,500
1065,936; 1864,904;    2,530;   -0,409
1066,479; 1754,995;    2,621;    1,318
1067,022; 1783,904;    1,894;   -0,227
1067,565; 1677,722;   -1,197;   -1,318
1068,108; 1705,268;    1,258;   -0,591
1068,651; 1682,268;   -2,470;    1,409
1069,194; 1606,631;   -1,106;   -1,682
1069,736; 1598,722;    3,803;    0,955
1070,279; 1594,540;   -1,652;   -0,500
1070,822; 1641,540;    1,530;   -0,318
1071,364; 1713,904;    0,530;    1,318
1071,907; 1543,995;    0,348;    3,227
1072,450; 1453,449;    0,258;   -0,045
1072,992; 1439,813;   -0,561;    3,136
1073,535; 1579,086;    0,167;    2,136
1074,077; 1378,177;    2,985;    2,045
1074,619; 1345,631;    0,985;    0,591
1075,161; 1369,540;   -0,561;    1,500
1075,704; 1556,722;    0,258;    1,227
1076,246; 1359,268;    1,530;    0,682
1076,788; 1285,631;   -1,015;    1,773
1077,330; 1375,540;   -2,106;    2,136
1077,872; 1332,268;   -1,924;    0,955
1078,414; 1552,813;    3,712;    0,773
1078,956; 1278,177;    0,167;   -0,227
1079,498; 1525,086;    0,439;    0,318
1080,040; 1230,540;    0,985;   -1,318
1080,581; 1190,086;    0,621;   -0,318
1081,123; 1128,449;   -0,106;   -0,773
1081,665; 1171,268;    3,803;   -0,955
1082,206; 1447,177;    3,258;   -0,500
1082,748; 1321,813;    3,258;    2,045
1083,289; 1214,631;    0,167;    1,318
1083,831; 1119,086;    0,258;    0,227
1084,372; 1141,813;    0,894;    0,591
1084,913; 1148,722;    3,348;    0,864
1085,455; 1125,177;    1,530;   -2,045
1085,996; 1086,268;    0,530;    0,136
1086,537; 1107,722;    0,985;    0,864
1087,078; 1138,449;    0,439;   -2,136
1087,619; 1173,904;   -1,652;    0,227
1088,160; 1089,631;    1,439;    1,318
1088,701; 1075,904;   -0,742;    0,682
1089,242; 1032,995;   -0,561;   -2,227
1089,783; 1123,631;   -0,561;    1,409
1090,324; 1091,904;   -0,833;    0,682
1090,865;  961,995;   -1,924;   -0,409
1091,405;  954,631;   -0,561;    2,227
1091,946;  974,540;   -0,197;   -0,955
1092,487;  908,904;   -1,288;   -1,409
1093,027; 1059,722;    1,803;   -1,500
1093,568;  916,449;    2,258;    1,227
1094,108;  991,086;    0,621;    1,773
1094,649;  949,359;   -0,470;    0,136
1095,189;  890,268;    1,167;   -0,682
1095,729;  832,086;    0,712;    0,955
1096,269;  842,449;    1,258;   -0,955
1096,810; 1139,449;   -0,197;    0,500
1097,350;  978,268;   -0,561;   -0,773
1097,890;  886,268;    2,985;    1,227
1098,430; 1116,722;    4,985;    2,864
1098,970;  999,631;    1,894;    1,682
1099,510;  880,359;   -0,833;   -2,318
1100,050;  804,540;    0,258;   -1,591
1100,589;  772,904;    0,076;   -0,318
1101,129;  889,177;    0,894;   -0,955
1101,669; 1014,449;    2,803;    2,136
1102,209;  850,359;    1,530;    2,227
1102,748;  815,995;    3,439;    0,955
1103,288;  798,177;    0,712;   -1,227
1103,827;  822,813;    3,530;   -2,227
1104,367;  719,722;    1,712;   -2,409
1104,906;  682,177;   -1,015;   -1,136
1105,445;  751,995;    0,985;   -1,136
1105,985;  683,995;   -0,652;    1,500
1106,524;  722,995;    1,530;   -0,682
1107,063;  704,449;    1,167;    1,409
1107,602;  692,995;    1,894;   -1,500
1108,141;  613,086;    1,621;    1,500
1108,680;  703,359;    3,985;   -0,591
1109,219;  643,540;    0,167;   -0,500
1109,758;  663,177;    4,167;    0,682
1110,297;  633,904;   -1,106;   -0,682
1110,836;  574,722;    1,439;    0,955
1111,375;  722,449;    0,348;    0,409
1111,913;  738,631;    0,985;    0,773
1112,452;  679,177;    0,894;    0,136
1112,991;  575,177;    1,076;    1,955
1113,529;  525,904;    0,167;   -0,045
1114,068;  597,177;    0,439;    2,955
1114,606;  496,086;   -0,561;   -0,955
1115,144;  649,449;    1,530;    1,045
1115,683;  584,359;    1,985;    0,318
1116,221;  642,904;    2,076;   -0,864
1116,759;  558,722;    1,621;   -0,864
1117,297;  737,722;    1,621;    1,864
1117,836;  552,631;    1,985;   -1,227
1118,374;  555,177;    0,258;   -0,682
1118,912;  515,177;    0,439;    2,682
1119,450;  497,540;    0,985;    0,864
1119,988;  542,086;    3,348;    2,136
1120,525;  976,086;    7,258;    3,318
1121,063;  687,449;    0,530;    1,864
1121,601;  509,177;    1,076;   -1,227
1122,139;  455,722;    1,076;   -2,045
1122,676;  643,086;   -1,652;    2,773
1123,214;  585,995;    0,712;    4,409
1123,751;  406,086;    0,621;    2,227
1124,289;  532,904;    0,894;   -0,409
1124,826;  406,177;   -0,379;    0,227
1125,364;  339,449;    0,712;   -0,955
1125,901;  519,359;    6,258;    1,227
1126,438;  609,177;    3,530;    0,955
1126,975;  357,086;    2,985;   -0,773
1127,513;  419,995;    2,621;    2,136
1128,050;  339,904;   -0,561;   -0,682
1128,587;  430,631;    1,348;   -0,227
1129,124;  462,904;   -0,015;    1,318
1129,661;  354,540;   -1,924;    0,227
1130,198;  503,449;    2,439;    0,773
1130,734;  442,268;   -0,379;    1,409
1131,271;  315,177;   -1,197;    0,864
1131,808;  476,086;    1,621;    3,045
1132,345;  358,540;    4,530;    0,318
1132,881;  245,359;   -0,561;   -1,864
1133,418;  372,904;    0,348;   -1,136
1133,954;  316,995;    0,712;   -2,682
1134,491;  372,268;    1,712;   -0,773
1135,027;  291,177;    2,167;    0,864
1135,564;  371,995;    1,439;    2,955
1136,100;  345,086;   -0,742;    2,136
1136,636;  251,177;   -1,015;   -1,045
1137,172;  334,540;    0,894;   -1,045
1137,708;  262,268;   -1,561;   -1,045
1138,245;  270,631;    0,803;   -1,227
1138,781;  232,722;    1,803;   -3,318
1139,317;  272,359;    1,894;   -1,409
1139,852;  267,449;    3,076;    0,136
1140,388;  375,540;    2,076;   -0,409
1140,924;  268,540;    1,076;   -2,227
1141,460;  215,631;   -0,288;    0,136
1141,996;  157,449;   -0,652;    2,682
1142,531;  201,813;    1,076;    3,318
1143,067;  398,631;    1,167;    1,045
1143,602;  452,177;    3,439;   -0,318
1144,138;  301,722;    0,803;    1,045
1144,673;  184,449;    1,621;    1,409
1145,209;  240,995;    2,894;   -0,318
1145,744;  162,904;    0,803;    0,864
1146,279;  290,086;    1,530;   -0,136
1146,815;  214,177;    1,530;   -2,682
1147,350;  258,177;   -0,924;    0,045
1147,885;  174,540;   -1,924;   -1,318
1148,420;  177,086;    2,439;    0,773
1148,955;  159,086;   -1,470;    1,864
1149,490;  184,449;   -1,106;   -1,591
1150,025;  160,995;   -1,106;   -1,773
1150,560;  264,722;   -0,288;   -0,955
1151,094;  226,268;    0,258;   -0,591
1151,629;  225,268;   -3,742;    0,864
1152,164;  170,995;   -1,288;    1,318
1152,698;  140,359;    1,258;   -0,136
1153,233;   97,722;   -1,379;   -0,682
1153,767;  141,813;   -0,288;   -2,318
1154,302;  190,904;   -0,379;    1,773
1154,836;  182,086;    0,803;   -2,136
1155,371;  234,359;    2,258;    3,682
1155,905;  189,540;    1,985;    1,682
1156,439;  156,086;    0,530;   -0,500
1156,973;  185,904;    0,439;    0,318
1157,507;  123,813;   -1,742;    0,682
1158,042;  153,722;   -0,652;    1,045
1158,576;  190,631;   -0,561;    1,773
1159,110;  185,268;    0,076;    2,409
1159,643;  162,904;   -2,470;   -0,045
1160,177;  109,995;   -2,015;    1,500

