
Integration time [ms]:   0,040
Averaging Nr. [scans]: 11
Smoothing Nr. [pixels]: 0
Data measured with spectrometer [name]: 7318044SP
Wave   ;Sample   ;Dark     ;Reference
[nm]   ;[counts] ;[counts] ;[counts] 

186,757;   25,817;   38,161;    1,318
187,357;   60,589;   26,706;    0,955
187,958;   39,755;   17,252;   -1,591
188,558;   74,587;   12,979;   -1,227
189,159;   50,163;   10,070;   -4,500
189,759;   23,706;    5,797;   -3,591
190,360;   20,312;    6,797;   -2,136
190,960;   53,529;    5,706;   -4,136
191,560;   62,155;    2,614;   -6,591
192,161;  275,187;    5,885;   -3,500
192,761;  136,398;    5,520;   -3,227
193,361;   94,275;    3,065;   -3,773
193,962;  143,171;    1,612;   -2,682
194,562;   70,822;   -0,114;   -3,955
195,162;  100,702;   -0,567;   -2,227
195,762;  253,578;    2,433;   -0,045
196,362;  208,053;    1,706;   -2,500
196,963;   84,356;    1,706;   -0,864
197,563;  143,929;    1,252;   -0,955
198,163;   96,491;   -0,111;   -0,682
198,763;  116,689;   -0,020;   -0,500
199,363;  221,057;    3,616;   -0,500
199,963;  179,295;    2,162;    0,409
200,563;  152,409;    6,344;   -1,409
201,163;  128,733;    5,435;   -0,227
201,763;  207,838;    1,435;    0,318
202,363;  152,807;    0,980;    1,500
202,963;  258,246;    1,526;    1,045
203,563;  364,591;    0,344;    0,500
204,162;  217,598;    1,889;   -1,864
204,762;  199,604;    2,071;    0,591
205,362;  160,392;    0,708;    1,955
205,962;  273,118;    3,435;    1,955
206,562;  262,150;    1,889;    2,318
207,161;  233,168;    1,708;    0,318
207,761;  379,082;    4,435;    2,409
208,361;  259,737;    1,889;    1,409
208,960;  342,392;    2,889;    1,500
209,560;  408,541;    0,435;    1,591
210,160;  394,744;    5,071;    1,864
210,759;  362,523;    0,708;    1,227
211,359;  362,954;   -0,474;    1,045
211,958;  611,681;    3,526;    2,045
212,558;  682,625;    0,799;    1,864
213,157;  536,898;   -0,929;    1,500
213,757;  948,646;    5,617;   -0,227
214,356;  657,096;    1,708;   -0,409
214,956;  978,136;    3,526;    0,409
215,555;  607,450;    0,617;    2,136
216,154;  551,746;   -0,292;   -0,591
216,754;  557,788;    1,253;    0,773
217,353;  677,660;   -0,383;   -1,045
217,952;  543,804;    2,072;    0,318
218,552;  769,692;    0,254;   -0,773
219,151;  658,555;   -1,110;    0,955
219,750;  652,475;    0,890;   -0,227
220,349;  737,201;   -2,292;    1,045
220,948;  840,725;    1,163;    1,136
221,548;  819,727;    0,617;    1,227
222,147;  926,765;   -1,292;   -0,409
222,746; 1207,970;    1,254;   -0,955
223,345; 1064,047;   -1,019;    0,500
223,944; 1071,604;    1,163;    0,773
224,543; 1218,877;    4,072;   -1,409
225,142; 1337,785;    1,345;    0,136
225,741; 1231,979;    1,163;    1,045
226,340; 1252,261;    1,254;   -0,955
226,939; 1655,716;    2,708;   -0,136
227,538; 1564,611;    1,163;   -0,773
228,137; 1731,133;    0,435;    0,864
228,735; 1817,609;    0,435;    1,227
229,334; 1597,469;   -0,474;   -0,227
229,933; 1969,928;    0,799;    0,591
230,532; 2076,725;   -1,201;   -0,409
231,131; 2134,462;    1,253;    0,318
231,729; 2221,669;    1,163;   -2,318
232,328; 2289,891;    0,435;   -1,500
232,927; 2334,474;    4,526;   -0,500
233,525; 2435,616;    0,981;    0,045
234,124; 2626,066;    1,890;   -1,591
234,723; 2628,625;    1,617;   -1,045
235,321; 2747,539;    1,163;    0,136
235,920; 2943,739;    2,526;   -1,227
236,518; 3200,289;    1,072;    0,318
237,117; 3332,774;    2,890;   -0,227
237,715; 3470,243;    1,163;   -0,500
238,314; 3511,208;    1,708;   -2,318
238,912; 3628,595;    0,526;   -1,409
239,510; 3653,588;    1,162;   -1,227
240,109; 3819,392;   -0,474;    3,773
240,707; 3837,537;   -0,474;    1,227
241,305; 4145,231;   -0,383;    0,136
241,904; 4327,413;   -0,292;   -2,045
242,502; 4300,168;    3,253;   -0,227
243,100; 4255,012;    3,344;   -0,955
243,698; 4472,481;    2,799;    1,682
244,297; 4624,630;   -0,656;    0,682
244,895; 4501,399;   -0,474;   -2,318
245,493; 4778,257;    2,981;   -0,591
246,091; 4799,044;    5,163;   -1,318
246,689; 4773,611;    2,163;    0,591
247,287; 4928,790;   -0,019;   -1,136
247,885; 5165,007;   -1,019;    1,227
248,483; 5257,061;   -0,201;   -0,500
249,081; 5369,949;    0,981;    1,591
249,679; 5513,056;   -1,019;    1,682
250,277; 5747,790;   -2,292;    0,864
250,875; 5730,355;    0,617;   -1,045
251,473; 5758,413;   -0,019;    0,500
252,071; 5940,606;   -0,383;    1,045
252,669; 6074,422;   -1,565;    0,318
253,267; 6296,345;    1,618;    0,773
253,864; 6246,700;    0,617;    0,682
254,462; 6151,797;    1,526;    1,591
255,060; 6084,539;    0,072;    1,318
255,658; 6402,058;   -3,292;   -0,136
256,255; 6782,266;   -0,201;   -2,045
256,853; 6636,825;    2,345;    1,409
257,451; 6630,753;    1,981;    1,864
258,048; 6928,403;    2,072;    1,864
258,646; 6651,546;    0,436;   -1,045
259,243; 6814,643;    2,981;    2,227
259,841; 6883,650;    1,799;    0,318
260,438; 6783,599;    0,254;    0,864
261,036; 7416,814;    0,617;    1,409
261,633; 7350,835;    1,526;    2,227
262,231; 7107,327;   -0,110;   -0,045
262,828; 7197,506;   -0,383;    1,136
263,425; 7236,082;   -1,928;   -0,591
264,023; 7475,084;    1,436;    0,045
264,620; 7068,406;    1,526;   -0,318
265,217; 7384,947;    2,890;    3,136
265,815; 7486,445;    2,527;    2,136
266,412; 7275,086;    0,072;    0,136
267,009; 7290,683;    0,526;    0,773
267,606; 7259,273;    0,345;   -0,955
268,203; 7217,935;   -0,383;   -0,591
268,801; 7482,103;   -0,474;    0,591
269,398; 7740,967;   -0,564;    2,500
269,995; 7704,233;    0,890;    1,591
270,592; 7521,219;    0,799;   -0,500
271,189; 7695,991;    1,981;    0,409
271,786; 7827,448;    2,072;    1,227
272,383; 7645,681;   -0,383;    0,227
272,980; 7810,072;    1,617;    0,318
273,577; 8240,653;    2,162;    1,227
274,174; 7819,320;    1,435;    2,591
274,771; 7814,786;    1,890;   -0,773
275,367; 7990,674;    3,253;    1,409
275,964; 7934,469;   -0,565;   -0,500
276,561; 8016,541;   -2,474;   -1,045
277,158; 8199,510;    1,799;   -1,773
277,755; 8341,221;   -0,110;    0,409
278,351; 7767,839;    0,436;   -1,500
278,948; 8065,219;   -0,201;    0,045
279,545; 8065,585;    0,527;    2,318
280,141; 8636,383;    1,254;   -2,045
280,738; 8506,191;    2,435;   -0,136
281,334; 8717,695;   -0,383;    0,591
281,931; 8132,252;    2,890;   -1,318
282,528; 8257,198;    4,072;   -0,500
283,124; 8944,252;    3,345;   -0,500
283,721; 8831,154;    0,709;    1,409
284,317; 8641,095;    0,163;    2,500
284,913; 9127,452;   -0,110;    0,591
285,510; 9293,088;    2,890;   -0,318
286,106; 9330,702;    2,345;   -0,955
286,703; 8953,441;    0,072;    1,955
287,299; 9113,923;    1,254;   -0,591
287,895; 9338,520;    0,890;   -1,045
288,491; 9869,058;    0,163;    2,136
289,088; 9620,573;    0,163;    2,409
289,684; 9663,331;    2,890;    1,500
290,280; 9696,355;    1,890;    0,682
290,876; 9756,131;    0,163;    5,500
291,472; 9675,352;    2,163;    2,227
292,068; 9759,205;    1,254;    0,227
292,665; 9502,650;   -0,564;    0,773
293,261; 9178,221;   -1,292;    2,136
293,857; 9500,215;    4,072;    2,136
294,453; 9464,676;   -0,928;    0,955
295,049; 9368,877;    0,253;    1,955
295,644; 9359,266;   -1,292;    0,136
296,240; 9304,236;    0,162;   -0,136
296,836; 9333,334;   -0,747;    0,318
297,432; 9564,826;    2,980;   -0,500
298,028; 9653,418;    0,435;    0,773
298,624; 9999,908;    0,889;    1,864
299,220;10238,346;    0,435;    0,591
299,815; 9894,504;    0,526;   -0,409
300,411; 9689,786;    0,435;    1,773
301,007; 9684,936;    1,889;    0,227
301,602; 9722,996;    2,071;   -2,318
302,198; 9894,873;    1,435;   -0,773
302,794;10210,476;    1,526;   -0,500
303,389;10312,141;    1,071;    1,045
303,985;10357,145;    1,253;    1,409
304,580;10336,225;    0,889;    1,591
305,176;10315,036;    0,344;    0,136
305,771;10258,507;   -0,929;   -1,227
306,367;10136,245;    3,071;    0,136
306,962;10445,269;    2,889;    1,500
307,558;10183,040;    2,435;    0,136
308,153;10093,924;   -0,383;   -1,136
308,748;10333,390;    0,162;    1,682
309,344;10347,269;    0,253;   -1,318
309,939;10421,026;    2,071;   -1,318
310,534;10642,057;   -2,020;   -1,682
311,130;10573,870;   -0,656;   -2,500
311,725;10310,157;    0,526;   -0,500
312,320;10643,567;    1,253;    0,045
312,915;10471,399;    2,890;   -1,045
313,510;10531,250;    0,526;   -0,500
314,105;11047,579;   -3,565;    1,409
314,700;10432,411;   -1,656;   -1,045
315,295;10123,407;   -0,020;    0,045
315,890; 9734,311;   -0,292;    0,864
316,485;10060,660;    0,253;   -0,318
317,080;10164,318;   -0,929;    1,591
317,675;10656,455;    3,071;   -0,682
318,270;10112,222;    6,889;    3,318
318,865;10133,425;    2,435;    3,045
319,460; 9954,427;   -1,565;    0,591
320,055;10191,773;   -2,565;   -1,227
320,650; 9873,127;   -1,838;   -0,591
321,244; 9918,577;    0,889;   -1,409
321,839;10802,985;    0,980;   -0,227
322,434;10692,931;   -0,111;   -1,591
323,029;10381,323;   -0,474;    1,591
323,623;10227,754;    0,798;    0,773
324,218;10026,106;    2,707;    1,409
324,812; 9944,274;    0,889;    1,591
325,407; 9737,064;   -0,929;    2,045
326,002; 9691,362;    0,526;   -0,409
326,596;10005,474;   -0,656;    1,318
327,191;10180,922;   -0,383;   -1,045
327,785; 9795,838;   -0,747;   -0,227
328,379;10041,399;   -0,383;    0,136
328,974; 9843,514;    1,798;   -3,955
329,568;10042,367;    2,889;   -2,409
330,163; 9867,668;    2,435;    1,045
330,757;10214,574;    0,253;    1,591
331,351; 9578,101;   -0,292;    0,682
331,945; 9875,407;   -0,383;    1,409
332,540; 9506,171;    1,617;   -0,591
333,134; 9644,236;    3,344;    0,773
333,728; 9864,148;    2,799;    0,318
334,322;10180,101;    0,889;   -0,864
334,916; 9512,255;    0,344;    0,955
335,510; 9827,166;   -0,111;   -0,136
336,105;10007,376;   -0,929;    1,591
336,699; 9750,926;   -1,292;    0,591
337,293; 9696,728;    1,071;    0,318
337,887; 9801,409;    0,071;    1,955
338,481; 9890,942;    2,980;    0,591
339,074;10028,912;    2,071;    2,682
339,668; 9875,175;   -0,110;    1,227
340,262;10097,238;    7,708;    3,227
340,856; 9609,294;    1,708;   -0,682
341,450; 9030,537;    0,708;    1,864
342,044; 9851,910;    1,799;    0,136
342,637; 9640,392;    1,162;   -2,136
343,231; 9497,072;   -1,474;    0,682
343,825; 9410,402;   -0,747;   -0,591
344,419; 9430,281;   -0,474;    0,500
345,012; 9262,493;    2,889;    4,045
345,606; 9277,141;   -0,656;    1,591
346,199; 9135,164;   -0,111;   -0,227
346,793; 8717,882;    2,525;    2,045
347,386; 8917,271;    0,889;   -1,136
347,980; 8880,521;   -0,838;   -0,045
348,573; 8717,924;   -1,748;    0,409
349,167; 8419,915;    6,161;    4,773
349,760; 8759,987;    2,252;    2,682
350,354; 8708,361;    1,616;    1,136
350,947; 8487,671;    2,798;    1,682
351,540; 8222,827;    0,616;   -1,409
352,134; 8159,556;   -1,111;    1,136
352,727; 8209,717;   -0,657;    1,136
353,320; 8053,838;    2,343;    0,591
353,913; 7893,372;   -1,929;    1,864
354,507; 8070,813;    0,434;   -1,227
355,100; 8097,393;    0,071;    0,864
355,693; 7444,806;    4,798;    2,409
356,286; 7449,941;    0,980;    2,773
356,879; 7798,673;   -0,475;    1,227
357,472; 7458,088;    0,980;    1,500
358,065; 7634,127;    3,161;    2,500
358,658; 7565,239;    0,798;    2,318
359,251; 7232,834;    0,252;   -0,591
359,844; 6790,645;    0,343;   -1,136
360,437; 6952,328;    0,252;    0,045
361,030; 7211,810;    0,525;   -0,682
361,623; 6845,309;    0,434;    0,318
362,215; 6881,850;    0,979;    2,045
362,808; 6705,906;   -2,293;   -1,682
363,401; 6903,727;    0,798;    0,136
363,994; 6677,983;    3,252;   -1,500
364,586; 6623,524;    0,888;   -1,500
365,179; 6789,016;   -0,203;   -1,136
365,772; 6304,020;   -0,930;    2,045
366,364; 6568,739;    1,524;   -3,227
366,957; 6788,250;    1,342;   -0,045
367,549; 6765,252;   -0,203;   -0,864
368,142; 6462,231;    0,978;   -1,500
368,734; 6644,667;    2,523;   -2,136
369,327; 6614,612;    2,341;   -0,500
369,919; 6540,281;   -1,659;    0,409
370,512; 6360,857;   -1,023;   -0,500
371,104; 6158,639;    2,704;    1,591
371,696; 6314,257;    1,703;   -0,955
372,289; 6356,374;    0,157;    1,136
372,881; 6511,268;    1,156;    1,318
373,473; 6412,401;    4,064;    1,136
374,066; 6256,053;    1,336;    0,500
374,658; 6121,020;    0,879;    1,136
375,250; 6425,301;   -1,668;   -1,409
375,842; 6289,555;   -0,124;   -0,045
376,434; 6165,512;   -2,762;   -0,409
377,026; 6716,822;   -1,855;   -2,500
377,618; 6592,833;    0,779;   -0,682
378,210; 6422,872;    3,141;   -1,955
378,802; 6289,822;    3,412;   -0,591
379,394; 6278,595;    3,411;    0,682
379,986; 6812,174;    1,138;   -0,955
380,578; 6900,465;    1,410;    0,773
381,170; 6283,907;    0,320;    0,045
381,762; 6249,382;   -0,224;    1,409
382,354; 6421,653;   -0,223;   -1,318
382,945; 6529,976;    0,870;    0,318
383,537; 6662,219;    1,144;   -1,955
384,129; 6660,364;    0,963;   -1,136
384,721; 6845,236;    0,418;    0,955
385,312; 6773,895;   -1,399;   -0,955
385,904; 6842,047;   -0,945;    1,591
386,496; 6266,215;    0,691;    1,045
387,087; 6411,313;    0,418;    2,500
387,679; 6418,922;   -0,401;    0,045
388,270; 6568,041;   -2,401;    2,045
388,862; 6642,820;   -0,401;   -0,318
389,453; 6526,938;    1,054;    1,045
390,045; 6812,642;    3,236;   -2,682
390,636; 6727,186;    0,144;   -0,591
391,227; 6572,109;    2,054;   -0,045
391,819; 6666,570;    0,781;    0,773
392,410; 6760,952;    0,600;    0,045
393,001; 6697,122;    1,600;   -1,591
393,593; 6927,830;    0,600;   -0,045
394,184; 6776,898;    0,873;   -0,409
394,775; 6697,264;    1,146;    2,136
395,366; 6911,996;    1,782;    0,773
395,957; 6872,933;   -2,400;    0,136
396,548; 7143,388;    1,054;    2,682
397,139; 7431,500;    2,236;    0,591
397,730; 7164,651;    0,873;    0,955
398,321; 7237,875;    0,509;    0,955
398,912; 7254,457;   -0,764;    0,136
399,503; 7316,977;   -1,945;   -1,409
400,094; 6848,210;   -1,582;    1,682
400,685; 6726,618;    3,600;    0,045
401,276; 6757,241;   -0,400;   -0,955
401,867; 7046,024;   -1,127;    0,773
402,458; 7124,896;    1,509;   -2,318
403,048; 7120,513;    0,146;    0,591
403,639; 6749,528;    1,509;    0,864
404,230; 6983,858;    0,691;    0,318
404,821; 6928,432;   -0,127;    0,045
405,411; 7026,168;   -0,763;   -2,591
406,002; 6655,222;    3,237;   -1,136
406,592; 6559,697;    2,691;    0,045
407,183; 6804,846;    0,328;   -1,500
407,774; 6731,823;    1,419;   -0,136
408,364; 7028,170;    2,600;    0,409
408,954; 6678,734;   -0,036;    1,227
409,545; 6734,161;    1,873;    1,045
410,135; 6283,028;   -1,581;    0,500
410,726; 6430,638;    0,783;    0,318
411,316; 6770,643;    2,237;    0,773
411,906; 6482,387;    0,146;   -0,409
412,497; 6039,277;   -0,490;   -0,045
413,087; 6587,191;    0,783;   -0,227
413,677; 6930,934;   -2,490;    3,864
414,267; 6788,631;   -1,035;    1,409
414,857; 6759,324;    0,419;    4,227
415,448; 7035,928;   -0,763;    0,500
416,038; 6748,846;   -2,945;   -0,591
416,628; 6739,724;    0,965;    0,409
417,218; 6276,135;   -1,762;    3,318
417,808; 6510,736;    0,965;   -0,409
418,398; 6907,466;   -1,035;    2,682
418,988; 6904,792;   -2,217;    0,591
419,578; 7108,421;    3,601;    1,409
420,168; 7403,708;    0,692;   -0,955
420,757; 7016,678;    0,964;   -1,500
421,347; 6744,785;    1,601;   -0,227
421,937; 6863,689;    3,329;    1,409
422,527; 6840,053;    2,602;   -0,773
423,116; 6676,601;    2,692;   -0,045
423,706; 6980,396;    2,965;    0,318
424,296; 6936,438;    1,601;    0,682
424,885; 7304,801;    1,510;   -3,045
425,475; 7535,577;    1,147;   -2,864
426,065; 7475,188;   -1,489;   -0,318
426,654; 7140,011;    0,329;   -0,318
427,244; 7266,971;    1,147;    1,409
427,833; 6757,482;    1,056;   -0,500
428,423; 7166,491;    0,147;    1,136
429,012; 7832,470;    2,420;   -1,136
429,601; 7379,654;    2,057;    0,136
430,191; 7608,132;    2,511;    4,318
430,780; 7249,516;   -1,671;   -0,409
431,369; 7187,087;    1,329;   -0,045
431,959; 7725,097;    1,693;    0,500
432,548; 7539,057;   -1,398;   -0,045
433,137; 7644,623;    0,329;   -1,318
433,726; 8116,267;    0,148;    0,500
434,315; 7534,782;    0,148;    2,409
434,905; 7635,875;    0,693;    1,409
435,494; 7542,499;    3,148;    0,955
436,083; 7936,229;    1,420;   -0,955
436,672; 7827,705;    1,148;    0,500
437,261; 7445,492;    0,512;   -1,955
437,850; 7555,952;   -1,125;    0,682
438,439; 7516,425;    2,239;    1,955
439,027; 7374,439;    3,421;    1,773
439,616; 7685,860;    2,239;    1,227
440,205; 7559,145;    0,057;   -2,136
440,794; 7603,119;   -0,306;   -0,045
441,383; 7810,571;    1,603;   -0,591
441,971; 7662,473;   -0,306;    0,591
442,560; 7512,356;    0,603;   -1,773
443,149; 7288,916;    3,060;   -1,318
443,737; 7446,239;    0,968;   -2,318
444,326; 7692,203;    0,331;    0,318
444,915; 7705,058;   -1,851;    0,864
445,503; 8039,562;    0,058;   -0,318
446,092; 7403,394;    7,876;    2,136
446,680; 7874,170;    1,876;    0,318
447,269; 8039,685;   -1,487;   -0,318
447,857; 7816,811;    2,240;   -1,773
448,445; 7943,142;    2,149;    1,318
449,034; 8149,564;    0,876;   -1,136
449,622; 8227,179;    1,240;    3,500
450,210; 7578,640;    3,149;    2,227
450,799; 8066,311;    2,604;   -0,591
451,387; 7984,621;    1,786;   -0,591
451,975; 7671,579;   -1,305;    0,864
452,563; 7776,752;    0,422;    2,318
453,151; 7796,689;   -1,032;   -1,227
453,739; 7687,260;   -1,577;    0,136
454,328; 7578,600;    0,604;   -2,136
454,916; 7346,651;    1,150;   -0,136
455,504; 7505,171;    3,513;    1,227
456,092; 7658,649;    2,150;   -1,591
456,679; 7636,745;    0,604;    0,682
457,267; 7606,598;    3,604;    1,045
457,855; 7725,232;    3,241;    1,409
458,443; 7472,183;   -0,304;    1,682
459,031; 7598,316;    1,332;    2,409
459,619; 8017,383;   -3,577;    2,864
460,206; 8106,218;   -0,759;    2,045
460,794; 8188,038;   -0,668;   -0,227
461,382; 8382,250;    0,878;   -0,864
461,970; 7997,931;    0,605;    1,864
462,557; 8051,814;    0,878;   -0,682
463,145; 8213,476;   -0,304;   -1,682
463,732; 8312,805;    2,514;   -1,045
464,320; 8223,142;    1,514;   -3,045
464,907; 7948,853;    0,423;   -0,773
465,495; 7840,186;    2,696;   -1,227
466,082; 7960,047;    2,060;   -0,045
466,670; 7885,236;    2,605;    1,227
467,257; 8245,480;    0,060;    2,045
467,844; 8383,133;    1,514;    0,045
468,432; 8426,254;   -0,031;    3,500
469,019; 7991,643;    1,606;   -1,773
469,606; 8423,865;    0,969;    3,682
470,193; 8251,086;    2,151;    0,227
470,780; 7862,671;    0,333;    0,864
471,368; 8161,135;   -1,212;   -0,773
471,955; 7977,778;    1,060;   -0,682
472,542; 7652,620;   -0,303;   -1,136
473,129; 7851,720;   -0,485;    0,136
473,716; 7617,207;    0,060;    0,591
474,303; 7792,984;    1,333;   -0,864
474,890; 8051,475;    2,333;   -0,500
475,477; 8050,179;   -0,576;    0,409
476,064; 7945,298;    0,697;   -1,591
476,650; 7839,025;    2,152;    0,318
477,237; 7722,116;    1,879;    0,955
477,824; 7888,831;    3,879;    0,864
478,411; 7892,643;    0,606;   -0,318
478,997; 8059,069;    0,606;   -0,773
479,584; 8096,143;   -0,666;   -0,409
480,171; 8735,577;    1,243;   -0,773
480,757; 8423,761;   -0,848;    0,773
481,344; 8652,785;    0,334;    0,409
481,931; 8194,970;   -0,393;    1,045
482,517; 9046,138;    0,425;    0,318
483,104; 9499,393;    1,334;    2,864
483,690; 9713,512;    0,243;    0,045
484,276; 9992,437;    0,698;    0,227
484,863; 9724,346;    2,152;    1,136
485,449;10255,968;    0,152;    0,318
486,035;10224,908;   -0,666;   -0,136
486,622;10614,712;   -2,393;    0,045
487,208;10603,759;    1,334;    1,500
487,794;10469,929;    0,971;    0,318
488,380;10557,215;    0,698;   -1,409
488,967;10616,488;   -1,120;   -0,409
489,553;10683,392;   -1,029;   -1,409
490,139;10869,963;    0,971;    0,773
490,725;10380,858;    0,789;   -0,227
491,311;10043,758;    1,516;    3,045
491,897; 9486,604;   -0,665;    1,500
492,483; 9328,823;    0,426;    1,227
493,069; 9203,588;    5,426;    0,864
493,655; 9145,031;    1,789;    0,682
494,241; 9075,749;    1,517;   -0,955
494,826; 9424,777;    0,335;   -1,045
495,412; 8920,346;    0,335;   -0,682
495,998; 9119,275;    0,971;   -0,318
496,584; 9224,390;    2,244;    1,045
497,169; 9191,408;    2,335;   -0,682
497,755; 9141,447;    1,244;    1,227
498,341; 9684,065;    2,153;    0,318
498,926; 9297,343;    2,881;    1,955
499,512; 9478,526;   -0,028;    2,955
500,097; 9553,149;   -0,574;   -0,318
500,683; 9505,219;   -0,028;    2,136
501,268; 9849,564;    1,881;   -0,955
501,854; 9608,652;   -0,119;    1,227
502,439; 9493,156;   -0,573;   -1,773
503,024; 9665,552;    1,608;    0,500
503,610; 9753,729;    1,335;   -0,682
504,195; 9751,158;    1,245;    1,955
504,780; 9870,025;    2,335;    1,227
505,366; 9725,879;    4,063;    2,864
505,951; 9532,971;   -1,119;    1,045
506,536; 9567,666;    1,427;   -3,682
507,121; 9516,941;    1,699;   -0,318
507,706;10000,605;   -0,392;    1,045
508,291;10340,496;   -2,937;    1,136
508,876; 9842,638;   -0,482;    2,591
509,461; 9350,169;    1,427;   -0,773
510,046; 9741,913;   -0,391;    0,318
510,631; 9972,724;   -0,119;   -0,773
511,216; 9673,407;   -0,664;   -0,500
511,801;10020,671;   -0,755;    2,591
512,386;10293,987;    0,972;    0,500
512,971;10222,127;    0,427;    0,955
513,555; 9830,684;    1,154;   -1,500
514,140;10535,652;    1,336;   -3,136
514,725;10474,684;    1,791;   -1,136
515,309;10610,355;    1,064;    0,318
515,894;10161,444;   -0,300;   -2,227
516,479;10555,871;    1,973;   -0,955
517,063;10347,514;    0,882;    1,227
517,648;10522,612;    0,155;   -1,136
518,232;10157,970;   -1,300;   -1,409
518,817;10496,451;    1,337;    1,682
519,401;10695,008;    0,700;    0,591
519,985;10234,448;    2,700;    1,136
520,570;10128,185;   -0,118;   -1,955
521,154;10394,777;    0,064;    0,591
521,738;10507,007;    1,064;    2,409
522,323;11031,357;   -0,390;    1,682
522,907;10803,502;    2,428;   -0,136
523,491;10525,257;    1,155;    0,955
524,075;10526,101;    0,428;    0,591
524,659;10595,390;    0,973;    0,591
525,243;10115,875;    0,883;    0,409
525,827;10318,784;    0,883;   -0,045
526,411;11044,572;    1,155;   -0,136
526,995;11259,338;    0,337;    1,409
527,579;10888,198;    1,974;   -1,045
528,163;11156,613;    0,428;   -1,500
528,747;11116,991;    1,065;   -0,773
529,331;11350,483;    0,883;   -1,409
529,915;11532,413;    2,338;    0,955
530,499;11459,298;    0,247;    1,227
531,082;11176,422;    1,065;    1,591
531,666;10720,636;    0,520;    0,773
532,250;11297,107;    0,428;    2,682
532,833;11560,354;    0,610;    2,773
533,417;11461,063;    1,247;    0,864
534,001;11388,233;    0,429;   -0,318
534,584;12046,724;    1,974;    0,500
535,168;11884,585;    3,247;    1,409
535,751;11934,093;    4,520;    0,045
536,334;11392,631;    4,520;   -0,409
536,918;11960,718;    1,974;    1,591
537,501;12017,515;    1,520;    1,318
538,085;12008,004;    1,702;    1,045
538,668;12123,757;    0,883;    2,409
539,251;12431,783;    3,156;    3,773
539,834;12429,867;    0,156;    0,773
540,418;12345,121;    3,247;    4,318
541,001;12427,447;    2,702;    1,773
541,584;12391,710;    1,429;    2,227
542,167;12092,514;    0,702;    2,955
542,750;12226,531;    0,793;   -0,773
543,333;11817,724;    1,429;    2,136
543,916;12530,845;   -0,298;    2,500
544,499;13040,885;    2,520;    0,227
545,082;13063,617;    0,248;    3,591
545,665;13175,081;   -0,207;    1,500
546,248;13470,269;    0,520;   -0,318
546,830;13125,533;   -1,752;    1,955
547,413;13496,027;    0,157;   -0,773
547,996;13969,276;    0,157;    0,500
548,579;13766,351;   -0,843;    0,955
549,161;13600,901;    0,884;    2,682
549,744;13411,702;    0,612;    0,409
550,326;13828,660;    0,885;   -1,136
550,909;13623,071;    2,339;    0,591
551,492;13995,514;    0,521;    0,227
552,074;13796,381;   -0,024;   -1,318
552,657;14305,700;    2,430;    0,045
553,239;14068,959;   -3,024;   -0,773
553,821;13975,651;   -1,570;    1,045
554,404;13506,152;   -0,024;    1,136
554,986;13864,082;    2,248;    1,045
555,568;14401,614;    0,430;   -0,955
556,151;13696,003;    4,067;   -0,227
556,733;13861,642;   -1,388;   -0,864
557,315;14276,606;    4,703;    0,500
557,897;14061,576;    0,521;   -0,500
558,479;14158,012;    1,703;    1,318
559,061;14283,201;    1,067;   -0,864
559,643;14557,380;   -0,297;    0,045
560,225;14874,436;   -0,388;    2,864
560,807;14899,562;    0,340;    0,318
561,389;14454,413;   -1,206;    2,318
561,971;15055,161;   -0,660;    2,136
562,553;14931,657;    0,613;    1,591
563,135;15005,198;    1,249;    1,136
563,717;14631,287;    3,158;    1,136
564,298;15215,918;    3,976;   -0,045
564,880;14942,720;    0,340;   -1,409
565,462;15127,265;    1,977;    1,318
566,043;16139,709;   -0,933;    2,318
566,625;15700,730;    4,067;    1,227
567,207;15477,443;    0,704;    1,682
567,788;16436,156;   -0,114;    1,500
568,370;17119,426;   -1,841;   -0,500
568,951;16904,440;   -0,569;    0,227
569,533;17624,041;    0,977;   -0,500
570,114;18065,452;   -0,296;    0,682
570,695;18446,452;   -0,478;   -1,318
571,277;18813,927;   -0,205;   -1,682
571,858;19417,524;    2,704;   -1,136
572,439;20152,319;    0,795;   -1,045
573,021;20271,594;    0,432;   -2,773
573,602;20672,412;    1,795;    0,318
574,183;21416,570;   -0,114;    2,227
574,764;21467,155;    2,068;    0,409
575,345;21898,379;    0,250;   -0,136
575,926;22369,722;    2,704;    0,136
576,507;22388,797;    2,704;   -0,227
577,088;23383,955;    1,704;    1,682
577,669;23320,351;    1,704;    1,955
578,250;23944,025;   -0,750;   -1,045
578,831;24428,015;   -0,841;   -2,227
579,412;24541,104;   -1,205;    0,955
579,993;25431,836;    1,432;    0,227
580,573;25754,747;   -0,023;   -0,955
581,154;24704,354;    1,613;   -0,591
581,735;25497,167;    0,341;    0,773
582,315;25015,349;    0,523;    2,136
582,896;25293,519;   -1,750;    1,227
583,477;24824,015;    0,614;    1,227
584,057;25005,176;    1,159;    0,955
584,638;25258,291;   -2,750;    2,318
585,218;25246,127;    2,886;    2,682
585,799;25389,864;    1,977;   -0,227
586,379;25450,410;    1,250;    1,591
586,959;24429,072;    2,613;    0,318
587,540;23836,099;    0,432;    2,227
588,120;23457,080;   -1,113;   -0,045
588,700;22625,768;    2,977;    2,136
589,281;22944,974;    1,250;   -0,955
589,861;22827,416;   -0,296;   -1,682
590,441;22675,659;   -1,477;   -2,682
591,021;21777,675;    1,432;   -2,591
591,601;22057,762;    0,431;    0,500
592,181;22098,687;   -1,296;   -0,773
592,761;21438,349;    2,250;    1,409
593,341;21403,342;    1,522;    0,045
593,921;21400,023;   -0,569;    1,591
594,501;21303,549;    1,250;    1,318
595,081;21131,361;    0,522;   -0,318
595,661;21493,288;    1,068;    0,955
596,240;21946,876;   -1,023;    0,136
596,820;21538,207;    2,613;    1,955
597,400;21653,920;    1,977;    0,773
597,980;21843,067;   -0,750;    1,045
598,559;21867,892;    0,341;   -0,227
599,139;21644,675;   -0,750;   -1,227
599,718;21558,766;    0,795;   -0,409
600,298;21828,552;   -2,387;    0,682
600,877;22052,368;    4,795;    1,409
601,457;22264,699;    0,340;    1,136
602,036;22172,419;    1,795;    2,045
602,616;22329,088;    2,250;    1,682
603,195;22624,265;    0,431;    3,500
603,774;22159,025;   -0,296;    2,045
604,354;22071,778;    2,522;   -0,500
604,933;21639,734;    0,250;    1,864
605,512;21756,965;    2,340;    0,591
606,091;21819,753;    1,886;    3,773
606,671;22562,473;    0,249;    0,773
607,250;21744,522;    1,431;    3,136
607,829;21965,732;    1,158;    3,227
608,408;21834,135;    4,613;    2,591
608,987;20977,422;    2,704;    3,409
609,566;21191,813;    0,341;   -2,500
610,145;21340,315;    2,885;    0,682
610,723;21756,527;    1,613;    6,864
611,302;21044,338;    1,067;    1,682
611,881;20557,170;    5,158;   11,227
612,460;21306,720;    0,795;    3,955
613,039;21756,254;    1,703;    2,045
613,617;20574,307;    0,886;    4,773
614,196;20737,380;    1,613;    1,227
614,775;21067,727;    1,249;    2,409
615,353;21029,389;   -1,660;    0,864
615,932;20789,667;    0,249;    2,409
616,510;21307,930;    0,158;    0,591
617,089;20856,308;    8,794;   17,591
617,667;20712,373;    4,885;    6,136
618,246;20591,376;   -1,115;    1,318
618,824;20683,359;    1,612;   -0,955
619,402;20289,793;    0,431;   -1,773
619,981;20720,975;    1,067;   -1,045
620,559;20629,049;    0,794;    1,682
621,137;20230,264;    3,067;    1,864
621,715;20200,021;    3,703;   -0,682
622,293;20131,898;    1,885;   -0,773
622,871;20626,243;    0,340;    0,500
623,450;20258,635;    0,430;   -0,864
624,028;20120,639;   -0,388;   -0,955
624,606;19731,348;    2,339;    1,682
625,183;20127,709;   -0,661;   -1,136
625,761;19796,821;    1,885;    1,136
626,339;20080,583;    2,339;    2,591
626,917;20421,625;    0,339;   -0,045
627,495;20492,586;    2,794;    1,318
628,073;19940,833;    5,248;    2,864
628,650;19650,397;    3,067;    2,136
629,228;20065,651;    1,248;    4,409
629,806;19512,719;   -0,024;    1,136
630,383;19700,870;    0,066;   -0,318
630,961;19602,469;   -2,206;   -0,955
631,539;19371,980;   -2,479;    0,227
632,116;18803,287;   12,703;   15,409
632,694;19339,646;    4,885;    6,500
633,271;19530,523;    1,975;    2,682
633,848;19509,957;    1,430;    2,045
634,426;19514,801;    1,521;    1,773
635,003;18770,624;   -0,207;   -0,409
635,580;18975,889;    1,884;    3,682
636,158;19485,824;    3,793;    1,227
636,735;19483,819;    3,339;   -0,500
637,312;19610,647;    0,521;   -0,682
637,889;19650,064;    2,248;   -0,682
638,466;19229,652;    0,066;   -0,409
639,043;19191,556;    1,702;   -1,136
639,620;19458,372;    0,611;   -0,955
640,197;19745,793;    1,612;    1,682
640,774;19872,694;    1,430;    1,136
641,351;20246,505;    0,612;    1,136
641,928;19730,044;    2,794;    1,409
642,505;19382,946;    0,794;   -0,500
643,082;19510,938;    1,885;    1,227
643,658;18649,113;    1,157;    1,500
644,235;19273,742;   -2,479;    2,500
644,812;19529,735;    1,794;    0,773
645,388;19285,182;    1,612;    1,409
645,965;19355,902;    1,521;    1,682
646,542;19450,532;    3,430;   -0,227
647,118;19478,070;    3,703;   -0,955
647,695;19702,608;    0,339;    1,136
648,271;19633,056;   -2,115;    0,500
648,848;19879,321;    0,248;    2,227
649,424;19724,677;    0,976;    1,318
650,000;19459,761;   -0,388;   -1,045
650,577;19320,845;    0,158;   -0,955
651,153;19687,292;   -1,115;    0,955
651,729;20530,740;    0,521;    0,864
652,305;20615,823;    1,339;    2,773
652,881;24004,907;   -1,297;    1,136
653,458;29438,718;    0,249;    0,227
654,034;32380,529;    0,703;    1,591
654,610;33564,886;    0,339;    0,773
655,186;34745,424;    1,612;    3,045
655,762;34475,598;   -1,842;    0,409
656,338;34518,682;    0,703;    0,136
656,913;35453,857;   -0,297;    0,409
657,489;34788,031;    0,249;   -0,318
658,065;34743,297;    0,794;   -1,591
658,641;35325,290;    2,158;   -0,864
659,217;34739,192;    2,067;    0,409
659,792;34195,912;   -1,751;   -0,409
660,368;34536,905;   -0,388;   -0,682
660,944;34501,443;    1,794;    1,227
661,519;30909,436;    0,522;    0,409
662,095;26045,156;   -0,206;    0,591
662,670;22216,967;   -0,206;   -0,136
663,246;21284,778;   -0,660;   -0,409
663,821;20740,134;    0,431;    1,682
664,396;20268,854;    0,613;    1,864
664,972;20474,756;   -0,660;   -0,500
665,547;20733,567;    3,794;    0,136
666,122;20751,196;    1,340;    0,318
666,698;21029,280;    2,431;    0,318
667,273;20413,818;    0,885;    0,136
667,848;21119,720;    0,340;    1,500
668,423;20913,622;    1,795;    2,318
668,998;21353,706;    0,976;   -0,682
669,573;21848,244;    2,067;   -1,500
670,148;21690,055;    1,885;   -0,682
670,723;21486,684;   -0,024;    0,318
671,298;21848,677;   -1,296;    1,045
671,873;21904,761;   -0,296;   -0,136
672,448;21855,663;    1,704;    0,136
673,023;22140,655;    0,249;   -0,227
673,597;22464,012;    2,704;    2,318
674,172;22291,005;    2,431;    0,318
674,747;21787,270;   -0,205;   -1,045
675,321;21573,809;   -0,933;    3,318
675,896;21214,074;    2,158;    1,045
676,471;22109,612;    2,522;    1,591
677,045;21880,332;   -0,296;    0,682
677,620;21942,507;    2,158;    1,136
678,194;22230,318;    0,249;    1,136
678,769;21863,311;    0,886;   -0,318
679,343;22044,031;   -0,023;    1,773
679,917;21873,115;    0,340;    1,955
680,492;21974,653;    0,249;    3,227
681,066;22075,646;    0,613;    0,409
681,640;22040,911;    1,795;   -0,318
682,214;22826,086;    2,340;    0,500
682,788;22364,351;    0,613;   -0,773
683,363;22300,072;    1,977;    1,682
683,937;21988,701;    0,886;   -0,318
684,511;22685,875;   -1,023;   -0,591
685,085;22461,141;   -1,478;    0,318
685,659;22183,225;    1,431;    0,864
686,232;22445,308;    1,159;   -0,318
686,806;22203,028;    2,159;    0,409
687,380;22777,203;   -1,932;    0,591
687,954;22976,105;    2,432;    1,136
688,528;22655,189;    2,613;    1,955
689,101;23430,272;    0,432;    1,045
689,675;22989,174;    0,886;   -0,136
690,249;22380,349;    3,432;    0,409
690,822;22726,342;    1,159;    0,318
691,396;22816,516;    2,068;    1,227
691,969;22328,600;    2,523;    0,136
692,543;22779,320;   -0,568;   -1,955
693,116;22394,768;   -0,659;   -1,409
693,690;22334,579;   -0,296;    0,500
694,263;22820,662;    2,341;    2,955
694,836;22821,655;    2,795;    3,591
695,410;21570,375;    1,159;    1,773
695,983;21983,095;    1,614;    0,591
696,556;21994,724;   -0,750;   -1,045
697,129;22363,990;   -1,114;    1,409
697,703;22038,528;    1,341;    1,955
698,276;22013,066;    1,705;   -0,773
698,849;21828,150;   -1,023;    1,409
699,422;22193,870;    1,250;    0,591
699,995;21946,590;   -0,659;    0,136
700,568;22342,674;   -0,204;    3,045
701,140;22359,121;   -1,841;    1,682
701,713;22100,205;    0,341;    2,409
702,286;21949,198;    0,796;    0,864
702,859;21840,100;    0,614;   -0,591
703,432;21133,547;   -0,841;    0,682
704,004;21489,176;    1,978;    0,318
704,577;21382,533;    1,068;    0,136
705,150;21904,344;    0,887;    2,500
705,722;21737,791;    1,523;   -3,227
706,295;21533,966;    1,432;   -0,591
706,867;21401,504;    0,250;    1,955
707,440;21589,679;   -0,113;   -0,409
708,012;21822,944;   -0,022;    0,591
708,584;21760,028;    2,705;    0,227
709,157;22005,112;    1,160;   -0,591
709,729;21700,377;    1,069;    2,045
710,301;22470,097;   -1,204;    0,045
710,874;22491,636;    0,341;   -0,227
711,446;21398,901;   -0,295;    0,864
712,018;21333,439;   -3,022;    0,500
712,590;21084,432;   -0,204;    1,682
713,162;21556,152;   -0,477;    1,318
713,734;21832,509;    1,796;   -2,045
714,306;21744,229;    0,342;   -0,409
714,878;20548,585;   -0,295;    0,864
715,450;21309,942;   -0,113;    0,864
716,022;21548,207;    2,433;    1,318
716,593;21686,382;    0,978;    0,591
717,165;21618,102;    1,796;   -1,227
717,737;21402,277;    0,796;    0,409
718,309;21140,088;    1,160;   -0,045
718,880;21058,535;   -1,295;   -1,409
719,452;21263,073;    0,887;   -1,591
720,024;20929,793;    1,705;   -0,591
720,595;21452,150;    2,978;    0,955
721,167;21057,143;    1,160;   -2,045
721,738;20614,044;    2,069;   -1,045
722,309;20592,401;    1,251;   -1,227
722,881;20391,485;    2,705;    0,773
723,452;20952,023;    1,251;    2,864
724,023;21150,198;    1,524;    2,682
724,595;20966,372;    2,342;    0,682
725,166;20684,729;    1,524;   -0,409
725,737;20324,631;    1,887;    0,227
726,308;20421,987;    0,797;    0,318
726,879;20845,162;    1,069;    1,227
727,450;20692,336;   -2,022;   -0,045
728,021;20651,511;    1,069;    0,682
728,592;20494,685;    1,160;    0,500
729,163;20783,042;    1,433;   -0,136
729,734;20770,762;    2,160;   -0,227
730,305;21088,755;    0,615;    0,136
730,876;21356,111;    0,888;    2,955
731,447;21114,740;    0,797;    2,682
732,017;21211,006;   -0,840;    1,864
732,588;20756,817;   -0,021;    1,227
733,159;20901,992;    3,615;   -1,045
733,729;20748,984;    1,251;    0,409
734,300;20134,068;    0,160;    0,864
734,870;20533,788;   -1,385;    0,591
735,441;21042,417;    0,888;   -0,591
736,011;20774,137;    1,070;   -1,591
736,582;20754,676;    1,251;    0,045
737,152;20274,214;    0,979;   -2,045
737,722;20706,570;    1,070;   -0,682
738,293;20401,927;   -2,021;    1,318
738,863;20326,738;    1,797;    2,318
739,433;20186,822;    4,524;    0,318
740,003;20755,087;    1,524;   -0,682
740,573;20214,353;    2,252;   -1,591
741,143;20180,800;    3,615;    0,318
741,713;20861,520;    0,252;   -0,500
742,283;20627,786;    1,706;    1,591
742,853;20437,324;    0,524;    1,591
743,423;19923,226;    0,161;    0,045
743,993;20032,946;    1,070;    1,500
744,563;19473,848;    2,524;   -0,864
745,133;19399,295;   -0,112;   -0,864
745,702;20010,652;    2,797;    1,773
746,272;19314,554;    0,434;    0,591
746,842;19155,092;   -0,748;   -0,591
747,411;19539,357;   -0,839;   -0,318
747,981;19678,441;   -0,930;    0,500
748,551;19766,070;   -0,021;   -1,045
749,120;19655,063;   -0,112;   -0,227
749,690;19995,329;    2,161;    2,409
750,259;20280,231;    0,979;    2,955
750,828;20172,860;    4,070;   -1,955
751,398;20376,671;   -0,112;   -0,045
751,967;19941,027;    2,888;    0,409
752,536;20131,929;    1,161;   -0,227
753,105;20528,467;   -1,384;    0,227
753,675;20273,006;   -0,112;    1,773
754,244;20177,089;    0,888;    3,591
754,813;20243,082;    0,979;    1,227
755,382;19878,439;    0,798;    0,955
755,951;20364,522;   -0,112;    3,682
756,520;20003,333;    2,525;    1,864
757,089;20470,144;    1,888;    0,500
757,658;20543,773;    2,434;    1,227
758,227;20574,130;   -1,111;    0,318
758,795;20851,395;   -1,021;    1,136
759,364;21112,934;    0,525;   -0,591
759,933;20156,472;    1,343;   -0,045
760,501;19788,374;    0,252;   -1,318
761,070;20199,094;   -0,293;   -1,409
761,639;20855,087;    1,434;    1,318
762,207;20206,989;    0,889;   -0,955
762,776;20139,981;    2,889;    0,864
763,344;20110,156;    0,071;    0,591
763,913;19275,967;    1,616;    1,409
764,481;19993,233;    1,980;   -0,136
765,049;19873,498;    0,616;    1,409
765,618;19751,400;    1,434;    0,318
766,186;19775,757;    2,434;    0,136
766,754;19986,568;    1,798;    1,864
767,322;19109,651;    1,162;    0,409
767,890;19055,917;    0,525;   -1,773
768,459;19464,091;    2,616;   -0,318
769,027;19609,993;    2,525;    3,409
769,595;18699,168;    2,616;    2,591
770,163;19105,888;    3,344;    2,955
770,730;18926,335;    2,525;   -0,136
771,298;18767,874;    1,162;   -1,409
771,866;18877,685;    0,253;    4,955
772,434;19178,223;    1,162;   -1,864
773,002;19341,216;    2,616;    0,682
773,569;19039,936;    1,071;    1,682
774,137;18858,747;    0,889;   -0,045
774,705;19538,194;   -0,747;   -0,136
775,272;19141,914;    0,253;    0,682
775,840;18928,725;   -0,111;    2,682
776,407;18525,991;   -0,293;    1,955
776,975;18150,347;    1,162;    0,318
777,542;19032,704;    2,162;   -0,045
778,110;18900,333;    0,707;   -0,045
778,677;18651,417;    1,071;   -0,864
779,244;18400,137;   -1,020;    1,045
779,812;18528,220;    0,980;    0,864
780,379;18384,395;    2,435;    1,136
780,946;18589,206;    2,617;   -0,773
781,513;18901,472;   -0,565;    0,318
782,080;18329,283;    1,253;    2,864
782,647;18954,912;    1,708;    3,045
783,214;18611,723;   -0,201;    3,864
783,781;18288,715;    1,708;   -0,682
784,348;18191,617;    0,253;    1,500
784,915;18590,792;   -1,474;    0,318
785,482;18360,058;    2,708;    2,591
786,049;18829,232;    1,071;   -0,591
786,615;18931,043;    1,708;   -0,955
787,182;18651,854;   -3,201;   -0,682
787,749;18392,120;   -2,201;    1,409
788,315;17749,294;    0,253;   -0,409
788,882;18064,014;    0,981;   -1,227
789,448;18655,735;    1,435;   -0,955
790,015;18686,182;    1,799;    3,227
790,581;18301,902;    0,708;    0,227
791,148;18213,986;    1,344;    1,045
791,714;18424,706;   -1,019;    3,136
792,280;18132,971;    3,708;    1,591
792,847;17767,964;   -0,928;    2,500
793,413;18175,321;   -0,110;   -0,318
793,979;17857,222;    1,526;   -1,318
794,545;17918,852;    2,981;    2,682
795,111;17417,117;    2,435;    1,318
795,678;17580,837;    3,526;   -1,682
796,244;17302,648;    2,799;    0,136
796,810;17758,005;    0,799;    0,773
797,375;17525,998;   -0,292;   -2,136
797,941;17533,172;   -1,110;    0,591
798,507;17610,983;    0,254;   -0,955
799,073;17241,885;    2,708;    0,591
799,639;17307,332;    1,435;    3,136
800,205;17352,234;   -1,565;    2,682
800,770;16967,318;    1,345;    1,773
801,336;16993,584;    2,981;   -0,955
801,901;16780,849;    6,072;    3,136
802,467;17326,296;    0,526;    2,045
803,033;16704,835;   -0,019;    0,864
803,598;16878,555;    1,072;   -1,045
804,163;16921,911;    0,708;   -0,318
804,729;16927,268;   -0,110;    1,136
805,294;17239,079;    1,072;    2,227
805,859;17028,072;    0,890;   -0,409
806,425;16593,155;    3,890;    2,682
806,990;16263,512;    1,890;    4,318
807,555;16623,868;   -0,110;    2,591
808,120;16580,588;   -1,292;   -0,409
808,685;16716,217;    1,072;   -2,500
809,250;16250,210;    2,072;   -0,500
809,815;16540,021;   -0,201;    0,682
810,380;17006,832;    0,981;    1,591
810,945;17430,552;    2,890;    2,045
811,510;16758,545;   -0,200;    1,591
812,075;16491,720;    2,800;   -1,409
812,640;16515,985;    3,709;    1,409
813,204;16583,069;    2,163;   -0,227
813,769;17048,153;    0,254;   -0,045
814,334;16537,600;    0,527;    0,864
814,898;16584,866;    1,981;    0,591
815,463;16395,495;    0,981;   -0,773
816,027;16375,942;    1,345;   -2,318
816,592;16535,480;    2,163;   -2,045
817,156;16096,019;   -2,200;    1,136
817,721;15967,557;    0,982;    2,318
818,285;15948,459;    0,618;    1,500
818,849;16508,724;   -0,018;    1,682
819,414;16419,172;    0,073;    2,955
819,978;16030,074;   -0,291;    1,773
820,542;16564,430;    2,891;    0,500
821,106;16371,514;    2,800;    0,682
821,670;16395,143;    2,709;    2,591
822,234;16189,499;    1,073;    1,409
822,798;15676,674;   -0,836;    0,500
823,362;15644,030;    1,527;    4,227
823,926;15081,478;   -0,018;    1,136
824,490;15274,834;    3,527;   -0,682
825,054;15644,100;    2,527;   -1,136
825,618;15369,274;   -1,200;   -1,500
826,181;15280,267;    0,982;   -1,318
826,745;15230,806;   -0,745;   -1,045
827,309;15530,253;    2,255;    1,318
827,872;15051,700;    0,527;    0,955
828,436;15906,966;    1,982;   -0,773
828,999;16000,595;    2,436;    1,227
829,563;14993,315;   -0,654;    1,136
830,126;14803,490;   -0,018;   -0,591
830,690;14839,664;    0,709;    2,864
831,253;14445,021;   -0,473;    2,227
831,816;14537,468;   -0,018;    0,500
832,380;14478,734;    1,164;    0,864
832,943;14689,636;    3,073;   -0,500
833,506;14219,083;    0,255;   -1,227
834,069;14926,803;    2,164;   -0,955
834,632;15005,159;   -2,200;    1,318
835,195;14918,061;    1,346;    0,955
835,758;14227,781;    0,709;    1,955
836,321;14083,320;    1,073;   -1,045
836,884;14234,313;   -1,291;   -0,955
837,447;14238,305;    0,528;    1,773
838,010;14459,934;    1,800;    3,227
838,573;14740,927;    0,528;    0,773
839,135;14714,102;   -0,109;   -0,955
839,698;14266,822;    2,528;    0,409
840,261;13865,360;    0,255;   -0,227
840,823;13687,444;   -0,927;    0,864
841,386;13957,982;   -0,018;   -2,409
841,948;13898,793;    0,255;    1,773
842,511;13652,695;    0,255;    1,682
843,073;13730,870;    2,982;    0,227
843,636;13554,772;    0,619;   -0,227
844,198;13497,037;    1,255;    0,591
844,760;13667,939;    0,619;    1,955
845,322;13291,023;    0,164;    1,136
845,885;13691,652;   -0,290;    0,591
846,447;14089,463;    0,710;    0,227
847,009;13749,365;    3,983;   -0,682
847,571;13970,176;    1,346;   -2,045
848,133;14070,351;   -0,199;   -1,864
848,695;13905,071;    2,346;    1,409
849,257;13524,700;    1,346;   -1,682
849,819;13707,511;    2,983;   -0,409
850,381;13717,140;    1,801;   -0,864
850,942;14012,042;    1,892;   -0,591
851,504;13976,217;    0,983;    0,227
852,066;13989,209;    1,619;   -1,591
852,628;13635,566;    0,165;    1,955
853,189;13214,377;    0,256;    2,682
853,751;13343,006;   -0,654;    1,409
854,312;13166,726;    1,256;   -1,682
854,874;13590,901;   -0,108;   -0,773
855,435;14020,530;    0,528;   -1,682
855,997;14196,068;    3,983;   -0,136
856,558;13529,697;    0,801;    1,773
857,119;13634,781;   -0,744;    2,864
857,681;13362,137;   -0,108;    0,318
858,242;13415,676;    1,347;   -2,136
858,803;13776,123;    1,074;   -0,773
859,364;14341,116;    0,892;   -4,773
859,925;13744,745;   -0,290;   -0,955
860,486;13632,738;    0,529;   -0,955
861,047;13399,276;    0,165;   -1,227
861,608;13225,723;    0,165;   -0,773
862,169;13403,625;   -0,562;   -0,045
862,730;13178,164;   -0,290;    1,409
863,291;13363,338;    0,438;   -0,500
863,852;13672,786;   -0,926;    1,955
864,412;13227,051;   -1,835;   -0,864
864,973;12006,953;    1,892;    0,500
865,534;11915,219;    2,074;    0,227
866,094;13179,211;    2,620;    0,227
866,655;12918,568;    4,711;    3,318
867,215;13186,197;    0,074;    0,136
867,776;13057,008;   -1,199;   -0,136
868,336;13110,365;    1,529;    0,136
868,897;12705,994;    3,438;    1,682
869,457;12462,714;    3,256;    0,318
870,017;12694,525;    2,438;   -1,227
870,578;13184,881;    1,893;    0,773
871,138;12813,056;    2,620;   -0,955
871,698;12431,594;   -0,562;   -1,318
872,258;12288,769;    0,711;   -2,864
872,818;12673,398;    2,347;    0,045
873,378;12657,391;   -2,198;    1,045
873,938;12246,747;    4,984;    0,500
874,498;12531,104;    1,256;   -1,955
875,058;12443,278;    4,347;    1,773
875,618;12312,453;    1,438;   -2,682
876,177;12244,627;   -0,471;    0,136
876,737;11897,075;   -0,289;    1,955
877,297;11947,886;    2,711;    1,955
877,856;11980,606;    2,529;    0,318
878,416;11948,599;    2,438;   -0,136
878,976;12119,955;    3,438;    0,409
879,535;12295,766;    4,529;    3,136
880,095;12104,032;    1,347;    0,045
880,654;12157,661;    0,347;    1,318
881,213;12262,745;    2,347;    1,500
881,773;11945,283;    1,984;    2,682
882,332;12257,548;    6,075;    5,136
882,891;12087,632;    0,711;    2,136
883,451;12491,352;   -2,016;    1,682
884,010;12013,072;   -1,107;   -0,409
884,569;12119,611;   -2,289;   -0,045
885,128;12225,967;   -0,743;   -1,864
885,687;12274,233;   -0,743;    0,682
886,246;12045,589;    2,620;    2,136
886,805;11823,218;    1,620;    2,045
887,364;12043,029;    1,166;   -0,500
887,922;12358,749;   -0,016;    0,045
888,481;11893,560;    1,530;    0,591
889,040;12156,553;    3,711;    2,136
889,599;12685,273;    2,166;    1,409
890,157;12784,448;    2,166;    2,409
890,716;12427,350;    2,166;    0,227
891,274;12288,797;    0,075;   -1,136
891,833;12628,790;    1,166;    0,864
892,391;12502,692;    1,802;    0,500
892,950;12539,957;    0,166;   -0,773
893,508;12899,586;    0,984;   -0,409
894,067;12313,397;   -0,379;    0,136
894,625;12268,027;   -1,016;   -1,500
895,183;12439,110;   -0,198;   -0,682
895,741;12358,467;    2,257;   -1,773
896,299;12230,096;    1,621;   -2,409
896,858;12346,089;    1,530;   -1,591
897,416;12477,718;    0,166;   -1,318
897,974;12283,802;   -2,197;    0,318
898,532;12433,885;    6,530;    2,682
899,089;12350,515;    0,621;   -0,682
899,647;12436,507;    0,530;    1,318
900,205;12227,955;    0,257;    1,045
900,763;12405,129;    2,166;    0,227
901,321;12409,486;    3,530;   -1,409
901,878;11897,479;    3,257;   -0,773
902,436;11790,290;    0,257;    1,318
902,994;12185,464;    6,712;    3,682
903,551;11683,912;    1,439;    0,409
904,109;12053,086;    1,530;   -1,409
904,666;11702,079;    1,439;    1,045
905,224;11551,436;    3,894;   -0,409
905,781;11387,156;   -0,470;   -0,318
906,338;11428,603;    0,167;    1,045
906,895;11406,959;    1,894;    2,045
907,453;11341,952;    2,348;    1,136
908,010;11365,400;    3,348;    0,409
908,567;11084,938;   -0,561;    0,591
909,124;10618,385;    2,439;   -1,500
909,681;10643,742;   -1,288;    0,682
910,238;10888,098;   -0,106;   -1,318
910,795;11179,091;   -1,561;   -1,136
911,352;10885,818;   -0,379;   -2,682
911,909;10389,909;    2,803;   -0,864
912,466;10808,182;    1,985;    1,500
913,022;10390,818;   -0,924;    0,500
913,579;10761,818;   -0,470;    2,045
914,136;10495,000;   -2,561;    0,955
914,692;10784,182;    1,530;   -1,227
915,249;10425,909;    0,530;    0,409
915,806;10640,636;    1,803;    1,955
916,362;10489,091;    0,894;    1,864
916,918;10047,273;    2,439;    1,045
917,475;10086,909;    1,621;    0,955
918,031;10150,909;    0,076;   -0,045
918,587; 9710,818;    0,621;   -0,318
919,144; 9960,091;   -0,379;    0,227
919,700;10167,000;    0,167;    0,773
920,256; 9808,455;    0,439;    0,045
920,812; 9516,818;    1,439;   -1,045
921,368; 9582,091;    1,348;   -1,045
921,924; 9234,091;    0,439;   -0,136
922,480; 8876,273;    0,076;    1,227
923,036; 9458,000;   -0,652;    1,955
923,592; 9421,000;    0,621;    0,318
924,148; 9371,818;    1,894;   -0,955
924,704; 8831,182;    0,258;   -0,409
925,259; 9095,818;   -0,561;    0,591
925,815; 8865,273;    3,803;    0,500
926,371; 8448,545;    3,530;    1,409
926,926; 8397,273;    1,621;    0,591
927,482; 8116,364;    1,621;    0,773
928,037; 8033,091;   -0,833;    2,045
928,593; 8328,091;    0,258;    1,045
929,148; 8177,364;    1,167;   -1,500
929,704; 7743,182;    2,439;   -0,500
930,259; 7948,909;    0,894;   -0,136
930,814; 7207,000;    1,803;    1,955
931,369; 6973,636;    0,258;   -0,773
931,925; 6905,182;   -1,924;    0,136
932,480; 6825,273;    3,076;   -2,591
933,035; 6793,909;    3,985;   -0,318
933,590; 6603,364;   -1,742;   -1,773
934,145; 6351,545;   -1,288;   -0,318
934,700; 6616,545;    0,348;   -0,591
935,255; 6488,182;    4,803;    0,045
935,809; 5980,364;    6,258;    0,864
936,364; 5272,909;    2,167;   -0,136
936,919; 5279,545;    2,348;   -1,773
937,474; 5232,273;    1,348;    0,136
938,028; 5052,818;    3,076;    1,136
938,583; 4722,909;    6,348;    4,682
939,138; 4930,727;    0,167;    2,136
939,692; 4470,000;   -1,015;   -1,136
940,247; 4268,000;    1,167;   -1,045
940,801; 3953,455;    0,621;    0,227
941,355; 3914,273;    0,439;    2,591
941,910; 3620,364;    0,712;   -2,136
942,464; 3728,909;    2,712;   -0,318
943,018; 3631,273;    3,258;   -0,227
943,572; 3569,545;    2,803;   -0,682
944,126; 3153,091;   -0,924;   -0,409
944,681; 3031,818;    0,712;    0,227
945,235; 3024,818;    2,167;   -0,591
945,789; 2959,364;    1,258;   -1,864
946,342; 3139,182;   -0,561;   -0,591
946,896; 2912,909;    0,348;    0,955
947,450; 2705,818;   -0,561;   -0,227
948,004; 2943,273;    1,076;   -0,045
948,558; 2908,455;    1,258;   -0,864
949,111; 2841,091;   -1,197;   -0,318
949,665; 2941,636;   -0,106;   -0,682
950,219; 2837,273;    0,621;   -1,045
950,772; 2874,818;    0,258;    1,864
951,326; 2798,727;   -1,106;   -0,955
951,879; 2838,455;    1,076;   -2,318
952,433; 2886,636;    1,348;    2,227
952,986; 2739,727;    0,348;    0,682
953,539; 2677,091;    1,530;    0,591
954,093; 2632,273;    0,985;   -1,318
954,646; 2768,091;   -0,288;    1,318
955,199; 2602,727;    1,258;   -0,500
955,752; 2579,091;    1,985;    1,773
956,305; 2496,000;    0,894;    2,955
956,858; 2638,364;    0,621;   -0,318
957,411; 2791,273;    3,621;    2,136
957,964; 2629,182;    2,076;    2,136
958,517; 2592,000;    0,985;    3,136
959,070; 2474,273;   -1,197;    1,955
959,623; 2624,818;    1,076;    1,500
960,176; 2440,636;    0,712;    2,045
960,728; 2412,818;    1,712;    0,773
961,281; 2455,727;    2,258;    0,500
961,834; 2460,455;   -0,833;    0,864
962,386; 2409,364;    1,258;    1,045
962,939; 2336,182;    3,439;   -0,318
963,491; 2443,000;    2,621;    1,136
964,043; 2347,909;    0,076;    2,409
964,596; 2465,182;    1,712;    2,227
965,148; 2317,818;   -0,379;    1,773
965,700; 2250,273;   -0,015;   -0,227
966,253; 2403,636;   -0,833;    0,318
966,805; 2274,364;    1,894;    0,773
967,357; 2290,000;    0,439;   -1,500
967,909; 2295,000;    1,167;   -1,227
968,461; 2325,727;    0,894;    3,136
969,013; 2262,364;   -1,561;   -0,864
969,565; 2354,818;    1,803;   -1,136
970,117; 2555,364;    3,803;    1,045
970,669; 2300,364;    3,258;   -0,136
971,220; 2131,455;    2,167;   -1,500
971,772; 2108,273;    1,348;   -0,318
972,324; 2223,727;   -1,197;   -0,500
972,876; 2146,818;    0,167;   -0,045
973,427; 2290,818;   -1,197;   -1,045
973,979; 2301,091;    0,076;   -2,500
974,530; 2241,818;    0,803;    1,318
975,082; 2258,000;    2,167;    1,682
975,633; 2172,545;    2,894;    1,682
976,184; 2333,182;    2,076;    0,773
976,736; 2193,091;    0,348;    0,227
977,287; 2032,364;    0,258;   -0,500
977,838; 2168,455;   -0,924;   -0,318
978,389; 2213,091;    0,803;   -0,500
978,940; 2059,818;    1,258;   -0,409
979,491; 2080,182;    2,258;   -0,500
980,042; 2092,545;   -0,652;    3,045
980,593; 2105,727;    1,894;    0,227
981,144; 2196,636;    3,530;   -0,500
981,695; 2212,727;   -0,470;    1,500
982,246; 2167,000;   -1,833;    1,045
982,797; 2206,091;   -0,561;    0,682
983,347; 2340,818;    2,167;    0,591
983,898; 2531,455;    4,167;    0,409
984,449; 2392,545;    2,530;    0,773
984,999; 2220,727;    1,894;   -1,136
985,550; 2071,636;    3,167;   -0,318
986,100; 2052,091;    0,712;   -0,318
986,651; 2083,455;    0,258;    0,045
987,201; 2093,545;    0,894;   -0,591
987,751; 2140,091;   -0,288;    2,864
988,302; 2150,364;   -0,379;    1,500
988,852; 2164,545;    1,985;   -1,136
989,402; 2238,818;    0,985;    0,682
989,952; 2188,182;    1,621;    0,864
990,502; 2196,364;    1,076;    0,682
991,052; 2122,455;   -0,106;    0,045
991,602; 2046,182;    1,167;    1,318
992,152; 2075,455;    2,803;    0,682
992,702; 2074,182;    1,167;   -0,045
993,252; 1989,545;    0,076;   -0,500
993,802; 2107,364;    1,167;    1,318
994,352; 2256,364;   -0,742;    1,136
994,901; 2280,636;    1,076;    3,227
995,451; 2218,727;   -1,197;    0,318
996,000; 2310,000;    1,076;    0,318
996,550; 2090,545;    2,894;    0,227
997,100; 2089,000;   -0,561;   -0,045
997,649; 2349,727;   -0,197;    0,955
998,198; 2042,909;   -0,288;   -1,500
998,748; 2225,545;    0,348;   -2,318
999,297; 2115,636;    0,985;   -0,409
999,846; 2206,545;    1,894;   -0,773
1000,395; 2208,455;    1,530;    0,500
1000,945; 2244,364;    1,076;   -0,773
1001,494; 2295,727;    0,167;    0,682
1002,043; 2257,455;    0,712;    0,864
1002,592; 2104,909;    3,439;    1,955
1003,141; 2222,091;    2,439;   -0,682
1003,690; 2145,091;    1,258;    0,500
1004,238; 2147,545;   -0,106;   -0,045
1004,787; 1862,273;   -1,288;    1,227
1005,336; 2130,182;    1,621;    0,682
1005,885; 2198,364;   -0,197;   -2,773
1006,433; 2267,455;   -0,470;    0,955
1006,982; 2427,909;    2,167;    1,682
1007,531; 2281,909;    2,712;   -0,227
1008,079; 2199,091;    0,258;    0,500
1008,627; 2293,636;    1,621;    0,409
1009,176; 2107,455;    0,076;   -1,955
1009,724; 2134,636;   -2,742;    0,864
1010,273; 2233,182;    1,076;    0,500
1010,821; 2286,636;    1,076;    1,409
1011,369; 2047,636;    0,076;    1,318
1011,917; 2043,364;   -0,833;   -0,591
1012,465; 2304,455;    2,530;   -1,591
1013,013; 2367,727;    0,439;   -1,682
1013,561; 2315,727;   -1,288;   -0,773
1014,109; 2399,091;   -0,833;    1,682
1014,657; 2262,182;    1,348;    0,591
1015,205; 2297,909;    0,894;   -0,955
1015,753; 2303,364;    0,258;   -1,409
1016,301; 2351,455;    2,621;    3,045
1016,848; 2355,091;    2,167;    0,409
1017,396; 2409,364;    1,621;    0,045
1017,944; 2496,818;    2,621;    1,864
1018,491; 2294,364;   -0,197;    1,409
1019,039; 2543,364;   -0,652;    0,591
1019,586; 2362,182;    0,076;    1,682
1020,134; 2417,727;    0,712;    1,500
1020,681; 2469,182;    2,894;   -1,136
1021,228; 2427,455;   -0,561;   -2,227
1021,776; 2302,364;   -0,833;   -1,136
1022,323; 2545,455;    0,803;    0,773
1022,870; 2463,364;   -0,470;   -0,045
1023,417; 2421,364;    2,076;    1,864
1023,964; 2469,364;    0,621;    1,227
1024,511; 2383,909;   -0,652;    0,773
1025,058; 2202,727;    0,439;   -0,045
1025,605; 2234,727;   -1,742;    3,136
1026,152; 2476,091;   -0,106;   -0,591
1026,699; 2220,273;    0,167;    1,318
1027,245; 2335,727;    2,439;    0,318
1027,792; 2473,545;    0,712;    1,409
1028,339; 2456,818;    4,076;   -0,045
1028,885; 2300,545;    3,621;   -0,227
1029,432; 2237,000;   -0,106;    0,227
1029,978; 2339,727;    1,348;   -1,591
1030,525; 2253,727;    1,621;    0,409
1031,071; 2397,000;    0,348;    1,136
1031,618; 2589,182;    1,258;    1,682
1032,164; 2350,273;    2,076;    3,045
1032,710; 2403,818;    0,076;   -1,500
1033,256; 2312,364;    0,712;   -0,136
1033,803; 2249,182;   -0,288;    1,500
1034,349; 2018,909;    1,803;    0,136
1034,895; 2164,182;    2,621;   -0,318
1035,441; 2161,000;    0,439;    0,318
1035,987; 2186,727;   -2,288;   -0,682
1036,533; 2214,727;   -0,197;   -0,955
1037,078; 2435,455;    4,712;    1,682
1037,624; 2251,000;    2,439;   -0,955
1038,170; 2207,818;    1,712;   -0,318
1038,716; 2194,455;    2,167;   -0,409
1039,261; 2067,273;    2,167;   -0,773
1039,807; 2037,909;   -0,015;    3,409
1040,352; 2127,182;   -1,288;   -0,318
1040,898; 2134,182;    0,167;   -0,682
1041,443; 2033,727;    0,803;   -2,591
1041,989; 2192,636;    3,621;    1,591
1042,534; 2013,273;    0,985;    2,591
1043,079; 2045,091;    1,985;    0,955
1043,625; 1916,273;    0,258;    0,500
1044,170; 1984,182;    2,439;    1,045
1044,715; 2251,273;    0,167;    0,955
1045,260; 2079,091;   -0,833;   -0,955
1045,805; 2058,909;    0,258;   -0,591
1046,350; 1995,273;    0,530;   -0,409
1046,895; 2052,909;    0,803;    1,591
1047,440; 2030,182;    1,530;    0,409
1047,985; 1885,636;   -1,197;   -0,955
1048,530; 1801,000;    1,348;    1,227
1049,074; 1891,273;    2,803;    0,318
1049,619; 1854,818;   -0,924;    1,955
1050,164; 1695,455;    1,076;    0,227
1050,708; 1760,091;    2,621;    0,045
1051,253; 2134,818;    3,258;   -2,227
1051,797; 1852,636;   -0,197;   -1,318
1052,342; 1787,091;    1,348;    1,045
1052,886; 1818,545;    1,803;   -1,409
1053,430; 1699,909;    2,167;    0,136
1053,975; 1728,727;    0,894;   -0,318
1054,519; 1719,909;    1,803;    3,227
1055,063; 1781,364;    3,621;    1,318
1055,607; 1700,909;    1,348;    0,227
1056,151; 1707,000;    0,530;    1,682
1056,695; 1589,091;   -1,833;   -1,136
1057,239; 1659,727;   -1,197;   -0,682
1057,783; 1680,455;    2,258;   -1,500
1058,327; 1682,727;    3,076;    1,409
1058,871; 1913,455;    3,985;    1,318
1059,415; 1635,636;   -0,561;   -0,045
1059,958; 1919,091;    2,985;    2,591
1060,502; 1629,636;    1,348;   -0,773
1061,046; 1494,909;    1,712;   -0,955
1061,589; 1472,545;    2,803;   -1,136
1062,133; 1369,909;    0,985;    1,864
1062,676; 1352,636;    1,439;    0,864
1063,220; 1372,364;    0,985;    0,500
1063,763; 1406,091;    2,985;    1,136
1064,306; 1485,909;    0,985;    1,864
1064,849; 1406,000;    2,076;    0,591
1065,393; 1394,727;    2,894;   -1,500
1065,936; 1459,182;    2,530;   -0,409
1066,479; 1331,182;    2,621;    1,318
1067,022; 1366,273;    1,894;   -0,227
1067,565; 1289,182;   -1,197;   -1,318
1068,108; 1298,545;    1,258;   -0,591
1068,651; 1277,364;   -2,470;    1,409
1069,194; 1227,182;   -1,106;   -1,682
1069,736; 1239,909;    3,803;    0,955
1070,279; 1207,273;   -1,652;   -0,500
1070,822; 1297,909;    1,530;   -0,318
1071,364; 1410,091;    0,530;    1,318
1071,907; 1220,455;    0,348;    3,227
1072,450; 1090,818;    0,258;   -0,045
1072,992; 1115,545;   -0,561;    3,136
1073,535; 1269,000;    0,167;    2,136
1074,077; 1060,182;    2,985;    2,045
1074,619; 1047,727;    0,985;    0,591
1075,161; 1089,545;   -0,561;    1,500
1075,704; 1269,273;    0,258;    1,227
1076,246; 1052,455;    1,530;    0,682
1076,788;  976,000;   -1,015;    1,773
1077,330; 1036,455;   -2,106;    2,136
1077,872; 1035,545;   -1,924;    0,955
1078,414; 1276,727;    3,712;    0,773
1078,956; 1027,636;    0,167;   -0,227
1079,498; 1285,364;    0,439;    0,318
1080,040; 1000,545;    0,985;   -1,318
1080,581;  936,364;    0,621;   -0,318
1081,123;  845,273;   -0,106;   -0,773
1081,665;  892,091;    3,803;   -0,955
1082,206; 1190,909;    3,258;   -0,500
1082,748; 1055,455;    3,258;    2,045
1083,289;  918,273;    0,167;    1,318
1083,831;  860,818;    0,258;    0,227
1084,372;  912,727;    0,894;    0,591
1084,913;  908,182;    3,348;    0,864
1085,455;  863,545;    1,530;   -2,045
1085,996;  857,545;    0,530;    0,136
1086,537;  895,909;    0,985;    0,864
1087,078;  911,182;    0,439;   -2,136
1087,619;  962,182;   -1,652;    0,227
1088,160;  885,273;    1,439;    1,318
1088,701;  859,000;   -0,742;    0,682
1089,242;  819,545;   -0,561;   -2,227
1089,783;  906,636;   -0,561;    1,409
1090,324;  884,455;   -0,833;    0,682
1090,865;  759,000;   -1,924;   -0,409
1091,405;  717,636;   -0,561;    2,227
1091,946;  765,727;   -0,197;   -0,955
1092,487;  673,909;   -1,288;   -1,409
1093,027;  852,636;    1,803;   -1,500
1093,568;  724,364;    2,258;    1,227
1094,108;  812,000;    0,621;    1,773
1094,649;  754,727;   -0,470;    0,136
1095,189;  691,727;    1,167;   -0,682
1095,729;  669,273;    0,712;    0,955
1096,269;  652,636;    1,258;   -0,955
1096,810;  955,364;   -0,197;    0,500
1097,350;  796,091;   -0,561;   -0,773
1097,890;  711,182;    2,985;    1,227
1098,430;  956,364;    4,985;    2,864
1098,970;  842,545;    1,894;    1,682
1099,510;  691,273;   -0,833;   -2,318
1100,050;  629,545;    0,258;   -1,591
1100,589;  608,545;    0,076;   -0,318
1101,129;  730,182;    0,894;   -0,955
1101,669;  880,636;    2,803;    2,136
1102,209;  705,273;    1,530;    2,227
1102,748;  664,091;    3,439;    0,955
1103,288;  650,182;    0,712;   -1,227
1103,827;  674,909;    3,530;   -2,227
1104,367;  570,182;    1,712;   -2,409
1104,906;  544,818;   -1,015;   -1,136
1105,445;  623,364;    0,985;   -1,136
1105,985;  571,727;   -0,652;    1,500
1106,524;  617,182;    1,530;   -0,682
1107,063;  591,364;    1,167;    1,409
1107,602;  553,091;    1,894;   -1,500
1108,141;  485,818;    1,621;    1,500
1108,680;  594,091;    3,985;   -0,591
1109,219;  533,273;    0,167;   -0,500
1109,758;  528,545;    4,167;    0,682
1110,297;  504,364;   -1,106;   -0,682
1110,836;  462,727;    1,439;    0,955
1111,375;  595,091;    0,348;    0,409
1111,913;  619,636;    0,985;    0,773
1112,452;  549,273;    0,894;    0,136
1112,991;  453,091;    1,076;    1,955
1113,529;  419,727;    0,167;   -0,045
1114,068;  496,636;    0,439;    2,955
1114,606;  404,455;   -0,561;   -0,955
1115,144;  559,273;    1,530;    1,045
1115,683;  490,091;    1,985;    0,318
1116,221;  543,091;    2,076;   -0,864
1116,759;  448,000;    1,621;   -0,864
1117,297;  633,091;    1,621;    1,864
1117,836;  451,000;    1,985;   -1,227
1118,374;  469,727;    0,258;   -0,682
1118,912;  418,545;    0,439;    2,682
1119,450;  408,455;    0,985;    0,864
1119,988;  455,545;    3,348;    2,136
1120,525;  889,182;    7,258;    3,318
1121,063;  612,000;    0,530;    1,864
1121,601;  433,545;    1,076;   -1,227
1122,139;  384,727;    1,076;   -2,045
1122,676;  585,091;   -1,652;    2,773
1123,214;  507,909;    0,712;    4,409
1123,751;  337,818;    0,621;    2,227
1124,289;  453,727;    0,894;   -0,409
1124,826;  342,091;   -0,379;    0,227
1125,364;  268,909;    0,712;   -0,955
1125,901;  449,727;    6,258;    1,227
1126,438;  544,000;    3,530;    0,955
1126,975;  299,364;    2,985;   -0,773
1127,513;  356,000;    2,621;    2,136
1128,050;  279,000;   -0,561;   -0,682
1128,587;  371,727;    1,348;   -0,227
1129,124;  408,455;   -0,015;    1,318
1129,661;  283,818;   -1,924;    0,227
1130,198;  434,455;    2,439;    0,773
1130,734;  384,273;   -0,379;    1,409
1131,271;  258,636;   -1,197;    0,864
1131,808;  418,364;    1,621;    3,045
1132,345;  299,909;    4,530;    0,318
1132,881;  182,091;   -0,561;   -1,864
1133,418;  313,364;    0,348;   -1,136
1133,954;  248,545;    0,712;   -2,682
1134,491;  324,455;    1,712;   -0,773
1135,027;  238,273;    2,167;    0,864
1135,564;  322,727;    1,439;    2,955
1136,100;  297,182;   -0,742;    2,136
1136,636;  203,273;   -1,015;   -1,045
1137,172;  278,818;    0,894;   -1,045
1137,708;  216,364;   -1,561;   -1,045
1138,245;  216,091;    0,803;   -1,227
1138,781;  182,909;    1,803;   -3,318
1139,317;  246,727;    1,894;   -1,409
1139,852;  239,364;    3,076;    0,136
1140,388;  332,818;    2,076;   -0,409
1140,924;  232,636;    1,076;   -2,227
1141,460;  177,000;   -0,288;    0,136
1141,996;  119,636;   -0,652;    2,682
1142,531;  165,182;    1,076;    3,318
1143,067;  355,364;    1,167;    1,045
1143,602;  407,273;    3,439;   -0,318
1144,138;  265,909;    0,803;    1,045
1144,673;  155,364;    1,621;    1,409
1145,209;  210,182;    2,894;   -0,318
1145,744;  142,909;    0,803;    0,864
1146,279;  258,545;    1,530;   -0,136
1146,815;  183,182;    1,530;   -2,682
1147,350;  223,000;   -0,924;    0,045
1147,885;  153,000;   -1,924;   -1,318
1148,420;  142,545;    2,439;    0,773
1148,955;  127,091;   -1,470;    1,864
1149,490;  150,545;   -1,106;   -1,591
1150,025;  133,182;   -1,106;   -1,773
1150,560;  246,455;   -0,288;   -0,955
1151,094;  209,727;    0,258;   -0,591
1151,629;  208,273;   -3,742;    0,864
1152,164;  141,455;   -1,288;    1,318
1152,698;  114,455;    1,258;   -0,136
1153,233;   73,909;   -1,379;   -0,682
1153,767;  112,182;   -0,288;   -2,318
1154,302;  164,455;   -0,379;    1,773
1154,836;  159,818;    0,803;   -2,136
1155,371;  207,273;    2,258;    3,682
1155,905;  163,727;    1,985;    1,682
1156,439;  138,273;    0,530;   -0,500
1156,973;  162,091;    0,439;    0,318
1157,507;  105,545;   -1,742;    0,682
1158,042;  130,273;   -0,652;    1,045
1158,576;  170,909;   -0,561;    1,773
1159,110;  169,000;    0,076;    2,409
1159,643;  135,455;   -2,470;   -0,045
1160,177;   86,000;   -2,015;    1,500

