
Integration time [ms]:   0,050
Averaging Nr. [scans]: 11
Smoothing Nr. [pixels]: 0
Data measured with spectrometer [name]: 7318044SP
Wave   ;Sample   ;Dark     ;Reference
[nm]   ;[counts] ;[counts] ;[counts] 

186,757;  -27,261;   38,161;    1,318
187,357;   -2,326;   26,706;    0,955
187,958;  -10,798;   17,252;   -1,591
188,558;   21,277;   12,979;   -1,227
189,159;   -1,497;   10,070;   -4,500
189,759;  -29,623;    5,797;   -3,591
190,360;  -28,717;    6,797;   -2,136
190,960;   -8,513;    5,706;   -4,136
191,560;   -3,285;    2,614;   -6,591
192,161;  176,929;    5,885;   -3,500
192,761;   50,700;    5,520;   -3,227
193,361;    6,664;    3,065;   -3,773
193,962;   47,541;    1,612;   -2,682
194,562;   -9,788;   -0,114;   -3,955
195,162;   -6,791;   -0,567;   -2,227
195,762;   96,360;    2,433;   -0,045
196,362;   57,584;    1,706;   -2,500
196,963;  -14,051;    1,706;   -0,864
197,563;   25,917;    1,252;   -0,955
198,163;  -12,563;   -0,111;   -0,682
198,763;   -0,138;   -0,020;   -0,500
199,363;   37,478;    3,616;   -0,500
199,963;   16,501;    2,162;    0,409
200,563;   -2,603;    6,344;   -1,409
201,163;  -11,697;    5,435;   -0,227
201,763;    9,285;    1,435;    0,318
202,363;   -9,350;    0,980;    1,500
202,963;   17,770;    1,526;    1,045
203,563;   57,307;    0,344;    0,500
204,162;   -1,587;    1,889;   -1,864
204,762;    2,384;    2,071;    0,591
205,362;  -15,981;    0,708;    1,955
205,962;    8,300;    3,435;    1,955
206,562;    3,018;    1,889;    2,318
207,161;  -15,609;    1,708;    0,318
207,761;   57,050;    4,435;    2,409
208,361;    0,692;    1,889;    1,409
208,960;   13,609;    2,889;    1,500
209,560;   14,122;    0,435;    1,591
210,160;   14,163;    5,071;    1,864
210,759;    6,159;    0,708;    1,227
211,359;   -8,734;   -0,474;    1,045
211,958;   74,719;    3,526;    2,045
212,558;   80,243;    0,799;    1,864
213,157;   31,289;   -0,929;    1,500
213,757;  146,106;    5,617;   -0,227
214,356;   39,626;    1,708;   -0,409
214,956;  115,582;    3,526;    0,409
215,555;   27,760;    0,617;    2,136
216,154;   -1,754;   -0,292;   -0,591
216,754;   -4,398;    1,253;    0,773
217,353;    3,769;   -0,383;   -1,045
217,952;  -25,924;    2,072;    0,318
218,552;   21,261;    0,254;   -0,773
219,151;   -3,028;   -1,110;    0,955
219,750;  -10,716;    0,890;   -0,227
220,349;  -16,934;   -2,292;    1,045
220,948;   32,025;    1,163;    1,136
221,548;   -3,124;    0,617;    1,227
222,147;    0,708;   -1,292;   -0,409
222,746;   57,923;    1,254;   -0,955
223,345;   14,123;   -1,019;    0,500
223,944;   11,478;    1,163;    0,773
224,543;   19,614;    4,072;   -1,409
225,142;    5,526;    1,345;    0,136
225,741;    8,835;    1,163;    1,045
226,340;    9,248;    1,254;   -0,955
226,939;   53,428;    2,708;   -0,136
227,538;   -1,780;    1,163;   -0,773
228,137;   55,459;    0,435;    0,864
228,735;   31,365;    0,435;    1,227
229,334;  -22,915;   -0,474;   -0,227
229,933;   56,700;    0,799;    0,591
230,532;   45,385;   -1,201;   -0,409
231,131;   81,024;    1,253;    0,318
231,729;   21,955;    1,163;   -2,318
232,328;   -1,723;    0,435;   -1,500
232,927;    8,244;    4,526;   -0,500
233,525;   10,243;    0,981;    0,045
234,124;   13,990;    1,890;   -1,591
234,723;   -5,527;    1,617;   -1,045
235,321;  -11,047;    1,163;    0,136
235,920;   -6,496;    2,526;   -1,227
236,518;   51,984;    1,072;    0,318
237,117;   -2,879;    2,890;   -0,227
237,715;   11,239;    1,163;   -0,500
238,314;   13,486;    1,708;   -2,318
238,912;   59,245;    0,526;   -1,409
239,510;   22,867;    1,162;   -1,227
240,109;   67,156;   -0,474;    3,773
240,707;   48,415;   -0,474;    1,227
241,305;  -10,256;   -0,383;    0,136
241,904;   18,108;   -0,292;   -2,045
242,502;   80,210;    3,253;   -0,227
243,100;   33,322;    3,344;   -0,955
243,698;    0,804;    2,799;    1,682
244,297;    3,725;   -0,656;    0,682
244,895;    3,582;   -0,474;   -2,318
245,493;   60,132;    2,981;   -0,591
246,091;   70,177;    5,163;   -1,318
246,689;   29,901;    2,163;    0,591
247,287;   27,320;   -0,019;   -1,136
247,885;   13,937;   -1,019;    1,227
248,483;   -3,442;   -0,201;   -0,500
249,081;   29,973;    0,981;    1,591
249,679;   32,172;   -1,019;    1,682
250,277;   -0,088;   -2,292;    0,864
250,875;   25,599;    0,617;   -1,045
251,473;   -2,935;   -0,019;    0,500
252,071;   34,739;   -0,383;    1,045
252,669;   13,387;   -1,565;    0,318
253,267;   -7,946;    1,618;    0,773
253,864;    2,047;    0,617;    0,682
254,462;   44,653;    1,526;    1,591
255,060;   -1,910;    0,072;    1,318
255,658;   -6,795;   -3,292;   -0,136
256,255;    5,498;   -0,201;   -2,045
256,853;   24,118;    2,345;    1,409
257,451;    1,943;    1,981;    1,864
258,048;  144,198;    2,072;    1,864
258,646;   56,013;    0,436;   -1,045
259,243;   80,664;    2,981;    2,227
259,841;   39,177;    1,799;    0,318
260,438;    5,363;    0,254;    0,864
261,036;   27,487;    0,617;    1,409
261,633;    1,303;    1,526;    2,227
262,231;   -7,501;   -0,110;   -0,045
262,828;  -20,083;   -0,383;    1,136
263,425;  -12,719;   -1,928;   -0,591
264,023;   -8,001;    1,436;    0,045
264,620;   33,824;    1,526;   -0,318
265,217;   70,209;    2,890;    3,136
265,815;   12,148;    2,527;    2,136
266,412;   25,034;    0,072;    0,136
267,009;   18,575;    0,526;    0,773
267,606;   51,013;    0,345;   -0,955
268,203;    1,533;   -0,383;   -0,591
268,801;    4,870;   -0,474;    0,591
269,398;  -10,567;   -0,564;    2,500
269,995;   21,553;    0,890;    1,591
270,592;   13,662;    0,799;   -0,500
271,189;   -5,081;    1,981;    0,409
271,786;  -14,138;    2,072;    1,227
272,383;   28,040;   -0,383;    0,227
272,980;    5,187;    1,617;    0,318
273,577;   -4,381;    2,162;    1,227
274,174;   -8,244;    1,435;    2,591
274,771;   24,842;    1,890;   -0,773
275,367;  150,252;    3,253;    1,409
275,964;   63,539;   -0,565;   -0,500
276,561;    9,216;   -2,474;   -1,045
277,158;  -21,010;    1,799;   -1,773
277,755;   51,973;   -0,110;    0,409
278,351;   27,282;    0,436;   -1,500
278,948;   44,756;   -0,201;    0,045
279,545;   29,745;    0,527;    2,318
280,141;   62,292;    1,254;   -2,045
280,738;   70,380;    2,435;   -0,136
281,334;    9,433;   -0,383;    0,591
281,931;   -4,753;    2,890;   -1,318
282,528;   39,988;    4,072;   -0,500
283,124;   56,290;    3,345;   -0,500
283,721;   48,778;    0,709;    1,409
284,317;   16,404;    0,163;    2,500
284,913;   56,844;   -0,110;    0,591
285,510;  111,481;    2,890;   -0,318
286,106;   70,494;    2,345;   -0,955
286,703;   34,987;    0,072;    1,955
287,299;    3,996;    1,254;   -0,591
287,895;    1,583;    0,890;   -1,045
288,491;   -5,476;    0,163;    2,136
289,088;   24,707;    0,163;    2,409
289,684;   29,569;    2,890;    1,500
290,280;   71,827;    1,890;    0,682
290,876;   49,244;    0,163;    5,500
291,472;   42,476;    2,163;    2,227
292,068;   52,956;    1,254;    0,227
292,665;   13,632;   -0,564;    0,773
293,261;   -4,437;   -1,292;    2,136
293,857;   37,002;    4,072;    2,136
294,453;   12,788;   -0,928;    0,955
295,049;   79,928;    0,253;    1,955
295,644;   35,178;   -1,292;    0,136
296,240;    1,722;    0,162;   -0,136
296,836;   20,462;   -0,747;    0,318
297,432;   40,156;    2,980;   -0,500
298,028;   41,129;    0,435;    0,773
298,624;   22,018;    0,889;    1,864
299,220;   23,682;    0,435;    0,591
299,815;   11,515;    0,526;   -0,409
300,411;   35,382;    0,435;    1,773
301,007;   57,391;    1,889;    0,227
301,602;   15,983;    2,071;   -2,318
302,198;   55,628;    1,435;   -0,773
302,794;   20,003;    1,526;   -0,500
303,389;  -10,532;    1,071;    1,045
303,985;   -3,825;    1,253;    1,409
304,580;   54,000;    0,889;    1,591
305,176;   15,714;    0,344;    0,136
305,771;  -27,495;   -0,929;   -1,227
306,367;  119,135;    3,071;    0,136
306,962;   37,528;    2,889;    1,500
307,558;   56,193;    2,435;    0,136
308,153;   33,263;   -0,383;   -1,136
308,748;   -4,790;    0,162;    1,682
309,344;  102,530;    0,253;   -1,318
309,939;   87,529;    2,071;   -1,318
310,534;   13,939;   -2,020;   -1,682
311,130;    9,641;   -0,656;   -2,500
311,725;    0,124;    0,526;   -0,500
312,320;    9,322;    1,253;    0,045
312,915;   36,124;    2,890;   -1,045
313,510;  111,704;    0,526;   -0,500
314,105;   20,314;   -3,565;    1,409
314,700;  -11,294;   -1,656;   -1,045
315,295;    9,545;   -0,020;    0,045
315,890;   -5,933;   -0,292;    0,864
316,485;   21,767;    0,253;   -0,318
317,080;   -7,465;   -0,929;    1,591
317,675;   97,598;    3,071;   -0,682
318,270;  192,555;    6,889;    3,318
318,865;  122,824;    2,435;    3,045
319,460;   62,770;   -1,565;    0,591
320,055;   10,124;   -2,565;   -1,227
320,650;    7,802;   -1,838;   -0,591
321,244;   14,323;    0,889;   -1,409
321,839;   15,353;    0,980;   -0,227
322,434;   20,959;   -0,111;   -1,591
323,029;    3,604;   -0,474;    1,591
323,623;   -1,062;    0,798;    0,773
324,218;   72,124;    2,707;    1,409
324,812;   43,007;    0,889;    1,591
325,407;   23,588;   -0,929;    2,045
326,002;   89,291;    0,526;   -0,409
326,596;   58,968;   -0,656;    1,318
327,191;    4,455;   -0,383;   -1,045
327,785;   10,695;   -0,747;   -0,227
328,379;    1,123;   -0,383;    0,136
328,974;   12,154;    1,798;   -3,955
329,568;   26,042;    2,889;   -2,409
330,163;   58,461;    2,435;    1,045
330,757;    5,383;    0,253;    1,591
331,351;   -9,625;   -0,292;    0,682
331,945;  -12,091;   -0,383;    1,409
332,540;   19,288;    1,617;   -0,591
333,134;   16,358;    3,344;    0,773
333,728;   23,529;    2,799;    0,318
334,322;   -2,944;    0,889;   -0,864
334,916;   -3,907;    0,344;    0,955
335,510;   47,036;   -0,111;   -0,136
336,105;   25,636;   -0,929;    1,591
336,699;   -6,883;   -1,292;    0,591
337,293;   11,236;    1,071;    0,318
337,887;   -1,465;    0,071;    1,955
338,481;   30,225;    2,980;    0,591
339,074;   74,908;    2,071;    2,682
339,668;   52,404;   -0,110;    1,227
340,262;  292,030;    7,708;    3,227
340,856;  117,825;    1,708;   -0,682
341,450;    7,643;    0,708;    1,864
342,044;   32,600;    1,799;    0,136
342,637;   68,065;    1,162;   -2,136
343,231;   22,460;   -1,474;    0,682
343,825;   12,658;   -0,747;   -0,591
344,419;   14,748;   -0,474;    0,500
345,012;  240,293;    2,889;    4,045
345,606;  134,331;   -0,656;    1,591
346,199;   22,498;   -0,111;   -0,227
346,793;   59,631;    2,525;    2,045
347,386;    9,335;    0,889;   -1,136
347,980;  -22,562;   -0,838;   -0,045
348,573;    2,258;   -1,748;    0,409
349,167;  142,708;    6,161;    4,773
349,760;   58,292;    2,252;    2,682
350,354;   42,611;    1,616;    1,136
350,947;   66,081;    2,798;    1,682
351,540;   17,742;    0,616;   -1,409
352,134;  -15,767;   -1,111;    1,136
352,727;   -8,126;   -0,657;    1,136
353,320;    3,828;    2,343;    0,591
353,913;  -24,392;   -1,929;    1,864
354,507;   40,353;    0,434;   -1,227
355,100;    3,786;    0,071;    0,864
355,693;  186,836;    4,798;    2,409
356,286;   82,957;    0,980;    2,773
356,879;   17,027;   -0,475;    1,227
357,472;   16,796;    0,980;    1,500
358,065;   27,980;    3,161;    2,500
358,658;  -15,795;    0,798;    2,318
359,251;  -14,788;    0,252;   -0,591
359,844;   41,879;    0,343;   -1,136
360,437;   68,307;    0,252;    0,045
361,030;    6,362;    0,525;   -0,682
361,623;   14,116;    0,434;    0,318
362,215;  105,456;    0,979;    2,045
362,808;   21,386;   -2,293;   -1,682
363,401;   -0,490;    0,798;    0,136
363,994;  101,174;    3,252;   -1,500
364,586;   21,193;    0,888;   -1,500
365,179;    2,161;   -0,203;   -1,136
365,772;  -41,720;   -0,930;    2,045
366,364;    7,955;    1,524;   -3,227
366,957;   19,610;    1,342;   -0,045
367,549;    7,144;   -0,203;   -0,864
368,142;   11,237;    0,978;   -1,500
368,734;   -2,365;    2,523;   -2,136
369,327;  -25,978;    2,341;   -0,500
369,919;    0,510;   -1,659;    0,409
370,512;    5,461;   -1,023;   -0,500
371,104;  152,578;    2,704;    1,591
371,696;  167,883;    1,703;   -0,955
372,289;   77,900;    0,157;    1,136
372,881;   43,102;    1,156;    1,318
373,473;  -15,229;    4,064;    1,136
374,066;   41,788;    1,336;    0,500
374,658;   19,885;    0,879;    1,136
375,250;  -24,160;   -1,668;   -1,409
375,842;    4,237;   -0,124;   -0,045
376,434;  -30,576;   -2,762;   -0,409
377,026;  -51,432;   -1,855;   -2,500
377,618;  -13,036;    0,779;   -0,682
378,210;  -66,082;    3,141;   -1,955
378,802;  -73,316;    3,412;   -0,591
379,394;  257,795;    3,411;    0,682
379,986;   51,960;    1,138;   -0,955
380,578;  -33,353;    1,410;    0,773
381,170;  172,751;    0,320;    0,045
381,762;  105,574;   -0,224;    1,409
382,354;   73,313;   -0,223;   -1,318
382,945;   -0,361;    0,870;    0,318
383,537;  -23,267;    1,144;   -1,955
384,129;  -31,054;    0,963;   -1,136
384,721;   67,027;    0,418;    0,955
385,312;   21,015;   -1,399;   -0,955
385,904;   75,240;   -0,945;    1,591
386,496;   16,301;    0,691;    1,045
387,087;  129,266;    0,418;    2,500
387,679;   61,435;   -0,401;    0,045
388,270;   42,263;   -2,401;    2,045
388,862;   20,169;   -0,401;   -0,318
389,453;    2,588;    1,054;    1,045
390,045;   -3,443;    3,236;   -2,682
390,636;  -75,571;    0,144;   -0,591
391,227;  -22,814;    2,054;   -0,045
391,819;  -46,662;    0,781;    0,773
392,410;  158,119;    0,600;    0,045
393,001;    5,585;    1,600;   -1,591
393,593;   45,670;    0,600;   -0,045
394,184;   85,501;    0,873;   -0,409
394,775;  -12,464;    1,146;    2,136
395,366;  -75,260;    1,782;    0,773
395,957;   59,794;   -2,400;    0,136
396,548;  -21,932;    1,054;    2,682
397,139;   69,653;    2,236;    0,591
397,730;    0,156;    0,873;    0,955
398,321;   12,151;    0,509;    0,955
398,912;  -41,153;   -0,764;    0,136
399,503;  -39,765;   -1,945;   -1,409
400,094;    3,687;   -1,582;    1,682
400,685;   -6,832;    3,600;    0,045
401,276;  -38,769;   -0,400;   -0,955
401,867;  -59,520;   -1,127;    0,773
402,458;  -98,717;    1,509;   -2,318
403,048;   15,323;    0,146;    0,591
403,639;  -26,605;    1,509;    0,864
404,230;   60,634;    0,691;    0,318
404,821;  100,599;   -0,127;    0,045
405,411;   39,240;   -0,763;   -2,591
406,002;  -32,456;    3,237;   -1,136
406,592;  152,269;    2,691;    0,045
407,183;   40,418;    0,328;   -1,500
407,774;   24,795;    1,419;   -0,136
408,364;  -14,087;    2,600;    0,409
408,954;   69,375;   -0,036;    1,227
409,545;   67,274;    1,873;    1,045
410,135;   43,010;   -1,581;    0,500
410,726;   -2,054;    0,783;    0,318
411,316;  147,605;    2,237;    0,773
411,906;   25,351;    0,146;   -0,409
412,497;   24,705;   -0,490;   -0,045
413,087;  -14,588;    0,783;   -0,227
413,677;  -59,840;   -2,490;    3,864
414,267;  -63,250;   -1,035;    1,409
414,857;  -82,865;    0,419;    4,227
415,448;  -81,357;   -0,763;    0,500
416,038;  -52,308;   -2,945;   -0,591
416,628;  -22,487;    0,965;    0,409
417,218;   24,895;   -1,762;    3,318
417,808;  148,552;    0,965;   -0,409
418,398;   46,769;   -1,035;    2,682
418,988;  -40,881;   -2,217;    0,591
419,578;   27,513;    3,601;    1,409
420,168;  -24,551;    0,692;   -0,955
420,757;   85,129;    0,964;   -1,500
421,347;   -5,075;    1,601;   -0,227
421,937;  -28,145;    3,329;    1,409
422,527;   84,083;    2,602;   -0,773
423,116;  204,161;    2,692;   -0,045
423,706;  -20,370;    2,965;    0,318
424,296;  -55,650;    1,601;    0,682
424,885;   43,896;    1,510;   -3,045
425,475;   20,313;    1,147;   -2,864
426,065;  -64,845;   -1,489;   -0,318
426,654;  -77,363;    0,329;   -0,318
427,244;  139,086;    1,147;    1,409
427,833;  106,788;    1,056;   -0,500
428,423;   -1,070;    0,147;    1,136
429,012;    9,208;    2,420;   -1,136
429,601;  112,562;    2,057;    0,136
430,191;   13,865;    2,511;    4,318
430,780;  -64,640;   -1,671;   -0,409
431,369;   88,566;    1,329;   -0,045
431,959;    2,888;    1,693;    0,500
432,548;  -44,798;   -1,398;   -0,045
433,137;  -90,937;    0,329;   -1,318
433,726;  -39,332;    0,148;    0,500
434,315;  -19,968;    0,148;    2,409
434,905;   71,388;    0,693;    1,409
435,494;   59,348;    3,148;    0,955
436,083;  -44,164;    1,420;   -0,955
436,672;   36,697;    1,148;    0,500
437,261;   -1,166;    0,512;   -1,955
437,850;  176,677;   -1,125;    0,682
438,439;  225,686;    2,239;    1,955
439,027;  328,169;    3,421;    1,773
439,616;  240,999;    2,239;    1,227
440,205;   50,627;    0,057;   -2,136
440,794;    9,380;   -0,306;   -0,045
441,383;  -35,471;    1,603;   -0,591
441,971;  -55,122;   -0,306;    0,591
442,560;  -45,369;    0,603;   -1,773
443,149; -122,242;    3,060;   -1,318
443,737;  -80,703;    0,968;   -2,318
444,326;  -59,085;    0,331;    0,318
444,915;  -16,072;   -1,851;    0,864
445,503;  -16,747;    0,058;   -0,318
446,092;  212,100;    7,876;    2,136
446,680;  157,517;    1,876;    0,318
447,269;   63,881;   -1,487;   -0,318
447,857;   42,316;    2,240;   -1,773
448,445;   10,099;    2,149;    1,318
449,034;  -35,981;    0,876;   -1,136
449,622;  -26,432;    1,240;    3,500
450,210;  209,993;    3,149;    2,227
450,799;  136,837;    2,604;   -0,591
451,387;   94,987;    1,786;   -0,591
451,975;   82,221;   -1,305;    0,864
452,563;  144,853;    0,422;    2,318
453,151;    6,956;   -1,032;   -1,227
453,739;   35,525;   -1,577;    0,136
454,328;  122,174;    0,604;   -2,136
454,916;   75,172;    1,150;   -0,136
455,504;   87,241;    3,513;    1,227
456,092;   -9,683;    2,150;   -1,591
456,679;  -38,795;    0,604;    0,682
457,267;  328,368;    3,604;    1,045
457,855;   51,379;    3,241;    1,409
458,443;  -74,627;   -0,304;    1,682
459,031;   43,502;    1,332;    2,409
459,619;   16,697;   -3,577;    2,864
460,206;  -48,967;   -0,759;    2,045
460,794;  -55,795;   -0,668;   -0,227
461,382;  -21,384;    0,878;   -0,864
461,970;  -17,720;    0,605;    1,864
462,557;  -62,695;    0,878;   -0,682
463,145;   29,507;   -0,304;   -1,682
463,732;  238,348;    2,514;   -1,045
464,320;   40,829;    1,514;   -3,045
464,907;  159,583;    0,423;   -0,773
465,495;   86,541;    2,696;   -1,227
466,082;   20,759;    2,060;   -0,045
466,670;   33,046;    2,605;    1,227
467,257;  -47,464;    0,060;    2,045
467,844;   40,417;    1,514;    0,045
468,432;   15,463;   -0,031;    3,500
469,019;  -18,469;    1,606;   -1,773
469,606;   57,079;    0,969;    3,682
470,193;   81,540;    2,151;    0,227
470,780;   40,041;    0,333;    0,864
471,368;  -26,772;   -1,212;   -0,773
471,955;   60,559;    1,060;   -0,682
472,542;   31,774;   -0,303;   -1,136
473,129;  -52,814;   -0,485;    0,136
473,716;  -40,144;    0,060;    0,591
474,303;  -19,864;    1,333;   -0,864
474,890;  -16,847;    2,333;   -0,500
475,477;   73,168;   -0,576;    0,409
476,064;   -4,001;    0,697;   -1,591
476,650;   89,815;    2,152;    0,318
477,237;    8,088;    1,879;    0,955
477,824;   -1,041;    3,879;    0,864
478,411;  -67,055;    0,606;   -0,318
478,997;  -76,883;    0,606;   -0,773
479,584; -117,989;   -0,666;   -0,409
480,171;   29,968;    1,243;   -0,773
480,757;   68,369;   -0,848;    0,773
481,344;  -19,602;    0,334;    0,409
481,931;  -84,708;   -0,393;    1,045
482,517;   16,171;    0,425;    0,318
483,104;   87,070;    1,334;    2,864
483,690;  -10,192;    0,243;    0,045
484,276;  -39,900;    0,698;    0,227
484,863;  128,054;    2,152;    1,136
485,449;    0,891;    0,152;    0,318
486,035;  -29,881;   -0,666;   -0,136
486,622;   48,317;   -2,393;    0,045
487,208;  -19,665;    1,334;    1,500
487,794;  -76,475;    0,971;    0,318
488,380;  -76,265;    0,698;   -1,409
488,967;  -84,944;   -1,120;   -0,409
489,553;  -65,151;   -1,029;   -1,409
490,139;   -1,812;    0,971;    0,773
490,725;  -61,158;    0,789;   -0,227
491,311;  -31,298;    1,516;    3,045
491,897;  -46,924;   -0,665;    1,500
492,483;  -36,409;    0,426;    1,227
493,069;  355,514;    5,426;    0,864
493,655;   96,431;    1,789;    0,682
494,241;   -8,982;    1,517;   -0,955
494,826;   -1,246;    0,335;   -1,045
495,412;   49,240;    0,335;   -0,682
495,998;  -23,033;    0,971;   -0,318
496,584;   22,134;    2,244;    1,045
497,169;   36,233;    2,335;   -0,682
497,755;  -16,216;    1,244;    1,227
498,341;   91,957;    2,153;    0,318
498,926;  197,255;    2,881;    1,955
499,512;  -26,523;   -0,028;    2,955
500,097;  -30,826;   -0,574;   -0,318
500,683;  -10,960;   -0,028;    2,136
501,268;  -50,557;    1,881;   -0,955
501,854;  -21,092;   -0,119;    1,227
502,439;  -35,447;   -0,573;   -1,773
503,024;  -23,731;    1,608;    0,500
503,610;    0,017;    1,335;   -0,682
504,195;  -38,821;    1,245;    1,955
504,780;   37,639;    2,335;    1,227
505,366;  101,799;    4,063;    2,864
505,951;   43,066;   -1,119;    1,045
506,536;  -11,924;    1,427;   -3,682
507,121;   25,246;    1,699;   -0,318
507,706;   -9,107;   -0,392;    1,045
508,291;  -44,385;   -2,937;    1,136
508,876;  -59,158;   -0,482;    2,591
509,461;  -20,324;    1,427;   -0,773
510,046;   15,966;   -0,391;    0,318
510,631;   13,724;   -0,119;   -0,773
511,216;  -33,531;   -0,664;   -0,500
511,801;    5,146;   -0,755;    2,591
512,386;   13,448;    0,972;    0,500
512,971;   22,730;    0,427;    0,955
513,555;   46,812;    1,154;   -1,500
514,140;   17,505;    1,336;   -3,136
514,725;  108,497;    1,791;   -1,136
515,309;   40,112;    1,064;    0,318
515,894;  -23,287;   -0,300;   -2,227
516,479;   -2,615;    1,973;   -0,955
517,063;   -2,465;    0,882;    1,227
517,648;  -24,815;    0,155;   -1,136
518,232;  -57,336;   -1,300;   -1,409
518,817;    7,094;    1,337;    1,682
519,401;   82,859;    0,700;    0,591
519,985;   66,740;    2,700;    1,136
520,570;  -14,073;   -0,118;   -1,955
521,154;   47,763;    0,064;    0,591
521,738;  149,772;    1,064;    2,409
522,323;   51,651;   -0,390;    1,682
522,907;   62,093;    2,428;   -0,136
523,491;   15,013;    1,155;    0,955
524,075;    8,261;    0,428;    0,591
524,659;  168,051;    0,973;    0,591
525,243;  146,733;    0,883;    0,409
525,827;  135,324;    0,883;   -0,045
526,411;  183,141;    1,155;   -0,136
526,995;  329,146;    0,337;    1,409
527,579;  462,641;    1,974;   -1,045
528,163;  467,911;    0,428;   -1,500
528,747;  700,257;    1,065;   -0,773
529,331;  747,271;    0,883;   -1,409
529,915;  664,950;    2,338;    0,955
530,499;  930,282;    0,247;    1,227
531,082; 1241,088;    1,065;    1,591
531,666; 1461,399;    0,520;    0,773
532,250; 1618,233;    0,428;    2,682
532,833; 2013,077;    0,610;    2,773
533,417; 2088,479;    1,247;    0,864
534,001; 2403,124;    0,429;   -0,318
534,584; 2882,139;    1,974;    0,500
535,168; 3070,041;    3,247;    1,409
535,751; 3649,070;    4,520;    0,045
536,334; 3625,193;    4,520;   -0,409
536,918; 4378,123;    1,974;    1,591
537,501; 4756,900;    1,520;    1,318
538,085; 5189,743;    1,702;    1,045
538,668; 5582,992;    0,883;    2,409
539,251; 6312,513;    3,156;    3,773
539,834; 6740,862;    0,156;    0,773
540,418; 7127,903;    3,247;    4,318
541,001; 7569,752;    2,702;    1,773
541,584; 7930,615;    1,429;    2,227
542,167; 8042,676;    0,702;    2,955
542,750; 8445,103;    0,793;   -0,773
543,333; 8403,461;    1,429;    2,136
543,916; 9390,687;   -0,298;    2,500
544,499;10114,419;    2,520;    0,227
545,082;10433,852;    0,248;    3,591
545,665;10859,219;   -0,207;    1,500
546,248;11353,734;    0,520;   -0,318
546,830;11336,958;   -1,752;    1,955
547,413;11962,281;    0,157;   -0,773
547,996;12663,750;    0,157;    0,500
548,579;12642,870;   -0,843;    0,955
549,161;12683,395;    0,884;    2,682
549,744;12681,605;    0,612;    0,409
550,326;13360,158;    0,885;   -1,136
550,909;13308,176;    2,339;    0,591
551,492;13842,955;    0,521;    0,227
552,074;13825,782;   -0,024;   -1,318
552,657;14516,845;    2,430;    0,045
553,239;14480,317;   -3,024;   -0,773
553,821;14526,700;   -1,570;    1,045
554,404;14135,810;   -0,024;    1,136
554,986;14628,943;    2,248;    1,045
555,568;15293,779;    0,430;   -0,955
556,151;14669,028;    4,067;   -0,227
556,733;14963,653;   -1,388;   -0,864
557,315;15536,130;    4,703;    0,500
557,897;15363,085;    0,521;   -0,500
558,479;15594,214;    1,703;    1,318
559,061;15796,048;    1,067;   -0,864
559,643;16195,331;   -0,297;    0,045
560,225;16593,577;   -0,388;    2,864
560,807;16706,331;    0,340;    0,318
561,389;16361,411;   -1,206;    2,318
561,971;17059,365;   -0,660;    2,136
562,553;16938,356;    0,613;    1,591
563,135;17140,741;    1,249;    1,136
563,717;16797,524;    3,158;    1,136
564,298;17474,045;    3,976;   -0,045
564,880;17259,258;    0,340;   -1,409
565,462;17503,985;    1,977;    1,318
566,043;18671,990;   -0,933;    2,318
566,625;18265,168;    4,067;    1,227
567,207;18134,051;    0,704;    1,682
567,788;19240,886;   -0,114;    1,500
568,370;20076,853;   -1,841;   -0,500
568,951;19899,516;   -0,569;    0,227
569,533;20763,812;    0,977;   -0,500
570,114;21290,872;   -0,296;    0,682
570,695;21788,829;   -0,478;   -1,318
571,277;22302,508;   -0,205;   -1,682
571,858;23031,595;    2,704;   -1,136
572,439;23935,971;    0,795;   -1,045
573,021;24166,282;    0,432;   -2,773
573,602;24638,509;    1,795;    0,318
574,183;25564,342;   -0,114;    2,227
574,764;25758,118;    2,068;    0,409
575,345;26271,521;    0,250;   -0,136
575,926;26867,250;    2,704;    0,136
576,507;26932,596;    2,704;   -0,227
577,088;28004,565;    1,704;    1,682
577,669;28087,510;    1,704;    1,955
578,250;28877,978;   -0,750;   -1,045
578,831;29519,341;   -0,841;   -2,227
579,412;29796,940;   -1,205;    0,955
579,993;30800,556;    1,432;    0,227
580,573;31142,318;   -0,023;   -0,955
581,154;30126,909;    1,613;   -0,591
581,735;31069,748;    0,341;    0,773
582,315;30552,293;    0,523;    2,136
582,896;30895,209;   -1,750;    1,227
583,477;30426,203;    0,614;    1,227
584,057;30688,342;    1,159;    0,955
584,638;30943,101;   -2,750;    2,318
585,218;31027,154;    2,886;    2,682
585,799;31207,702;    1,977;   -0,227
586,379;31267,474;    1,250;    1,591
586,959;30107,769;    2,613;    0,318
587,540;29488,144;    0,432;    2,227
588,120;29093,276;   -1,113;   -0,045
588,700;28092,862;    2,977;    2,136
589,281;28478,437;    1,250;   -0,955
589,861;28389,217;   -0,296;   -1,682
590,441;28220,535;   -1,477;   -2,682
591,021;27193,916;    1,432;   -2,591
591,601;27530,026;    0,431;    0,500
592,181;27556,316;   -1,296;   -0,773
592,761;26857,614;    2,250;    1,409
593,341;26849,461;    1,522;    0,045
593,921;26861,806;   -0,569;    1,591
594,501;26766,255;    1,250;    1,318
595,081;26617,830;    0,522;   -0,318
595,661;26993,384;    1,068;    0,955
596,240;27523,512;   -1,023;    0,136
596,820;27096,748;    2,613;    1,955
597,400;27341,404;    1,977;    0,773
597,980;27680,242;   -0,750;    1,045
598,559;27672,848;    0,341;   -0,227
599,139;27411,233;   -0,750;   -1,227
599,718;27320,870;    0,795;   -0,409
600,298;27594,243;   -2,387;    0,682
600,877;27826,253;    4,795;    1,409
601,457;28114,762;    0,340;    1,136
602,036;28101,022;    1,795;    2,045
602,616;28344,057;    2,250;    1,682
603,195;28662,213;    0,431;    3,500
603,774;28158,930;   -0,296;    2,045
604,354;28060,542;    2,522;   -0,500
604,933;27520,379;    0,250;    1,864
605,512;27701,885;    2,340;    0,591
606,091;27798,429;    1,886;    3,773
606,671;28589,734;    0,249;    0,773
607,250;27748,923;    1,431;    3,136
607,829;28079,205;    1,158;    3,227
608,408;27910,118;    4,613;    2,591
608,987;26971,371;    2,704;    3,409
609,566;27284,569;    0,341;   -2,500
610,145;27419,354;    2,885;    0,682
610,723;27860,218;    1,613;    6,864
611,302;27037,794;    1,067;    1,682
611,881;26525,186;    5,158;   11,227
612,460;27372,983;    0,795;    3,955
613,039;27814,489;    1,703;    2,045
613,617;26559,978;    0,886;    4,773
614,196;26826,924;    1,613;    1,227
614,775;27138,632;    1,249;    2,409
615,353;27085,834;   -1,660;    0,864
615,932;26802,814;    0,249;    2,409
616,510;27406,538;    0,158;    0,591
617,089;26919,247;    8,794;   17,591
617,667;26706,090;    4,885;    6,136
618,246;26549,715;   -1,115;    1,318
618,824;26765,425;    1,612;   -0,955
619,402;26293,156;    0,431;   -1,773
619,981;26771,291;    1,067;   -1,045
620,559;26767,955;    0,794;    1,682
621,137;26300,763;    3,067;    1,864
621,715;26275,627;    3,703;   -0,682
622,293;26173,001;    1,885;   -0,773
622,871;26647,676;    0,340;    0,500
623,450;26251,594;    0,430;   -0,864
624,028;26193,710;   -0,388;   -0,955
624,606;25812,612;    2,339;    1,682
625,183;26164,621;   -0,661;   -1,136
625,761;25798,345;    1,885;    1,136
626,339;26175,871;    2,339;    2,591
626,917;26542,816;    0,339;   -0,045
627,495;26598,040;    2,794;    1,318
628,073;26025,291;    5,248;    2,864
628,650;25697,981;    3,067;    2,136
629,228;26158,248;    1,248;    4,409
629,806;25503,261;   -0,024;    1,136
630,383;25836,532;    0,066;   -0,318
630,961;25675,201;   -2,206;   -0,955
631,539;25368,221;   -2,479;    0,227
632,116;24653,020;   12,703;   15,409
632,694;25288,994;    4,885;    6,500
633,271;25604,002;    1,975;    2,682
633,848;25568,143;    1,430;    2,045
634,426;25607,663;    1,521;    1,773
635,003;24702,412;   -0,207;   -0,409
635,580;25011,943;    1,884;    3,682
636,158;25543,739;    3,793;    1,227
636,735;25587,579;    3,339;   -0,500
637,312;25675,130;    0,521;   -0,682
637,889;25833,068;    2,248;   -0,682
638,466;25366,286;    0,066;   -0,409
639,043;25334,668;    1,702;   -1,136
639,620;25630,997;    0,611;   -0,955
640,197;25965,403;    1,612;    1,682
640,774;26153,275;    1,430;    1,136
641,351;26533,693;    0,612;    1,136
641,928;25951,838;    2,794;    1,409
642,505;25594,074;    0,794;   -0,500
643,082;25763,674;    1,885;    1,227
643,658;24748,910;    1,157;    1,500
644,235;25518,146;   -2,479;    2,500
644,812;25792,382;    1,794;    0,773
645,388;25518,890;    1,612;    1,409
645,965;25588,126;    1,521;    1,682
646,542;25626,271;    3,430;   -0,227
647,118;25699,780;    3,703;   -0,955
647,695;26005,834;    0,339;    1,136
648,271;25894,343;   -2,115;    0,500
648,848;26183,851;    0,248;    2,227
649,424;26047,360;    0,976;    1,318
650,000;25793,869;   -0,388;   -1,045
650,577;25678,105;    0,158;   -0,955
651,153;26134,886;   -1,115;    0,955
651,729;27074,849;    0,521;    0,864
652,305;27302,176;    1,339;    2,773
652,881;31741,594;   -1,297;    1,136
653,458;38591,648;    0,249;    0,227
654,034;42553,975;    0,703;    1,591
654,610;44073,392;    0,339;    0,773
655,186;45419,810;    1,612;    3,045
655,762;45194,592;   -1,842;    0,409
656,338;45288,646;    0,703;    0,136
656,913;46285,245;   -0,297;    0,409
657,489;45644,754;    0,249;   -0,318
658,065;45580,899;    0,794;   -1,591
658,641;46094,953;    2,158;   -0,864
659,217;45496,189;    2,067;    0,409
659,792;44942,698;   -1,751;   -0,409
660,368;45188,843;   -0,388;   -0,682
660,944;44994,533;    1,794;    1,227
661,519;40443,496;    0,522;    0,409
662,095;34187,369;   -0,206;    0,591
662,670;29373,423;   -0,206;   -0,136
663,246;28205,022;   -0,660;   -0,409
663,821;27473,804;    0,431;    1,682
664,396;26953,222;    0,613;    1,864
664,972;27226,639;   -0,660;   -0,500
665,547;27541,330;    3,794;    0,136
666,122;27566,475;    1,340;    0,318
666,698;27893,074;    2,431;    0,318
667,273;27254,401;    0,885;    0,136
667,848;28061,092;    0,340;    1,500
668,423;27788,509;    1,795;    2,318
668,998;28379,745;    0,976;   -0,682
669,573;28908,527;    2,067;   -1,500
670,148;28759,217;    1,885;   -0,682
670,723;28538,635;   -0,024;    0,318
671,298;29036,235;   -1,296;    1,045
671,873;29164,198;   -0,296;   -0,136
672,448;29106,161;    1,704;    0,136
673,023;29443,033;    0,249;   -0,227
673,597;29752,087;    2,704;    2,318
674,172;29519,232;    2,431;    0,318
674,747;29000,559;   -0,205;   -1,045
675,321;28862,432;   -0,933;    3,318
675,896;28409,395;    2,158;    1,045
676,471;29386,449;    2,522;    1,591
677,045;29200,321;   -0,296;    0,682
677,620;29206,284;    2,158;    1,136
678,194;29527,702;    0,249;    1,136
678,769;29081,211;    0,886;   -0,318
679,343;29309,720;   -0,023;    1,773
679,917;29206,592;    0,340;    1,955
680,492;29256,919;    0,249;    3,227
681,066;29383,064;    0,613;    0,409
681,640;29458,209;    1,795;   -0,318
682,214;30229,626;    2,340;    0,500
682,788;29719,408;    0,613;   -0,773
683,363;29704,280;    1,977;    1,682
683,937;29451,971;    0,886;   -0,318
684,511;30232,752;   -1,023;   -0,591
685,085;29943,897;   -1,478;    0,318
685,659;29678,678;    1,431;    0,864
686,232;29853,823;    1,159;   -0,318
686,806;29627,332;    2,159;    0,409
687,380;30327,750;   -1,932;    0,591
687,954;30559,622;    2,432;    1,136
688,528;30217,040;    2,613;    1,955
689,101;31041,458;    0,432;    1,045
689,675;30587,057;    0,886;   -0,136
690,249;29929,202;    3,432;    0,409
690,822;30250,802;    1,159;    0,318
691,396;30322,129;    2,068;    1,227
691,969;29799,456;    2,523;    0,136
692,543;30291,419;   -0,568;   -1,955
693,116;29889,382;   -0,659;   -1,409
693,690;29791,527;   -0,296;    0,500
694,263;30296,036;    2,341;    2,955
694,836;30311,908;    2,795;    3,591
695,410;28980,689;    1,159;    1,773
695,983;29463,016;    1,614;    0,591
696,556;29437,525;   -0,750;   -1,045
697,129;29888,761;   -1,114;    1,409
697,703;29483,997;    1,341;    1,955
698,276;29541,687;    1,705;   -0,773
698,849;29285,650;   -1,023;    1,409
699,422;29652,250;    1,250;    0,591
699,995;29275,213;   -0,659;    0,136
700,568;29841,358;   -0,204;    3,045
701,140;29837,958;   -1,841;    1,682
701,713;29572,103;    0,341;    2,409
702,286;29344,612;    0,796;    0,864
702,859;29278,666;    0,614;   -0,591
703,432;28371,083;   -0,841;    0,682
704,004;28871,228;    1,978;    0,318
704,577;28763,101;    1,068;    0,136
705,150;29289,973;    0,887;    2,500
705,722;29097,663;    1,523;   -3,227
706,295;28871,263;    1,432;   -0,591
706,867;28722,954;    0,250;    1,955
707,440;28997,008;   -0,113;   -0,409
708,012;29177,425;   -0,022;    0,591
708,584;29068,207;    2,705;    0,227
709,157;29401,261;    1,160;   -0,591
709,729;29078,315;    1,069;    2,045
710,301;29940,733;   -1,204;    0,045
710,874;29874,696;    0,341;   -0,227
711,446;28789,659;   -0,295;    0,864
712,018;28676,622;   -3,022;    0,500
712,590;28396,495;   -0,204;    1,682
713,162;29008,458;   -0,477;    1,318
713,734;29218,239;    1,796;   -2,045
714,306;29089,203;    0,342;   -0,409
714,878;27751,348;   -0,295;    0,864
715,450;28582,674;   -0,113;    0,864
716,022;28855,365;    2,433;    1,318
716,593;29018,874;    0,978;    0,591
717,165;28929,564;    1,796;   -1,227
717,737;28601,800;    0,796;    0,409
718,309;28355,127;    1,160;   -0,045
718,880;28254,545;   -1,295;   -1,409
719,452;28547,962;    0,887;   -1,591
720,024;28064,198;    1,705;   -0,591
720,595;28628,434;    2,978;    0,955
721,167;28152,943;    1,160;   -2,045
721,738;27649,906;    2,069;   -1,045
722,309;27590,506;    1,251;   -1,227
722,881;27408,742;    2,705;    0,773
723,452;28105,341;    1,251;    2,864
724,023;28270,395;    1,524;    2,682
724,595;28071,813;    2,342;    0,682
725,166;27774,776;    1,524;   -0,409
725,737;27354,194;    1,887;    0,227
726,308;27469,612;    0,797;    0,318
726,879;27858,848;    1,069;    1,227
727,450;27740,993;   -2,022;   -0,045
728,021;27733,138;    1,069;    0,682
728,592;27583,010;    1,160;    0,500
729,163;27899,064;    1,433;   -0,136
729,734;27896,118;    2,160;   -0,227
730,305;28199,263;    0,615;    0,136
730,876;28526,045;    0,888;    2,955
731,447;28247,644;    0,797;    2,682
732,017;28383,880;   -0,840;    1,864
732,588;27872,298;   -0,021;    1,227
733,159;28050,716;    3,615;   -1,045
733,729;27827,133;    1,251;    0,409
734,300;27139,642;    0,160;    0,864
734,870;27571,333;   -1,385;    0,591
735,441;28116,205;    0,888;   -0,591
736,011;27873,168;    1,070;   -1,591
736,582;27834,586;    1,251;    0,045
737,152;27267,004;    0,979;   -2,045
737,722;27746,967;    1,070;   -0,682
738,293;27471,021;   -2,021;    1,318
738,863;27324,620;    1,797;    2,318
739,433;27117,493;    4,524;    0,318
740,003;27774,183;    1,524;   -0,682
740,573;27163,056;    2,252;   -1,591
741,143;27140,382;    3,615;    0,318
741,713;27935,618;    0,252;   -0,500
742,283;27634,036;    1,706;    1,591
742,853;27361,272;    0,524;    1,591
743,423;26787,690;    0,161;    0,045
743,993;26867,926;    1,070;    1,500
744,563;26287,616;    2,524;   -0,864
745,133;26243,852;   -0,112;   -0,864
745,702;26991,179;    2,797;    1,773
746,272;26140,142;    0,434;    0,591
746,842;25923,742;   -0,748;   -0,591
747,411;26339,887;   -0,839;   -0,318
747,981;26586,668;   -0,930;    0,500
748,551;26635,177;   -0,021;   -1,045
749,120;26502,504;   -0,112;   -0,227
749,690;26839,194;    2,161;    2,409
750,259;27165,521;    0,979;    2,955
750,828;27092,393;    4,070;   -1,955
751,398;27279,811;   -0,112;   -0,045
751,967;26744,774;    2,888;    0,409
752,536;27020,101;    1,161;   -0,227
753,105;27441,610;   -1,384;    0,227
753,675;27231,573;   -0,112;    1,773
754,244;27155,718;    0,888;    3,591
754,813;27223,863;    0,979;    1,227
755,382;26838,190;    0,798;    0,955
755,951;27302,699;   -0,112;    3,682
756,520;26898,480;    2,525;    1,864
757,089;27479,443;    1,888;    0,500
757,658;27575,406;    2,434;    1,227
758,227;27566,097;   -1,111;    0,318
758,795;27868,605;   -1,021;    1,136
759,364;28151,023;    0,525;   -0,591
759,933;27153,986;    1,343;   -0,045
760,501;26712,768;    0,252;   -1,318
761,070;27164,186;   -0,293;   -1,409
761,639;27831,331;    1,434;    1,318
762,207;27115,657;    0,889;   -0,955
762,776;27123,712;    2,889;    0,864
763,344;27080,857;    0,071;    0,591
763,913;26146,456;    1,616;    1,409
764,481;26938,510;    1,980;   -0,136
765,049;26714,019;    0,616;    1,409
765,618;26655,164;    1,434;    0,318
766,186;26674,036;    2,434;    0,136
766,754;26870,818;    1,798;    1,864
767,322;25835,690;    1,162;    0,409
767,890;25937,108;    0,525;   -1,773
768,459;26333,889;    2,616;   -0,318
769,027;26462,852;    2,525;    3,409
769,595;25485,361;    2,616;    2,591
770,163;25916,415;    3,344;    2,955
770,730;25618,287;    2,525;   -0,136
771,298;25493,978;    1,162;   -1,409
771,866;25610,577;    0,253;    4,955
772,434;25929,086;    1,162;   -1,864
773,002;26062,686;    2,616;    0,682
773,569;25687,558;    1,071;    1,682
774,137;25487,612;    0,889;   -0,045
774,705;26292,848;   -0,747;   -0,136
775,272;25773,266;    0,253;    0,682
775,840;25590,411;   -0,111;    2,682
776,407;25061,829;   -0,293;    1,955
776,975;24614,428;    1,162;    0,318
777,542;25668,210;    2,162;   -0,045
778,110;25517,809;    0,707;   -0,045
778,677;25217,227;    1,071;   -0,864
779,244;24931,826;   -1,020;    1,045
779,812;25072,335;    0,980;    0,864
780,379;24904,026;    2,435;    1,136
780,946;25134,352;    2,617;   -0,773
781,513;25475,497;   -0,565;    0,318
782,080;24809,006;    1,253;    2,864
782,647;25498,333;    1,708;    3,045
783,214;25159,296;   -0,201;    3,864
783,781;24775,078;    1,708;   -0,682
784,348;24607,132;    0,253;    1,500
784,915;25119,186;   -1,474;    0,318
785,482;24835,240;    2,708;    2,591
786,049;25309,294;    1,071;   -0,591
786,615;25386,621;    1,708;   -0,955
787,182;25175,402;   -3,201;   -0,682
787,749;24824,365;   -2,201;    1,409
788,315;24106,692;    0,253;   -0,409
788,882;24460,019;    0,981;   -1,227
789,448;25118,891;    1,435;   -0,955
790,015;25182,855;    1,799;    3,227
790,581;24706,636;    0,708;    0,227
791,148;24563,872;    1,344;    1,045
791,714;24815,290;   -1,019;    3,136
792,280;24477,253;    3,708;    1,591
792,847;24096,762;   -0,928;    2,500
793,413;24654,270;   -0,110;   -0,318
793,979;24184,688;    1,526;   -1,318
794,545;24278,288;    2,981;    2,682
795,111;23662,342;    2,435;    1,318
795,678;23844,941;    3,526;   -1,682
796,244;23536,541;    2,799;    0,136
796,810;24049,413;    0,799;    0,773
797,375;23774,922;   -0,292;   -2,136
797,941;23777,249;   -1,110;    0,591
798,507;23915,212;    0,254;   -0,955
799,073;23473,175;    2,708;    0,591
799,639;23534,775;    1,435;    3,136
800,205;23510,102;   -1,565;    2,682
800,770;23051,337;    1,345;    1,773
801,336;23077,301;    2,981;   -0,955
801,901;22782,173;    6,072;    3,136
802,467;23352,954;    0,526;    2,045
803,033;22705,918;   -0,019;    0,864
803,598;22880,699;    1,072;   -1,045
804,163;22982,935;    0,708;   -0,318
804,729;22947,353;   -0,110;    1,136
805,294;23302,589;    1,072;    2,227
805,859;23100,370;    0,890;   -0,409
806,425;22573,606;    3,890;    2,682
806,990;22261,115;    1,890;    4,318
807,555;22767,169;   -0,110;    2,591
808,120;22589,496;   -1,292;   -0,409
808,685;22630,550;    1,072;   -2,500
809,250;22162,240;    2,072;   -0,500
809,815;22531,840;   -0,201;    0,682
810,380;23033,167;    0,981;    1,591
810,945;23509,312;    2,890;    2,045
811,510;22745,184;   -0,200;    1,591
812,075;22418,420;    2,800;   -1,409
812,640;22455,565;    3,709;    1,409
813,204;22537,164;    2,163;   -0,227
813,769;23007,219;    0,254;   -0,045
814,334;22438,818;    0,527;    0,864
814,898;22427,145;    1,981;    0,591
815,463;22330,654;    0,981;   -0,773
816,027;22295,071;    1,345;   -2,318
816,592;22447,398;    2,163;   -2,045
817,156;21934,089;   -2,200;    1,136
817,721;21664,597;    0,982;    2,318
818,285;21685,833;    0,618;    1,500
818,849;22321,069;   -0,018;    1,682
819,414;22202,396;    0,073;    2,955
819,978;21778,177;   -0,291;    1,773
820,542;22458,232;    2,891;    0,500
821,106;22183,831;    2,800;    0,682
821,670;22186,340;    2,709;    2,591
822,234;21849,121;    1,073;    1,409
822,798;21316,539;   -0,836;    0,500
823,362;21285,593;    1,527;    4,227
823,926;20550,738;   -0,018;    1,136
824,490;20780,065;    3,527;   -0,682
825,054;21233,574;    2,527;   -1,136
825,618;20829,900;   -1,200;   -1,500
826,181;20827,682;    0,982;   -1,318
826,745;20720,372;   -0,745;   -1,045
827,309;21077,245;    2,255;    1,318
827,872;20466,935;    0,527;    0,955
828,436;21439,171;    1,982;   -0,773
828,999;21534,225;    2,436;    1,227
829,563;20360,552;   -0,654;    1,136
830,126;20155,879;   -0,018;   -0,591
830,690;20100,115;    0,709;    2,864
831,253;19622,987;   -0,473;    2,227
831,816;19812,496;   -0,018;    0,500
832,380;19731,641;    1,164;    0,864
832,943;19969,604;    3,073;   -0,500
833,506;19442,113;    0,255;   -1,227
834,069;20237,349;    2,164;   -0,955
834,632;20332,584;   -2,200;    1,318
835,195;20230,639;    1,346;    0,955
835,758;19415,056;    0,709;    1,955
836,321;19266,838;    1,073;   -1,045
836,884;19317,437;   -1,291;   -0,955
837,447;19385,310;    0,528;    1,773
838,010;19583,636;    1,800;    3,227
838,573;19935,509;    0,528;    0,773
839,135;19911,472;   -0,109;   -0,955
839,698;19336,890;    2,528;    0,409
840,261;18825,853;    0,255;   -0,227
840,823;18686,998;   -0,927;    0,864
841,386;19007,416;   -0,018;   -2,409
841,948;18866,197;    0,255;    1,773
842,511;18547,888;    0,255;    1,682
843,073;18732,214;    2,982;    0,227
843,636;18546,632;    0,619;   -0,227
844,198;18462,141;    1,255;    0,591
844,760;18611,740;    0,619;    1,955
845,322;18243,613;    0,164;    1,136
845,885;18645,485;   -0,290;    0,591
846,447;19074,721;    0,710;    0,227
847,009;18628,684;    3,983;   -0,682
847,571;18993,647;    1,346;   -2,045
848,133;19075,338;   -0,199;   -1,864
848,695;18898,756;    2,346;    1,409
849,257;18454,446;    1,346;   -1,682
849,819;18618,773;    2,983;   -0,409
850,381;18706,009;    1,801;   -0,864
850,942;19081,245;    1,892;   -0,591
851,504;18910,663;    0,983;    0,227
852,066;18971,171;    1,619;   -1,591
852,628;18528,407;    0,165;    1,955
853,189;18081,189;    0,256;    2,682
853,751;18194,243;   -0,654;    1,409
854,312;18002,206;    1,256;   -1,682
854,874;18565,169;   -0,108;   -0,773
855,435;19030,314;    0,528;   -1,682
855,997;19176,732;    3,983;   -0,136
856,558;18430,877;    0,801;    1,773
857,119;18580,658;   -0,744;    2,864
857,681;18234,621;   -0,108;    0,318
858,242;18239,676;    1,347;   -2,136
858,803;18747,821;    1,074;   -0,773
859,364;19297,147;    0,892;   -4,773
859,925;18647,383;   -0,290;   -0,955
860,486;18605,165;    0,529;   -0,955
861,047;18300,219;    0,165;   -1,227
861,608;18109,273;    0,165;   -0,773
862,169;18265,691;   -0,562;   -0,045
862,730;17976,109;   -0,290;    1,409
863,291;18240,890;    0,438;   -0,500
863,852;18551,126;   -0,926;    1,955
864,412;18045,907;   -1,835;   -0,864
864,973;16608,416;    1,892;    0,500
865,534;16438,015;    2,074;    0,227
866,094;17971,251;    2,620;    0,227
866,655;17628,124;    4,711;    3,318
867,215;17875,451;    0,074;    0,136
867,776;17742,777;   -1,199;   -0,136
868,336;17872,922;    1,529;    0,136
868,897;17320,249;    3,438;    1,682
869,457;17075,849;    3,256;    0,318
870,017;17351,085;    2,438;   -1,227
870,578;17879,503;    1,893;    0,773
871,138;17498,829;    2,620;   -0,955
871,698;17020,429;   -0,562;   -1,318
872,258;16874,119;    0,711;   -2,864
872,818;17235,810;    2,347;    0,045
873,378;17195,409;   -2,198;    1,045
873,938;16774,464;    4,984;    0,500
874,498;17131,518;    1,256;   -1,955
875,058;16998,208;    4,347;    1,773
875,618;16859,081;    1,438;   -2,682
876,177;16800,862;   -0,471;    0,136
876,737;16385,280;   -0,289;    1,955
877,297;16371,697;    2,711;    1,955
877,856;16371,933;    2,529;    0,318
878,416;16323,078;    2,438;   -0,136
878,976;16551,587;    3,438;    0,409
879,535;16747,368;    4,529;    3,136
880,095;16479,695;    1,347;    0,045
880,654;16595,295;    0,347;    1,318
881,213;16668,894;    2,347;    1,500
881,773;16310,312;    1,984;    2,682
882,332;16690,730;    6,075;    5,136
882,891;16545,420;    0,711;    2,136
883,451;17015,838;   -2,016;    1,682
884,010;16475,347;   -1,107;   -0,409
884,569;16551,037;   -2,289;   -0,045
885,128;16667,273;   -0,743;   -1,864
885,687;16719,236;   -0,743;    0,682
886,246;16441,200;    2,620;    2,136
886,805;16170,981;    1,620;    2,045
887,364;16512,126;    1,166;   -0,500
887,922;16831,544;   -0,016;    0,045
888,481;16337,052;    1,530;    0,591
889,040;16667,107;    3,711;    2,136
889,599;17337,524;    2,166;    1,409
890,157;17386,124;    2,166;    2,409
890,716;17029,723;    2,166;    0,227
891,274;16853,414;    0,075;   -1,136
891,833;17282,286;    1,166;    0,864
892,391;17118,340;    1,802;    0,500
892,950;17222,395;    0,166;   -0,773
893,508;17571,812;    0,984;   -0,409
894,067;16910,321;   -0,379;    0,136
894,625;16851,011;   -1,016;   -1,500
895,183;17052,975;   -0,198;   -0,682
895,741;17011,483;    2,257;   -1,773
896,299;16833,719;    1,621;   -2,409
896,858;17014,410;    1,530;   -1,591
897,416;17108,282;    0,166;   -1,318
897,974;16864,882;   -2,197;    0,318
898,532;16988,481;    6,530;    2,682
899,089;16893,081;    0,621;   -0,682
899,647;16977,226;    0,530;    1,318
900,205;16692,189;    0,257;    1,045
900,763;16959,698;    2,166;    0,227
901,321;16936,752;    3,530;   -1,409
901,878;16353,715;    3,257;   -0,773
902,436;16153,587;    0,257;    1,318
902,994;16549,460;    6,712;    3,682
903,551;16033,514;    1,439;    0,409
904,109;16436,113;    1,530;   -1,409
904,666;16048,076;    1,439;    1,045
905,224;15835,403;    3,894;   -0,409
905,781;15578,366;   -0,470;   -0,318
906,338;15637,512;    0,167;    1,045
906,895;15594,293;    1,894;    2,045
907,453;15518,074;    2,348;    1,136
908,010;15512,674;    3,348;    0,409
908,567;15185,092;   -0,561;    0,591
909,124;14706,873;    2,439;   -1,500
909,681;14739,382;   -1,288;    0,682
910,238;14905,890;   -0,106;   -1,318
910,795;15262,672;   -1,561;   -1,136
911,352;14905,672;   -0,379;   -2,682
911,909;14283,217;    2,803;   -0,864
912,466;14749,763;    1,985;    1,500
913,022;14306,581;   -0,924;    0,500
913,579;14679,763;   -0,470;    2,045
914,136;14360,854;   -2,561;    0,955
914,692;14699,763;    1,530;   -1,227
915,249;14314,944;    0,530;    0,409
915,806;14519,763;    1,803;    1,955
916,362;14233,581;    0,894;    1,864
916,918;13806,672;    2,439;    1,045
917,475;13801,126;    1,621;    0,955
918,031;13891,126;    0,076;   -0,045
918,587;13367,126;    0,621;   -0,318
919,144;13576,308;   -0,379;    0,227
919,700;13882,944;    0,167;    0,773
920,256;13487,672;    0,439;    0,045
920,812;13074,035;    1,439;   -1,045
921,368;13077,763;    1,348;   -1,045
921,924;12770,490;    0,439;   -0,136
922,480;12326,490;    0,076;    1,227
923,036;12916,490;   -0,652;    1,955
923,592;12890,672;    0,621;    0,318
924,148;12800,490;    1,894;   -0,955
924,704;12125,854;    0,258;   -0,409
925,259;12433,308;   -0,561;    0,591
925,815;12131,126;    3,803;    0,500
926,371;11699,854;    3,530;    1,409
926,926;11592,126;    1,621;    0,591
927,482;11195,854;    1,621;    0,773
928,037;11063,490;   -0,833;    2,045
928,593;11360,308;    0,258;    1,045
929,148;11173,944;    1,167;   -1,500
929,704;10735,944;    2,439;   -0,500
930,259;10930,126;    0,894;   -0,136
930,814; 9975,126;    1,803;    1,955
931,369; 9684,581;    0,258;   -0,773
931,925; 9561,308;   -1,924;    0,136
932,480; 9473,672;    3,076;   -2,591
933,035; 9350,672;    3,985;   -0,318
933,590; 9108,035;   -1,742;   -1,773
934,145; 8783,399;   -1,288;   -0,318
934,700; 9145,035;    0,348;   -0,591
935,255; 8924,217;    4,803;    0,045
935,809; 8181,126;    6,258;    0,864
936,364; 7367,399;    2,167;   -0,136
936,919; 7350,490;    2,348;   -1,773
937,474; 7245,399;    1,348;    0,136
938,028; 7020,763;    3,076;    1,136
938,583; 6464,035;    6,348;    4,682
939,138; 6784,763;    0,167;    2,136
939,692; 6232,217;   -1,015;   -1,136
940,247; 5901,854;    1,167;   -1,045
940,801; 5448,854;    0,621;    0,227
941,355; 5374,944;    0,439;    2,591
941,910; 5069,763;    0,712;   -2,136
942,464; 5149,217;    2,712;   -0,318
943,018; 4930,944;    3,258;   -0,227
943,572; 4865,672;    2,803;   -0,682
944,126; 4287,581;   -0,924;   -0,409
944,681; 4168,126;    0,712;    0,227
945,235; 4153,944;    2,167;   -0,591
945,789; 4116,126;    1,258;   -1,864
946,342; 4205,672;   -0,561;   -0,591
946,896; 4024,581;    0,348;    0,955
947,450; 3766,399;   -0,561;   -0,227
948,004; 3957,490;    1,076;   -0,045
948,558; 3972,399;    1,258;   -0,864
949,111; 3905,672;   -1,197;   -0,318
949,665; 3919,581;   -0,106;   -0,682
950,219; 3812,854;    0,621;   -1,045
950,772; 3883,217;    0,258;    1,864
951,326; 3792,399;   -1,106;   -0,955
951,879; 3892,854;    1,076;   -2,318
952,433; 3915,217;    1,348;    2,227
952,986; 3752,944;    0,348;    0,682
953,539; 3679,763;    1,530;    0,591
954,093; 3631,308;    0,985;   -1,318
954,646; 3762,126;   -0,288;    1,318
955,199; 3569,944;    1,258;   -0,500
955,752; 3459,308;    1,985;    1,773
956,305; 3427,944;    0,894;    2,955
956,858; 3575,035;    0,621;   -0,318
957,411; 3771,581;    3,621;    2,136
957,964; 3571,126;    2,076;    2,136
958,517; 3589,763;    0,985;    3,136
959,070; 3425,399;   -1,197;    1,955
959,623; 3477,035;    1,076;    1,500
960,176; 3238,490;    0,712;    2,045
960,728; 3214,763;    1,712;    0,773
961,281; 3301,581;    2,258;    0,500
961,834; 3337,035;   -0,833;    0,864
962,386; 3254,763;    1,258;    1,045
962,939; 3158,581;    3,439;   -0,318
963,491; 3316,490;    2,621;    1,136
964,043; 3189,763;    0,076;    2,409
964,596; 3306,672;    1,712;    2,227
965,148; 3150,581;   -0,379;    1,773
965,700; 3082,763;   -0,015;   -0,227
966,253; 3239,308;   -0,833;    0,318
966,805; 3070,763;    1,894;    0,773
967,357; 3126,944;    0,439;   -1,500
967,909; 3077,308;    1,167;   -1,227
968,461; 3184,490;    0,894;    3,136
969,013; 3104,490;   -1,561;   -0,864
969,565; 3185,581;    1,803;   -1,136
970,117; 3266,035;    3,803;    1,045
970,669; 3094,672;    3,258;   -0,136
971,220; 2957,217;    2,167;   -1,500
971,772; 2876,217;    1,348;   -0,318
972,324; 2991,217;   -1,197;   -0,500
972,876; 2952,399;    0,167;   -0,045
973,427; 3064,399;   -1,197;   -1,045
973,979; 3047,126;    0,076;   -2,500
974,530; 3072,217;    0,803;    1,318
975,082; 3092,581;    2,167;    1,682
975,633; 2988,308;    2,894;    1,682
976,184; 3143,308;    2,076;    0,773
976,736; 2920,854;    0,348;    0,227
977,287; 2701,854;    0,258;   -0,500
977,838; 2901,763;   -0,924;   -0,318
978,389; 2970,581;    0,803;   -0,500
978,940; 2828,490;    1,258;   -0,409
979,491; 2861,854;    2,258;   -0,500
980,042; 2816,854;   -0,652;    3,045
980,593; 2876,126;    1,894;    0,227
981,144; 2929,944;    3,530;   -0,500
981,695; 2893,944;   -0,470;    1,500
982,246; 2851,581;   -1,833;    1,045
982,797; 3004,581;   -0,561;    0,682
983,347; 3120,672;    2,167;    0,591
983,898; 3281,763;    4,167;    0,409
984,449; 3107,854;    2,530;    0,773
984,999; 3025,763;    1,894;   -1,136
985,550; 2781,581;    3,167;   -0,318
986,100; 2818,308;    0,712;   -0,318
986,651; 2855,490;    0,258;    0,045
987,201; 2841,763;    0,894;   -0,591
987,751; 2918,581;   -0,288;    2,864
988,302; 2916,490;   -0,379;    1,500
988,852; 2916,399;    1,985;   -1,136
989,402; 2972,217;    0,985;    0,682
989,952; 2878,854;    1,621;    0,864
990,502; 2976,035;    1,076;    0,682
991,052; 2954,035;   -0,106;    0,045
991,602; 2810,308;    1,167;    1,318
992,152; 2804,672;    2,803;    0,682
992,702; 2784,854;    1,167;   -0,045
993,252; 2718,854;    0,076;   -0,500
993,802; 2799,944;    1,167;    1,318
994,352; 3040,126;   -0,742;    1,136
994,901; 3131,581;    1,076;    3,227
995,451; 3058,944;   -1,197;    0,318
996,000; 3125,854;    1,076;    0,318
996,550; 2819,217;    2,894;    0,227
997,100; 2838,217;   -0,561;   -0,045
997,649; 3133,217;   -0,197;    0,955
998,198; 2770,217;   -0,288;   -1,500
998,748; 2962,126;    0,348;   -2,318
999,297; 2855,308;    0,985;   -0,409
999,846; 2938,581;    1,894;   -0,773
1000,395; 2979,035;    1,530;    0,500
1000,945; 2936,581;    1,076;   -0,773
1001,494; 2998,399;    0,167;    0,682
1002,043; 2990,944;    0,712;    0,864
1002,592; 2855,035;    3,439;    1,955
1003,141; 2983,399;    2,439;   -0,682
1003,690; 2812,490;    1,258;    0,500
1004,238; 2897,217;   -0,106;   -0,045
1004,787; 2542,035;   -1,288;    1,227
1005,336; 2771,126;    1,621;    0,682
1005,885; 2919,217;   -0,197;   -2,773
1006,433; 3054,399;   -0,470;    0,955
1006,982; 3135,944;    2,167;    1,682
1007,531; 3039,581;    2,712;   -0,227
1008,079; 2986,035;    0,258;    0,500
1008,627; 3150,399;    1,621;    0,409
1009,176; 2866,490;    0,076;   -1,955
1009,724; 2909,217;   -2,742;    0,864
1010,273; 2961,763;    1,076;    0,500
1010,821; 3094,763;    1,076;    1,409
1011,369; 2828,672;    0,076;    1,318
1011,917; 2795,854;   -0,833;   -0,591
1012,465; 3103,217;    2,530;   -1,591
1013,013; 3221,490;    0,439;   -1,682
1013,561; 3073,672;   -1,288;   -0,773
1014,109; 3107,126;   -0,833;    1,682
1014,657; 2989,308;    1,348;    0,591
1015,205; 3096,490;    0,894;   -0,955
1015,753; 3127,944;    0,258;   -1,409
1016,301; 3189,854;    2,621;    3,045
1016,848; 3202,672;    2,167;    0,409
1017,396; 3226,854;    1,621;    0,045
1017,944; 3358,763;    2,621;    1,864
1018,491; 3103,126;   -0,197;    1,409
1019,039; 3267,399;   -0,652;    0,591
1019,586; 3177,490;    0,076;    1,682
1020,134; 3273,854;    0,712;    1,500
1020,681; 3283,035;    2,894;   -1,136
1021,228; 3316,308;   -0,561;   -2,227
1021,776; 3147,399;   -0,833;   -1,136
1022,323; 3365,217;    0,803;    0,773
1022,870; 3288,944;   -0,470;   -0,045
1023,417; 3182,126;    2,076;    1,864
1023,964; 3337,854;    0,621;    1,227
1024,511; 3149,854;   -0,652;    0,773
1025,058; 2960,490;    0,439;   -0,045
1025,605; 3005,763;   -1,742;    3,136
1026,152; 3220,126;   -0,106;   -0,591
1026,699; 2966,490;    0,167;    1,318
1027,245; 3129,672;    2,439;    0,318
1027,792; 3350,763;    0,712;    1,409
1028,339; 3224,399;    4,076;   -0,045
1028,885; 3067,763;    3,621;   -0,227
1029,432; 2999,854;   -0,106;    0,227
1029,978; 3071,217;    1,348;   -1,591
1030,525; 2952,217;    1,621;    0,409
1031,071; 3226,944;    0,348;    1,136
1031,618; 3325,126;    1,258;    1,682
1032,164; 3120,581;    2,076;    3,045
1032,710; 3162,490;    0,076;   -1,500
1033,256; 3080,217;    0,712;   -0,136
1033,803; 3076,944;   -0,288;    1,500
1034,349; 2797,490;    1,803;    0,136
1034,895; 2976,217;    2,621;   -0,318
1035,441; 2940,035;    0,439;    0,318
1035,987; 2938,126;   -2,288;   -0,682
1036,533; 2934,854;   -0,197;   -0,955
1037,078; 3140,672;    4,712;    1,682
1037,624; 2952,944;    2,439;   -0,955
1038,170; 2975,581;    1,712;   -0,318
1038,716; 2863,763;    2,167;   -0,409
1039,261; 2788,854;    2,167;   -0,773
1039,807; 2747,035;   -0,015;    3,409
1040,352; 2799,217;   -1,288;   -0,318
1040,898; 2841,763;    0,167;   -0,682
1041,443; 2749,854;    0,803;   -2,591
1041,989; 2805,126;    3,621;    1,591
1042,534; 2681,854;    0,985;    2,591
1043,079; 2771,308;    1,985;    0,955
1043,625; 2560,763;    0,258;    0,500
1044,170; 2624,854;    2,439;    1,045
1044,715; 2876,490;    0,167;    0,955
1045,260; 2690,944;   -0,833;   -0,955
1045,805; 2751,035;    0,258;   -0,591
1046,350; 2680,399;    0,530;   -0,409
1046,895; 2640,490;    0,803;    1,591
1047,440; 2575,399;    1,530;    0,409
1047,985; 2484,854;   -1,197;   -0,955
1048,530; 2395,126;    1,348;    1,227
1049,074; 2477,763;    2,803;    0,318
1049,619; 2438,944;   -0,924;    1,955
1050,164; 2251,944;    1,076;    0,227
1050,708; 2292,308;    2,621;    0,045
1051,253; 2650,490;    3,258;   -2,227
1051,797; 2386,035;   -0,197;   -1,318
1052,342; 2399,308;    1,348;    1,045
1052,886; 2384,308;    1,803;   -1,409
1053,430; 2264,217;    2,167;    0,136
1053,975; 2289,399;    0,894;   -0,318
1054,519; 2255,490;    1,803;    3,227
1055,063; 2267,672;    3,621;    1,318
1055,607; 2163,854;    1,348;    0,227
1056,151; 2199,217;    0,530;    1,682
1056,695; 2107,672;   -1,833;   -1,136
1057,239; 2172,944;   -1,197;   -0,682
1057,783; 2176,399;    2,258;   -1,500
1058,327; 2135,035;    3,076;    1,409
1058,871; 2352,490;    3,985;    1,318
1059,415; 2055,399;   -0,561;   -0,045
1059,958; 2306,126;    2,985;    2,591
1060,502; 2049,854;    1,348;   -0,773
1061,046; 1940,581;    1,712;   -0,955
1061,589; 1919,763;    2,803;   -1,136
1062,133; 1824,035;    0,985;    1,864
1062,676; 1751,399;    1,439;    0,864
1063,220; 1756,126;    0,985;    0,500
1063,763; 1784,944;    2,985;    1,136
1064,306; 1849,672;    0,985;    1,864
1064,849; 1748,217;    2,076;    0,591
1065,393; 1760,126;    2,894;   -1,500
1065,936; 1869,126;    2,530;   -0,409
1066,479; 1762,399;    2,621;    1,318
1067,022; 1779,763;    1,894;   -0,227
1067,565; 1666,399;   -1,197;   -1,318
1068,108; 1702,581;    1,258;   -0,591
1068,651; 1679,581;   -2,470;    1,409
1069,194; 1609,763;   -1,106;   -1,682
1069,736; 1601,581;    3,803;    0,955
1070,279; 1581,854;   -1,652;   -0,500
1070,822; 1627,581;    1,530;   -0,318
1071,364; 1700,944;    0,530;    1,318
1071,907; 1532,672;    0,348;    3,227
1072,450; 1449,763;    0,258;   -0,045
1072,992; 1444,399;   -0,561;    3,136
1073,535; 1573,126;    0,167;    2,136
1074,077; 1386,490;    2,985;    2,045
1074,619; 1357,217;    0,985;    0,591
1075,161; 1377,763;   -0,561;    1,500
1075,704; 1549,308;    0,258;    1,227
1076,246; 1357,672;    1,530;    0,682
1076,788; 1281,672;   -1,015;    1,773
1077,330; 1362,581;   -2,106;    2,136
1077,872; 1325,126;   -1,924;    0,955
1078,414; 1549,581;    3,712;    0,773
1078,956; 1276,672;    0,167;   -0,227
1079,498; 1527,126;    0,439;    0,318
1080,040; 1237,854;    0,985;   -1,318
1080,581; 1184,854;    0,621;   -0,318
1081,123; 1114,035;   -0,106;   -0,773
1081,665; 1157,399;    3,803;   -0,955
1082,206; 1446,944;    3,258;   -0,500
1082,748; 1326,035;    3,258;    2,045
1083,289; 1212,763;    0,167;    1,318
1083,831; 1116,399;    0,258;    0,227
1084,372; 1141,490;    0,894;    0,591
1084,913; 1132,944;    3,348;    0,864
1085,455; 1112,581;    1,530;   -2,045
1085,996; 1081,308;    0,530;    0,136
1086,537; 1105,763;    0,985;    0,864
1087,078; 1142,399;    0,439;   -2,136
1087,619; 1176,581;   -1,652;    0,227
1088,160; 1091,581;    1,439;    1,318
1088,701; 1083,944;   -0,742;    0,682
1089,242; 1030,581;   -0,561;   -2,227
1089,783; 1104,944;   -0,561;    1,409
1090,324; 1076,763;   -0,833;    0,682
1090,865;  964,490;   -1,924;   -0,409
1091,405;  944,854;   -0,561;    2,227
1091,946;  974,672;   -0,197;   -0,955
1092,487;  900,944;   -1,288;   -1,409
1093,027; 1058,944;    1,803;   -1,500
1093,568;  907,672;    2,258;    1,227
1094,108;  984,854;    0,621;    1,773
1094,649;  940,035;   -0,470;    0,136
1095,189;  891,581;    1,167;   -0,682
1095,729;  826,399;    0,712;    0,955
1096,269;  832,944;    1,258;   -0,955
1096,810; 1134,217;   -0,197;    0,500
1097,350;  965,308;   -0,561;   -0,773
1097,890;  868,490;    2,985;    1,227
1098,430; 1102,672;    4,985;    2,864
1098,970;  998,399;    1,894;    1,682
1099,510;  868,944;   -0,833;   -2,318
1100,050;  796,944;    0,258;   -1,591
1100,589;  772,035;    0,076;   -0,318
1101,129;  889,672;    0,894;   -0,955
1101,669; 1011,399;    2,803;    2,136
1102,209;  852,308;    1,530;    2,227
1102,748;  816,581;    3,439;    0,955
1103,288;  793,763;    0,712;   -1,227
1103,827;  829,217;    3,530;   -2,227
1104,367;  706,126;    1,712;   -2,409
1104,906;  679,672;   -1,015;   -1,136
1105,445;  750,854;    0,985;   -1,136
1105,985;  691,399;   -0,652;    1,500
1106,524;  731,399;    1,530;   -0,682
1107,063;  706,217;    1,167;    1,409
1107,602;  685,035;    1,894;   -1,500
1108,141;  602,854;    1,621;    1,500
1108,680;  699,399;    3,985;   -0,591
1109,219;  647,308;    0,167;   -0,500
1109,758;  647,672;    4,167;    0,682
1110,297;  627,308;   -1,106;   -0,682
1110,836;  574,581;    1,439;    0,955
1111,375;  720,944;    0,348;    0,409
1111,913;  735,490;    0,985;    0,773
1112,452;  677,399;    0,894;    0,136
1112,991;  569,854;    1,076;    1,955
1113,529;  527,490;    0,167;   -0,045
1114,068;  598,399;    0,439;    2,955
1114,606;  492,035;   -0,561;   -0,955
1115,144;  644,672;    1,530;    1,045
1115,683;  583,581;    1,985;    0,318
1116,221;  635,490;    2,076;   -0,864
1116,759;  551,854;    1,621;   -0,864
1117,297;  724,308;    1,621;    1,864
1117,836;  543,944;    1,985;   -1,227
1118,374;  554,217;    0,258;   -0,682
1118,912;  510,944;    0,439;    2,682
1119,450;  489,035;    0,985;    0,864
1119,988;  525,035;    3,348;    2,136
1120,525;  981,944;    7,258;    3,318
1121,063;  682,490;    0,530;    1,864
1121,601;  500,490;    1,076;   -1,227
1122,139;  459,672;    1,076;   -2,045
1122,676;  646,854;   -1,652;    2,773
1123,214;  589,672;    0,712;    4,409
1123,751;  406,763;    0,621;    2,227
1124,289;  523,035;    0,894;   -0,409
1124,826;  397,490;   -0,379;    0,227
1125,364;  330,854;    0,712;   -0,955
1125,901;  509,944;    6,258;    1,227
1126,438;  603,854;    3,530;    0,955
1126,975;  349,944;    2,985;   -0,773
1127,513;  414,672;    2,621;    2,136
1128,050;  337,763;   -0,561;   -0,682
1128,587;  421,854;    1,348;   -0,227
1129,124;  457,581;   -0,015;    1,318
1129,661;  349,308;   -1,924;    0,227
1130,198;  495,854;    2,439;    0,773
1130,734;  434,944;   -0,379;    1,409
1131,271;  304,126;   -1,197;    0,864
1131,808;  479,035;    1,621;    3,045
1132,345;  351,308;    4,530;    0,318
1132,881;  237,035;   -0,561;   -1,864
1133,418;  357,672;    0,348;   -1,136
1133,954;  313,581;    0,712;   -2,682
1134,491;  372,490;    1,712;   -0,773
1135,027;  277,944;    2,167;    0,864
1135,564;  353,944;    1,439;    2,955
1136,100;  338,035;   -0,742;    2,136
1136,636;  245,126;   -1,015;   -1,045
1137,172;  324,308;    0,894;   -1,045
1137,708;  256,672;   -1,561;   -1,045
1138,245;  265,308;    0,803;   -1,227
1138,781;  227,217;    1,803;   -3,318
1139,317;  281,944;    1,894;   -1,409
1139,852;  269,308;    3,076;    0,136
1140,388;  376,217;    2,076;   -0,409
1140,924;  268,490;    1,076;   -2,227
1141,460;  211,490;   -0,288;    0,136
1141,996;  154,854;   -0,652;    2,682
1142,531;  193,581;    1,076;    3,318
1143,067;  386,763;    1,167;    1,045
1143,602;  443,672;    3,439;   -0,318
1144,138;  302,944;    0,803;    1,045
1144,673;  178,581;    1,621;    1,409
1145,209;  234,399;    2,894;   -0,318
1145,744;  162,308;    0,803;    0,864
1146,279;  281,126;    1,530;   -0,136
1146,815;  215,490;    1,530;   -2,682
1147,350;  250,126;   -0,924;    0,045
1147,885;  162,308;   -1,924;   -1,318
1148,420;  161,581;    2,439;    0,773
1148,955;  154,672;   -1,470;    1,864
1149,490;  183,126;   -1,106;   -1,591
1150,025;  161,672;   -1,106;   -1,773
1150,560;  252,217;   -0,288;   -0,955
1151,094;  220,763;    0,258;   -0,591
1151,629;  225,581;   -3,742;    0,864
1152,164;  162,854;   -1,288;    1,318
1152,698;  134,399;    1,258;   -0,136
1153,233;  104,672;   -1,379;   -0,682
1153,767;  145,035;   -0,288;   -2,318
1154,302;  178,672;   -0,379;    1,773
1154,836;  178,854;    0,803;   -2,136
1155,371;  230,217;    2,258;    3,682
1155,905;  187,763;    1,985;    1,682
1156,439;  154,763;    0,530;   -0,500
1156,973;  174,854;    0,439;    0,318
1157,507;  121,763;   -1,742;    0,682
1158,042;  150,763;   -0,652;    1,045
1158,576;  194,490;   -0,561;    1,773
1159,110;  188,308;    0,076;    2,409
1159,643;  157,126;   -2,470;   -0,045
1160,177;   98,581;   -2,015;    1,500

