
Integration time [ms]:   0,050
Averaging Nr. [scans]: 11
Smoothing Nr. [pixels]: 0
Data measured with spectrometer [name]: 7318044SP
Wave   ;Sample   ;Dark     ;Reference
[nm]   ;[counts] ;[counts] ;[counts] 

186,757;  -23,276;   38,161;    1,318
187,357;   -7,116;   26,706;    0,955
187,958;  -18,932;   17,252;   -1,591
188,558;   13,979;   12,979;   -1,227
189,159;  -11,362;   10,070;   -4,500
189,759;  -27,949;    5,797;   -3,591
190,360;  -32,449;    6,797;   -2,136
190,960;  -12,843;    5,706;   -4,136
191,560;   -1,302;    2,614;   -6,591
192,161;  170,675;    5,885;   -3,500
192,761;   54,997;    5,520;   -3,227
193,361;    6,774;    3,065;   -3,773
193,962;   39,677;    1,612;   -2,682
194,562;  -13,507;   -0,114;   -3,955
195,162;    0,967;   -0,567;   -2,227
195,762;  102,425;    2,433;   -0,045
196,362;   51,257;    1,706;   -2,500
196,963;  -21,289;    1,706;   -0,864
197,563;   29,715;    1,252;   -0,955
198,163;   -9,310;   -0,111;   -0,682
198,763;   -4,789;   -0,020;   -0,500
199,363;   32,750;    3,616;   -0,500
199,963;   12,393;    2,162;    0,409
200,563;    0,449;    6,344;   -1,409
201,163;  -14,560;    5,435;   -0,227
201,763;   13,306;    1,435;    0,318
202,363;  -11,558;    0,980;    1,500
202,963;   16,012;    1,526;    1,045
203,563;   60,403;    0,344;    0,500
204,162;    3,620;    1,889;   -1,864
204,762;   -3,913;    2,071;    0,591
205,362;  -15,186;    0,708;    1,955
205,962;    7,522;    3,435;    1,955
206,562;    4,951;    1,889;    2,318
207,161;   -8,214;    1,708;    0,318
207,761;   56,984;    4,435;    2,409
208,361;   -2,817;    1,889;    1,409
208,960;   12,701;    2,889;    1,500
209,560;   11,386;    0,435;    1,591
210,160;   26,082;    5,071;    1,864
210,759;    5,482;    0,708;    1,227
211,359;   -4,574;   -0,474;    1,045
211,958;   85,017;    3,526;    2,045
212,558;   87,965;    0,799;    1,864
213,157;   25,805;   -0,929;    1,500
213,757;  147,479;    5,617;   -0,227
214,356;   46,736;    1,708;   -0,409
214,956;  132,085;    3,526;    0,409
215,555;   32,613;    0,617;    2,136
216,154;   -0,172;   -0,292;   -0,591
216,754;    6,083;    1,253;    0,773
217,353;   16,594;   -0,383;   -1,045
217,952;  -25,418;    2,072;    0,318
218,552;   18,863;    0,254;   -0,773
219,151;   -1,726;   -1,110;    0,955
219,750;   -9,675;    0,890;   -0,227
220,349;  -18,854;   -2,292;    1,045
220,948;   35,723;    1,163;    1,136
221,548;    0,811;    0,617;    1,227
222,147;    2,346;   -1,292;   -0,409
222,746;   68,242;    1,254;   -0,955
223,345;   23,013;   -1,019;    0,500
223,944;   14,360;    1,163;    0,773
224,543;   15,428;    4,072;   -1,409
225,142;    5,610;    1,345;    0,136
225,741;   12,842;    1,163;    1,045
226,340;    6,101;    1,254;   -0,955
226,939;   54,601;    2,708;   -0,136
227,538;    3,940;    1,163;   -0,773
228,137;   56,770;    0,435;    0,864
228,735;   33,489;    0,435;    1,227
229,334;  -14,710;   -0,474;   -0,227
229,933;   64,646;    0,799;    0,591
230,532;   54,178;   -1,201;   -0,409
231,131;   86,687;    1,253;    0,318
231,729;   34,330;    1,163;   -2,318
232,328;    2,089;    0,435;   -1,500
232,927;   14,146;    4,526;   -0,500
233,525;    5,274;    0,981;    0,045
234,124;   12,417;    1,890;   -1,591
234,723;   -7,058;    1,617;   -1,045
235,321;   -5,770;    1,163;    0,136
235,920;    0,611;    2,526;   -1,227
236,518;   54,445;    1,072;    0,318
237,117;   -5,850;    2,890;   -0,227
237,715;   14,538;    1,163;   -0,500
238,314;   17,840;    1,708;   -2,318
238,912;   59,328;    0,526;   -1,409
239,510;   24,566;    1,162;   -1,227
240,109;   64,110;   -0,474;    3,773
240,707;   47,666;   -0,474;    1,227
241,305;   -6,967;   -0,383;    0,136
241,904;   23,487;   -0,292;   -2,045
242,502;   80,423;    3,253;   -0,227
243,100;   27,975;    3,344;   -0,955
243,698;   -3,546;    2,799;    1,682
244,297;    9,844;   -0,656;    0,682
244,895;    5,395;   -0,474;   -2,318
245,493;   67,267;    2,981;   -0,591
246,091;   76,471;    5,163;   -1,318
246,689;   37,554;    2,163;    0,591
247,287;   35,966;   -0,019;   -1,136
247,885;   15,505;   -1,019;    1,227
248,483;   -0,894;   -0,201;   -0,500
249,081;   35,910;    0,981;    1,591
249,679;   41,999;   -1,019;    1,682
250,277;    1,534;   -2,292;    0,864
250,875;   31,256;    0,617;   -1,045
251,473;    2,464;   -0,019;    0,500
252,071;   41,197;   -0,383;    1,045
252,669;   12,360;   -1,565;    0,318
253,267;  -11,434;    1,618;    0,773
253,864;    7,330;    0,617;    0,682
254,462;   49,115;    1,526;    1,591
255,060;   -8,838;    0,072;    1,318
255,658;   -3,459;   -3,292;   -0,136
256,255;   10,230;   -0,201;   -2,045
256,853;   25,777;    2,345;    1,409
257,451;    8,977;    1,981;    1,864
258,048;  149,478;    2,072;    1,864
258,646;   55,197;    0,436;   -1,045
259,243;   87,323;    2,981;    2,227
259,841;   43,517;    1,799;    0,318
260,438;   -4,520;    0,254;    0,864
261,036;   31,704;    0,617;    1,409
261,633;    1,650;    1,526;    2,227
262,231;  -10,270;   -0,110;   -0,045
262,828;  -12,448;   -0,383;    1,136
263,425;   -2,084;   -1,928;   -0,591
264,023;    0,707;    1,436;    0,045
264,620;   38,725;    1,526;   -0,318
265,217;   69,550;    2,890;    3,136
265,815;   16,620;    2,527;    2,136
266,412;   33,840;    0,072;    0,136
267,009;   16,695;    0,526;    0,773
267,606;   46,833;    0,345;   -0,955
268,203;   10,409;   -0,383;   -0,591
268,801;   17,293;   -0,474;    0,591
269,398;   -7,254;   -0,564;    2,500
269,995;   24,643;    0,890;    1,591
270,592;    9,323;    0,799;   -0,500
271,189;   -9,766;    1,981;    0,409
271,786;  -20,042;    2,072;    1,227
272,383;   38,085;   -0,383;    0,227
272,980;    4,861;    1,617;    0,318
273,577;   -6,509;    2,162;    1,227
274,174;   -9,350;    1,435;    2,591
274,771;   31,087;    1,890;   -0,773
275,367;  159,664;    3,253;    1,409
275,964;   67,108;   -0,565;   -0,500
276,561;   11,568;   -2,474;   -1,045
277,158;  -12,546;    1,799;   -1,773
277,755;   64,365;   -0,110;    0,409
278,351;   31,643;    0,436;   -1,500
278,948;   48,414;   -0,201;    0,045
279,545;   22,706;    0,527;    2,318
280,141;   57,033;    1,254;   -2,045
280,738;   69,433;    2,435;   -0,136
281,334;    9,655;   -0,383;    0,591
281,931;   -1,544;    2,890;   -1,318
282,528;   48,082;    4,072;   -0,500
283,124;   58,842;    3,345;   -0,500
283,721;   60,239;    0,709;    1,409
284,317;   23,076;    0,163;    2,500
284,913;   62,678;   -0,110;    0,591
285,510;  111,314;    2,890;   -0,318
286,106;   71,713;    2,345;   -0,955
286,703;   29,263;    0,072;    1,955
287,299;    7,062;    1,254;   -0,591
287,895;    4,940;    0,890;   -1,045
288,491;   -3,527;    0,163;    2,136
289,088;   23,791;    0,163;    2,409
289,684;   23,996;    2,890;    1,500
290,280;   80,825;    1,890;    0,682
290,876;   59,228;    0,163;    5,500
291,472;   48,124;    2,163;    2,227
292,068;   50,185;    1,254;    0,227
292,665;   17,153;   -0,564;    0,773
293,261;  -10,567;   -1,292;    2,136
293,857;   40,989;    4,072;    2,136
294,453;   18,819;   -0,928;    0,955
295,049;   87,223;    0,253;    1,955
295,644;   35,071;   -1,292;    0,136
296,240;   -7,838;    0,162;   -0,136
296,836;   21,606;   -0,747;    0,318
297,432;   52,755;    2,980;   -0,500
298,028;   56,003;    0,435;    0,773
298,624;   29,723;    0,889;    1,864
299,220;   26,248;    0,435;    0,591
299,815;   16,965;    0,526;   -0,409
300,411;   48,042;    0,435;    1,773
301,007;   67,341;    1,889;    0,227
301,602;   23,772;    2,071;   -2,318
302,198;   73,071;    1,435;   -0,773
302,794;   40,098;    1,526;   -0,500
303,389;    6,124;    1,071;    1,045
303,985;    8,844;    1,253;    1,409
304,580;   79,180;    0,889;    1,591
305,176;   35,827;    0,344;    0,136
305,771;  -18,789;   -0,929;   -1,227
306,367;  140,603;    3,071;    0,136
306,962;   50,863;    2,889;    1,500
307,558;   74,160;    2,435;    0,136
308,153;   61,472;   -0,383;   -1,136
308,748;    4,477;    0,162;    1,682
309,344;  141,545;    0,253;   -1,318
309,939;  115,954;    2,071;   -1,318
310,534;   30,386;   -2,020;   -1,682
311,130;   15,552;   -0,656;   -2,500
311,725;    5,804;    0,526;   -0,500
312,320;   19,029;    1,253;    0,045
312,915;   50,486;    2,890;   -1,045
313,510;  133,391;    0,526;   -0,500
314,105;   33,194;   -3,565;    1,409
314,700;    2,900;   -1,656;   -1,045
315,295;   19,271;   -0,020;    0,045
315,890;   -1,154;   -0,292;    0,864
316,485;   31,458;    0,253;   -0,318
317,080;    4,608;   -0,929;    1,591
317,675;  114,765;    3,071;   -0,682
318,270;  220,115;    6,889;    3,318
318,865;  139,652;    2,435;    3,045
319,460;   77,375;   -1,565;    0,591
320,055;   15,449;   -2,565;   -1,227
320,650;    8,827;   -1,838;   -0,591
321,244;   14,311;    0,889;   -1,409
321,839;    5,017;    0,980;   -0,227
322,434;   27,211;   -0,111;   -1,591
323,029;    6,465;   -0,474;    1,591
323,623;    2,113;    0,798;    0,773
324,218;   85,767;    2,707;    1,409
324,812;   50,379;    0,889;    1,591
325,407;   38,557;   -0,929;    2,045
326,002;  100,269;    0,526;   -0,409
326,596;   67,237;   -0,656;    1,318
327,191;   11,316;   -0,383;   -1,045
327,785;   18,692;   -0,747;   -0,227
328,379;   11,622;   -0,383;    0,136
328,974;   24,292;    1,798;   -3,955
329,568;   43,057;    2,889;   -2,409
330,163;   72,697;    2,435;    1,045
330,757;    8,178;    0,253;    1,591
331,351;   -6,340;   -0,292;    0,682
331,945;   -3,820;   -0,383;    1,409
332,540;   41,669;    1,617;   -0,591
333,134;   33,889;    3,344;    0,773
333,728;   49,909;    2,799;    0,318
334,322;   11,910;    0,889;   -0,864
334,916;   14,316;    0,344;    0,955
335,510;   86,403;   -0,111;   -0,136
336,105;   68,861;   -0,929;    1,591
336,699;   25,332;   -1,292;    0,591
337,293;   57,993;    1,071;    0,318
337,887;   38,790;    0,071;    1,955
338,481;   99,603;    2,980;    0,591
339,074;  163,398;    2,071;    2,682
339,668;  161,321;   -0,110;    1,227
340,262;  522,931;    7,708;    3,227
340,856;  276,552;    1,708;   -0,682
341,450;  103,507;    0,708;    1,864
342,044;  154,902;    1,799;    0,136
342,637;  252,201;    1,162;   -2,136
343,231;  225,134;   -1,474;    0,682
343,825;  187,232;   -0,747;   -0,591
344,419;  195,050;   -0,474;    0,500
345,012;  647,550;    2,889;    4,045
345,606;  492,556;   -0,656;    1,591
346,199;  263,021;   -0,111;   -0,227
346,793;  377,944;    2,525;    2,045
347,386;  252,519;    0,889;   -1,136
347,980;  183,236;   -0,838;   -0,045
348,573;  292,699;   -1,748;    0,409
349,167;  571,236;    6,161;    4,773
349,760;  477,559;    2,252;    2,682
350,354;  444,000;    1,616;    1,136
350,947;  505,126;    2,798;    1,682
351,540;  399,414;    0,616;   -1,409
352,134;  282,592;   -1,111;    1,136
352,727;  324,192;   -0,657;    1,136
353,320;  353,760;    2,343;    0,591
353,913;  297,300;   -1,929;    1,864
354,507;  505,799;    0,434;   -1,227
355,100;  400,474;    0,071;    0,864
355,693;  804,514;    4,798;    2,409
356,286;  555,856;    0,980;    2,773
356,879;  417,304;   -0,475;    1,227
357,472;  399,818;    0,980;    1,500
358,065;  451,827;    3,161;    2,500
358,658;  319,659;    0,798;    2,318
359,251;  284,040;    0,252;   -0,591
359,844;  444,164;    0,343;   -1,136
360,437;  525,094;    0,252;    0,045
361,030;  368,461;    0,525;   -0,682
361,623;  357,804;    0,434;    0,318
362,215;  574,834;    0,979;    2,045
362,808;  428,704;   -2,293;   -1,682
363,401;  343,155;    0,798;    0,136
363,994;  561,862;    3,252;   -1,500
364,586;  352,732;    0,888;   -1,500
365,179;  292,063;   -0,203;   -1,136
365,772;  146,169;   -0,930;    2,045
366,364;  281,729;    1,524;   -3,227
366,957;  347,327;    1,342;   -0,045
367,549;  290,619;   -0,203;   -0,864
368,142;  290,309;    0,978;   -1,500
368,734;  247,997;    2,523;   -2,136
369,327;  183,467;    2,341;   -0,500
369,919;  217,600;   -1,659;    0,409
370,512;  224,486;   -1,023;   -0,500
371,104;  475,429;    2,704;    1,591
371,696;  488,480;    1,703;   -0,955
372,289;  346,623;    0,157;    1,136
372,881;  290,602;    1,156;    1,318
373,473;  181,062;    4,064;    1,136
374,066;  274,814;    1,336;    0,500
374,658;  229,913;    0,879;    1,136
375,250;  158,471;   -1,668;   -1,409
375,842;  200,685;   -0,124;   -0,045
376,434;  145,865;   -2,762;   -0,409
377,026;  139,540;   -1,855;   -2,500
377,618;  161,981;    0,779;   -0,682
378,210;   92,130;    3,141;   -1,955
378,802;   65,617;    3,412;   -0,591
379,394;  476,141;    3,411;    0,682
379,986;  227,161;    1,138;   -0,955
380,578;  140,337;    1,410;    0,773
381,170;  381,855;    0,320;    0,045
381,762;  275,528;   -0,224;    1,409
382,354;  240,300;   -0,223;   -1,318
382,945;  153,495;    0,870;    0,318
383,537;  116,105;    1,144;   -1,955
384,129;  128,066;    0,963;   -1,136
384,721;  247,350;    0,418;    0,955
385,312;  168,360;   -1,399;   -0,955
385,904;  266,883;   -0,945;    1,591
386,496;  171,404;    0,691;    1,045
387,087;  308,780;    0,418;    2,500
387,679;  229,254;   -0,401;    0,045
388,270;  209,053;   -2,401;    2,045
388,862;  165,680;   -0,401;   -0,318
389,453;  138,775;    1,054;    1,045
390,045;  176,650;    3,236;   -2,682
390,636;   73,381;    0,144;   -0,591
391,227;  123,406;    2,054;   -0,045
391,819;  104,282;    0,781;    0,773
392,410;  366,822;    0,600;    0,045
393,001;  176,930;    1,600;   -1,591
393,593;  243,003;    0,600;   -0,045
394,184;  274,857;    0,873;   -0,409
394,775;  146,899;    1,146;    2,136
395,366;   77,005;    1,782;    0,773
395,957;  269,145;   -2,400;    0,136
396,548;  152,281;    1,054;    2,682
397,139;  274,386;    2,236;    0,591
397,730;  185,773;    0,873;    0,955
398,321;  194,073;    0,509;    0,955
398,912;  127,358;   -0,764;    0,136
399,503;  130,010;   -1,945;   -1,409
400,094;  170,274;   -1,582;    1,682
400,685;  160,890;    3,600;    0,045
401,276;  100,184;   -0,400;   -0,955
401,867;   85,350;   -1,127;    0,773
402,458;   44,224;    1,509;   -2,318
403,048;  192,593;    0,146;    0,591
403,639;  125,685;    1,509;    0,864
404,230;  246,371;    0,691;    0,318
404,821;  301,829;   -0,127;    0,045
405,411;  201,201;   -0,763;   -2,591
406,002;  106,280;    3,237;   -1,136
406,592;  334,771;    2,691;    0,045
407,183;  184,820;    0,328;   -1,500
407,774;  149,309;    1,419;   -0,136
408,364;  113,925;    2,600;    0,409
408,954;  213,260;   -0,036;    1,227
409,545;  216,052;    1,873;    1,045
410,135;  161,479;   -1,581;    0,500
410,726;  108,040;    0,783;    0,318
411,316;  284,238;    2,237;    0,773
411,906;  120,099;    0,146;   -0,409
412,497;  118,900;   -0,490;   -0,045
413,087;   66,166;    0,783;   -0,227
413,677;    6,709;   -2,490;    3,864
414,267;   -9,722;   -1,035;    1,409
414,857;  -33,215;    0,419;    4,227
415,448;  -36,757;   -0,763;    0,500
416,038;   -6,680;   -2,945;   -0,591
416,628;   30,320;    0,965;    0,409
417,218;   71,136;   -1,762;    3,318
417,808;  203,916;    0,965;   -0,409
418,398;   87,685;   -1,035;    2,682
418,988;  -12,214;   -2,217;    0,591
419,578;   64,547;    3,601;    1,409
420,168;    0,208;    0,692;   -0,955
420,757;  125,912;    0,964;   -1,500
421,347;   25,797;    1,601;   -0,227
421,937;  -12,196;    3,329;    1,409
422,527;  105,372;    2,602;   -0,773
423,116;  226,619;    2,692;   -0,045
423,706;  -14,210;    2,965;    0,318
424,296;  -50,319;    1,601;    0,682
424,885;   58,227;    1,510;   -3,045
425,475;   30,358;    1,147;   -2,864
426,065;  -64,444;   -1,489;   -0,318
426,654;  -72,747;    0,329;   -0,318
427,244;  157,790;    1,147;    1,409
427,833;  115,092;    1,056;   -0,500
428,423;    4,942;    0,147;    1,136
429,012;   11,632;    2,420;   -1,136
429,601;  115,788;    2,057;    0,136
430,191;   22,776;    2,511;    4,318
430,780;  -62,347;   -1,671;   -0,409
431,369;   92,706;    1,329;   -0,045
431,959;    8,874;    1,693;    0,500
432,548;  -52,976;   -1,398;   -0,045
433,137;  -99,598;    0,329;   -1,318
433,726;  -42,404;    0,148;    0,500
434,315;  -11,632;    0,148;    2,409
434,905;   79,842;    0,693;    1,409
435,494;   60,610;    3,148;    0,955
436,083;  -40,576;    1,420;   -0,955
436,672;   43,438;    1,148;    0,500
437,261;   -1,766;    0,512;   -1,955
437,850;  186,749;   -1,125;    0,682
438,439;  234,403;    2,239;    1,955
439,027;  337,291;    3,421;    1,773
439,616;  252,772;    2,239;    1,227
440,205;   55,573;    0,057;   -2,136
440,794;   15,270;   -0,306;   -0,045
441,383;  -31,454;    1,603;   -0,591
441,971;  -59,125;   -0,306;    0,591
442,560;  -46,064;    0,603;   -1,773
443,149; -126,839;    3,060;   -1,318
443,737;  -87,639;    0,968;   -2,318
444,326;  -63,583;    0,331;    0,318
444,915;  -26,139;   -1,851;    0,864
445,503;  -20,962;    0,058;   -0,318
446,092;  221,653;    7,876;    2,136
446,680;  152,693;    1,876;    0,318
447,269;   63,557;   -1,487;   -0,318
447,857;   50,277;    2,240;   -1,773
448,445;   18,917;    2,149;    1,318
449,034;  -31,920;    0,876;   -1,136
449,622;  -32,003;    1,240;    3,500
450,210;  209,828;    3,149;    2,227
450,799;  139,889;    2,604;   -0,591
451,387;  104,719;    1,786;   -0,591
451,975;   92,259;   -1,305;    0,864
452,563;  156,705;    0,422;    2,318
453,151;    4,050;   -1,032;   -1,227
453,739;   46,829;   -1,577;    0,136
454,328;  138,592;    0,604;   -2,136
454,916;   73,765;    1,150;   -0,136
455,504;   90,939;    3,513;    1,227
456,092;   -3,868;    2,150;   -1,591
456,679;  -32,512;    0,604;    0,682
457,267;  344,572;    3,604;    1,045
457,855;   57,189;    3,241;    1,409
458,443;  -64,964;   -0,304;    1,682
459,031;   53,177;    1,332;    2,409
459,619;   17,849;   -3,577;    2,864
460,206;  -55,221;   -0,759;    2,045
460,794;  -51,429;   -0,668;   -0,227
461,382;  -14,770;    0,878;   -0,864
461,970;  -12,837;    0,605;    1,864
462,557;  -74,730;    0,878;   -0,682
463,145;   32,231;   -0,304;   -1,682
463,732;  254,511;    2,514;   -1,045
464,320;   48,936;    1,514;   -3,045
464,907;  168,460;    0,423;   -0,773
465,495;   81,028;    2,696;   -1,227
466,082;    4,943;    2,060;   -0,045
466,670;   28,705;    2,605;    1,227
467,257;  -52,753;    0,060;    2,045
467,844;   42,177;    1,514;    0,045
468,432;   15,972;   -0,031;    3,500
469,019;  -17,361;    1,606;   -1,773
469,606;   59,011;    0,969;    3,682
470,193;   80,656;    2,151;    0,227
470,780;   33,551;    0,333;    0,864
471,368;  -18,713;   -1,212;   -0,773
471,955;   69,299;    1,060;   -0,682
472,542;   37,469;   -0,303;   -1,136
473,129;  -58,591;   -0,485;    0,136
473,716;  -44,867;    0,060;    0,591
474,303;  -24,395;    1,333;   -0,864
474,890;  -19,678;    2,333;   -0,500
475,477;   72,130;   -0,576;    0,409
476,064;  -14,708;    0,697;   -1,591
476,650;   86,247;    2,152;    0,318
477,237;   10,156;    1,879;    0,955
477,824;   -3,577;    3,879;    0,864
478,411;  -69,339;    0,606;   -0,318
478,997;  -79,229;    0,606;   -0,773
479,584; -119,363;   -0,666;   -0,409
480,171;   31,713;    1,243;   -0,773
480,757;   79,619;   -0,848;    0,773
481,344;   -9,575;    0,334;    0,409
481,931;  -85,264;   -0,393;    1,045
482,517;   21,166;    0,425;    0,318
483,104;   93,240;    1,334;    2,864
483,690;  -14,916;    0,243;    0,045
484,276;  -43,781;    0,698;    0,227
484,863;  146,560;    2,152;    1,136
485,449;    8,649;    0,152;    0,318
486,035;  -35,829;   -0,666;   -0,136
486,622;   38,079;   -2,393;    0,045
487,208;  -33,468;    1,334;    1,500
487,794;  -88,906;    0,971;    0,318
488,380;  -79,017;    0,698;   -1,409
488,967;  -80,222;   -1,120;   -0,409
489,553;  -63,692;   -1,029;   -1,409
490,139;   -4,344;    0,971;    0,773
490,725;  -68,573;    0,789;   -0,227
491,311;  -29,014;    1,516;    3,045
491,897;  -44,351;   -0,665;    1,500
492,483;  -28,157;    0,426;    1,227
493,069;  372,741;    5,426;    0,864
493,655;  108,213;    1,789;    0,682
494,241;  -13,500;    1,517;   -0,955
494,826;   -3,519;    0,335;   -1,045
495,412;   47,423;    0,335;   -0,682
495,998;  -33,495;    0,971;   -0,318
496,584;   13,788;    2,244;    1,045
497,169;   39,033;    2,335;   -0,682
497,755;   -9,685;    1,244;    1,227
498,341;  102,479;    2,153;    0,318
498,926;  210,222;    2,881;    1,955
499,512;  -21,691;   -0,028;    2,955
500,097;  -21,715;   -0,574;   -0,318
500,683;    0,089;   -0,028;    2,136
501,268;  -36,224;    1,881;   -0,955
501,854;  -21,789;   -0,119;    1,227
502,439;  -25,817;   -0,573;   -1,773
503,024;  -18,752;    1,608;    0,500
503,610;    7,255;    1,335;   -0,682
504,195;  -39,070;    1,245;    1,955
504,780;   44,266;    2,335;    1,227
505,366;  118,668;    4,063;    2,864
505,951;   51,823;   -1,119;    1,045
506,536;  -15,287;    1,427;   -3,682
507,121;   40,005;    1,699;   -0,318
507,706;    0,758;   -0,392;    1,045
508,291;  -46,532;   -2,937;    1,136
508,876;  -41,745;   -0,482;    2,591
509,461;  -10,110;    1,427;   -0,773
510,046;   30,342;   -0,391;    0,318
510,631;   42,194;   -0,119;   -0,773
511,216;  -34,899;   -0,664;   -0,500
511,801;    9,524;   -0,755;    2,591
512,386;   30,503;    0,972;    0,500
512,971;   39,021;    0,427;    0,955
513,555;   68,458;    1,154;   -1,500
514,140;   39,552;    1,336;   -3,136
514,725;  151,980;    1,791;   -1,136
515,309;   69,837;    1,064;    0,318
515,894;   -3,569;   -0,300;   -2,227
516,479;   49,701;    1,973;   -0,955
517,063;   67,349;    0,882;    1,227
517,648;   44,111;    0,155;   -1,136
518,232;   37,937;   -1,300;   -1,409
518,817;  174,194;    1,337;    1,682
519,401;  342,290;    0,700;    0,591
519,985;  345,856;    2,700;    1,136
520,570;  258,683;   -0,118;   -1,955
521,154;  476,499;    0,064;    0,591
521,738;  800,017;    1,064;    2,409
522,323;  742,629;   -0,390;    1,682
522,907;  833,412;    2,428;   -0,136
523,491;  891,347;    1,155;    0,955
524,075; 1030,059;    0,428;    0,591
524,659; 1433,580;    0,973;    0,591
525,243; 1512,648;    0,883;    0,409
525,827; 1751,398;    0,883;   -0,045
526,411; 2259,580;    1,155;   -0,136
526,995; 2824,452;    0,337;    1,409
527,579; 3083,776;    1,974;   -1,045
528,163; 3574,494;    0,428;   -1,500
528,747; 4112,359;    1,065;   -0,773
529,331; 4673,804;    0,883;   -1,409
529,915; 5154,727;    2,338;    0,955
530,499; 5659,784;    0,247;    1,227
531,082; 5994,667;    1,065;    1,591
531,666; 6180,936;    0,520;    0,773
532,250; 7102,253;    0,428;    2,682
532,833; 7814,223;    0,610;    2,773
533,417; 8254,910;    1,247;    0,864
534,001; 8646,655;    0,429;   -0,318
534,584; 9712,872;    1,974;    0,500
535,168; 9998,218;    3,247;    1,409
535,751;10457,342;    4,520;    0,045
536,334;10323,239;    4,520;   -0,409
536,918;11330,791;    1,974;    1,591
537,501;11726,459;    1,520;    1,318
538,085;12078,702;    1,702;    1,045
538,668;12528,141;    0,883;    2,409
539,251;13149,216;    3,156;    3,773
539,834;13510,636;    0,156;    0,773
540,418;13711,914;    3,247;    4,318
541,001;14072,174;    2,702;    1,773
541,584;14328,552;    1,429;    2,227
542,167;14193,800;    0,702;    2,955
542,750;14513,548;    0,793;   -0,773
543,333;14312,621;    1,429;    2,136
543,916;15303,008;   -0,298;    2,500
544,499;16043,062;    2,520;    0,227
545,082;16195,691;    0,248;    3,591
545,665;16516,200;   -0,207;    1,500
546,248;16946,803;    0,520;   -0,318
546,830;16763,272;   -1,752;    1,955
547,413;17302,440;    0,157;   -0,773
547,996;17973,429;    0,157;    0,500
548,579;17851,090;   -0,843;    0,955
549,161;17724,901;    0,884;    2,682
549,744;17665,016;    0,612;    0,409
550,326;18245,216;    0,885;   -1,136
550,909;18055,214;    2,339;    0,591
551,492;18557,709;    0,521;    0,227
552,074;18431,408;   -0,024;   -1,318
552,657;19024,747;    2,430;    0,045
553,239;18870,973;   -3,024;   -0,773
553,821;18848,616;   -1,570;    1,045
554,404;18366,342;   -0,024;    1,136
554,986;18805,356;    2,248;    1,045
555,568;19449,945;    0,430;   -0,955
556,151;18675,111;    4,067;   -0,227
556,733;18894,675;   -1,388;   -0,864
557,315;19425,682;    4,703;    0,500
557,897;19301,978;    0,521;   -0,500
558,479;19489,210;    1,703;    1,318
559,061;19633,018;    1,067;   -0,864
559,643;20010,226;   -0,297;    0,045
560,225;20386,574;   -0,388;    2,864
560,807;20473,499;    0,340;    0,318
561,389;19999,882;   -1,206;    2,318
561,971;20741,487;   -0,660;    2,136
562,553;20611,969;    0,613;    1,591
563,135;20738,703;    1,249;    1,136
563,717;20331,661;    3,158;    1,136
564,298;21095,964;    3,976;   -0,045
564,880;20849,306;    0,340;   -1,409
565,462;20994,034;    1,977;    1,318
566,043;22224,597;   -0,933;    2,318
566,625;21743,952;    4,067;    1,227
567,207;21629,473;    0,704;    1,682
567,788;22823,334;   -0,114;    1,500
568,370;23689,247;   -1,841;   -0,500
568,951;23455,544;   -0,569;    0,227
569,533;24452,642;    0,977;   -0,500
570,114;24951,163;   -0,296;    0,682
570,695;25460,504;   -0,478;   -1,318
571,277;26041,063;   -0,205;   -1,682
571,858;26824,009;    2,704;   -1,136
572,439;27748,953;    0,795;   -1,045
573,021;27942,631;    0,432;   -2,773
573,602;28485,336;    1,795;    0,318
574,183;29474,235;   -0,114;    2,227
574,764;29680,448;    2,068;    0,409
575,345;30239,362;    0,250;   -0,136
575,926;30879,871;    2,704;    0,136
576,507;30856,509;    2,704;   -0,227
577,088;31991,112;    1,704;    1,682
577,669;32067,154;    1,704;    1,955
578,250;32831,416;   -0,750;   -1,045
578,831;33552,862;   -0,841;   -2,227
579,412;33836,684;   -1,205;    0,955
579,993;34805,586;    1,432;    0,227
580,573;35187,537;   -0,023;   -0,955
581,154;34117,560;    1,613;   -0,591
581,735;34998,021;    0,341;    0,773
582,315;34487,476;    0,523;    2,136
582,896;34850,993;   -1,750;    1,227
583,477;34358,021;    0,614;    1,227
584,057;34528,098;    1,159;    0,955
584,638;34782,495;   -2,750;    2,318
585,218;34799,808;    2,886;    2,682
585,799;34992,135;    1,977;   -0,227
586,379;34915,930;    1,250;    1,591
586,959;33700,028;    2,613;    0,318
587,540;33037,100;    0,432;    2,227
588,120;32565,741;   -1,113;   -0,045
588,700;31523,937;    2,977;    2,136
589,281;31831,198;    1,250;   -0,955
589,861;31761,829;   -0,296;   -1,682
590,441;31581,397;   -1,477;   -2,682
591,021;30499,395;    1,432;   -2,591
591,601;30767,539;    0,431;    0,500
592,181;30758,901;   -1,296;   -0,773
592,761;30028,635;    2,250;    1,409
593,341;29934,714;    1,522;    0,045
593,921;29887,897;   -0,569;    1,591
594,501;29790,152;    1,250;    1,318
595,081;29637,731;    0,522;   -0,318
595,661;30000,430;    1,068;    0,955
596,240;30521,663;   -1,023;    0,136
596,820;30116,348;    2,613;    1,955
597,400;30365,347;    1,977;    0,773
597,980;30613,808;   -0,750;    1,045
598,559;30645,957;    0,341;   -0,227
599,139;30338,191;   -0,750;   -1,227
599,718;30207,645;    0,795;   -0,409
600,298;30519,354;   -2,387;    0,682
600,877;30698,743;    4,795;    1,409
601,457;31018,429;    0,340;    1,136
602,036;30931,439;    1,795;    2,045
602,616;31197,708;    2,250;    1,682
603,195;31505,420;    0,431;    3,500
603,774;30964,166;   -0,296;    2,045
604,354;30885,605;    2,522;   -0,500
604,933;30378,967;    0,250;    1,864
605,512;30506,871;    2,340;    0,591
606,091;30545,962;    1,886;    3,773
606,671;31393,586;    0,249;    0,773
607,250;30445,604;    1,431;    3,136
607,829;30738,130;    1,158;    3,227
608,408;30582,093;    4,613;    2,591
608,987;29605,822;    2,704;    3,409
609,566;29879,803;    0,341;   -2,500
610,145;29977,188;    2,885;    0,682
610,723;30391,710;    1,613;    6,864
611,302;29613,744;    1,067;    1,682
611,881;29114,904;    5,158;   11,227
612,460;29945,352;    0,795;    3,955
613,039;30421,301;    1,703;    2,045
613,617;29075,653;    0,886;    4,773
614,196;29282,931;    1,613;    1,227
614,775;29699,523;    1,249;    2,409
615,353;29616,212;   -1,660;    0,864
615,932;29309,114;    0,249;    2,409
616,510;29891,696;    0,158;    0,591
617,089;29380,925;    8,794;   17,591
617,667;29128,396;    4,885;    6,136
618,246;28940,324;   -1,115;    1,318
618,824;29155,235;    1,612;   -0,955
619,402;28711,153;    0,431;   -1,773
619,981;29235,948;    1,067;   -1,045
620,559;29120,745;    0,794;    1,682
621,137;28641,128;    3,067;    1,864
621,715;28564,105;    3,703;   -0,682
622,293;28468,359;    1,885;   -0,773
622,871;28944,773;    0,340;    0,500
623,450;28511,845;    0,430;   -0,864
624,028;28435,043;   -0,388;   -0,955
624,606;28013,252;    2,339;    1,682
625,183;28440,188;   -0,661;   -1,136
625,761;28045,361;    1,885;    1,136
626,339;28398,263;    2,339;    2,591
626,917;28794,268;    0,339;   -0,045
627,495;28820,600;    2,794;    1,318
628,073;28283,139;    5,248;    2,864
628,650;27917,679;    3,067;    2,136
629,228;28365,752;    1,248;    4,409
629,806;27719,060;   -0,024;    1,136
630,383;27997,606;    0,066;   -0,318
630,961;27775,002;   -2,206;   -0,955
631,539;27549,919;   -2,479;    0,227
632,116;26715,275;   12,703;   15,409
632,694;27347,805;    4,885;    6,500
633,271;27675,740;    1,975;    2,682
633,848;27599,681;    1,430;    2,045
634,426;27624,347;    1,521;    1,773
635,003;26722,454;   -0,207;   -0,409
635,580;27098,055;    1,884;    3,682
636,158;27676,357;    3,793;    1,227
636,735;27627,319;    3,339;   -0,500
637,312;27792,964;    0,521;   -0,682
637,889;27928,361;    2,248;   -0,682
638,466;27402,912;    0,066;   -0,409
639,043;27430,691;    1,702;   -1,136
639,620;27719,013;    0,611;   -0,955
640,197;27968,551;    1,612;    1,682
640,774;28113,982;    1,430;    1,136
641,351;28554,595;    0,612;    1,136
641,928;27938,207;    2,794;    1,409
642,505;27597,001;    0,794;   -0,500
643,082;27698,978;    1,885;    1,227
643,658;26743,136;    1,157;    1,500
644,235;27481,203;   -2,479;    2,500
644,812;27730,361;    1,794;    0,773
645,388;27500,246;    1,612;    1,409
645,965;27605,131;    1,521;    1,682
646,542;27662,653;    3,430;   -0,227
647,118;27656,992;    3,703;   -0,955
647,695;27983,605;    0,339;    1,136
648,271;27912,217;   -2,115;    0,500
648,848;28236,375;    0,248;    2,227
649,424;28036,352;    0,976;    1,318
650,000;27736,419;   -0,388;   -1,045
650,577;27592,122;    0,158;   -0,955
651,153;28073,916;   -1,115;    0,955
651,729;29091,256;    0,521;    0,864
652,305;29279,960;    1,339;    2,773
652,881;33852,845;   -1,297;    1,136
653,458;40963,003;    0,249;    0,227
654,034;44993,161;    0,703;    1,591
654,610;46598,682;    0,339;    0,773
655,186;47998,113;    1,612;    3,045
655,762;47750,998;   -1,842;    0,409
656,338;47780,247;    0,703;    0,136
656,913;48850,860;   -0,297;    0,409
657,489;48187,199;    0,249;   -0,318
658,065;48095,085;    0,794;   -1,591
658,641;48650,334;    2,158;   -0,864
659,217;48055,401;    2,067;    0,409
659,792;47484,377;   -1,751;   -0,409
660,368;47820,262;   -0,388;   -0,682
660,944;47481,784;    1,794;    1,227
661,519;42794,669;    0,522;    0,409
662,095;36341,281;   -0,206;    0,591
662,670;31365,530;   -0,206;   -0,136
663,246;30132,415;   -0,660;   -0,409
663,821;29321,664;    0,431;    1,682
664,396;28823,368;    0,613;    1,864
664,972;29128,889;   -0,660;   -0,500
665,547;29494,502;    3,794;    0,136
666,122;29483,660;    1,340;    0,318
666,698;29771,272;    2,431;    0,318
667,273;29077,794;    0,885;    0,136
667,848;29942,315;    0,340;    1,500
668,423;29678,837;    1,795;    2,318
668,998;30295,631;    0,976;   -0,682
669,573;30863,607;    2,067;   -1,500
670,148;30657,765;    1,885;   -0,682
670,723;30508,833;   -0,024;    0,318
671,298;30970,354;   -1,296;    1,045
671,873;31064,785;   -0,296;   -0,136
672,448;30948,215;    1,704;    0,136
673,023;31354,555;    0,249;   -0,227
673,597;31656,168;    2,704;    2,318
674,172;31447,598;    2,431;    0,318
674,747;30948,666;   -0,205;   -1,045
675,321;30804,005;   -0,933;    3,318
675,896;30317,800;    2,158;    1,045
676,471;31348,139;    2,522;    1,591
677,045;31040,116;   -0,296;    0,682
677,620;31125,092;    2,158;    1,136
678,194;31478,522;    0,249;    1,136
678,769;30930,499;    0,886;   -0,318
679,343;31211,566;   -0,023;    1,773
679,917;31060,633;    0,340;    1,955
680,492;31157,518;    0,249;    3,227
681,066;31348,676;    0,613;    0,409
681,640;31362,561;    1,795;   -0,318
682,214;32173,264;    2,340;    0,500
682,788;31665,513;    0,613;   -0,773
683,363;31637,308;    1,977;    1,682
683,937;31333,375;    0,886;   -0,318
684,511;32162,805;   -1,023;   -0,591
685,085;31834,872;   -1,478;    0,318
685,659;31563,485;    1,431;    0,864
686,232;31810,552;    1,159;   -0,318
686,806;31543,437;    2,159;    0,409
687,380;32192,050;   -1,932;    0,591
687,954;32431,753;    2,432;    1,136
688,528;32088,184;    2,613;    1,955
689,101;32916,251;    0,432;    1,045
689,675;32493,500;    0,886;   -0,136
690,249;31817,021;    3,432;    0,409
690,822;32080,998;    1,159;    0,318
691,396;32208,792;    2,068;    1,227
691,969;31665,495;    2,523;    0,136
692,543;32157,017;   -0,568;   -1,955
693,116;31801,175;   -0,659;   -1,409
693,690;31657,515;   -0,296;    0,500
694,263;32207,400;    2,341;    2,955
694,836;32238,376;    2,795;    3,591
695,410;30812,625;    1,159;    1,773
695,983;31270,056;    1,614;    0,591
696,556;31263,032;   -0,750;   -1,045
697,129;31647,281;   -1,114;    1,409
697,703;31243,348;    1,341;    1,955
698,276;31263,506;    1,705;   -0,773
698,849;31059,754;   -1,023;    1,409
699,422;31448,276;    1,250;    0,591
699,995;31132,434;   -0,659;    0,136
700,568;31646,956;   -0,204;    3,045
701,140;31604,386;   -1,841;    1,682
701,713;31319,090;    0,341;    2,409
702,286;31109,884;    0,796;    0,864
702,859;31039,315;    0,614;   -0,591
703,432;30131,018;   -0,841;    0,682
704,004;30611,812;    1,978;    0,318
704,577;30486,425;    1,068;    0,136
705,150;31090,674;    0,887;    2,500
705,722;30877,741;    1,523;   -3,227
706,295;30682,172;    1,432;   -0,591
706,867;30468,966;    0,250;    1,955
707,440;30699,760;   -0,113;   -0,409
708,012;30940,009;   -0,022;    0,591
708,584;30849,712;    2,705;    0,227
709,157;31191,961;    1,160;   -0,591
709,729;30838,483;    1,069;    2,045
710,301;31733,823;   -1,204;    0,045
710,874;31666,708;    0,341;   -0,227
711,446;30511,320;   -0,295;    0,864
712,018;30382,297;   -3,022;    0,500
712,590;30103,727;   -0,204;    1,682
713,162;30640,340;   -0,477;    1,318
713,734;30910,043;    1,796;   -2,045
714,306;30795,383;    0,342;   -0,409
714,878;29449,086;   -0,295;    0,864
715,450;30275,517;   -0,113;    0,864
716,022;30582,311;    2,433;    1,318
716,593;30754,560;    0,978;    0,591
717,165;30646,627;    1,796;   -1,227
717,737;30370,513;    0,796;    0,409
718,309;30046,034;    1,160;   -0,045
718,880;29959,556;   -1,295;   -1,409
719,452;30249,077;    0,887;   -1,591
720,024;29734,963;    1,705;   -0,591
720,595;30321,939;    2,978;    0,955
721,167;29836,279;    1,160;   -2,045
721,738;29291,073;    2,069;   -1,045
722,309;29194,413;    1,251;   -1,227
722,881;29016,207;    2,705;    0,773
723,452;29692,547;    1,251;    2,864
724,023;29890,068;    1,524;    2,682
724,595;29665,226;    2,342;    0,682
725,166;29367,293;    1,524;   -0,409
725,737;28995,360;    1,887;    0,227
726,308;29121,700;    0,797;    0,318
726,879;29526,858;    1,069;    1,227
727,450;29369,107;   -2,022;   -0,045
728,021;29325,356;    1,069;    0,682
728,592;29169,423;    1,160;    0,500
729,163;29471,126;    1,433;   -0,136
729,734;29489,466;    2,160;   -0,227
730,305;29817,897;    0,615;    0,136
730,876;30147,600;    0,888;    2,955
731,447;29802,122;    0,797;    2,682
732,017;29927,189;   -0,840;    1,864
732,588;29445,074;   -0,021;    1,227
733,159;29648,141;    3,615;   -1,045
733,729;29505,208;    1,251;    0,409
734,300;28678,457;    0,160;    0,864
734,870;29161,888;   -1,385;    0,591
735,441;29693,318;    0,888;   -0,591
736,011;29461,931;    1,070;   -1,591
736,582;29384,634;    1,251;    0,045
737,152;28846,338;    0,979;   -2,045
737,722;29329,132;    1,070;   -0,682
738,293;29012,381;   -2,021;    1,318
738,863;28893,084;    1,797;    2,318
739,433;28672,970;    4,524;    0,318
740,003;29357,855;    1,524;   -0,682
740,573;28743,377;    2,252;   -1,591
741,143;28759,534;    3,615;    0,318
741,713;29503,420;    0,252;   -0,500
742,283;29143,396;    1,706;    1,591
742,853;28904,099;    0,524;    1,591
743,423;28357,348;    0,161;    0,045
743,993;28497,052;    1,070;    1,500
744,563;27821,391;    2,524;   -0,864
745,133;27770,095;   -0,112;   -0,864
745,702;28532,980;    2,797;    1,773
746,272;27697,683;    0,434;    0,591
746,842;27416,205;   -0,748;   -0,591
747,411;27888,817;   -0,839;   -0,318
747,981;28062,066;   -0,930;    0,500
748,551;28081,679;   -0,021;   -1,045
749,120;27945,746;   -0,112;   -0,227
749,690;28381,086;    2,161;    2,409
750,259;28673,698;    0,979;    2,955
750,828;28579,311;    4,070;   -1,955
751,398;28844,378;   -0,112;   -0,045
751,967;28315,990;    2,888;    0,409
752,536;28512,876;    1,161;   -0,227
753,105;28916,488;   -1,384;    0,227
753,675;28703,282;   -0,112;    1,773
754,244;28655,713;    0,888;    3,591
754,813;28684,871;    0,979;    1,227
755,382;28313,847;    0,798;    0,955
755,951;28860,914;   -0,112;    3,682
756,520;28423,072;    2,525;    1,864
757,089;28941,321;    1,888;    0,500
757,658;29079,024;    2,434;    1,227
758,227;29056,728;   -1,111;    0,318
758,795;29421,522;   -1,021;    1,136
759,364;29681,226;    0,525;   -0,591
759,933;28634,838;    1,343;   -0,045
760,501;28095,178;    0,252;   -1,318
761,070;28591,972;   -0,293;   -1,409
761,639;29343,857;    1,434;    1,318
762,207;28645,197;    0,889;   -0,955
762,776;28628,992;    2,889;    0,864
763,344;28547,786;    0,071;    0,591
763,913;27706,217;    1,616;    1,409
764,481;28446,011;    1,980;   -0,136
765,049;28209,987;    0,616;    1,409
765,618;28117,145;    1,434;    0,318
766,186;28178,485;    2,434;    0,136
766,754;28336,915;    1,798;    1,864
767,322;27278,983;    1,162;    0,409
767,890;27284,413;    0,525;   -1,773
768,459;27716,026;    2,616;   -0,318
769,027;27846,911;    2,525;    3,409
769,595;26842,705;    2,616;    2,591
770,163;27280,045;    3,344;    2,955
770,730;26982,294;    2,525;   -0,136
771,298;26842,088;    1,162;   -1,409
771,866;26965,883;    0,253;    4,955
772,434;27289,131;    1,162;   -1,864
773,002;27439,471;    2,616;    0,682
773,569;27029,175;    1,071;    1,682
774,137;26827,242;    0,889;   -0,045
774,705;27650,127;   -0,747;   -0,136
775,272;27119,830;    0,253;    0,682
775,840;26930,352;   -0,111;    2,682
776,407;26463,692;   -0,293;    1,955
776,975;25980,031;    1,162;    0,318
777,542;27064,280;    2,162;   -0,045
778,110;26890,711;    0,707;   -0,045
778,677;26570,414;    1,071;   -0,864
779,244;26285,845;   -1,020;    1,045
779,812;26408,730;    0,980;    0,864
780,379;26216,797;    2,435;    1,136
780,946;26449,410;    2,617;   -0,773
781,513;26814,477;   -0,565;    0,318
782,080;26125,817;    1,253;    2,864
782,647;26903,247;    1,708;    3,045
783,214;26483,587;   -0,201;    3,864
783,781;26032,382;    1,708;   -0,682
784,348;25932,994;    0,253;    1,500
784,915;26433,516;   -1,474;    0,318
785,482;26148,583;    2,708;    2,591
786,049;26653,468;    1,071;   -0,591
786,615;26737,990;    1,708;   -0,955
787,182;26521,602;   -3,201;   -0,682
787,749;26186,215;   -2,201;    1,409
788,315;25464,373;    0,253;   -0,409
788,882;25800,803;    0,981;   -1,227
789,448;26502,507;    1,435;   -0,955
790,015;26487,028;    1,799;    3,227
790,581;26042,732;    0,708;    0,227
791,148;25917,435;    1,344;    1,045
791,714;26122,775;   -1,019;    3,136
792,280;25818,751;    3,708;    1,591
792,847;25337,636;   -0,928;    2,500
793,413;25931,976;   -0,110;   -0,318
793,979;25432,498;    1,526;   -1,318
794,545;25479,474;    2,981;    2,682
795,111;24870,814;    2,435;    1,318
795,678;25090,426;    3,526;   -1,682
796,244;24717,857;    2,799;    0,136
796,810;25285,106;    0,799;    0,773
797,375;25018,809;   -0,292;   -2,136
797,941;25034,876;   -1,110;    0,591
798,507;25177,216;    0,254;   -0,955
799,073;24749,828;    2,708;    0,591
799,639;24766,168;    1,435;    3,136
800,205;24794,326;   -1,565;    2,682
800,770;24315,393;    1,345;    1,773
801,336;24380,006;    2,981;   -0,955
801,901;24057,618;    6,072;    3,136
802,467;24652,140;    0,526;    2,045
803,033;23933,843;   -0,019;    0,864
803,598;24142,365;    1,072;   -1,045
804,163;24221,886;    0,708;   -0,318
804,729;24107,953;   -0,110;    1,136
805,294;24522,839;    1,072;    2,227
805,859;24369,542;    0,890;   -0,409
806,425;23784,245;    3,890;    2,682
806,990;23425,949;    1,890;    4,318
807,555;24018,198;   -0,110;    2,591
808,120;23840,356;   -1,292;   -0,409
808,685;23884,150;    1,072;   -2,500
809,250;23401,853;    2,072;   -0,500
809,815;23748,193;   -0,201;    0,682
810,380;24326,806;    0,981;    1,591
810,945;24809,055;    2,890;    2,045
811,510;24000,849;   -0,200;    1,591
812,075;23627,643;    2,800;   -1,409
812,640;23695,710;    3,709;    1,409
813,204;23752,686;    2,163;   -0,227
813,769;24250,117;    0,254;   -0,045
814,334;23598,093;    0,527;    0,864
814,898;23682,433;    1,981;    0,591
815,463;23535,773;    0,981;   -0,773
816,027;23470,113;    1,345;   -2,318
816,592;23601,089;    2,163;   -2,045
817,156;23069,701;   -2,200;    1,136
817,721;22882,496;    0,982;    2,318
818,285;22855,381;    0,618;    1,500
818,849;23505,175;   -0,018;    1,682
819,414;23384,788;    0,073;    2,955
819,978;22932,400;   -0,291;    1,773
820,542;23518,013;    2,891;    0,500
821,106;23330,716;    2,800;    0,682
821,670;23387,056;    2,709;    2,591
822,234;23057,668;    1,073;    1,409
822,798;22426,281;   -0,836;    0,500
823,362;22396,439;    1,527;    4,227
823,926;21698,597;   -0,018;    1,136
824,490;21913,573;    3,527;   -0,682
825,054;22390,731;    2,527;   -1,136
825,618;22015,162;   -1,200;   -1,500
826,181;21895,683;    0,982;   -1,318
826,745;21806,296;   -0,745;   -1,045
827,309;22164,726;    2,255;    1,318
827,872;21572,430;    0,527;    0,955
828,436;22569,406;    1,982;   -0,773
828,999;22640,200;    2,436;    1,227
829,563;21413,267;   -0,654;    1,136
830,126;21301,334;   -0,018;   -0,591
830,690;21207,401;    0,709;    2,864
831,253;20726,559;   -0,473;    2,227
831,816;20906,445;   -0,018;    0,500
832,380;20801,694;    1,164;    0,864
832,943;20966,670;    3,073;   -0,500
833,506;20513,646;    0,255;   -1,227
834,069;21341,622;    2,164;   -0,955
834,632;21372,144;   -2,200;    1,318
835,195;21261,756;    1,346;    0,955
835,758;20449,823;    0,709;    1,955
836,321;20274,799;    1,073;   -1,045
836,884;20381,594;   -1,291;   -0,955
837,447;20411,388;    0,528;    1,773
838,010;20613,273;    1,800;    3,227
838,573;21024,431;    0,528;    0,773
839,135;20903,134;   -0,109;   -0,955
839,698;20309,202;    2,528;    0,409
840,261;19861,087;    0,255;   -0,227
840,823;19749,154;   -0,927;    0,864
841,386;20042,948;   -0,018;   -2,409
841,948;19898,924;    0,255;    1,773
842,511;19621,173;    0,255;    1,682
843,073;19751,331;    2,982;    0,227
843,636;19575,762;    0,619;   -0,227
844,198;19491,556;    1,255;    0,591
844,760;19595,078;    0,619;    1,955
845,322;19237,690;    0,164;    1,136
845,885;19692,848;   -0,290;    0,591
846,447;20126,643;    0,710;    0,227
847,009;19617,437;    3,983;   -0,682
847,571;19985,595;    1,346;   -2,045
848,133;20057,389;   -0,199;   -1,864
848,695;19913,183;    2,346;    1,409
849,257;19441,705;    1,346;   -1,682
849,819;19603,863;    2,983;   -0,409
850,381;19693,021;    1,801;   -0,864
850,942;20082,906;    1,892;   -0,591
851,504;19974,064;    0,983;    0,227
852,066;20020,859;    1,619;   -1,591
852,628;19515,653;    0,165;    1,955
853,189;19058,993;    0,256;    2,682
853,751;19201,514;   -0,654;    1,409
854,312;19014,854;    1,256;   -1,682
854,874;19541,739;   -0,108;   -0,773
855,435;20066,261;    0,528;   -1,682
855,997;20181,692;    3,983;   -0,136
856,558;19448,940;    0,801;    1,773
857,119;19560,735;   -0,744;    2,864
857,681;19194,438;   -0,108;    0,318
858,242;19268,323;    1,347;   -2,136
858,803;19764,663;    1,074;   -0,773
859,364;20329,367;    0,892;   -4,773
859,925;19688,070;   -0,290;   -0,955
860,486;19546,682;    0,529;   -0,955
861,047;19240,659;    0,165;   -1,227
861,608;19058,635;    0,165;   -0,773
862,169;19222,611;   -0,562;   -0,045
862,730;18973,314;   -0,290;    1,409
863,291;19233,109;    0,438;   -0,500
863,852;19567,267;   -0,926;    1,955
864,412;18966,788;   -1,835;   -0,864
864,973;17523,401;    1,892;    0,500
865,534;17429,377;    2,074;    0,227
866,094;18952,808;    2,620;    0,227
866,655;18577,238;    4,711;    3,318
867,215;18869,305;    0,074;    0,136
867,776;18710,645;   -1,199;   -0,136
868,336;18784,076;    1,529;    0,136
868,897;18215,961;    3,438;    1,682
869,457;17988,846;    3,256;    0,318
870,017;18237,913;    2,438;   -1,227
870,578;18786,980;    1,893;    0,773
871,138;18449,320;    2,620;   -0,955
871,698;17963,296;   -0,562;   -1,318
872,258;17795,727;    0,711;   -2,864
872,818;18202,612;    2,347;    0,045
873,378;18120,679;   -2,198;    1,045
873,938;17676,019;    4,984;    0,500
874,498;18036,904;    1,256;   -1,955
875,058;17891,880;    4,347;    1,773
875,618;17768,220;    1,438;   -2,682
876,177;17718,287;   -0,471;    0,136
876,737;17264,718;   -0,289;    1,955
877,297;17268,512;    2,711;    1,955
877,856;17265,125;    2,529;    0,318
878,416;17212,465;    2,438;   -0,136
878,976;17419,895;    3,438;    0,409
879,535;17619,599;    4,529;    3,136
880,095;17300,666;    1,347;    0,045
880,654;17458,733;    0,347;    1,318
881,213;17543,800;    2,347;    1,500
881,773;17179,958;    1,984;    2,682
882,332;17548,752;    6,075;    5,136
882,891;17399,455;    0,711;    2,136
883,451;17891,613;   -2,016;    1,682
884,010;17375,590;   -1,107;   -0,409
884,569;17423,566;   -2,289;   -0,045
885,128;17534,905;   -0,743;   -1,864
885,687;17632,700;   -0,743;    0,682
886,246;17338,676;    2,620;    2,136
886,805;17073,379;    1,620;    2,045
887,364;17407,628;    1,166;   -0,500
887,922;17747,059;   -0,016;    0,045
888,481;17212,490;    1,530;    0,591
889,040;17576,739;    3,711;    2,136
889,599;18252,624;    2,166;    1,409
890,157;18339,509;    2,166;    2,409
890,716;17987,212;    2,166;    0,227
891,274;17771,734;    0,075;   -1,136
891,833;18198,256;    1,166;    0,864
892,391;18094,323;    1,802;    0,500
892,950;18184,935;    0,166;   -0,773
893,508;18511,820;    0,984;   -0,409
894,067;17882,706;   -0,379;    0,136
894,625;17811,864;   -1,016;   -1,500
895,183;17990,931;   -0,198;   -0,682
895,741;17903,634;    2,257;   -1,773
896,299;17736,792;    1,621;   -2,409
896,858;17944,859;    1,530;   -1,591
897,416;18031,835;    0,166;   -1,318
897,974;17752,357;   -2,197;    0,318
898,532;17912,060;    6,530;    2,682
899,089;17784,673;    0,621;   -0,682
899,647;17925,012;    0,530;    1,318
900,205;17638,989;    0,257;    1,045
900,763;17792,965;    2,166;    0,227
901,321;17810,305;    3,530;   -1,409
901,878;17187,372;    3,257;   -0,773
902,436;17073,893;    0,257;    1,318
902,994;17501,415;    6,712;    3,682
903,551;16882,118;    1,439;    0,409
904,109;17252,549;    1,530;   -1,409
904,666;16879,161;    1,439;    1,045
905,224;16658,501;    3,894;   -0,409
905,781;16384,296;   -0,470;   -0,318
906,338;16457,817;    0,167;    1,045
906,895;16442,248;    1,894;    2,045
907,453;16306,315;    2,348;    1,136
908,010;16343,200;    3,348;    0,409
908,567;15985,813;   -0,561;    0,591
909,124;15511,789;    2,439;   -1,500
909,681;15568,219;   -1,288;    0,682
910,238;15715,650;   -0,106;   -1,318
910,795;16004,899;   -1,561;   -1,136
911,352;15701,808;   -0,379;   -2,682
911,909;15063,990;    2,803;   -0,864
912,466;15558,808;    1,985;    1,500
913,022;15045,081;   -0,924;    0,500
913,579;15405,354;   -0,470;    2,045
914,136;15116,626;   -2,561;    0,955
914,692;15483,172;    1,530;   -1,227
915,249;15073,172;    0,530;    0,409
915,806;15286,626;    1,803;    1,955
916,362;15009,263;    0,894;    1,864
916,918;14532,626;    2,439;    1,045
917,475;14535,354;    1,621;    0,955
918,031;14672,808;    0,076;   -0,045
918,587;14101,444;    0,621;   -0,318
919,144;14330,172;   -0,379;    0,227
919,700;14641,899;    0,167;    0,773
920,256;14219,172;    0,439;    0,045
920,812;13816,354;    1,439;   -1,045
921,368;13776,899;    1,348;   -1,045
921,924;13464,263;    0,439;   -0,136
922,480;13019,899;    0,076;    1,227
923,036;13621,172;   -0,652;    1,955
923,592;13570,899;    0,621;    0,318
924,148;13467,172;    1,894;   -0,955
924,704;12810,444;    0,258;   -0,409
925,259;13097,808;   -0,561;    0,591
925,815;12799,354;    3,803;    0,500
926,371;12319,535;    3,530;    1,409
926,926;12197,172;    1,621;    0,591
927,482;11817,444;    1,621;    0,773
928,037;11662,808;   -0,833;    2,045
928,593;12013,444;    0,258;    1,045
929,148;11782,354;    1,167;   -1,500
929,704;11325,717;    2,439;   -0,500
930,259;11479,626;    0,894;   -0,136
930,814;10559,626;    1,803;    1,955
931,369;10232,717;    0,258;   -0,773
931,925;10130,263;   -1,924;    0,136
932,480; 9983,626;    3,076;   -2,591
933,035; 9867,899;    3,985;   -0,318
933,590; 9627,535;   -1,742;   -1,773
934,145; 9294,990;   -1,288;   -0,318
934,700; 9646,263;    0,348;   -0,591
935,255; 9433,808;    4,803;    0,045
935,809; 8668,263;    6,258;    0,864
936,364; 7776,172;    2,167;   -0,136
936,919; 7746,172;    2,348;   -1,773
937,474; 7634,535;    1,348;    0,136
938,028; 7378,808;    3,076;    1,136
938,583; 6803,354;    6,348;    4,682
939,138; 7127,172;    0,167;    2,136
939,692; 6591,081;   -1,015;   -1,136
940,247; 6231,990;    1,167;   -1,045
940,801; 5777,081;    0,621;    0,227
941,355; 5672,717;    0,439;    2,591
941,910; 5332,717;    0,712;   -2,136
942,464; 5427,535;    2,712;   -0,318
943,018; 5188,263;    3,258;   -0,227
943,572; 5133,081;    2,803;   -0,682
944,126; 4537,717;   -0,924;   -0,409
944,681; 4416,444;    0,712;    0,227
945,235; 4401,990;    2,167;   -0,591
945,789; 4326,990;    1,258;   -1,864
946,342; 4403,808;   -0,561;   -0,591
946,896; 4227,717;    0,348;    0,955
947,450; 3995,717;   -0,561;   -0,227
948,004; 4156,808;    1,076;   -0,045
948,558; 4193,081;    1,258;   -0,864
949,111; 4124,626;   -1,197;   -0,318
949,665; 4136,808;   -0,106;   -0,682
950,219; 4001,808;    0,621;   -1,045
950,772; 4101,808;    0,258;    1,864
951,326; 4015,990;   -1,106;   -0,955
951,879; 4107,081;    1,076;   -2,318
952,433; 4117,535;    1,348;    2,227
952,986; 3956,081;    0,348;    0,682
953,539; 3895,990;    1,530;    0,591
954,093; 3836,263;    0,985;   -1,318
954,646; 3983,172;   -0,288;    1,318
955,199; 3781,263;    1,258;   -0,500
955,752; 3645,535;    1,985;    1,773
956,305; 3601,081;    0,894;    2,955
956,858; 3765,081;    0,621;   -0,318
957,411; 3968,899;    3,621;    2,136
957,964; 3772,717;    2,076;    2,136
958,517; 3780,354;    0,985;    3,136
959,070; 3606,899;   -1,197;    1,955
959,623; 3663,263;    1,076;    1,500
960,176; 3432,717;    0,712;    2,045
960,728; 3396,990;    1,712;    0,773
961,281; 3462,444;    2,258;    0,500
961,834; 3514,717;   -0,833;    0,864
962,386; 3420,263;    1,258;    1,045
962,939; 3347,990;    3,439;   -0,318
963,491; 3475,990;    2,621;    1,136
964,043; 3341,172;    0,076;    2,409
964,596; 3474,263;    1,712;    2,227
965,148; 3319,717;   -0,379;    1,773
965,700; 3271,626;   -0,015;   -0,227
966,253; 3420,717;   -0,833;    0,318
966,805; 3218,808;    1,894;    0,773
967,357; 3300,172;    0,439;   -1,500
967,909; 3217,899;    1,167;   -1,227
968,461; 3360,354;    0,894;    3,136
969,013; 3286,354;   -1,561;   -0,864
969,565; 3358,354;    1,803;   -1,136
970,117; 3392,717;    3,803;    1,045
970,669; 3233,990;    3,258;   -0,136
971,220; 3109,899;    2,167;   -1,500
971,772; 3027,990;    1,348;   -0,318
972,324; 3150,172;   -1,197;   -0,500
972,876; 3104,354;    0,167;   -0,045
973,427; 3217,535;   -1,197;   -1,045
973,979; 3194,626;    0,076;   -2,500
974,530; 3255,626;    0,803;    1,318
975,082; 3266,354;    2,167;    1,682
975,633; 3134,990;    2,894;    1,682
976,184; 3290,263;    2,076;    0,773
976,736; 3085,717;    0,348;    0,227
977,287; 2850,444;    0,258;   -0,500
977,838; 3029,899;   -0,924;   -0,318
978,389; 3102,899;    0,803;   -0,500
978,940; 2993,263;    1,258;   -0,409
979,491; 3013,717;    2,258;   -0,500
980,042; 2936,717;   -0,652;    3,045
980,593; 3016,172;    1,894;    0,227
981,144; 3059,172;    3,530;   -0,500
981,695; 3020,717;   -0,470;    1,500
982,246; 2993,626;   -1,833;    1,045
982,797; 3184,990;   -0,561;    0,682
983,347; 3284,354;    2,167;    0,591
983,898; 3425,626;    4,167;    0,409
984,449; 3236,626;    2,530;    0,773
984,999; 3174,990;    1,894;   -1,136
985,550; 2921,535;    3,167;   -0,318
986,100; 2988,990;    0,712;   -0,318
986,651; 3013,172;    0,258;    0,045
987,201; 2979,444;    0,894;   -0,591
987,751; 3074,535;   -0,288;    2,864
988,302; 3061,535;   -0,379;    1,500
988,852; 3077,626;    1,985;   -1,136
989,402; 3119,535;    0,985;    0,682
989,952; 3018,081;    1,621;    0,864
990,502; 3140,535;    1,076;    0,682
991,052; 3121,899;   -0,106;    0,045
991,602; 2958,535;    1,167;    1,318
992,152; 2958,081;    2,803;    0,682
992,702; 2948,444;    1,167;   -0,045
993,252; 2842,263;    0,076;   -0,500
993,802; 2946,081;    1,167;    1,318
994,352; 3195,081;   -0,742;    1,136
994,901; 3312,535;    1,076;    3,227
995,451; 3209,808;   -1,197;    0,318
996,000; 3289,808;    1,076;    0,318
996,550; 2998,081;    2,894;    0,227
997,100; 3016,081;   -0,561;   -0,045
997,649; 3297,990;   -0,197;    0,955
998,198; 2914,535;   -0,288;   -1,500
998,748; 3079,626;    0,348;   -2,318
999,297; 2998,535;    0,985;   -0,409
999,846; 3096,626;    1,894;   -0,773
1000,395; 3136,081;    1,530;    0,500
1000,945; 3070,263;    1,076;   -0,773
1001,494; 3143,626;    0,167;    0,682
1002,043; 3144,899;    0,712;    0,864
1002,592; 3000,626;    3,439;    1,955
1003,141; 3131,354;    2,439;   -0,682
1003,690; 2976,808;    1,258;    0,500
1004,238; 3048,990;   -0,106;   -0,045
1004,787; 2679,990;   -1,288;    1,227
1005,336; 2918,808;    1,621;    0,682
1005,885; 3075,808;   -0,197;   -2,773
1006,433; 3239,808;   -0,470;    0,955
1006,982; 3250,081;    2,167;    1,682
1007,531; 3193,899;    2,712;   -0,227
1008,079; 3151,081;    0,258;    0,500
1008,627; 3304,081;    1,621;    0,409
1009,176; 3023,717;    0,076;   -1,955
1009,724; 3059,081;   -2,742;    0,864
1010,273; 3118,081;    1,076;    0,500
1010,821; 3259,263;    1,076;    1,409
1011,369; 2961,354;    0,076;    1,318
1011,917; 2962,717;   -0,833;   -0,591
1012,465; 3252,808;    2,530;   -1,591
1013,013; 3376,717;    0,439;   -1,682
1013,561; 3225,172;   -1,288;   -0,773
1014,109; 3248,717;   -0,833;    1,682
1014,657; 3141,354;    1,348;    0,591
1015,205; 3263,263;    0,894;   -0,955
1015,753; 3321,808;    0,258;   -1,409
1016,301; 3346,808;    2,621;    3,045
1016,848; 3340,444;    2,167;    0,409
1017,396; 3373,172;    1,621;    0,045
1017,944; 3508,990;    2,621;    1,864
1018,491; 3262,263;   -0,197;    1,409
1019,039; 3428,626;   -0,652;    0,591
1019,586; 3356,263;    0,076;    1,682
1020,134; 3433,808;    0,712;    1,500
1020,681; 3449,717;    2,894;   -1,136
1021,228; 3478,535;   -0,561;   -2,227
1021,776; 3305,444;   -0,833;   -1,136
1022,323; 3522,808;    0,803;    0,773
1022,870; 3465,354;   -0,470;   -0,045
1023,417; 3349,626;    2,076;    1,864
1023,964; 3502,444;    0,621;    1,227
1024,511; 3319,808;   -0,652;    0,773
1025,058; 3091,990;    0,439;   -0,045
1025,605; 3167,535;   -1,742;    3,136
1026,152; 3372,717;   -0,106;   -0,591
1026,699; 3117,444;    0,167;    1,318
1027,245; 3280,899;    2,439;    0,318
1027,792; 3522,354;    0,712;    1,409
1028,339; 3385,990;    4,076;   -0,045
1028,885; 3238,444;    3,621;   -0,227
1029,432; 3169,354;   -0,106;    0,227
1029,978; 3226,808;    1,348;   -1,591
1030,525; 3125,808;    1,621;    0,409
1031,071; 3388,172;    0,348;    1,136
1031,618; 3479,717;    1,258;    1,682
1032,164; 3265,808;    2,076;    3,045
1032,710; 3291,444;    0,076;   -1,500
1033,256; 3228,808;    0,712;   -0,136
1033,803; 3242,535;   -0,288;    1,500
1034,349; 2975,990;    1,803;    0,136
1034,895; 3120,172;    2,621;   -0,318
1035,441; 3097,626;    0,439;    0,318
1035,987; 3093,990;   -2,288;   -0,682
1036,533; 3078,535;   -0,197;   -0,955
1037,078; 3277,808;    4,712;    1,682
1037,624; 3106,990;    2,439;   -0,955
1038,170; 3147,263;    1,712;   -0,318
1038,716; 3038,535;    2,167;   -0,409
1039,261; 2958,899;    2,167;   -0,773
1039,807; 2884,990;   -0,015;    3,409
1040,352; 2954,354;   -1,288;   -0,318
1040,898; 2988,444;    0,167;   -0,682
1041,443; 2913,081;    0,803;   -2,591
1041,989; 2926,626;    3,621;    1,591
1042,534; 2793,172;    0,985;    2,591
1043,079; 2933,172;    1,985;    0,955
1043,625; 2700,354;    0,258;    0,500
1044,170; 2727,354;    2,439;    1,045
1044,715; 2993,626;    0,167;    0,955
1045,260; 2802,263;   -0,833;   -0,955
1045,805; 2884,535;    0,258;   -0,591
1046,350; 2836,354;    0,530;   -0,409
1046,895; 2773,172;    0,803;    1,591
1047,440; 2706,535;    1,530;    0,409
1047,985; 2617,172;   -1,197;   -0,955
1048,530; 2543,081;    1,348;    1,227
1049,074; 2599,808;    2,803;    0,318
1049,619; 2570,990;   -0,924;    1,955
1050,164; 2367,263;    1,076;    0,227
1050,708; 2426,899;    2,621;    0,045
1051,253; 2774,081;    3,258;   -2,227
1051,797; 2477,626;   -0,197;   -1,318
1052,342; 2505,081;    1,348;    1,045
1052,886; 2497,444;    1,803;   -1,409
1053,430; 2386,172;    2,167;    0,136
1053,975; 2396,717;    0,894;   -0,318
1054,519; 2374,990;    1,803;    3,227
1055,063; 2370,808;    3,621;    1,318
1055,607; 2264,990;    1,348;    0,227
1056,151; 2292,172;    0,530;    1,682
1056,695; 2215,535;   -1,833;   -1,136
1057,239; 2283,535;   -1,197;   -0,682
1057,783; 2265,535;    2,258;   -1,500
1058,327; 2217,354;    3,076;    1,409
1058,871; 2451,808;    3,985;    1,318
1059,415; 2143,990;   -0,561;   -0,045
1059,958; 2383,354;    2,985;    2,591
1060,502; 2141,808;    1,348;   -0,773
1061,046; 2059,899;    1,712;   -0,955
1061,589; 2023,717;    2,803;   -1,136
1062,133; 1887,444;    0,985;    1,864
1062,676; 1830,172;    1,439;    0,864
1063,220; 1839,899;    0,985;    0,500
1063,763; 1860,626;    2,985;    1,136
1064,306; 1936,444;    0,985;    1,864
1064,849; 1817,172;    2,076;    0,591
1065,393; 1823,717;    2,894;   -1,500
1065,936; 1948,081;    2,530;   -0,409
1066,479; 1840,535;    2,621;    1,318
1067,022; 1868,808;    1,894;   -0,227
1067,565; 1745,626;   -1,197;   -1,318
1068,108; 1785,081;    1,258;   -0,591
1068,651; 1772,808;   -2,470;    1,409
1069,194; 1688,444;   -1,106;   -1,682
1069,736; 1681,354;    3,803;    0,955
1070,279; 1657,354;   -1,652;   -0,500
1070,822; 1707,535;    1,530;   -0,318
1071,364; 1765,626;    0,530;    1,318
1071,907; 1606,444;    0,348;    3,227
1072,450; 1538,990;    0,258;   -0,045
1072,992; 1526,535;   -0,561;    3,136
1073,535; 1634,172;    0,167;    2,136
1074,077; 1439,444;    2,985;    2,045
1074,619; 1397,626;    0,985;    0,591
1075,161; 1422,354;   -0,561;    1,500
1075,704; 1600,535;    0,258;    1,227
1076,246; 1418,354;    1,530;    0,682
1076,788; 1339,626;   -1,015;    1,773
1077,330; 1434,081;   -2,106;    2,136
1077,872; 1384,990;   -1,924;    0,955
1078,414; 1599,717;    3,712;    0,773
1078,956; 1323,263;    0,167;   -0,227
1079,498; 1576,354;    0,439;    0,318
1080,040; 1285,172;    0,985;   -1,318
1080,581; 1237,354;    0,621;   -0,318
1081,123; 1178,808;   -0,106;   -0,773
1081,665; 1225,081;    3,803;   -0,955
1082,206; 1485,263;    3,258;   -0,500
1082,748; 1378,263;    3,258;    2,045
1083,289; 1256,899;    0,167;    1,318
1083,831; 1161,808;    0,258;    0,227
1084,372; 1185,990;    0,894;    0,591
1084,913; 1187,444;    3,348;    0,864
1085,455; 1172,535;    1,530;   -2,045
1085,996; 1134,535;    0,530;    0,136
1086,537; 1145,717;    0,985;    0,864
1087,078; 1197,081;    0,439;   -2,136
1087,619; 1215,081;   -1,652;    0,227
1088,160; 1132,990;    1,439;    1,318
1088,701; 1123,717;   -0,742;    0,682
1089,242; 1066,444;   -0,561;   -2,227
1089,783; 1158,626;   -0,561;    1,409
1090,324; 1117,535;   -0,833;    0,682
1090,865;  996,626;   -1,924;   -0,409
1091,405;  989,263;   -0,561;    2,227
1091,946; 1024,444;   -0,197;   -0,955
1092,487;  945,808;   -1,288;   -1,409
1093,027; 1095,717;    1,803;   -1,500
1093,568;  953,808;    2,258;    1,227
1094,108; 1030,990;    0,621;    1,773
1094,649;  978,444;   -0,470;    0,136
1095,189;  924,444;    1,167;   -0,682
1095,729;  872,444;    0,712;    0,955
1096,269;  882,717;    1,258;   -0,955
1096,810; 1182,717;   -0,197;    0,500
1097,350; 1014,808;   -0,561;   -0,773
1097,890;  914,172;    2,985;    1,227
1098,430; 1156,444;    4,985;    2,864
1098,970; 1036,717;    1,894;    1,682
1099,510;  915,263;   -0,833;   -2,318
1100,050;  838,172;    0,258;   -1,591
1100,589;  797,172;    0,076;   -0,318
1101,129;  912,626;    0,894;   -0,955
1101,669; 1052,899;    2,803;    2,136
1102,209;  887,717;    1,530;    2,227
1102,748;  849,354;    3,439;    0,955
1103,288;  835,444;    0,712;   -1,227
1103,827;  845,444;    3,530;   -2,227
1104,367;  737,626;    1,712;   -2,409
1104,906;  714,990;   -1,015;   -1,136
1105,445;  777,081;    0,985;   -1,136
1105,985;  708,808;   -0,652;    1,500
1106,524;  756,717;    1,530;   -0,682
1107,063;  732,990;    1,167;    1,409
1107,602;  711,626;    1,894;   -1,500
1108,141;  634,354;    1,621;    1,500
1108,680;  725,990;    3,985;   -0,591
1109,219;  678,990;    0,167;   -0,500
1109,758;  686,444;    4,167;    0,682
1110,297;  655,626;   -1,106;   -0,682
1110,836;  597,535;    1,439;    0,955
1111,375;  742,990;    0,348;    0,409
1111,913;  757,354;    0,985;    0,773
1112,452;  697,263;    0,894;    0,136
1112,991;  594,172;    1,076;    1,955
1113,529;  550,626;    0,167;   -0,045
1114,068;  609,354;    0,439;    2,955
1114,606;  508,444;   -0,561;   -0,955
1115,144;  666,263;    1,530;    1,045
1115,683;  608,717;    1,985;    0,318
1116,221;  662,081;    2,076;   -0,864
1116,759;  575,808;    1,621;   -0,864
1117,297;  757,081;    1,621;    1,864
1117,836;  566,444;    1,985;   -1,227
1118,374;  564,808;    0,258;   -0,682
1118,912;  523,717;    0,439;    2,682
1119,450;  512,263;    0,985;    0,864
1119,988;  559,808;    3,348;    2,136
1120,525; 1002,626;    7,258;    3,318
1121,063;  705,354;    0,530;    1,864
1121,601;  515,717;    1,076;   -1,227
1122,139;  487,717;    1,076;   -2,045
1122,676;  667,535;   -1,652;    2,773
1123,214;  604,263;    0,712;    4,409
1123,751;  425,899;    0,621;    2,227
1124,289;  545,081;    0,894;   -0,409
1124,826;  417,263;   -0,379;    0,227
1125,364;  348,626;    0,712;   -0,955
1125,901;  524,899;    6,258;    1,227
1126,438;  629,172;    3,530;    0,955
1126,975;  371,535;    2,985;   -0,773
1127,513;  426,535;    2,621;    2,136
1128,050;  350,717;   -0,561;   -0,682
1128,587;  438,172;    1,348;   -0,227
1129,124;  470,172;   -0,015;    1,318
1129,661;  356,263;   -1,924;    0,227
1130,198;  505,535;    2,439;    0,773
1130,734;  458,444;   -0,379;    1,409
1131,271;  325,354;   -1,197;    0,864
1131,808;  493,263;    1,621;    3,045
1132,345;  365,717;    4,530;    0,318
1132,881;  260,172;   -0,561;   -1,864
1133,418;  368,990;    0,348;   -1,136
1133,954;  317,899;    0,712;   -2,682
1134,491;  388,444;    1,712;   -0,773
1135,027;  295,535;    2,167;    0,864
1135,564;  362,899;    1,439;    2,955
1136,100;  355,444;   -0,742;    2,136
1136,636;  265,081;   -1,015;   -1,045
1137,172;  343,717;    0,894;   -1,045
1137,708;  271,626;   -1,561;   -1,045
1138,245;  268,444;    0,803;   -1,227
1138,781;  237,444;    1,803;   -3,318
1139,317;  290,717;    1,894;   -1,409
1139,852;  280,535;    3,076;    0,136
1140,388;  395,354;    2,076;   -0,409
1140,924;  278,717;    1,076;   -2,227
1141,460;  223,990;   -0,288;    0,136
1141,996;  167,990;   -0,652;    2,682
1142,531;  210,172;    1,076;    3,318
1143,067;  408,808;    1,167;    1,045
1143,602;  456,899;    3,439;   -0,318
1144,138;  309,172;    0,803;    1,045
1144,673;  191,263;    1,621;    1,409
1145,209;  249,535;    2,894;   -0,318
1145,744;  175,444;    0,803;    0,864
1146,279;  293,717;    1,530;   -0,136
1146,815;  224,444;    1,530;   -2,682
1147,350;  256,899;   -0,924;    0,045
1147,885;  168,808;   -1,924;   -1,318
1148,420;  173,535;    2,439;    0,773
1148,955;  168,808;   -1,470;    1,864
1149,490;  192,444;   -1,106;   -1,591
1150,025;  168,444;   -1,106;   -1,773
1150,560;  273,717;   -0,288;   -0,955
1151,094;  238,990;    0,258;   -0,591
1151,629;  233,081;   -3,742;    0,864
1152,164;  176,626;   -1,288;    1,318
1152,698;  143,990;    1,258;   -0,136
1153,233;  101,808;   -1,379;   -0,682
1153,767;  142,899;   -0,288;   -2,318
1154,302;  181,990;   -0,379;    1,773
1154,836;  182,444;    0,803;   -2,136
1155,371;  233,172;    2,258;    3,682
1155,905;  194,808;    1,985;    1,682
1156,439;  156,354;    0,530;   -0,500
1156,973;  191,535;    0,439;    0,318
1157,507;  130,899;   -1,742;    0,682
1158,042;  157,990;   -0,652;    1,045
1158,576;  195,808;   -0,561;    1,773
1159,110;  190,263;    0,076;    2,409
1159,643;  164,717;   -2,470;   -0,045
1160,177;  107,626;   -2,015;    1,500

