
Integration time [ms]:   0,050
Averaging Nr. [scans]: 11
Smoothing Nr. [pixels]: 0
Data measured with spectrometer [name]: 7318044SP
Wave   ;Sample   ;Dark     ;Reference
[nm]   ;[counts] ;[counts] ;[counts] 

186,757;  -27,692;   38,161;    1,318
187,357;   -4,734;   26,706;    0,955
187,958;  -15,469;   17,252;   -1,591
188,558;   18,296;   12,979;   -1,227
189,159;    0,012;   10,070;   -4,500
189,759;  -25,209;    5,797;   -3,591
190,360;  -26,777;    6,797;   -2,136
190,960;   -2,598;    5,706;   -4,136
191,560;    3,471;    2,614;   -6,591
192,161;  179,618;    5,885;   -3,500
192,761;   56,988;    5,520;   -3,227
193,361;   18,722;    3,065;   -3,773
193,962;   50,246;    1,612;   -2,682
194,562;   -3,154;   -0,114;   -3,955
195,162;    2,532;   -0,567;   -2,227
195,762;  110,562;    2,433;   -0,045
196,362;   70,181;    1,706;   -2,500
196,963;   -8,682;    1,706;   -0,864
197,563;   31,938;    1,252;   -0,955
198,163;   -8,633;   -0,111;   -0,682
198,763;   -2,523;   -0,020;   -0,500
199,363;   34,645;    3,616;   -0,500
199,963;   20,113;    2,162;    0,409
200,563;    9,589;    6,344;   -1,409
201,163;   -8,644;    5,435;   -0,227
201,763;   29,779;    1,435;    0,318
202,363;   -6,561;    0,980;    1,500
202,963;   23,510;    1,526;    1,045
203,563;   66,566;    0,344;    0,500
204,162;   12,863;    1,889;   -1,864
204,762;    8,309;    2,071;    0,591
205,362;   -8,192;    0,708;    1,955
205,962;    7,077;    3,435;    1,955
206,562;    7,422;    1,889;    2,318
207,161;   -5,838;    1,708;    0,318
207,761;   58,818;    4,435;    2,409
208,361;   -0,852;    1,889;    1,409
208,960;   16,638;    2,889;    1,500
209,560;   15,054;    0,435;    1,591
210,160;   23,423;    5,071;    1,864
210,759;    8,121;    0,708;    1,227
211,359;   -7,672;   -0,474;    1,045
211,958;   89,896;    3,526;    2,045
212,558;   84,768;    0,799;    1,864
213,157;   30,030;   -0,929;    1,500
213,757;  155,637;    5,617;   -0,227
214,356;   48,390;    1,708;   -0,409
214,956;  134,635;    3,526;    0,409
215,555;   26,304;    0,617;    2,136
216,154;   -0,391;   -0,292;   -0,591
216,754;    0,779;    1,253;    0,773
217,353;   14,709;   -0,383;   -1,045
217,952;  -31,145;    2,072;    0,318
218,552;   23,497;    0,254;   -0,773
219,151;   -1,033;   -1,110;    0,955
219,750;   -7,125;    0,890;   -0,227
220,349;  -15,686;   -2,292;    1,045
220,948;   42,763;    1,163;    1,136
221,548;   -2,357;    0,617;    1,227
222,147;    4,190;   -1,292;   -0,409
222,746;   76,927;    1,254;   -0,955
223,345;   21,957;   -1,019;    0,500
223,944;   18,627;    1,163;    0,773
224,543;   19,002;    4,072;   -1,409
225,142;   13,138;    1,345;    0,136
225,741;   17,819;    1,163;    1,045
226,340;    9,791;    1,254;   -0,955
226,939;   57,087;    2,708;   -0,136
227,538;    7,197;    1,163;   -0,773
228,137;   62,733;    0,435;    0,864
228,735;   38,999;    0,435;    1,227
229,334;  -14,831;   -0,474;   -0,227
229,933;   62,518;    0,799;    0,591
230,532;   55,718;   -1,201;   -0,409
231,131;   85,519;    1,253;    0,318
231,729;   38,033;    1,163;   -2,318
232,328;   11,801;    0,435;   -1,500
232,927;   26,814;    4,526;   -0,500
233,525;    8,103;    0,981;    0,045
234,124;   21,231;    1,890;   -1,591
234,723;   -2,357;    1,617;   -1,045
235,321;  -16,382;    1,163;    0,136
235,920;    2,403;    2,526;   -1,227
236,518;   63,378;    1,072;    0,318
237,117;    1,616;    2,890;   -0,227
237,715;   12,324;    1,163;   -0,500
238,314;   14,009;    1,708;   -2,318
238,912;   71,768;    0,526;   -1,409
239,510;   34,108;    1,162;   -1,227
240,109;   69,434;   -0,474;    3,773
240,707;   48,705;   -0,474;    1,227
241,305;   -2,857;   -0,383;    0,136
241,904;   26,871;   -0,292;   -2,045
242,502;   85,434;    3,253;   -0,227
243,100;   36,221;    3,344;   -0,955
243,698;   -1,798;    2,799;    1,682
244,297;   13,902;   -0,656;    0,682
244,895;   12,424;   -0,474;   -2,318
245,493;   81,907;    2,981;   -0,591
246,091;   83,578;    5,163;   -1,318
246,689;   35,754;    2,163;    0,591
247,287;   35,079;   -0,019;   -1,136
247,885;   18,565;   -1,019;    1,227
248,483;    2,768;   -0,201;   -0,500
249,081;   33,922;    0,981;    1,591
249,679;   39,566;   -1,019;    1,682
250,277;    0,886;   -2,292;    0,864
250,875;   40,318;    0,617;   -1,045
251,473;   12,018;   -0,019;    0,500
252,071;   46,858;   -0,383;    1,045
252,669;   12,081;   -1,565;    0,318
253,267;    0,926;    1,618;    0,773
253,864;   14,533;    0,617;    0,682
254,462;   60,637;    1,526;    1,591
255,060;    2,243;    0,072;    1,318
255,658;    2,354;   -3,292;   -0,136
256,255;    9,073;   -0,201;   -2,045
256,853;   33,928;    2,345;    1,409
257,451;   12,441;    1,981;    1,864
258,048;  177,410;    2,072;    1,864
258,646;   67,086;    0,436;   -1,045
259,243;  102,565;    2,981;    2,227
259,841;   57,146;    1,799;    0,318
260,438;    7,993;    0,254;    0,864
261,036;   46,395;    0,617;    1,409
261,633;    8,821;    1,526;    2,227
262,231;    6,004;   -0,110;   -0,045
262,828;   -6,648;   -0,383;    1,136
263,425;   11,398;   -1,928;   -0,591
264,023;   13,061;    1,436;    0,045
264,620;   59,255;    1,526;   -0,318
265,217;  107,906;    2,890;    3,136
265,815;   23,909;    2,527;    2,136
266,412;   57,554;    0,072;    0,136
267,009;   51,525;    0,526;    0,773
267,606;   86,813;    0,345;   -0,955
268,203;   25,361;   -0,383;   -0,591
268,801;   33,744;   -0,474;    0,591
269,398;   18,070;   -0,564;    2,500
269,995;   57,716;    0,890;    1,591
270,592;   42,201;    0,799;   -0,500
271,189;   10,921;    1,981;    0,409
271,786;    5,982;    2,072;    1,227
272,383;   89,862;   -0,383;    0,227
272,980;   37,687;    1,617;    0,318
273,577;   16,400;    2,162;    1,227
274,174;   11,548;    1,435;    2,591
274,771;   60,354;    1,890;   -0,773
275,367;  234,122;    3,253;    1,409
275,964;  126,078;   -0,565;   -0,500
276,561;   42,645;   -2,474;   -1,045
277,158;   12,111;    1,799;   -1,773
277,755;  114,558;   -0,110;    0,409
278,351;   66,625;    0,436;   -1,500
278,948;   77,247;   -0,201;    0,045
279,545;   63,296;    0,527;    2,318
280,141;  116,053;    1,254;   -2,045
280,738;  122,615;    2,435;   -0,136
281,334;   44,252;   -0,383;    0,591
281,931;   27,512;    2,890;   -1,318
282,528;   87,514;    4,072;   -0,500
283,124;  118,092;    3,345;   -0,500
283,721;  107,852;    0,709;    1,409
284,317;   51,583;    0,163;    2,500
284,913;  124,286;   -0,110;    0,591
285,510;  213,741;    2,890;   -0,318
286,106;  142,811;    2,345;   -0,955
286,703;   76,014;    0,072;    1,955
287,299;   54,692;    1,254;   -0,591
287,895;   51,470;    0,890;   -1,045
288,491;   44,706;    0,163;    2,136
289,088;   86,820;    0,163;    2,409
289,684;  100,263;    2,890;    1,500
290,280;  192,852;    1,890;    0,682
290,876;  169,581;    0,163;    5,500
291,472;  147,780;    2,163;    2,227
292,068;  160,914;    1,254;    0,227
292,665;  104,782;   -0,564;    0,773
293,261;   67,751;   -1,292;    2,136
293,857;  173,476;    4,072;    2,136
294,453;  125,058;   -0,928;    0,955
295,049;  279,058;    0,253;    1,955
295,644;  188,107;   -1,292;    0,136
296,240;  109,970;    0,162;   -0,136
296,836;  201,381;   -0,747;    0,318
297,432;  298,485;    2,980;   -0,500
298,028;  326,822;    0,435;    0,773
298,624;  254,218;    0,889;    1,864
299,220;  248,221;    0,435;    0,591
299,815;  245,632;    0,526;   -0,409
300,411;  343,786;    0,435;    1,773
301,007;  446,168;    1,889;    0,227
301,602;  322,997;    2,071;   -2,318
302,198;  444,743;    1,435;   -0,773
302,794;  326,807;    1,526;   -0,500
303,389;  296,734;    1,071;    1,045
303,985;  337,902;    1,253;    1,409
304,580;  460,073;    0,889;    1,591
305,176;  390,026;    0,344;    0,136
305,771;  287,114;   -0,929;   -1,227
306,367;  647,033;    3,071;    0,136
306,962;  441,906;    2,889;    1,500
307,558;  487,023;    2,435;    0,136
308,153;  540,850;   -0,383;   -1,136
308,748;  351,600;    0,162;    1,682
309,344;  681,975;    0,253;   -1,318
309,939;  678,043;    2,071;   -1,318
310,534;  396,463;   -2,020;   -1,682
311,130;  366,579;   -0,656;   -2,500
311,725;  323,447;    0,526;   -0,500
312,320;  362,795;    1,253;    0,045
312,915;  451,197;    2,890;   -1,045
313,510;  634,485;    0,526;   -0,500
314,105;  371,192;   -3,565;    1,409
314,700;  243,059;   -1,656;   -1,045
315,295;  297,437;   -0,020;    0,045
315,890;  242,894;   -0,292;    0,864
316,485;  322,186;    0,253;   -0,318
317,080;  241,646;   -0,929;    1,591
317,675;  494,711;    3,071;   -0,682
318,270;  671,592;    6,889;    3,318
318,865;  543,585;    2,435;    3,045
319,460;  388,601;   -1,565;    0,591
320,055;  239,862;   -2,565;   -1,227
320,650;  236,526;   -1,838;   -0,591
321,244;  241,892;    0,889;   -1,409
321,839;  241,169;    0,980;   -0,227
322,434;  279,159;   -0,111;   -1,591
323,029;  221,109;   -0,474;    1,591
323,623;  204,600;    0,798;    0,773
324,218;  344,430;    2,707;    1,409
324,812;  289,176;    0,889;    1,591
325,407;  281,147;   -0,929;    2,045
326,002;  397,763;    0,526;   -0,409
326,596;  352,314;   -0,656;    1,318
327,191;  221,369;   -0,383;   -1,045
327,785;  237,950;   -0,747;   -0,227
328,379;  247,310;   -0,383;    0,136
328,974;  301,888;    1,798;   -3,955
329,568;  335,578;    2,889;   -2,409
330,163;  419,881;    2,435;    1,045
330,757;  286,536;    0,253;    1,591
331,351;  246,501;   -0,292;    0,682
331,945;  259,346;   -0,383;    1,409
332,540;  406,871;    1,617;   -0,591
333,134;  414,516;    3,344;    0,773
333,728;  425,475;    2,799;    0,318
334,322;  356,239;    0,889;   -0,864
334,916;  370,551;    0,344;    0,955
335,510;  566,157;   -0,111;   -0,136
336,105;  590,096;   -0,929;    1,591
336,699;  508,253;   -1,292;    0,591
337,293;  584,142;    1,071;    0,318
337,887;  548,828;    0,071;    1,955
338,481;  757,260;    2,980;    0,591
339,074;  928,181;    2,071;    2,682
339,668;  937,936;   -0,110;    1,227
340,262; 1618,918;    7,708;    3,227
340,856; 1205,761;    1,708;   -0,682
341,450;  853,875;    0,708;    1,864
342,044; 1044,779;    1,799;    0,136
342,637; 1240,979;    1,162;   -2,136
343,231; 1318,869;   -1,474;    0,682
343,825; 1153,610;   -0,747;   -0,591
344,419; 1207,383;   -0,474;    0,500
345,012; 1875,269;    2,889;    4,045
345,606; 1731,109;   -0,656;    1,591
346,199; 1442,516;   -0,111;   -0,227
346,793; 1591,453;    2,525;    2,045
347,386; 1522,411;    0,889;   -1,136
347,980; 1439,867;   -0,838;   -0,045
348,573; 1610,646;   -1,748;    0,409
349,167; 1854,867;    6,161;    4,773
349,760; 1963,275;    2,252;    2,682
350,354; 1884,201;    1,616;    1,136
350,947; 1933,271;    2,798;    1,682
351,540; 1732,201;    0,616;   -1,409
352,134; 1644,853;   -1,111;    1,136
352,727; 1729,654;   -0,657;    1,136
353,320; 1777,370;    2,343;    0,591
353,913; 1666,167;   -1,929;    1,864
354,507; 1919,652;    0,434;   -1,227
355,100; 1899,070;    0,071;    0,864
355,693; 2109,298;    4,798;    2,409
356,286; 1879,574;    0,980;    2,773
356,879; 1809,378;   -0,475;    1,227
357,472; 1679,156;    0,980;    1,500
358,065; 1802,389;    3,161;    2,500
358,658; 1703,827;    0,798;    2,318
359,251; 1538,111;    0,252;   -0,591
359,844; 1603,826;    0,343;   -1,136
360,437; 1722,413;    0,252;    0,045
361,030; 1659,352;    0,525;   -0,682
361,623; 1532,673;    0,434;    0,318
362,215; 1727,040;    0,979;    2,045
362,808; 1562,531;   -2,293;   -1,682
363,401; 1508,138;    0,798;    0,136
363,994; 1687,141;    3,252;   -1,500
364,586; 1441,178;    0,888;   -1,500
365,179; 1404,827;   -0,203;   -1,136
365,772; 1162,666;   -0,930;    2,045
366,364; 1283,466;    1,524;   -3,227
366,957; 1444,639;    1,342;   -0,045
367,549; 1324,598;   -0,203;   -0,864
368,142; 1266,899;    0,978;   -1,500
368,734; 1247,353;    2,523;   -2,136
369,327; 1161,146;    2,341;   -0,500
369,919; 1175,002;   -1,659;    0,409
370,512; 1192,468;   -1,023;   -0,500
371,104; 1388,273;    2,704;    1,591
371,696; 1455,317;    1,703;   -0,955
372,289; 1303,445;    0,157;    1,136
372,881; 1238,993;    1,156;    1,318
373,473; 1078,515;    4,064;    1,136
374,066; 1160,631;    1,336;    0,500
374,658; 1100,508;    0,879;    1,136
375,250; 1062,453;   -1,668;   -1,409
375,842; 1070,583;   -0,124;   -0,045
376,434;  995,999;   -2,762;   -0,409
377,026; 1113,007;   -1,855;   -2,500
377,618; 1085,024;    0,779;   -0,682
378,210;  976,036;    3,141;   -1,955
378,802;  870,031;    3,412;   -0,591
379,394; 1339,170;    3,411;    0,682
379,986; 1155,356;    1,138;   -0,955
380,578; 1060,425;    1,410;    0,773
381,170; 1226,051;    0,320;    0,045
381,762; 1088,477;   -0,224;    1,409
382,354; 1066,046;   -0,223;   -1,318
382,945;  998,393;    0,870;    0,318
383,537;  979,557;    1,144;   -1,955
384,129; 1017,094;    0,963;   -1,136
384,721; 1135,501;    0,418;    0,955
385,312; 1010,863;   -1,399;   -0,955
385,904; 1160,920;   -0,945;    1,591
386,496;  929,076;    0,691;    1,045
387,087; 1112,793;    0,418;    2,500
387,679; 1029,616;   -0,401;    0,045
388,270; 1055,748;   -2,401;    2,045
388,862; 1004,969;   -0,401;   -0,318
389,453;  900,362;    1,054;    1,045
390,045;  995,693;    3,236;   -2,682
390,636;  926,314;    0,144;   -0,591
391,227;  920,249;    2,054;   -0,045
391,819;  949,717;    0,781;    0,773
392,410; 1227,104;    0,600;    0,045
393,001; 1023,117;    1,600;   -1,591
393,593; 1125,786;    0,600;   -0,045
394,184; 1152,129;    0,873;   -0,409
394,775;  939,804;    1,146;    2,136
395,366;  984,824;    1,782;    0,773
395,957; 1161,513;   -2,400;    0,136
396,548; 1058,763;    1,054;    2,682
397,139; 1239,154;    2,236;    0,591
397,730; 1081,143;    0,873;    0,955
398,321; 1078,835;    0,509;    0,955
398,912; 1005,917;   -0,764;    0,136
399,503; 1086,573;   -1,945;   -1,409
400,094; 1027,703;   -1,582;    1,682
400,685; 1006,752;    3,600;    0,045
401,276;  905,612;   -0,400;   -0,955
401,867;  956,274;   -1,127;    0,773
402,458;  912,477;    1,509;   -2,318
403,048; 1071,681;    0,146;    0,591
403,639;  913,582;    1,509;    0,864
404,230; 1133,907;    0,691;    0,318
404,821; 1164,482;   -0,127;    0,045
405,411; 1021,534;   -0,763;   -2,591
406,002;  852,725;    3,237;   -1,136
406,592; 1135,333;    2,691;    0,045
407,183;  968,022;    0,328;   -1,500
407,774;  874,273;    1,419;   -0,136
408,364;  854,822;    2,600;    0,409
408,954;  957,857;   -0,036;    1,227
409,545;  939,294;    1,873;    1,045
410,135;  789,738;   -1,581;    0,500
410,726;  732,258;    0,783;    0,318
411,316;  962,005;    2,237;    0,773
411,906;  715,172;    0,146;   -0,409
412,497;  674,251;   -0,490;   -0,045
413,087;  622,782;    0,783;   -0,227
413,677;  575,199;   -2,490;    3,864
414,267;  515,415;   -1,035;    1,409
414,857;  462,179;    0,419;    4,227
415,448;  449,754;   -0,763;    0,500
416,038;  440,817;   -2,945;   -0,591
416,628;  474,908;    0,965;    0,409
417,218;  529,416;   -1,762;    3,318
417,808;  703,271;    0,965;   -0,409
418,398;  518,855;   -1,035;    2,682
418,988;  348,308;   -2,217;    0,591
419,578;  426,840;    3,601;    1,409
420,168;  372,366;    0,692;   -0,955
420,757;  515,514;    0,964;   -1,500
421,347;  368,079;    1,601;   -0,227
421,937;  299,729;    3,329;    1,409
422,527;  433,627;    2,602;   -0,773
423,116;  558,427;    2,692;   -0,045
423,706;  235,565;    2,965;    0,318
424,296;  161,189;    1,601;    0,682
424,885;  324,189;    1,510;   -3,045
425,475;  269,463;    1,147;   -2,864
426,065;  136,665;   -1,489;   -0,318
426,654;  103,707;    0,329;   -0,318
427,244;  390,247;    1,147;    1,409
427,833;  340,113;    1,056;   -0,500
428,423;  186,608;    0,147;    1,136
429,012;  182,682;    2,420;   -1,136
429,601;  297,164;    2,057;    0,136
430,191;  173,764;    2,511;    4,318
430,780;   55,406;   -1,671;   -0,409
431,369;  251,897;    1,329;   -0,045
431,959;  137,233;    1,693;    0,500
432,548;   55,284;   -1,398;   -0,045
433,137;   -3,643;    0,329;   -1,318
433,726;   64,393;    0,148;    0,500
434,315;   77,143;    0,148;    2,409
434,905;  176,329;    0,693;    1,409
435,494;  170,239;    3,148;    0,955
436,083;   36,118;    1,420;   -0,955
436,672;  117,465;    1,148;    0,500
437,261;   63,749;    0,512;   -1,955
437,850;  274,928;   -1,125;    0,682
438,439;  308,395;    2,239;    1,955
439,027;  428,444;    3,421;    1,773
439,616;  342,326;    2,239;    1,227
440,205;  121,359;    0,057;   -2,136
440,794;   69,175;   -0,306;   -0,045
441,383;    5,932;    1,603;   -0,591
441,971;  -24,002;   -0,306;    0,591
442,560;  -13,732;    0,603;   -1,773
443,149; -103,700;    3,060;   -1,318
443,737;  -63,416;    0,968;   -2,318
444,326;  -43,350;    0,331;    0,318
444,915;   -4,893;   -1,851;    0,864
445,503;    6,676;    0,058;   -0,318
446,092;  244,543;    7,876;    2,136
446,680;  170,998;    1,876;    0,318
447,269;   81,112;   -1,487;   -0,318
447,857;   66,598;    2,240;   -1,773
448,445;   23,037;    2,149;    1,318
449,034;  -29,877;    0,876;   -1,136
449,622;  -11,052;    1,240;    3,500
450,210;  231,211;    3,149;    2,227
450,799;  151,072;    2,604;   -0,591
451,387;  112,608;    1,786;   -0,591
451,975;   94,450;   -1,305;    0,864
452,563;  164,580;    0,422;    2,318
453,151;   14,212;   -1,032;   -1,227
453,739;   51,430;   -1,577;    0,136
454,328;  139,137;    0,604;   -2,136
454,916;   81,540;    1,150;   -0,136
455,504;  102,935;    3,513;    1,227
456,092;    4,251;    2,150;   -1,591
456,679;  -32,217;    0,604;    0,682
457,267;  356,996;    3,604;    1,045
457,855;   61,946;    3,241;    1,409
458,443;  -69,998;   -0,304;    1,682
459,031;   57,910;    1,332;    2,409
459,619;   26,435;   -3,577;    2,864
460,206;  -48,296;   -0,759;    2,045
460,794;  -50,087;   -0,668;   -0,227
461,382;   -8,780;    0,878;   -0,864
461,970;   -2,936;    0,605;    1,864
462,557;  -60,461;    0,878;   -0,682
463,145;   37,985;   -0,304;   -1,682
463,732;  245,363;    2,514;   -1,045
464,320;   47,360;    1,514;   -3,045
464,907;  166,091;    0,423;   -0,773
465,495;   90,807;    2,696;   -1,227
466,082;   17,192;    2,060;   -0,045
466,670;   45,671;    2,605;    1,227
467,257;  -47,177;    0,060;    2,045
467,844;   40,093;    1,514;    0,045
468,432;   18,786;   -0,031;    3,500
469,019;  -11,257;    1,606;   -1,773
469,606;   72,522;    0,969;    3,682
470,193;   88,528;    2,151;    0,227
470,780;   43,773;    0,333;    0,864
471,368;   -9,812;   -1,212;   -0,773
471,955;   73,860;    1,060;   -0,682
472,542;   36,779;   -0,303;   -1,136
473,129;  -55,681;   -0,485;    0,136
473,716;  -49,756;    0,060;    0,591
474,303;  -23,744;    1,333;   -0,864
474,890;  -10,787;    2,333;   -0,500
475,477;   84,169;   -0,576;    0,409
476,064;   -5,108;    0,697;   -1,591
476,650;  101,096;    2,152;    0,318
477,237;   15,096;    1,879;    0,955
477,824;    9,893;    3,879;    0,864
478,411;  -67,859;    0,606;   -0,318
478,997;  -73,627;    0,606;   -0,773
479,584; -116,476;   -0,666;   -0,409
480,171;   25,632;    1,243;   -0,773
480,757;   80,921;   -0,848;    0,773
481,344;  -11,024;    0,334;    0,409
481,931;  -91,742;   -0,393;    1,045
482,517;   19,504;    0,425;    0,318
483,104;  100,219;    1,334;    2,864
483,690;  -19,672;    0,243;    0,045
484,276;  -39,323;    0,698;    0,227
484,863;  152,234;    2,152;    1,136
485,449;   14,605;    0,152;    0,318
486,035;  -29,701;   -0,666;   -0,136
486,622;   55,079;   -2,393;    0,045
487,208;  -12,322;    1,334;    1,500
487,794;  -79,173;    0,971;    0,318
488,380;  -71,215;    0,698;   -1,409
488,967;  -75,977;   -1,120;   -0,409
489,553;  -60,224;   -1,029;   -1,409
490,139;    5,120;    0,971;    0,773
490,725;  -56,304;    0,789;   -0,227
491,311;  -13,913;    1,516;    3,045
491,897;  -32,258;   -0,665;    1,500
492,483;  -22,631;    0,426;    1,227
493,069;  380,552;    5,426;    0,864
493,655;  109,610;    1,789;    0,682
494,241;   -8,089;    1,517;   -0,955
494,826;   -1,139;    0,335;   -1,045
495,412;   56,439;    0,335;   -0,682
495,998;  -22,795;    0,971;   -0,318
496,584;   25,067;    2,244;    1,045
497,169;   46,193;    2,335;   -0,682
497,755;   -5,255;    1,244;    1,227
498,341;  108,369;    2,153;    0,318
498,926;  223,889;    2,881;    1,955
499,512;  -11,686;   -0,028;    2,955
500,097;  -11,530;   -0,574;   -0,318
500,683;   11,032;   -0,028;    2,136
501,268;  -27,287;    1,881;   -0,955
501,854;  -13,245;   -0,119;    1,227
502,439;  -27,165;   -0,573;   -1,773
503,024;   -7,956;    1,608;    0,500
503,610;   19,331;    1,335;   -0,682
504,195;  -24,206;    1,245;    1,955
504,780;   57,102;    2,335;    1,227
505,366;  129,519;    4,063;    2,864
505,951;   69,319;   -1,119;    1,045
506,536;   -7,049;    1,427;   -3,682
507,121;   41,547;    1,699;   -0,318
507,706;   13,383;   -0,392;    1,045
508,291;  -26,765;   -2,937;    1,136
508,876;  -26,578;   -0,482;    2,591
509,461;   20,293;    1,427;   -0,773
510,046;   70,756;   -0,391;    0,318
510,631;   91,924;   -0,119;   -0,773
511,216;   31,887;   -0,664;   -0,500
511,801;  109,665;   -0,755;    2,591
512,386;  153,486;    0,972;    0,500
512,971;  192,385;    0,427;    0,955
513,555;  277,873;    1,154;   -1,500
514,140;  278,675;    1,336;   -3,136
514,725;  477,112;    1,791;   -1,136
515,309;  427,348;    1,064;    0,318
515,894;  372,582;   -0,300;   -2,227
516,479;  502,734;    1,973;   -0,955
517,063;  620,042;    0,882;    1,227
517,648;  699,067;    0,155;   -1,136
518,232;  771,763;   -1,300;   -1,409
518,817; 1054,470;    1,337;    1,682
519,401; 1457,583;    0,700;    0,591
519,985; 1439,534;    2,700;    1,136
520,570; 1589,949;   -0,118;   -1,955
521,154; 2058,184;    0,064;    0,591
521,738; 2592,447;    1,064;    2,409
522,323; 3067,329;   -0,390;    1,682
522,907; 3269,123;    2,428;   -0,136
523,491; 3563,596;    1,155;    0,955
524,075; 4006,940;    0,428;    0,591
524,659; 4537,413;    0,973;    0,591
525,243; 4724,561;    0,883;    0,409
525,827; 5316,095;    0,883;   -0,045
526,411; 6299,595;    1,155;   -0,136
526,995; 7017,533;    0,337;    1,409
527,579; 7193,396;    1,974;   -1,045
528,163; 7904,890;    0,428;   -1,500
528,747; 8412,859;    1,065;   -0,773
529,331; 9064,406;    0,883;   -1,409
529,915; 9618,753;    2,338;    0,955
530,499;10023,084;    0,247;    1,227
531,082;10195,656;    1,065;    1,591
531,666;10112,718;    0,520;    0,773
532,250;11085,566;    0,428;    2,682
532,833;11708,291;    0,610;    2,773
533,417;11934,972;    1,247;    0,864
534,001;12200,757;    0,429;   -0,318
534,584;13141,282;    1,974;    0,500
535,168;13269,360;    3,247;    1,409
535,751;13551,211;    4,520;    0,045
536,334;13212,630;    4,520;   -0,409
536,918;14035,462;    1,974;    1,591
537,501;14345,456;    1,520;    1,318
538,085;14493,408;    1,702;    1,045
538,668;14811,661;    0,883;    2,409
539,251;15319,186;    3,156;    3,773
539,834;15487,162;    0,156;    0,773
540,418;15541,911;    3,247;    4,318
541,001;15789,921;    2,702;    1,773
541,584;15898,449;    1,429;    2,227
542,167;15688,968;    0,702;    2,955
542,750;15928,874;    0,793;   -0,773
543,333;15620,771;    1,429;    2,136
543,916;16489,486;   -0,298;    2,500
544,499;17168,697;    2,520;    0,227
545,082;17214,774;    0,248;    3,591
545,665;17440,848;   -0,207;    1,500
546,248;17851,771;    0,520;   -0,318
546,830;17610,435;   -1,752;    1,955
547,413;18105,907;    0,157;   -0,773
547,996;18656,863;    0,157;    0,500
548,579;18524,026;   -0,843;    0,955
549,161;18342,467;    0,884;    2,682
549,744;18194,356;    0,612;    0,409
550,326;18720,278;    0,885;   -1,136
550,909;18484,058;    2,339;    0,591
551,492;18947,877;    0,521;    0,227
552,074;18776,412;   -0,024;   -1,318
552,657;19418,204;    2,430;    0,045
553,239;19199,962;   -3,024;   -0,773
553,821;19142,476;   -1,570;    1,045
554,404;18622,530;   -0,024;    1,136
554,986;19022,148;    2,248;    1,045
555,568;19648,179;    0,430;   -0,955
556,151;18848,614;    4,067;   -0,227
556,733;19072,936;   -1,388;   -0,864
557,315;19580,405;    4,703;    0,500
557,897;19377,166;    0,521;   -0,500
558,479;19568,756;    1,703;    1,318
559,061;19726,667;    1,067;   -0,864
559,643;20035,094;   -0,297;    0,045
560,225;20451,438;   -0,388;    2,864
560,807;20480,185;    0,340;    0,318
561,389;19993,553;   -1,206;    2,318
561,971;20717,786;   -0,660;    2,136
562,553;20569,705;    0,613;    1,591
563,135;20691,992;    1,249;    1,136
563,717;20263,863;    3,158;    1,136
564,298;21038,775;    3,976;   -0,045
564,880;20773,915;    0,340;   -1,409
565,462;20976,278;    1,977;    1,318
566,043;22175,836;   -0,933;    2,318
566,625;21642,648;    4,067;    1,227
567,207;21520,576;    0,704;    1,682
567,788;22697,061;   -0,114;    1,500
568,370;23552,637;   -1,841;   -0,500
568,951;23334,436;   -0,569;    0,227
569,533;24279,086;    0,977;   -0,500
570,114;24820,287;   -0,296;    0,682
570,695;25305,253;   -0,478;   -1,318
571,277;25901,235;   -0,205;   -1,682
571,858;26659,297;    2,704;   -1,136
572,439;27593,095;    0,795;   -1,045
573,021;27772,088;    0,432;   -2,773
573,602;28306,554;    1,795;    0,318
574,183;29221,237;   -0,114;    2,227
574,764;29465,005;    2,068;    0,409
575,345;30035,708;    0,250;   -0,136
575,926;30641,464;    2,704;    0,136
576,507;30681,548;    2,704;   -0,227
577,088;31763,061;    1,704;    1,682
577,669;31788,690;    1,704;    1,955
578,250;32549,055;   -0,750;   -1,045
578,831;33228,049;   -0,841;   -2,227
579,412;33533,125;   -1,205;    0,955
579,993;34542,929;    1,432;    0,227
580,573;34798,513;   -0,023;   -0,955
581,154;33761,365;    1,613;   -0,591
581,735;34675,924;    0,341;    0,773
582,315;34187,652;    0,523;    2,136
582,896;34508,005;   -1,750;    1,227
583,477;33921,243;    0,614;    1,227
584,057;34152,624;    1,159;    0,955
584,638;34483,383;   -2,750;    2,318
585,218;34503,430;    2,886;    2,682
585,799;34622,049;    1,977;   -0,227
586,379;34604,061;    1,250;    1,591
586,959;33405,211;    2,613;    0,318
587,540;32683,934;    0,432;    2,227
588,120;32114,229;   -1,113;   -0,045
588,700;31040,302;    2,977;    2,136
589,281;31412,448;    1,250;   -0,955
589,861;31337,972;   -0,296;   -1,682
590,441;31085,369;   -1,477;   -2,682
591,021;30075,832;    1,432;   -2,591
591,601;30332,141;    0,431;    0,500
592,181;30278,058;   -1,296;   -0,773
592,761;29554,436;    2,250;    1,409
593,341;29504,809;    1,522;    0,045
593,921;29425,210;   -0,569;    1,591
594,501;29259,152;    1,250;    1,318
595,081;29159,957;    0,522;   -0,318
595,661;29473,811;    1,068;    0,955
596,240;30060,628;   -1,023;    0,136
596,820;29651,635;    2,613;    1,955
597,400;29884,461;    1,977;    0,773
597,980;30122,884;   -0,750;    1,045
598,559;30131,079;    0,341;   -0,227
599,139;29844,116;   -0,750;   -1,227
599,718;29762,843;    0,795;   -0,409
600,298;30065,566;   -2,387;    0,682
600,877;30224,721;    4,795;    1,409
601,457;30531,455;    0,340;    1,136
602,036;30466,953;    1,795;    2,045
602,616;30655,332;    2,250;    1,682
603,195;30983,630;    0,431;    3,500
603,774;30464,271;   -0,296;    2,045
604,354;30388,524;    2,522;   -0,500
604,933;29891,305;    0,250;    1,864
605,512;30025,964;    2,340;    0,591
606,091;30035,010;    1,886;    3,773
606,671;30825,883;    0,249;    0,773
607,250;29890,168;    1,431;    3,136
607,829;30192,027;    1,158;    3,227
608,408;30007,056;    4,613;    2,591
608,987;29066,230;    2,704;    3,409
609,566;29315,726;    0,341;   -2,500
610,145;29382,404;    2,885;    0,682
610,723;29876,188;    1,613;    6,864
611,302;29049,448;    1,067;    1,682
611,881;28516,133;    5,158;   11,227
612,460;29380,483;    0,795;    3,955
613,039;29832,120;    1,703;    2,045
613,617;28535,266;    0,886;    4,773
614,196;28704,424;    1,613;    1,227
614,775;29050,348;    1,249;    2,409
615,353;28997,157;   -1,660;    0,864
615,932;28667,507;    0,249;    2,409
616,510;29280,705;    0,158;    0,591
617,089;28802,675;    8,794;   17,591
617,667;28552,059;    4,885;    6,136
618,246;28357,108;   -1,115;    1,318
618,824;28526,646;    1,612;   -0,955
619,402;28113,834;    0,431;   -1,773
619,981;28579,663;    1,067;   -1,045
620,559;28501,940;    0,794;    1,682
621,137;28018,489;    3,067;    1,864
621,715;27965,910;    3,703;   -0,682
622,293;27907,178;    1,885;   -0,773
622,871;28390,223;    0,340;    0,500
623,450;27885,991;    0,430;   -0,864
624,028;27851,057;   -0,388;   -0,955
624,606;27404,749;    2,339;    1,682
625,183;27792,904;   -0,661;   -1,136
625,761;27422,352;    1,885;    1,136
626,339;27701,475;    2,339;    2,591
626,917;28118,496;    0,339;   -0,045
627,495;28190,092;    2,794;    1,318
628,073;27604,851;    5,248;    2,864
628,650;27256,057;    3,067;    2,136
629,228;27732,454;    1,248;    4,409
629,806;27130,614;   -0,024;    1,136
630,383;27402,842;    0,066;   -0,318
630,961;27115,829;   -2,206;   -0,955
631,539;26851,979;   -2,479;    0,227
632,116;26086,919;   12,703;   15,409
632,694;26755,127;    4,885;    6,500
633,271;27123,872;    1,975;    2,682
633,848;27013,958;    1,430;    2,045
634,426;27052,415;    1,521;    1,773
635,003;26123,980;   -0,207;   -0,409
635,580;26440,229;    1,884;    3,682
636,158;27022,731;    3,793;    1,227
636,735;26973,904;    3,339;   -0,500
637,312;27093,138;    0,521;   -0,682
637,889;27173,079;    2,248;   -0,682
638,466;26710,101;    0,066;   -0,409
639,043;26664,228;    1,702;   -1,136
639,620;27015,735;    0,611;   -0,955
640,197;27330,205;    1,612;    1,682
640,774;27521,266;    1,430;    1,136
641,351;27917,962;    0,612;    1,136
641,928;27265,932;    2,794;    1,409
642,505;26920,356;    0,794;   -0,500
643,082;27063,780;    1,885;    1,227
643,658;26041,295;    1,157;    1,500
644,235;26818,447;   -2,479;    2,500
644,812;27081,144;    1,794;    0,773
645,388;26806,295;    1,612;    1,409
645,965;26883,901;    1,521;    1,682
646,542;26964,143;    3,430;   -0,227
647,118;27004,386;    3,703;   -0,955
647,695;27296,628;    0,339;    1,136
648,271;27233,598;   -2,115;    0,500
648,848;27487,022;    0,248;    2,227
649,424;27353,810;    0,976;    1,318
650,000;27024,052;   -0,388;   -1,045
650,577;26924,385;    0,158;   -0,955
651,153;27423,355;   -1,115;    0,955
651,729;28390,052;    0,521;    0,864
652,305;28590,749;    1,339;    2,773
652,881;33056,082;   -1,297;    1,136
653,458;40113,688;    0,249;    0,227
654,034;44142,203;    0,703;    1,591
654,610;45689,536;    0,339;    0,773
655,186;47081,415;    1,612;    3,045
655,762;46855,839;   -1,842;    0,409
656,338;46871,354;    0,703;    0,136
656,913;47881,687;   -0,297;    0,409
657,489;47269,293;    0,249;   -0,318
658,065;47223,445;    0,794;   -1,591
658,641;47825,142;    2,158;   -0,864
659,217;47134,838;    2,067;    0,409
659,792;46579,081;   -1,751;   -0,409
660,368;46870,869;   -0,388;   -0,682
660,944;46546,929;    1,794;    1,227
661,519;41864,899;    0,522;    0,409
662,095;35484,777;   -0,206;    0,591
662,670;30550,020;   -0,206;   -0,136
663,246;29371,626;   -0,660;   -0,409
663,821;28597,413;    0,431;    1,682
664,396;28135,019;    0,613;    1,864
664,972;28369,898;   -0,660;   -0,500
665,547;28778,686;    3,794;    0,136
666,122;28775,928;    1,340;    0,318
666,698;29046,352;    2,431;    0,318
667,273;28338,140;    0,885;    0,136
667,848;29210,746;    0,340;    1,500
668,423;28941,807;    1,795;    2,318
668,998;29474,322;    0,976;   -0,682
669,573;30097,564;    2,067;   -1,500
670,148;29900,443;    1,885;   -0,682
670,723;29700,321;   -0,024;    0,318
671,298;30157,655;   -1,296;    1,045
671,873;30286,806;   -0,296;   -0,136
672,448;30189,594;    1,704;    0,136
673,023;30604,927;    0,249;   -0,227
673,597;30924,624;    2,704;    2,318
674,172;30674,957;    2,431;    0,318
674,747;30136,563;   -0,205;   -1,045
675,321;30020,896;   -0,933;    3,318
675,896;29564,139;    2,158;    1,045
676,471;30548,290;    2,522;    1,591
677,045;30282,442;   -0,296;    0,682
677,620;30354,593;    2,158;    1,136
678,194;30682,381;    0,249;    1,136
678,769;30201,714;    0,886;   -0,318
679,343;30419,684;   -0,023;    1,773
679,917;30260,471;    0,340;    1,955
680,492;30402,896;    0,249;    3,227
681,066;30581,138;    0,613;    0,409
681,640;30568,562;    1,795;   -0,318
682,214;31369,986;    2,340;    0,500
682,788;30827,320;    0,613;   -0,773
683,363;30789,107;    1,977;    1,682
683,937;30520,622;    0,886;   -0,318
684,511;31283,228;   -1,023;   -0,591
685,085;31028,743;   -1,478;    0,318
685,659;30811,349;    1,431;    0,864
686,232;31008,137;    1,159;   -0,318
686,806;30758,925;    2,159;    0,409
687,380;31395,531;   -1,932;    0,591
687,954;31640,501;    2,432;    1,136
688,528;31267,379;    2,613;    1,955
689,101;32063,076;    0,432;    1,045
689,675;31635,500;    0,886;   -0,136
690,249;30999,288;    3,432;    0,409
690,822;31344,712;    1,159;    0,318
691,396;31402,955;    2,068;    1,227
691,969;30895,197;    2,523;    0,136
692,543;31345,712;   -0,568;   -1,955
693,116;30963,863;   -0,659;   -1,409
693,690;30788,287;   -0,296;    0,500
694,263;31371,621;    2,341;    2,955
694,836;31416,136;    2,795;    3,591
695,410;30045,833;    1,159;    1,773
695,983;30512,620;    1,614;    0,591
696,556;30460,863;   -0,750;   -1,045
697,129;30859,105;   -1,114;    1,409
697,703;30431,257;    1,341;    1,955
698,276;30500,226;    1,705;   -0,773
698,849;30240,196;   -1,023;    1,409
699,422;30636,347;    1,250;    0,591
699,995;30291,862;   -0,659;    0,136
700,568;30814,195;   -0,204;    3,045
701,140;30813,620;   -1,841;    1,682
701,713;30555,771;    0,341;    2,409
702,286;30323,741;    0,796;    0,864
702,859;30194,892;    0,614;   -0,591
703,432;29356,680;   -0,841;    0,682
704,004;29889,831;    1,978;    0,318
704,577;29738,255;    1,068;    0,136
705,150;30326,589;    0,887;    2,500
705,722;30078,831;    1,523;   -3,227
706,295;29832,801;    1,432;   -0,591
706,867;29676,043;    0,250;    1,955
707,440;29924,194;   -0,113;   -0,409
708,012;30126,800;   -0,022;    0,591
708,584;30037,406;    2,705;    0,227
709,157;30418,103;    1,160;   -0,591
709,729;30052,255;    1,069;    2,045
710,301;30852,406;   -1,204;    0,045
710,874;30864,103;    0,341;   -0,227
711,446;29742,254;   -0,295;    0,864
712,018;29639,224;   -3,022;    0,500
712,590;29413,466;   -0,204;    1,682
713,162;29976,254;   -0,477;    1,318
713,734;30163,315;    1,796;   -2,045
714,306;29990,921;    0,342;   -0,409
714,878;28668,163;   -0,295;    0,864
715,450;29473,587;   -0,113;    0,864
716,022;29784,557;    2,433;    1,318
716,593;29934,344;    0,978;    0,591
717,165;29809,314;    1,796;   -1,227
717,737;29549,556;    0,796;    0,409
718,309;29226,435;    1,160;   -0,045
718,880;29170,587;   -1,295;   -1,409
719,452;29419,102;    0,887;   -1,591
720,024;28970,435;    1,705;   -0,591
720,595;29534,223;    2,978;    0,955
721,167;29042,829;    1,160;   -2,045
721,738;28525,889;    2,069;   -1,045
722,309;28398,131;    1,251;   -1,227
722,881;28202,101;    2,705;    0,773
723,452;28945,525;    1,251;    2,864
724,023;29098,768;    1,524;    2,682
724,595;28919,101;    2,342;    0,682
725,166;28629,070;    1,524;   -0,409
725,737;28206,404;    1,887;    0,227
726,308;28320,737;    0,797;    0,318
726,879;28777,070;    1,069;    1,227
727,450;28700,312;   -2,022;   -0,045
728,021;28575,282;    1,069;    0,682
728,592;28403,161;    1,160;    0,500
729,163;28733,403;    1,433;   -0,136
729,734;28719,282;    2,160;   -0,227
730,305;29054,979;    0,615;    0,136
730,876;29365,766;    0,888;    2,955
731,447;29094,554;    0,797;    2,682
732,017;29251,069;   -0,840;    1,864
732,588;28733,948;   -0,021;    1,227
733,159;28896,645;    3,615;   -1,045
733,729;28738,251;    1,251;    0,409
734,300;28027,857;    0,160;    0,864
734,870;28416,917;   -1,385;    0,591
735,441;28966,796;    0,888;   -0,591
736,011;28709,129;    1,070;   -1,591
736,582;28686,099;    1,251;    0,045
737,152;28165,523;    0,979;   -2,045
737,722;28634,311;    1,070;   -0,682
738,293;28321,008;   -2,021;    1,318
738,863;28148,977;    1,797;    2,318
739,433;28002,129;    4,524;    0,318
740,003;28658,098;    1,524;   -0,682
740,573;28006,795;    2,252;   -1,591
741,143;28003,401;    3,615;    0,318
741,713;28731,643;    0,252;   -0,500
742,283;28467,249;    1,706;    1,591
742,853;28194,946;    0,524;    1,591
743,423;27636,370;    0,161;    0,045
743,993;27734,613;    1,070;    1,500
744,563;27121,219;    2,524;   -0,864
745,133;27063,552;   -0,112;   -0,864
745,702;27819,976;    2,797;    1,773
746,272;26928,855;    0,434;    0,591
746,842;26683,734;   -0,748;   -0,591
747,411;27100,976;   -0,839;   -0,318
747,981;27297,855;   -0,930;    0,500
748,551;27372,461;   -0,021;   -1,045
749,120;27193,794;   -0,112;   -0,227
749,690;27627,945;    2,161;    2,409
750,259;27986,642;    0,979;    2,955
750,828;27843,612;    4,070;   -1,955
751,398;28169,672;   -0,112;   -0,045
751,967;27597,733;    2,888;    0,409
752,536;27762,521;    1,161;   -0,227
753,105;28213,763;   -1,384;    0,227
753,675;28031,823;   -0,112;    1,773
754,244;27946,702;    0,888;    3,591
754,813;27990,126;    0,979;    1,227
755,382;27594,005;    0,798;    0,955
755,951;28085,338;   -0,112;    3,682
756,520;27617,490;    2,525;    1,864
757,089;28242,459;    1,888;    0,500
757,658;28366,974;    2,434;    1,227
758,227;28389,853;   -1,111;    0,318
758,795;28682,823;   -1,021;    1,136
759,364;28941,065;    0,525;   -0,591
759,933;27894,398;    1,343;   -0,045
760,501;27450,550;    0,252;   -1,318
761,070;27918,974;   -0,293;   -1,409
761,639;28616,580;    1,434;    1,318
762,207;27841,186;    0,889;   -0,955
762,776;27808,792;    2,889;    0,864
763,344;27779,216;    0,071;    0,591
763,913;26952,276;    1,616;    1,409
764,481;27720,246;    1,980;   -0,136
765,049;27474,125;    0,616;    1,409
765,618;27346,640;    1,434;    0,318
766,186;27430,155;    2,434;    0,136
766,754;27600,852;    1,798;    1,864
767,322;26592,094;    1,162;    0,409
767,890;26606,427;    0,525;   -1,773
768,459;26970,215;    2,616;   -0,318
769,027;27114,912;    2,525;    3,409
769,595;26159,063;    2,616;    2,591
770,163;26619,306;    3,344;    2,955
770,730;26291,002;    2,525;   -0,136
771,298;26156,790;    1,162;   -1,409
771,866;26235,851;    0,253;    4,955
772,434;26557,548;    1,162;   -1,864
773,002;26737,426;    2,616;    0,682
773,569;26324,760;    1,071;    1,682
774,137;26164,456;    0,889;   -0,045
774,705;26935,062;   -0,747;   -0,136
775,272;26482,759;    0,253;    0,682
775,840;26256,547;   -0,111;    2,682
776,407;25704,517;   -0,293;    1,955
776,975;25253,395;    1,162;    0,318
777,542;26381,365;    2,162;   -0,045
778,110;26237,153;    0,707;   -0,045
778,677;25885,941;    1,071;   -0,864
779,244;25585,456;   -1,020;    1,045
779,812;25693,425;    0,980;    0,864
780,379;25541,031;    2,435;    1,136
780,946;25828,819;    2,617;   -0,773
781,513;26150,698;   -0,565;    0,318
782,080;25458,031;    1,253;    2,864
782,647;26205,182;    1,708;    3,045
783,214;25805,607;   -0,201;    3,864
783,781;25409,576;    1,708;   -0,682
784,348;25277,091;    0,253;    1,500
784,915;25716,152;   -1,474;    0,318
785,482;25481,939;    2,708;    2,591
786,049;25942,818;    1,071;   -0,591
786,615;26013,788;    1,708;   -0,955
787,182;25826,848;   -3,201;   -0,682
787,749;25509,091;   -2,201;    1,409
788,315;24784,151;    0,253;   -0,409
788,882;25094,121;    0,981;   -1,227
789,448;25782,090;    1,435;   -0,955
790,015;25755,605;    1,799;    3,227
790,581;25388,848;    0,708;    0,227
791,148;25245,090;    1,344;    1,045
791,714;25491,151;   -1,019;    3,136
792,280;25137,393;    3,708;    1,591
792,847;24712,363;   -0,928;    2,500
793,413;25295,787;   -0,110;   -0,318
793,979;24755,120;    1,526;   -1,318
794,545;24815,090;    2,981;    2,682
795,111;24237,605;    2,435;    1,318
795,678;24438,574;    3,526;   -1,682
796,244;24080,180;    2,799;    0,136
796,810;24641,150;    0,799;    0,773
797,375;24338,574;   -0,292;   -2,136
797,941;24354,816;   -1,110;    0,591
798,507;24439,786;    0,254;   -0,955
799,073;24070,665;    2,708;    0,591
799,639;24159,907;    1,435;    3,136
800,205;24147,513;   -1,565;    2,682
800,770;23667,664;    1,345;    1,773
801,336;23695,998;    2,981;   -0,955
801,901;23354,513;    6,072;    3,136
802,467;23999,664;    0,526;    2,045
803,033;23288,634;   -0,019;    0,864
803,598;23533,240;    1,072;   -1,045
804,163;23595,118;    0,708;   -0,318
804,729;23472,815;   -0,110;    1,136
805,294;23912,603;    1,072;    2,227
805,859;23707,936;    0,890;   -0,409
806,425;23186,815;    3,890;    2,682
806,990;22823,239;    1,890;    4,318
807,555;23407,663;   -0,110;    2,591
808,120;23244,451;   -1,292;   -0,409
808,685;23305,602;    1,072;   -2,500
809,250;22805,117;    2,072;   -0,500
809,815;23099,723;   -0,201;    0,682
810,380;23628,693;    0,981;    1,591
810,945;24122,663;    2,890;    2,045
811,510;23323,541;   -0,200;    1,591
812,075;23029,602;    2,800;   -1,409
812,640;23054,844;    3,709;    1,409
813,204;23049,087;    2,163;   -0,227
813,769;23554,783;    0,254;   -0,045
814,334;23014,571;    0,527;    0,864
814,898;23068,995;    1,981;    0,591
815,463;22897,147;    0,981;   -0,773
816,027;22890,662;    1,345;   -2,318
816,592;22970,268;    2,163;   -2,045
817,156;22435,419;   -2,200;    1,136
817,721;22222,389;    0,982;    2,318
818,285;22223,449;    0,618;    1,500
818,849;22874,601;   -0,018;    1,682
819,414;22810,298;    0,073;    2,955
819,978;22354,449;   -0,291;    1,773
820,542;22970,873;    2,891;    0,500
821,106;22654,297;    2,800;    0,682
821,670;22760,085;    2,709;    2,591
822,234;22453,782;    1,073;    1,409
822,798;21858,024;   -0,836;    0,500
823,362;21795,721;    1,527;    4,227
823,926;21127,055;   -0,018;    1,136
824,490;21301,751;    3,527;   -0,682
825,054;21774,630;    2,527;   -1,136
825,618;21421,872;   -1,200;   -1,500
826,181;21359,115;    0,982;   -1,318
826,745;21201,721;   -0,745;   -1,045
827,309;21567,418;    2,255;    1,318
827,872;20999,842;    0,527;    0,955
828,436;21993,084;    1,982;   -0,773
828,999;22055,599;    2,436;    1,227
829,563;20889,023;   -0,654;    1,136
830,126;20661,811;   -0,018;   -0,591
830,690;20638,781;    0,709;    2,864
831,253;20173,114;   -0,473;    2,227
831,816;20325,265;   -0,018;    0,500
832,380;20200,599;    1,164;    0,864
832,943;20411,295;    3,073;   -0,500
833,506;19943,265;    0,255;   -1,227
834,069;20763,962;    2,164;   -0,955
834,632;20790,295;   -2,200;    1,318
835,195;20680,447;    1,346;    0,955
835,758;19915,234;    0,709;    1,955
836,321;19683,022;    1,073;   -1,045
836,884;19771,901;   -1,291;   -0,955
837,447;19846,416;    0,528;    1,773
838,010;20129,931;    1,800;    3,227
838,573;20456,810;    0,528;    0,773
839,135;20375,234;   -0,109;   -0,955
839,698;19782,840;    2,528;    0,409
840,261;19305,355;    0,255;   -0,227
840,823;19178,779;   -0,927;    0,864
841,386;19461,294;   -0,018;   -2,409
841,948;19305,264;    0,255;    1,773
842,511;19051,870;    0,255;    1,682
843,073;19206,748;    2,982;    0,227
843,636;19035,354;    0,619;   -0,227
844,198;18937,779;    1,255;    0,591
844,760;19082,839;    0,619;    1,955
845,322;18735,718;    0,164;    1,136
845,885;19171,506;   -0,290;    0,591
846,447;19551,202;    0,710;    0,227
847,009;19081,808;    3,983;   -0,682
847,571;19434,869;    1,346;   -2,045
848,133;19556,202;   -0,199;   -1,864
848,695;19383,535;    2,346;    1,409
849,257;18927,505;    1,346;   -1,682
849,819;19099,475;    2,983;   -0,409
850,381;19127,353;    1,801;   -0,864
850,942;19562,414;    1,892;   -0,591
851,504;19413,929;    0,983;    0,227
852,066;19464,444;    1,619;   -1,591
852,628;19002,414;    0,165;    1,955
853,189;18515,201;    0,256;    2,682
853,751;18678,171;   -0,654;    1,409
854,312;18504,686;    1,256;   -1,682
854,874;19044,837;   -0,108;   -0,773
855,435;19497,080;    0,528;   -1,682
855,997;19622,777;    3,983;   -0,136
856,558;18897,837;    0,801;    1,773
857,119;19034,807;   -0,744;    2,864
857,681;18683,776;   -0,108;    0,318
858,242;18731,200;    1,347;   -2,136
858,803;19215,625;    1,074;   -0,773
859,364;19776,140;    0,892;   -4,773
859,925;19098,837;   -0,290;   -0,955
860,486;19007,988;    0,529;   -0,955
861,047;18706,139;    0,165;   -1,227
861,608;18493,473;    0,165;   -0,773
862,169;18673,079;   -0,562;   -0,045
862,730;18466,230;   -0,290;    1,409
863,291;18689,109;    0,438;   -0,500
863,852;18993,260;   -0,926;    1,955
864,412;18466,139;   -1,835;   -0,864
864,973;17029,654;    1,892;    0,500
865,534;16874,169;    2,074;    0,227
866,094;18433,139;    2,620;    0,227
866,655;18067,290;    4,711;    3,318
867,215;18364,169;    0,074;    0,136
867,776;18236,957;   -1,199;   -0,136
868,336;18341,835;    1,529;    0,136
868,897;17736,350;    3,438;    1,682
869,457;17520,774;    3,256;    0,318
870,017;17798,289;    2,438;   -1,227
870,578;18294,986;    1,893;    0,773
871,138;17865,683;    2,620;   -0,955
871,698;17421,744;   -0,562;   -1,318
872,258;17336,804;    0,711;   -2,864
872,818;17719,228;    2,347;    0,045
873,378;17648,380;   -2,198;    1,045
873,938;17201,804;    4,984;    0,500
874,498;17578,501;    1,256;   -1,955
875,058;17438,561;    4,347;    1,773
875,618;17289,531;    1,438;   -2,682
876,177;17223,046;   -0,471;    0,136
876,737;16807,652;   -0,289;    1,955
877,297;16799,894;    2,711;    1,955
877,856;16805,046;    2,529;    0,318
878,416;16736,924;    2,438;   -0,136
878,976;16952,076;    3,438;    0,409
879,535;17135,136;    4,529;    3,136
880,095;16874,651;    1,347;    0,045
880,654;17025,985;    0,347;    1,318
881,213;17112,591;    2,347;    1,500
881,773;16729,924;    1,984;    2,682
882,332;17092,166;    6,075;    5,136
882,891;16936,681;    0,711;    2,136
883,451;17411,560;   -2,016;    1,682
884,010;16883,166;   -1,107;   -0,409
884,569;16968,045;   -2,289;   -0,045
885,128;17076,832;   -0,743;   -1,864
885,687;17134,711;   -0,743;    0,682
886,246;16839,863;    2,620;    2,136
886,805;16592,287;    1,620;    2,045
887,364;16899,165;    1,166;   -0,500
887,922;17240,135;   -0,016;    0,045
888,481;16757,286;    1,530;    0,591
889,040;17082,074;    3,711;    2,136
889,599;17726,862;    2,166;    1,409
890,157;17827,832;    2,166;    2,409
890,716;17450,801;    2,166;    0,227
891,274;17269,316;    0,075;   -1,136
891,833;17668,922;    1,166;    0,864
892,391;17595,074;    1,802;    0,500
892,950;17668,225;    0,166;   -0,773
893,508;18027,467;    0,984;   -0,409
894,067;17392,437;   -0,379;    0,136
894,625;17329,861;   -1,016;   -1,500
895,183;17483,376;   -0,198;   -0,682
895,741;17410,619;    2,257;   -1,773
896,299;17253,497;    1,621;   -2,409
896,858;17458,649;    1,530;   -1,591
897,416;17527,164;    0,166;   -1,318
897,974;17279,770;   -2,197;    0,318
898,532;17406,103;    6,530;    2,682
899,089;17318,164;    0,621;   -0,682
899,647;17417,951;    0,530;    1,318
900,205;17130,012;    0,257;    1,045
900,763;17297,436;    2,166;    0,227
901,321;17319,769;    3,530;   -1,409
901,878;16754,739;    3,257;   -0,773
902,436;16584,072;    0,257;    1,318
902,994;16982,405;    6,712;    3,682
903,551;16405,648;    1,439;    0,409
904,109;16850,890;    1,530;   -1,409
904,666;16452,314;    1,439;    1,045
905,224;16219,647;    3,894;   -0,409
905,781;15961,435;   -0,470;   -0,318
906,338;16056,768;    0,167;    1,045
906,895;15971,647;    1,894;    2,045
907,453;15839,162;    2,348;    1,136
908,010;15897,404;    3,348;    0,409
908,567;15547,101;   -0,561;    0,591
909,124;15063,253;    2,439;   -1,500
909,681;15157,495;   -1,288;    0,682
910,238;15280,192;   -0,106;   -1,318
910,795;15591,980;   -1,561;   -1,136
911,352;15216,162;   -0,379;   -2,682
911,909;14607,525;    2,803;   -0,864
912,466;15159,253;    1,985;    1,500
913,022;14703,253;   -0,924;    0,500
913,579;15044,525;   -0,470;    2,045
914,136;14733,434;   -2,561;    0,955
914,692;15091,616;    1,530;   -1,227
915,249;14668,071;    0,530;    0,409
915,806;14889,071;    1,803;    1,955
916,362;14604,889;    0,894;    1,864
916,918;14157,071;    2,439;    1,045
917,475;14161,071;    1,621;    0,955
918,031;14296,798;    0,076;   -0,045
918,587;13715,889;    0,621;   -0,318
919,144;13916,162;   -0,379;    0,227
919,700;14238,707;    0,167;    0,773
920,256;13812,071;    0,439;    0,045
920,812;13440,525;    1,439;   -1,045
921,368;13407,525;    1,348;   -1,045
921,924;13046,253;    0,439;   -0,136
922,480;12635,253;    0,076;    1,227
923,036;13253,343;   -0,652;    1,955
923,592;13225,343;    0,621;    0,318
924,148;13128,525;    1,894;   -0,955
924,704;12442,616;    0,258;   -0,409
925,259;12685,071;   -0,561;    0,591
925,815;12410,071;    3,803;    0,500
926,371;11970,434;    3,530;    1,409
926,926;11848,525;    1,621;    0,591
927,482;11467,889;    1,621;    0,773
928,037;11334,343;   -0,833;    2,045
928,593;11636,434;    0,258;    1,045
929,148;11450,525;    1,167;   -1,500
929,704;11000,162;    2,439;   -0,500
930,259;11192,707;    0,894;   -0,136
930,814;10243,071;    1,803;    1,955
931,369; 9941,162;    0,258;   -0,773
931,925; 9854,162;   -1,924;    0,136
932,480; 9744,798;    3,076;   -2,591
933,035; 9573,980;    3,985;   -0,318
933,590; 9330,707;   -1,742;   -1,773
934,145; 9019,889;   -1,288;   -0,318
934,700; 9387,434;    0,348;   -0,591
935,255; 9172,889;    4,803;    0,045
935,809; 8420,343;    6,258;    0,864
936,364; 7554,889;    2,167;   -0,136
936,919; 7542,434;    2,348;   -1,773
937,474; 7422,071;    1,348;    0,136
938,028; 7177,071;    3,076;    1,136
938,583; 6623,980;    6,348;    4,682
939,138; 6953,162;    0,167;    2,136
939,692; 6403,253;   -1,015;   -1,136
940,247; 6053,071;    1,167;   -1,045
940,801; 5600,980;    0,621;    0,227
941,355; 5540,343;    0,439;    2,591
941,910; 5186,525;    0,712;   -2,136
942,464; 5269,525;    2,712;   -0,318
943,018; 5056,162;    3,258;   -0,227
943,572; 5004,707;    2,803;   -0,682
944,126; 4402,162;   -0,924;   -0,409
944,681; 4297,889;    0,712;    0,227
945,235; 4275,071;    2,167;   -0,591
945,789; 4216,980;    1,258;   -1,864
946,342; 4308,434;   -0,561;   -0,591
946,896; 4110,071;    0,348;    0,955
947,450; 3882,162;   -0,561;   -0,227
948,004; 4052,707;    1,076;   -0,045
948,558; 4095,525;    1,258;   -0,864
949,111; 4012,616;   -1,197;   -0,318
949,665; 4031,434;   -0,106;   -0,682
950,219; 3896,071;    0,621;   -1,045
950,772; 3977,434;    0,258;    1,864
951,326; 3890,889;   -1,106;   -0,955
951,879; 3969,253;    1,076;   -2,318
952,433; 4006,253;    1,348;    2,227
952,986; 3837,162;    0,348;    0,682
953,539; 3785,162;    1,530;    0,591
954,093; 3729,071;    0,985;   -1,318
954,646; 3869,889;   -0,288;    1,318
955,199; 3664,889;    1,258;   -0,500
955,752; 3542,253;    1,985;    1,773
956,305; 3504,162;    0,894;    2,955
956,858; 3680,343;    0,621;   -0,318
957,411; 3864,980;    3,621;    2,136
957,964; 3675,071;    2,076;    2,136
958,517; 3664,071;    0,985;    3,136
959,070; 3496,343;   -1,197;    1,955
959,623; 3584,889;    1,076;    1,500
960,176; 3342,980;    0,712;    2,045
960,728; 3307,162;    1,712;    0,773
961,281; 3390,616;    2,258;    0,500
961,834; 3404,889;   -0,833;    0,864
962,386; 3326,162;    1,258;    1,045
962,939; 3254,434;    3,439;   -0,318
963,491; 3403,162;    2,621;    1,136
964,043; 3270,889;    0,076;    2,409
964,596; 3402,707;    1,712;    2,227
965,148; 3220,707;   -0,379;    1,773
965,700; 3141,253;   -0,015;   -0,227
966,253; 3302,798;   -0,833;    0,318
966,805; 3135,071;    1,894;    0,773
967,357; 3199,707;    0,439;   -1,500
967,909; 3151,434;    1,167;   -1,227
968,461; 3287,525;    0,894;    3,136
969,013; 3173,707;   -1,561;   -0,864
969,565; 3258,525;    1,803;   -1,136
970,117; 3310,889;    3,803;    1,045
970,669; 3147,798;    3,258;   -0,136
971,220; 3017,253;    2,167;   -1,500
971,772; 2930,162;    1,348;   -0,318
972,324; 3061,525;   -1,197;   -0,500
972,876; 3025,980;    0,167;   -0,045
973,427; 3141,434;   -1,197;   -1,045
973,979; 3136,980;    0,076;   -2,500
974,530; 3148,707;    0,803;    1,318
975,082; 3158,162;    2,167;    1,682
975,633; 3046,616;    2,894;    1,682
976,184; 3211,162;    2,076;    0,773
976,736; 2982,343;    0,348;    0,227
977,287; 2771,980;    0,258;   -0,500
977,838; 2971,434;   -0,924;   -0,318
978,389; 3012,798;    0,803;   -0,500
978,940; 2904,980;    1,258;   -0,409
979,491; 2919,980;    2,258;   -0,500
980,042; 2866,525;   -0,652;    3,045
980,593; 2943,980;    1,894;    0,227
981,144; 2994,980;    3,530;   -0,500
981,695; 2957,980;   -0,470;    1,500
982,246; 2917,162;   -1,833;    1,045
982,797; 3098,525;   -0,561;    0,682
983,347; 3218,616;    2,167;    0,591
983,898; 3334,162;    4,167;    0,409
984,449; 3162,525;    2,530;    0,773
984,999; 3090,343;    1,894;   -1,136
985,550; 2842,253;    3,167;   -0,318
986,100; 2888,980;    0,712;   -0,318
986,651; 2936,343;    0,258;    0,045
987,201; 2916,253;    0,894;   -0,591
987,751; 2988,253;   -0,288;    2,864
988,302; 2980,343;   -0,379;    1,500
988,852; 2985,707;    1,985;   -1,136
989,402; 3009,343;    0,985;    0,682
989,952; 2935,889;    1,621;    0,864
990,502; 3042,162;    1,076;    0,682
991,052; 3019,525;   -0,106;    0,045
991,602; 2876,071;    1,167;    1,318
992,152; 2864,616;    2,803;    0,682
992,702; 2865,162;    1,167;   -0,045
993,252; 2769,798;    0,076;   -0,500
993,802; 2869,071;    1,167;    1,318
994,352; 3109,253;   -0,742;    1,136
994,901; 3211,980;    1,076;    3,227
995,451; 3131,616;   -1,197;    0,318
996,000; 3202,162;    1,076;    0,318
996,550; 2902,162;    2,894;    0,227
997,100; 2946,616;   -0,561;   -0,045
997,649; 3203,253;   -0,197;    0,955
998,198; 2832,707;   -0,288;   -1,500
998,748; 3008,434;    0,348;   -2,318
999,297; 2941,798;    0,985;   -0,409
999,846; 3015,707;    1,894;   -0,773
1000,395; 3041,980;    1,530;    0,500
1000,945; 3002,889;    1,076;   -0,773
1001,494; 3071,980;    0,167;    0,682
1002,043; 3064,616;    0,712;    0,864
1002,592; 2906,525;    3,439;    1,955
1003,141; 3051,980;    2,439;   -0,682
1003,690; 2884,343;    1,258;    0,500
1004,238; 2974,253;   -0,106;   -0,045
1004,787; 2618,343;   -1,288;    1,227
1005,336; 2847,798;    1,621;    0,682
1005,885; 2996,071;   -0,197;   -2,773
1006,433; 3124,980;   -0,470;    0,955
1006,982; 3185,707;    2,167;    1,682
1007,531; 3093,980;    2,712;   -0,227
1008,079; 3067,525;    0,258;    0,500
1008,627; 3217,525;    1,621;    0,409
1009,176; 2926,434;    0,076;   -1,955
1009,724; 2964,707;   -2,742;    0,864
1010,273; 3035,253;    1,076;    0,500
1010,821; 3157,071;    1,076;    1,409
1011,369; 2876,071;    0,076;    1,318
1011,917; 2872,071;   -0,833;   -0,591
1012,465; 3154,707;    2,530;   -1,591
1013,013; 3281,525;    0,439;   -1,682
1013,561; 3144,343;   -1,288;   -0,773
1014,109; 3178,889;   -0,833;    1,682
1014,657; 3045,707;    1,348;    0,591
1015,205; 3170,707;    0,894;   -0,955
1015,753; 3214,889;    0,258;   -1,409
1016,301; 3250,253;    2,621;    3,045
1016,848; 3266,889;    2,167;    0,409
1017,396; 3296,707;    1,621;    0,045
1017,944; 3421,889;    2,621;    1,864
1018,491; 3177,162;   -0,197;    1,409
1019,039; 3340,707;   -0,652;    0,591
1019,586; 3251,525;    0,076;    1,682
1020,134; 3364,253;    0,712;    1,500
1020,681; 3358,707;    2,894;   -1,136
1021,228; 3362,253;   -0,561;   -2,227
1021,776; 3203,343;   -0,833;   -1,136
1022,323; 3419,434;    0,803;    0,773
1022,870; 3372,434;   -0,470;   -0,045
1023,417; 3274,162;    2,076;    1,864
1023,964; 3413,889;    0,621;    1,227
1024,511; 3240,434;   -0,652;    0,773
1025,058; 3025,071;    0,439;   -0,045
1025,605; 3082,889;   -1,742;    3,136
1026,152; 3311,253;   -0,106;   -0,591
1026,699; 3032,889;    0,167;    1,318
1027,245; 3196,616;    2,439;    0,318
1027,792; 3431,525;    0,712;    1,409
1028,339; 3292,889;    4,076;   -0,045
1028,885; 3156,071;    3,621;   -0,227
1029,432; 3088,162;   -0,106;    0,227
1029,978; 3153,434;    1,348;   -1,591
1030,525; 3052,434;    1,621;    0,409
1031,071; 3308,980;    0,348;    1,136
1031,618; 3401,889;    1,258;    1,682
1032,164; 3194,707;    2,076;    3,045
1032,710; 3217,253;    0,076;   -1,500
1033,256; 3144,343;    0,712;   -0,136
1033,803; 3132,798;   -0,288;    1,500
1034,349; 2859,434;    1,803;    0,136
1034,895; 3026,343;    2,621;   -0,318
1035,441; 2989,889;    0,439;    0,318
1035,987; 2998,525;   -2,288;   -0,682
1036,533; 3006,980;   -0,197;   -0,955
1037,078; 3207,525;    4,712;    1,682
1037,624; 3026,798;    2,439;   -0,955
1038,170; 3051,798;    1,712;   -0,318
1038,716; 2938,434;    2,167;   -0,409
1039,261; 2867,798;    2,167;   -0,773
1039,807; 2813,071;   -0,015;    3,409
1040,352; 2876,253;   -1,288;   -0,318
1040,898; 2919,616;    0,167;   -0,682
1041,443; 2831,889;    0,803;   -2,591
1041,989; 2848,343;    3,621;    1,591
1042,534; 2730,798;    0,985;    2,591
1043,079; 2857,798;    1,985;    0,955
1043,625; 2614,343;    0,258;    0,500
1044,170; 2668,343;    2,439;    1,045
1044,715; 2940,798;    0,167;    0,955
1045,260; 2757,071;   -0,833;   -0,955
1045,805; 2805,071;    0,258;   -0,591
1046,350; 2732,253;    0,530;   -0,409
1046,895; 2699,253;    0,803;    1,591
1047,440; 2632,162;    1,530;    0,409
1047,985; 2551,525;   -1,197;   -0,955
1048,530; 2448,707;    1,348;    1,227
1049,074; 2524,343;    2,803;    0,318
1049,619; 2505,616;   -0,924;    1,955
1050,164; 2306,071;    1,076;    0,227
1050,708; 2360,253;    2,621;    0,045
1051,253; 2710,980;    3,258;   -2,227
1051,797; 2431,889;   -0,197;   -1,318
1052,342; 2449,434;    1,348;    1,045
1052,886; 2406,162;    1,803;   -1,409
1053,430; 2309,253;    2,167;    0,136
1053,975; 2337,343;    0,894;   -0,318
1054,519; 2299,343;    1,803;    3,227
1055,063; 2326,889;    3,621;    1,318
1055,607; 2207,707;    1,348;    0,227
1056,151; 2229,162;    0,530;    1,682
1056,695; 2160,889;   -1,833;   -1,136
1057,239; 2208,434;   -1,197;   -0,682
1057,783; 2227,798;    2,258;   -1,500
1058,327; 2169,798;    3,076;    1,409
1058,871; 2400,162;    3,985;    1,318
1059,415; 2114,707;   -0,561;   -0,045
1059,958; 2360,071;    2,985;    2,591
1060,502; 2097,434;    1,348;   -0,773
1061,046; 1987,616;    1,712;   -0,955
1061,589; 1971,071;    2,803;   -1,136
1062,133; 1865,343;    0,985;    1,864
1062,676; 1794,525;    1,439;    0,864
1063,220; 1798,253;    0,985;    0,500
1063,763; 1822,071;    2,985;    1,136
1064,306; 1886,616;    0,985;    1,864
1064,849; 1784,525;    2,076;    0,591
1065,393; 1793,343;    2,894;   -1,500
1065,936; 1902,525;    2,530;   -0,409
1066,479; 1798,253;    2,621;    1,318
1067,022; 1822,071;    1,894;   -0,227
1067,565; 1702,525;   -1,197;   -1,318
1068,108; 1746,889;    1,258;   -0,591
1068,651; 1722,525;   -2,470;    1,409
1069,194; 1652,343;   -1,106;   -1,682
1069,736; 1643,980;    3,803;    0,955
1070,279; 1618,889;   -1,652;   -0,500
1070,822; 1668,616;    1,530;   -0,318
1071,364; 1736,980;    0,530;    1,318
1071,907; 1567,253;    0,348;    3,227
1072,450; 1486,616;    0,258;   -0,045
1072,992; 1470,071;   -0,561;    3,136
1073,535; 1607,343;    0,167;    2,136
1074,077; 1407,616;    2,985;    2,045
1074,619; 1378,071;    0,985;    0,591
1075,161; 1391,798;   -0,561;    1,500
1075,704; 1570,707;    0,258;    1,227
1076,246; 1397,253;    1,530;    0,682
1076,788; 1320,343;   -1,015;    1,773
1077,330; 1399,707;   -2,106;    2,136
1077,872; 1350,162;   -1,924;    0,955
1078,414; 1583,162;    3,712;    0,773
1078,956; 1309,162;    0,167;   -0,227
1079,498; 1553,525;    0,439;    0,318
1080,040; 1242,616;    0,985;   -1,318
1080,581; 1197,798;    0,621;   -0,318
1081,123; 1141,525;   -0,106;   -0,773
1081,665; 1193,707;    3,803;   -0,955
1082,206; 1463,343;    3,258;   -0,500
1082,748; 1333,343;    3,258;    2,045
1083,289; 1234,707;    0,167;    1,318
1083,831; 1133,434;    0,258;    0,227
1084,372; 1151,253;    0,894;    0,591
1084,913; 1144,434;    3,348;    0,864
1085,455; 1133,343;    1,530;   -2,045
1085,996; 1106,616;    0,530;    0,136
1086,537; 1123,889;    0,985;    0,864
1087,078; 1172,980;    0,439;   -2,136
1087,619; 1200,707;   -1,652;    0,227
1088,160; 1119,889;    1,439;    1,318
1088,701; 1095,798;   -0,742;    0,682
1089,242; 1041,343;   -0,561;   -2,227
1089,783; 1131,798;   -0,561;    1,409
1090,324; 1108,343;   -0,833;    0,682
1090,865;  985,889;   -1,924;   -0,409
1091,405;  976,707;   -0,561;    2,227
1091,946;  991,525;   -0,197;   -0,955
1092,487;  910,071;   -1,288;   -1,409
1093,027; 1079,980;    1,803;   -1,500
1093,568;  923,525;    2,258;    1,227
1094,108; 1001,798;    0,621;    1,773
1094,649;  964,798;   -0,470;    0,136
1095,189;  904,434;    1,167;   -0,682
1095,729;  853,162;    0,712;    0,955
1096,269;  863,162;    1,258;   -0,955
1096,810; 1170,707;   -0,197;    0,500
1097,350;  993,616;   -0,561;   -0,773
1097,890;  893,525;    2,985;    1,227
1098,430; 1136,162;    4,985;    2,864
1098,970; 1005,707;    1,894;    1,682
1099,510;  889,071;   -0,833;   -2,318
1100,050;  816,343;    0,258;   -1,591
1100,589;  781,525;    0,076;   -0,318
1101,129;  906,253;    0,894;   -0,955
1101,669; 1038,707;    2,803;    2,136
1102,209;  883,616;    1,530;    2,227
1102,748;  813,525;    3,439;    0,955
1103,288;  812,434;    0,712;   -1,227
1103,827;  834,071;    3,530;   -2,227
1104,367;  722,707;    1,712;   -2,409
1104,906;  691,616;   -1,015;   -1,136
1105,445;  771,253;    0,985;   -1,136
1105,985;  696,889;   -0,652;    1,500
1106,524;  735,889;    1,530;   -0,682
1107,063;  719,616;    1,167;    1,409
1107,602;  698,889;    1,894;   -1,500
1108,141;  618,162;    1,621;    1,500
1108,680;  708,434;    3,985;   -0,591
1109,219;  653,980;    0,167;   -0,500
1109,758;  670,889;    4,167;    0,682
1110,297;  653,253;   -1,106;   -0,682
1110,836;  583,980;    1,439;    0,955
1111,375;  732,071;    0,348;    0,409
1111,913;  734,434;    0,985;    0,773
1112,452;  690,980;    0,894;    0,136
1112,991;  586,707;    1,076;    1,955
1113,529;  537,525;    0,167;   -0,045
1114,068;  599,707;    0,439;    2,955
1114,606;  506,889;   -0,561;   -0,955
1115,144;  668,071;    1,530;    1,045
1115,683;  605,980;    1,985;    0,318
1116,221;  646,616;    2,076;   -0,864
1116,759;  561,707;    1,621;   -0,864
1117,297;  743,253;    1,621;    1,864
1117,836;  560,980;    1,985;   -1,227
1118,374;  567,616;    0,258;   -0,682
1118,912;  526,162;    0,439;    2,682
1119,450;  507,162;    0,985;    0,864
1119,988;  536,162;    3,348;    2,136
1120,525;  984,616;    7,258;    3,318
1121,063;  679,253;    0,530;    1,864
1121,601;  504,525;    1,076;   -1,227
1122,139;  464,162;    1,076;   -2,045
1122,676;  657,980;   -1,652;    2,773
1123,214;  590,253;    0,712;    4,409
1123,751;  424,525;    0,621;    2,227
1124,289;  535,707;    0,894;   -0,409
1124,826;  410,798;   -0,379;    0,227
1125,364;  343,980;    0,712;   -0,955
1125,901;  516,525;    6,258;    1,227
1126,438;  613,798;    3,530;    0,955
1126,975;  352,253;    2,985;   -0,773
1127,513;  425,253;    2,621;    2,136
1128,050;  345,616;   -0,561;   -0,682
1128,587;  434,525;    1,348;   -0,227
1129,124;  470,343;   -0,015;    1,318
1129,661;  352,434;   -1,924;    0,227
1130,198;  509,525;    2,439;    0,773
1130,734;  450,980;   -0,379;    1,409
1131,271;  323,253;   -1,197;    0,864
1131,808;  483,616;    1,621;    3,045
1132,345;  357,434;    4,530;    0,318
1132,881;  241,980;   -0,561;   -1,864
1133,418;  371,616;    0,348;   -1,136
1133,954;  318,071;    0,712;   -2,682
1134,491;  379,343;    1,712;   -0,773
1135,027;  284,525;    2,167;    0,864
1135,564;  367,798;    1,439;    2,955
1136,100;  351,616;   -0,742;    2,136
1136,636;  249,071;   -1,015;   -1,045
1137,172;  332,162;    0,894;   -1,045
1137,708;  259,980;   -1,561;   -1,045
1138,245;  266,707;    0,803;   -1,227
1138,781;  229,707;    1,803;   -3,318
1139,317;  280,525;    1,894;   -1,409
1139,852;  271,434;    3,076;    0,136
1140,388;  390,707;    2,076;   -0,409
1140,924;  266,798;    1,076;   -2,227
1141,460;  215,980;   -0,288;    0,136
1141,996;  159,980;   -0,652;    2,682
1142,531;  206,434;    1,076;    3,318
1143,067;  399,253;    1,167;    1,045
1143,602;  454,434;    3,439;   -0,318
1144,138;  302,434;    0,803;    1,045
1144,673;  182,980;    1,621;    1,409
1145,209;  245,798;    2,894;   -0,318
1145,744;  172,889;    0,803;    0,864
1146,279;  298,343;    1,530;   -0,136
1146,815;  215,253;    1,530;   -2,682
1147,350;  240,434;   -0,924;    0,045
1147,885;  177,071;   -1,924;   -1,318
1148,420;  184,071;    2,439;    0,773
1148,955;  158,434;   -1,470;    1,864
1149,490;  182,525;   -1,106;   -1,591
1150,025;  162,798;   -1,106;   -1,773
1150,560;  273,162;   -0,288;   -0,955
1151,094;  234,253;    0,258;   -0,591
1151,629;  233,525;   -3,742;    0,864
1152,164;  177,707;   -1,288;    1,318
1152,698;  144,525;    1,258;   -0,136
1153,233;  103,889;   -1,379;   -0,682
1153,767;  140,616;   -0,288;   -2,318
1154,302;  185,525;   -0,379;    1,773
1154,836;  182,162;    0,803;   -2,136
1155,371;  220,707;    2,258;    3,682
1155,905;  188,616;    1,985;    1,682
1156,439;  163,162;    0,530;   -0,500
1156,973;  187,343;    0,439;    0,318
1157,507;  125,162;   -1,742;    0,682
1158,042;  155,525;   -0,652;    1,045
1158,576;  184,798;   -0,561;    1,773
1159,110;  184,071;    0,076;    2,409
1159,643;  166,525;   -2,470;   -0,045
1160,177;  104,889;   -2,015;    1,500

