
Integration time [ms]:   0,040
Averaging Nr. [scans]: 11
Smoothing Nr. [pixels]: 0
Data measured with spectrometer [name]: 7318044SP
Wave   ;Sample   ;Dark     ;Reference
[nm]   ;[counts] ;[counts] ;[counts] 

186,757;   36,993;   38,161;    1,318
187,357;   63,588;   26,706;    0,955
187,958;   37,935;   17,252;   -1,591
188,558;   75,399;   12,979;   -1,227
189,159;   43,706;   10,070;   -4,500
189,759;   21,886;    5,797;   -3,591
190,360;   16,501;    6,797;   -2,136
190,960;   51,090;    5,706;   -4,136
191,560;   60,552;    2,614;   -6,591
192,161;  283,441;    5,885;   -3,500
192,761;  138,871;    5,520;   -3,227
193,361;   92,115;    3,065;   -3,773
193,962;  155,627;    1,612;   -2,682
194,562;   74,956;   -0,114;   -3,955
195,162;  103,994;   -0,567;   -2,227
195,762;  255,222;    2,433;   -0,045
196,362;  197,240;    1,706;   -2,500
196,963;   80,994;    1,706;   -0,864
197,563;  149,196;    1,252;   -0,955
198,163;   99,478;   -0,111;   -0,682
198,763;  120,588;   -0,020;   -0,500
199,363;  216,865;    3,616;   -0,500
199,963;  168,369;    2,162;    0,409
200,563;  148,572;    6,344;   -1,409
201,163;  138,893;    5,435;   -0,227
201,763;  214,180;    1,435;    0,318
202,363;  161,876;    0,980;    1,500
202,963;  250,492;    1,526;    1,045
203,563;  364,567;    0,344;    0,500
204,162;  221,300;    1,889;   -1,864
204,762;  209,390;    2,071;    0,591
205,362;  176,181;    0,708;    1,955
205,962;  269,096;    3,435;    1,955
206,562;  272,213;    1,889;    2,318
207,161;  235,042;    1,708;    0,318
207,761;  383,054;    4,435;    2,409
208,361;  264,440;    1,889;    1,409
208,960;  359,729;    2,889;    1,500
209,560;  417,962;    0,435;    1,591
210,160;  394,622;    5,071;    1,864
210,759;  362,585;    0,708;    1,227
211,359;  375,008;   -0,474;    1,045
211,958;  627,104;    3,526;    2,045
212,558;  695,959;    0,799;    1,864
213,157;  532,411;   -0,929;    1,500
213,757;  956,790;    5,617;   -0,227
214,356;  662,698;    1,708;   -0,409
214,956;  974,198;    3,526;    0,409
215,555;  621,594;    0,617;    2,136
216,154;  562,253;   -0,292;   -0,591
216,754;  565,750;    1,253;    0,773
217,353;  686,808;   -0,383;   -1,045
217,952;  551,944;    2,072;    0,318
218,552;  780,377;    0,254;   -0,773
219,151;  664,055;   -1,110;    0,955
219,750;  670,154;    0,890;   -0,227
220,349;  761,430;   -2,292;    1,045
220,948;  851,861;    1,163;    1,136
221,548;  845,141;    0,617;    1,227
222,147;  941,270;   -1,292;   -0,409
222,746; 1224,560;    1,254;   -0,955
223,345; 1097,000;   -1,019;    0,500
223,944; 1098,197;    1,163;    0,773
224,543; 1230,473;    4,072;   -1,409
225,142; 1347,190;    1,345;    0,136
225,741; 1251,935;    1,163;    1,045
226,340; 1273,943;    1,254;   -0,955
226,939; 1691,948;    2,708;   -0,136
227,538; 1601,022;    1,163;   -0,773
228,137; 1771,731;    0,435;    0,864
228,735; 1869,479;    0,435;    1,227
229,334; 1649,067;   -0,474;   -0,227
229,933; 2012,344;    0,799;    0,591
230,532; 2121,416;   -1,201;   -0,409
231,131; 2172,791;    1,253;    0,318
231,729; 2272,359;    1,163;   -2,318
232,328; 2345,581;    0,435;   -1,500
232,927; 2390,077;    4,526;   -0,500
233,525; 2495,301;    0,981;    0,045
234,124; 2708,848;    1,890;   -1,591
234,723; 2710,315;    1,617;   -1,045
235,321; 2842,043;    1,163;    0,136
235,920; 3030,247;    2,526;   -1,227
236,518; 3286,521;    1,072;    0,318
237,117; 3429,551;    2,890;   -0,227
237,715; 3568,023;    1,163;   -0,500
238,314; 3604,080;    1,708;   -2,318
238,912; 3716,103;    0,526;   -1,409
239,510; 3724,734;    1,162;   -1,227
240,109; 3907,360;   -0,474;    3,773
240,707; 3916,322;   -0,474;    1,227
241,305; 4221,288;   -0,383;    0,136
241,904; 4415,470;   -0,292;   -2,045
242,502; 4380,952;    3,253;   -0,227
243,100; 4350,338;    3,344;   -0,955
243,698; 4580,901;    2,799;    1,682
244,297; 4721,591;   -0,656;    0,682
244,895; 4584,177;   -0,474;   -2,318
245,493; 4889,396;    2,981;   -0,591
246,091; 4927,821;    5,163;   -1,318
246,689; 4874,933;    2,163;    0,591
247,287; 5011,386;   -0,019;   -1,136
247,885; 5250,599;   -1,019;    1,227
248,483; 5340,384;   -0,201;   -0,500
249,081; 5465,809;    0,981;    1,591
249,679; 5600,099;   -1,019;    1,682
250,277; 5848,565;   -2,292;    0,864
250,875; 5847,771;    0,617;   -1,045
251,473; 5859,007;   -0,019;    0,500
252,071; 6029,566;   -0,383;    1,045
252,669; 6168,288;   -1,565;    0,318
253,267; 6405,477;    1,618;    0,773
253,864; 6333,386;    0,617;    0,682
254,462; 6231,935;    1,526;    1,591
255,060; 6214,495;    0,072;    1,318
255,658; 6491,925;   -3,292;   -0,136
256,255; 6898,589;   -0,201;   -2,045
256,853; 6742,508;    2,345;    1,409
257,451; 6732,257;    1,981;    1,864
258,048; 7008,726;    2,072;    1,864
258,646; 6755,320;    0,436;   -1,045
259,243; 6939,053;    2,981;    2,227
259,841; 6972,153;    1,799;    0,318
260,438; 6860,645;    0,254;    0,864
261,036; 7512,321;    0,617;    1,409
261,633; 7425,882;    1,526;    2,227
262,231; 7210,920;   -0,110;   -0,045
262,828; 7269,287;   -0,383;    1,136
263,425; 7291,223;   -1,928;   -0,591
264,023; 7573,041;    1,436;    0,045
264,620; 7153,362;    1,526;   -0,318
265,217; 7452,994;    2,890;    3,136
265,815; 7555,306;    2,527;    2,136
266,412; 7362,679;    0,072;    0,136
267,009; 7386,369;    0,526;    0,773
267,606; 7326,138;    0,345;   -0,955
268,203; 7294,805;   -0,383;   -0,591
268,801; 7567,605;   -0,474;    0,591
269,398; 7833,377;   -0,564;    2,500
269,995; 7813,196;    0,890;    1,591
270,592; 7592,727;    0,799;   -0,500
271,189; 7783,854;    1,981;    0,409
271,786; 7890,225;    2,072;    1,227
272,383; 7769,733;   -0,383;    0,227
272,980; 7899,031;    1,617;    0,318
273,577; 8352,890;    2,162;    1,227
274,174; 7949,829;    1,435;    2,591
274,771; 7935,197;    1,890;   -0,773
275,367; 8081,366;    3,253;    1,409
275,964; 8048,794;   -0,565;   -0,500
276,561; 8149,407;   -2,474;   -1,045
277,158; 8309,099;    1,799;   -1,773
277,755; 8436,900;   -0,110;    0,409
278,351; 7865,523;    0,436;   -1,500
278,948; 8158,898;   -0,201;    0,045
279,545; 8171,448;    0,527;    2,318
280,141; 8762,705;    1,254;   -2,045
280,738; 8608,694;    2,435;   -0,136
281,334; 8783,740;   -0,383;    0,591
281,931; 8219,200;    2,890;   -1,318
282,528; 8318,693;    4,072;   -0,500
283,124; 9008,844;    3,345;   -0,500
283,721; 8881,194;    0,709;    1,409
284,317; 8698,225;    0,163;    2,500
284,913; 9219,037;   -0,110;    0,591
285,510; 9389,492;    2,890;   -0,318
286,106; 9423,562;    2,345;   -0,955
286,703; 8995,575;    0,072;    1,955
287,299; 9195,607;    1,254;   -0,591
287,895; 9384,204;    0,890;   -1,045
288,491; 9924,831;    0,163;    2,136
289,088; 9679,435;    0,163;    2,409
289,684; 9735,925;    2,890;    1,500
290,280; 9754,223;    1,890;    0,682
290,876; 9825,996;    0,163;    5,500
291,472; 9726,759;    2,163;    2,227
292,068; 9834,156;    1,254;    0,227
292,665; 9528,062;   -0,564;    0,773
293,261; 9213,630;   -1,292;    2,136
293,857; 9585,447;    4,072;    2,136
294,453; 9503,638;   -0,928;    0,955
295,049; 9374,031;    0,253;    1,955
295,644; 9430,415;   -1,292;    0,136
296,240; 9316,024;    0,162;   -0,136
296,836; 9345,672;   -0,747;    0,318
297,432; 9609,258;    2,980;   -0,500
298,028; 9658,214;    0,435;    0,773
298,624;10026,972;    0,889;    1,864
299,220;10275,412;    0,435;    0,591
299,815; 9938,114;    0,526;   -0,409
300,411; 9721,577;    0,435;    1,773
301,007; 9732,187;    1,889;    0,227
301,602; 9754,243;    2,071;   -2,318
302,198; 9927,398;    1,435;   -0,773
302,794;10250,362;    1,526;   -0,500
303,389;10354,116;    1,071;    1,045
303,985;10385,939;    1,253;    1,409
304,580;10340,746;    0,889;    1,591
305,176;10318,190;    0,344;    0,136
305,771;10269,022;   -0,929;   -1,227
306,367;10170,305;    3,071;    0,136
306,962;10491,788;    2,889;    1,500
307,558;10225,378;    2,435;    0,136
308,153;10134,168;   -0,383;   -1,136
308,748;10349,909;    0,162;    1,682
309,344;10337,692;    0,253;   -1,318
309,939;10480,724;    2,071;   -1,318
310,534;10690,845;   -2,020;   -1,682
311,130;10611,116;   -0,656;   -2,500
311,725;10347,128;    0,526;   -0,500
312,320;10638,177;    1,253;    0,045
312,915;10552,187;    2,890;   -1,045
313,510;10604,221;    0,526;   -0,500
314,105;11066,647;   -3,565;    1,409
314,700;10491,478;   -1,656;   -1,045
315,295;10161,565;   -0,020;    0,045
315,890; 9771,103;   -0,292;    0,864
316,485;10074,904;    0,253;   -0,318
317,080;10193,655;   -0,929;    1,591
317,675;10727,520;    3,071;   -0,682
318,270;10179,565;    6,889;    3,318
318,865;10174,223;    2,435;    3,045
319,460; 9995,947;   -1,565;    0,591
320,055;10234,845;   -2,565;   -1,227
320,650; 9878,291;   -1,838;   -0,591
321,244; 9949,193;    0,889;   -1,409
321,839;10804,869;    0,980;   -0,227
322,434;10705,086;   -0,111;   -1,591
323,029;10398,301;   -0,474;    1,591
323,623;10259,454;    0,798;    0,773
324,218;10080,540;    2,707;    1,409
324,812; 9977,977;    0,889;    1,591
325,407; 9792,674;   -0,929;    2,045
326,002; 9733,063;    0,526;   -0,409
326,596;10041,905;   -0,656;    1,318
327,191;10203,896;   -0,383;   -1,045
327,785; 9844,269;   -0,747;   -0,227
328,379;10091,283;   -0,383;    0,136
328,974; 9875,215;    1,798;   -3,955
329,568;10100,979;    2,889;   -2,409
330,163; 9917,918;    2,435;    1,045
330,757;10231,181;    0,253;    1,591
331,351; 9614,983;   -0,292;    0,682
331,945; 9887,383;   -0,383;    1,409
332,540; 9512,234;    1,617;   -0,591
333,134; 9676,115;    3,344;    0,773
333,728; 9863,120;    2,799;    0,318
334,322;10199,712;    0,889;   -0,864
334,916; 9523,495;    0,344;    0,955
335,510; 9812,412;   -0,111;   -0,136
336,105;10073,078;   -0,929;    1,591
336,699; 9758,625;   -1,292;    0,591
337,293; 9699,787;    1,071;    0,318
337,887; 9826,110;    0,071;    1,955
338,481; 9908,824;    2,980;    0,591
339,074;10041,335;    2,071;    2,682
339,668; 9879,508;   -0,110;    1,227
340,262;10127,026;    7,708;    3,227
340,856; 9616,806;    1,708;   -0,682
341,450; 9033,683;    0,708;    1,864
342,044; 9866,605;    1,799;    0,136
342,637; 9627,451;    1,162;   -2,136
343,231; 9502,667;   -1,474;    0,682
343,825; 9482,010;   -0,747;   -0,591
344,419; 9448,983;   -0,474;    0,500
345,012; 9264,833;    2,889;    4,045
345,606; 9250,755;   -0,656;    1,591
346,199; 9125,417;   -0,111;   -0,227
346,793; 8700,773;    2,525;    2,045
347,386; 8906,066;    0,889;   -1,136
347,980; 8912,959;   -0,838;   -0,045
348,573; 8736,093;   -1,748;    0,409
349,167; 8454,178;    6,161;    4,773
349,760; 8773,159;    2,252;    2,682
350,354; 8751,451;    1,616;    1,136
350,947; 8512,211;    2,798;    1,682
351,540; 8209,367;    0,616;   -1,409
352,134; 8166,092;   -1,111;    1,136
352,727; 8219,156;   -0,657;    1,136
353,320; 8042,554;    2,343;    0,591
353,913; 7902,269;   -1,929;    1,864
354,507; 8078,254;    0,434;   -1,227
355,100; 8101,017;    0,071;    0,864
355,693; 7466,983;    4,798;    2,409
356,286; 7463,113;    0,980;    2,773
356,879; 7789,753;   -0,475;    1,227
357,472; 7426,531;    0,980;    1,500
358,065; 7636,029;    3,161;    2,500
358,658; 7586,138;    0,798;    2,318
359,251; 7259,278;    0,252;   -0,591
359,844; 6793,728;    0,343;   -1,136
360,437; 6953,133;    0,252;    0,045
361,030; 7220,527;    0,525;   -0,682
361,623; 6858,395;    0,434;    0,318
362,215; 6887,115;    0,979;    2,045
362,808; 6748,170;   -2,293;   -1,682
363,401; 6936,359;    0,798;    0,136
363,994; 6716,163;    3,252;   -1,500
364,586; 6628,255;    0,888;   -1,500
365,179; 6803,114;   -0,203;   -1,136
365,772; 6314,741;   -0,930;    2,045
366,364; 6623,289;    1,524;   -3,227
366,957; 6795,536;    1,342;   -0,045
367,549; 6783,268;   -0,203;   -0,864
368,142; 6467,706;    0,978;   -1,500
368,734; 6660,425;    2,523;   -2,136
369,327; 6631,555;    2,341;   -0,500
369,919; 6535,412;   -1,659;    0,409
370,512; 6398,906;   -1,023;   -0,500
371,104; 6184,886;    2,704;    1,591
371,696; 6326,342;    1,703;   -0,955
372,289; 6393,017;    0,157;    1,136
372,881; 6521,569;    1,156;    1,318
373,473; 6454,720;    4,064;    1,136
374,066; 6258,769;    1,336;    0,500
374,658; 6164,416;    0,879;    1,136
375,250; 6450,375;   -1,668;   -1,409
375,842; 6297,039;   -0,124;   -0,045
376,434; 6200,306;   -2,762;   -0,409
377,026; 6727,394;   -1,855;   -2,500
377,618; 6601,364;    0,779;   -0,682
378,210; 6474,264;    3,141;   -1,955
378,802; 6321,335;    3,412;   -0,591
379,394; 6317,951;    3,411;    0,682
379,986; 6870,367;    1,138;   -0,955
380,578; 6938,937;    1,410;    0,773
381,170; 6319,997;    0,320;    0,045
381,762; 6272,901;   -0,224;    1,409
382,354; 6476,865;   -0,223;   -1,318
382,945; 6549,697;    0,870;    0,318
383,537; 6680,628;    1,144;   -1,955
384,129; 6691,379;    0,963;   -1,136
384,721; 6858,058;    0,418;    0,955
385,312; 6776,437;   -1,399;   -0,955
385,904; 6867,322;   -0,945;    1,591
386,496; 6306,406;    0,691;    1,045
387,087; 6439,970;    0,418;    2,500
387,679; 6451,221;   -0,401;    0,045
388,270; 6595,981;   -2,401;    2,045
388,862; 6672,211;   -0,401;   -0,318
389,453; 6550,786;    1,054;    1,045
390,045; 6808,672;    3,236;   -2,682
390,636; 6763,129;    0,144;   -0,591
391,227; 6605,228;    2,054;   -0,045
391,819; 6709,686;    0,781;    0,773
392,410; 6754,882;    0,600;    0,045
393,001; 6691,765;    1,600;   -1,591
393,593; 6931,016;    0,600;   -0,045
394,184; 6788,359;    0,873;   -0,409
394,775; 6700,634;    1,146;    2,136
395,366; 6904,282;    1,782;    0,773
395,957; 6898,408;   -2,400;    0,136
396,548; 7168,675;    1,054;    2,682
397,139; 7440,977;    2,236;    0,591
397,730; 7199,301;    0,873;    0,955
398,321; 7261,429;    0,509;    0,955
398,912; 7250,646;   -0,764;    0,136
399,503; 7348,803;   -1,945;   -1,409
400,094; 6827,669;   -1,582;    1,682
400,685; 6712,264;    3,600;    0,045
401,276; 6787,343;   -0,400;   -0,955
401,867; 7061,486;   -1,127;    0,773
402,458; 7163,907;    1,509;   -2,318
403,048; 7132,519;    0,146;    0,591
403,639; 6785,994;    1,509;    0,864
404,230; 7032,318;    0,691;    0,318
404,821; 6940,530;   -0,127;    0,045
405,411; 7038,536;   -0,763;   -2,591
406,002; 6678,046;    3,237;   -1,136
406,592; 6594,698;    2,691;    0,045
407,183; 6846,386;    0,328;   -1,500
407,774; 6742,275;    1,419;   -0,136
408,364; 7026,806;    2,600;    0,409
408,954; 6700,913;   -0,036;    1,227
409,545; 6750,795;    1,873;    1,045
410,135; 6310,293;   -1,581;    0,500
410,726; 6458,984;    0,783;    0,318
411,316; 6825,996;    2,237;    0,773
411,906; 6515,099;    0,146;   -0,409
412,497; 6073,269;   -0,490;   -0,045
413,087; 6630,092;    0,783;   -0,227
413,677; 6981,553;   -2,490;    3,864
414,267; 6814,342;   -1,035;    1,409
414,857; 6802,215;    0,419;    4,227
415,448; 7077,827;   -0,763;    0,500
416,038; 6777,745;   -2,945;   -0,591
416,628; 6756,071;    0,965;    0,409
417,218; 6300,206;   -1,762;    3,318
417,808; 6530,806;    0,965;   -0,409
418,398; 6923,081;   -1,035;    2,682
418,988; 6905,861;   -2,217;    0,591
419,578; 7136,857;    3,601;    1,409
420,168; 7471,875;    0,692;   -0,955
420,757; 7066,305;    0,964;   -1,500
421,347; 6770,304;    1,601;   -0,227
421,937; 6921,754;    3,329;    1,409
422,527; 6917,570;    2,602;   -0,773
423,116; 6728,671;    2,692;   -0,045
423,706; 7025,736;    2,965;    0,318
424,296; 6970,233;    1,601;    0,682
424,885; 7366,778;    1,510;   -3,045
425,475; 7624,733;    1,147;   -2,864
426,065; 7544,981;   -1,489;   -0,318
426,654; 7197,522;    0,329;   -0,318
427,244; 7306,944;    1,147;    1,409
427,833; 6818,820;    1,056;   -0,500
428,423; 7229,732;    0,147;    1,136
429,012; 7943,524;    2,420;   -1,136
429,601; 7471,251;    2,057;    0,136
430,191; 7634,643;    2,511;    4,318
430,780; 7307,212;   -1,671;   -0,409
431,369; 7277,502;    1,329;   -0,045
431,959; 7841,874;    1,693;    0,500
432,548; 7623,107;   -1,398;   -0,045
433,137; 7690,852;    0,329;   -1,318
433,726; 8173,588;    0,148;    0,500
434,315; 7627,375;    0,148;    2,409
434,905; 7722,369;    0,693;    1,409
435,494; 7650,634;    3,148;    0,955
436,083; 8051,277;    1,420;   -0,955
436,672; 7946,114;    1,148;    0,500
437,261; 7555,534;    0,512;   -1,955
437,850; 7670,359;   -1,125;    0,682
438,439; 7635,825;    2,239;    1,955
439,027; 7519,019;    3,421;    1,773
439,616; 7810,073;    2,239;    1,227
440,205; 7655,362;    0,057;   -2,136
440,794; 7714,968;   -0,306;   -0,045
441,383; 7920,869;    1,603;   -0,591
441,971; 7817,409;   -0,306;    0,591
442,560; 7673,742;    0,603;   -1,773
443,149; 7448,884;    3,060;   -1,318
443,737; 7559,792;    0,968;   -2,318
444,326; 7832,587;    0,331;    0,318
444,915; 7860,626;   -1,851;    0,864
445,503; 8195,949;    0,058;   -0,318
446,092; 7555,053;    7,876;    2,136
446,680; 8074,644;    1,876;    0,318
447,269; 8192,430;   -1,487;   -0,318
447,857; 7992,007;    2,240;   -1,773
448,445; 8093,336;    2,149;    1,318
449,034; 8299,123;    0,876;   -1,136
449,622; 8372,465;    1,240;    3,500
450,210; 7707,373;    3,149;    2,227
450,799; 8215,225;    2,604;   -0,591
451,387; 8183,442;    1,786;   -0,591
451,975; 7857,584;   -1,305;    0,864
452,563; 7949,306;    0,422;    2,318
453,151; 7958,873;   -1,032;   -1,227
453,739; 7880,982;   -1,577;    0,136
454,328; 7760,870;    0,604;   -2,136
454,916; 7513,918;    1,150;   -0,136
455,504; 7655,350;    3,513;    1,227
456,092; 7813,649;    2,150;   -1,591
456,679; 7797,926;    0,604;    0,682
457,267; 7789,775;    3,604;    1,045
457,855; 7874,861;    3,241;    1,409
458,443; 7643,444;   -0,304;    1,682
459,031; 7772,579;    1,332;    2,409
459,619; 8138,922;   -3,577;    2,864
460,206; 8289,664;   -0,759;    2,045
460,794; 8378,391;   -0,668;   -0,227
461,382; 8555,233;    0,878;   -0,864
461,970; 8164,823;    0,605;    1,864
462,557; 8206,253;    0,878;   -0,682
463,145; 8367,371;   -0,304;   -1,682
463,732; 8493,239;    2,514;   -1,045
464,320; 8429,845;    1,514;   -3,045
464,907; 8158,194;    0,423;   -0,773
465,495; 8046,427;    2,696;   -1,227
466,082; 8168,568;    2,060;   -0,045
466,670; 8084,847;    2,605;    1,227
467,257; 8481,453;    0,060;    2,045
467,844; 8614,377;    1,514;    0,045
468,432; 8643,861;   -0,031;    3,500
469,019; 8163,699;    1,606;   -1,773
469,606; 8623,378;    0,969;    3,682
470,193; 8472,866;    2,151;    0,227
470,780; 8087,456;    0,333;    0,864
471,368; 8376,644;   -1,212;   -0,773
471,955; 8176,562;    1,060;   -0,682
472,542; 7853,944;   -0,303;   -1,136
473,129; 8084,139;   -0,485;    0,136
473,716; 7858,446;    0,060;    0,591
474,303; 8027,767;    1,333;   -0,864
474,890; 8305,522;    2,333;   -0,500
475,477; 8300,223;   -0,576;    0,409
476,064; 8185,700;    0,697;   -1,591
476,650; 8099,160;    2,152;    0,318
477,237; 7969,614;    1,879;    0,955
477,824; 8110,238;    3,879;    0,864
478,411; 8114,777;    0,606;   -0,318
478,997; 8318,472;    0,606;   -0,773
479,584; 8328,450;   -0,666;   -0,409
480,171; 8981,431;    1,243;   -0,773
480,757; 8671,883;   -0,848;    0,773
481,344; 8933,820;    0,334;    0,409
481,931; 8427,445;   -0,393;    1,045
482,517; 9310,256;    0,425;    0,318
483,104; 9779,699;    1,334;    2,864
483,690; 9992,908;    0,243;    0,045
484,276;10281,829;    0,698;    0,227
484,863;10055,377;    2,152;    1,136
485,449;10564,266;    0,152;    0,318
486,035;10590,387;   -0,666;   -0,136
486,622;11008,831;   -2,393;    0,045
487,208;10934,330;    1,334;    1,500
487,794;10798,496;    0,971;    0,318
488,380;10892,509;    0,698;   -1,409
488,967;10953,137;   -1,120;   -0,409
489,553;10986,772;   -1,029;   -1,409
490,139;11196,343;    0,971;    0,773
490,725;10690,146;    0,789;   -0,227
491,311;10333,501;    1,516;    3,045
491,897; 9736,620;   -0,665;    1,500
492,483; 9634,292;    0,426;    1,227
493,069; 9476,148;    5,426;    0,864
493,655; 9363,951;    1,789;    0,682
494,241; 9329,397;    1,517;   -0,955
494,826; 9667,884;    0,335;   -1,045
495,412; 9178,362;    0,335;   -0,682
495,998; 9338,736;    0,971;   -0,318
496,584; 9392,398;    2,244;    1,045
497,169; 9385,688;    2,335;   -0,682
497,755; 9347,720;    1,244;    1,227
498,341; 9851,527;    2,153;    0,318
498,926; 9470,620;    2,881;    1,955
499,512; 9646,970;   -0,028;    2,955
500,097; 9678,690;   -0,574;   -0,318
500,683; 9644,489;   -0,028;    2,136
501,268; 9994,834;    1,881;   -0,955
501,854; 9743,375;   -0,119;    1,227
502,439; 9661,509;   -0,573;   -1,773
503,024; 9823,091;    1,608;    0,500
503,610; 9886,087;    1,335;   -0,682
504,195; 9873,877;    1,245;    1,955
504,780; 9983,295;    2,335;    1,227
505,366; 9835,422;    4,063;    2,864
505,951; 9581,956;   -1,119;    1,045
506,536; 9605,652;    1,427;   -3,682
507,121; 9635,929;    1,699;   -0,318
507,706;10098,593;   -0,392;    1,045
508,291;10406,753;   -2,937;    1,136
508,876; 9880,430;   -0,482;    2,591
509,461; 9414,329;    1,427;   -0,773
510,046; 9812,346;   -0,391;    0,318
510,631;10014,797;   -0,119;   -0,773
511,216; 9702,205;   -0,664;   -0,500
511,801;10062,747;   -0,755;    2,591
512,386;10281,423;    0,972;    0,500
512,971;10183,739;    0,427;    0,955
513,555; 9796,118;    1,154;   -1,500
514,140;10534,720;    1,336;   -3,136
514,725;10537,565;    1,791;   -1,136
515,309;10652,874;    1,064;    0,318
515,894;10161,781;   -0,300;   -2,227
516,479;10550,205;    1,973;   -0,955
517,063;10376,850;    0,882;    1,227
517,648;10516,129;    0,155;   -1,136
518,232;10142,297;   -1,300;   -1,409
518,817;10473,140;    1,337;    1,682
519,401;10684,698;    0,700;    0,591
519,985;10205,777;    2,700;    1,136
520,570;10082,328;   -0,118;   -1,955
521,154;10342,099;    0,064;    0,591
521,738;10500,415;    1,064;    2,409
522,323;11027,863;   -0,390;    1,682
522,907;10762,365;    2,428;   -0,136
523,491;10520,301;    1,155;    0,955
524,075;10507,417;    0,428;    0,591
524,659;10565,892;    0,973;    0,591
525,243;10112,194;    0,883;    0,409
525,827;10337,373;    0,883;   -0,045
526,411;11027,619;    1,155;   -0,136
526,995;11237,929;    0,337;    1,409
527,579;10863,964;    1,974;   -1,045
528,163;11145,285;    0,428;   -1,500
528,747;11084,936;    1,065;   -0,773
529,331;11350,520;    0,883;   -1,409
529,915;11514,538;    2,338;    0,955
530,499;11468,424;    0,247;    1,227
531,082;11165,279;    1,065;    1,591
531,666;10677,575;    0,520;    0,773
532,250;11275,416;    0,428;    2,682
532,833;11531,567;    0,610;    2,773
533,417;11430,912;    1,247;    0,864
534,001;11372,169;    0,429;   -0,318
534,584;11998,202;    1,974;    0,500
535,168;11851,608;    3,247;    1,409
535,751;11874,487;    4,520;    0,045
536,334;11333,205;    4,520;   -0,409
536,918;11930,019;    1,974;    1,591
537,501;11966,086;    1,520;    1,318
538,085;11969,120;    1,702;    1,045
538,668;12080,236;    0,883;    2,409
539,251;12378,534;    3,156;    3,773
539,834;12392,255;    0,156;    0,773
540,418;12318,867;    3,247;    4,318
541,001;12386,195;    2,702;    1,773
541,584;12389,995;    1,429;    2,227
542,167;12086,442;    0,702;    2,955
542,750;12165,093;    0,793;   -0,773
543,333;11814,280;    1,429;    2,136
543,916;12536,224;   -0,298;    2,500
544,499;13039,080;    2,520;    0,227
545,082;13020,447;    0,248;    3,591
545,665;13188,913;   -0,207;    1,500
546,248;13431,371;    0,520;   -0,318
546,830;13092,908;   -1,752;    1,955
547,413;13468,125;    0,157;   -0,773
547,996;13939,826;    0,157;    0,500
548,579;13708,807;   -0,843;    0,955
549,161;13514,356;    0,884;    2,682
549,744;13327,155;    0,612;    0,409
550,326;13784,749;    0,885;   -1,136
550,909;13595,520;    2,339;    0,591
551,492;13960,967;    0,521;    0,227
552,074;13753,738;   -0,024;   -1,318
552,657;14226,784;    2,430;    0,045
553,239;14045,224;   -3,024;   -0,773
553,821;13982,465;   -1,570;    1,045
554,404;13482,964;   -0,024;    1,136
554,986;13805,801;    2,248;    1,045
555,568;14356,876;    0,430;   -0,955
556,151;13694,084;    4,067;   -0,227
556,733;13830,452;   -1,388;   -0,864
557,315;14229,683;    4,703;    0,500
557,897;13984,381;    0,521;   -0,500
558,479;14121,271;    1,703;    1,318
559,061;14257,454;    1,067;   -0,864
559,643;14521,818;   -0,297;    0,045
560,225;14818,426;   -0,388;    2,864
560,807;14891,545;    0,340;    0,318
561,389;14467,577;   -1,206;    2,318
561,971;15028,954;   -0,660;    2,136
562,553;14863,365;    0,613;    1,591
563,135;14967,270;    1,249;    1,136
563,717;14608,359;    3,158;    1,136
564,298;15206,079;    3,976;   -0,045
564,880;14923,964;    0,340;   -1,409
565,462;15054,509;    1,977;    1,318
566,043;16045,322;   -0,933;    2,318
566,625;15643,707;    4,067;    1,227
567,207;15454,780;    0,704;    1,682
567,788;16413,947;   -0,114;    1,500
568,370;17133,849;   -1,841;   -0,500
568,951;16909,412;   -0,569;    0,227
569,533;17610,098;    0,977;   -0,500
570,114;18029,791;   -0,296;    0,682
570,695;18372,056;   -0,478;   -1,318
571,277;18738,893;   -0,205;   -1,682
571,858;19353,764;    2,704;   -1,136
572,439;20085,744;    0,795;   -1,045
573,021;20160,008;    0,432;   -2,773
573,602;20584,829;    1,795;    0,318
574,183;21310,621;   -0,114;    2,227
574,764;21403,934;    2,068;    0,409
575,345;21801,247;    0,250;   -0,136
575,926;22311,322;    2,704;    0,136
576,507;22290,123;    2,704;   -0,227
577,088;23306,190;    1,704;    1,682
577,669;23267,856;    1,704;    1,955
578,250;23909,712;   -0,750;   -1,045
578,831;24332,605;   -0,841;   -2,227
579,412;24496,699;   -1,205;    0,955
579,993;25404,976;    1,432;    0,227
580,573;25655,160;   -0,023;   -0,955
581,154;24673,585;    1,613;   -0,591
581,735;25496,490;    0,341;    0,773
582,315;25032,126;    0,523;    2,136
582,896;25288,298;   -1,750;    1,227
583,477;24762,790;    0,614;    1,227
584,057;24923,498;    1,159;    0,955
584,638;25212,521;   -2,750;    2,318
585,218;25211,086;    2,886;    2,682
585,799;25373,733;    1,977;   -0,227
586,379;25415,918;    1,250;    1,591
586,959;24381,577;    2,613;    0,318
587,540;23782,235;    0,432;    2,227
588,120;23349,120;   -1,113;   -0,045
588,700;22564,540;    2,977;    2,136
589,281;22873,386;    1,250;   -0,955
589,861;22785,737;   -0,296;   -1,682
590,441;22628,617;   -1,477;   -2,682
591,021;21709,179;    1,432;   -2,591
591,601;21984,635;    0,431;    0,500
592,181;22055,743;   -1,296;   -0,773
592,761;21362,846;    2,250;    1,409
593,341;21345,484;    1,522;    0,045
593,921;21319,167;   -0,569;    1,591
594,501;21270,418;    1,250;    1,318
595,081;21088,051;    0,522;   -0,318
595,661;21414,340;    1,068;    0,955
596,240;21904,112;   -1,023;    0,136
596,820;21466,083;    2,613;    1,955
597,400;21601,336;    1,977;    0,773
597,980;21834,578;   -0,750;    1,045
598,559;21851,763;    0,341;   -0,227
599,139;21633,273;   -0,750;   -1,227
599,718;21502,454;    0,795;   -0,409
600,298;21781,605;   -2,387;    0,682
600,877;21975,423;    4,795;    1,409
601,457;22224,576;    0,340;    1,136
602,036;22130,110;    1,795;    2,045
602,616;22286,508;    2,250;    1,682
603,195;22570,961;    0,431;    3,500
603,774;22147,356;   -0,296;    2,045
604,354;22027,291;    2,522;   -0,500
604,933;21630,698;    0,250;    1,864
605,512;21736,931;    2,340;    0,591
606,091;21796,450;    1,886;    3,773
606,671;22540,895;    0,249;    0,773
607,250;21712,580;    1,431;    3,136
607,829;21910,158;    1,158;    3,227
608,408;21782,196;    4,613;    2,591
608,987;20898,762;    2,704;    3,409
609,566;21144,774;    0,341;   -2,500
610,145;21268,472;    2,885;    0,682
610,723;21662,047;    1,613;    6,864
611,302;20985,134;    1,067;    1,682
611,881;20483,147;    5,158;   11,227
612,460;21289,969;    0,795;    3,955
613,039;21653,688;    1,703;    2,045
613,617;20505,461;    0,886;    4,773
614,196;20690,810;    1,613;    1,227
614,775;21000,526;    1,249;    2,409
615,353;20944,826;   -1,660;    0,864
615,932;20730,740;    0,249;    2,409
616,510;21240,365;    0,158;    0,591
617,089;20844,562;    8,794;   17,591
617,667;20700,173;    4,885;    6,136
618,246;20565,632;   -1,115;    1,318
618,824;20675,615;    1,612;   -0,955
619,402;20211,503;    0,431;   -1,773
619,981;20654,415;    1,067;   -1,045
620,559;20551,037;    0,794;    1,682
621,137;20188,159;    3,067;    1,864
621,715;20155,188;    3,703;   -0,682
622,293;20077,157;    1,885;   -0,773
622,871;20536,047;    0,340;    0,500
623,450;20175,352;    0,430;   -0,864
624,028;20060,899;   -0,388;   -0,955
624,606;19676,064;    2,339;    1,682
625,183;20023,338;   -0,661;   -1,136
625,761;19739,995;    1,885;    1,136
626,339;20049,390;    2,339;    2,591
626,917;20393,985;    0,339;   -0,045
627,495;20408,036;    2,794;    1,318
628,073;19886,195;    5,248;    2,864
628,650;19552,573;    3,067;    2,136
629,228;19978,460;    1,248;    4,409
629,806;19486,803;   -0,024;    1,136
630,383;19708,504;    0,066;   -0,318
630,961;19550,463;   -2,206;   -0,955
631,539;19306,432;   -2,479;    0,227
632,116;18739,008;   12,703;   15,409
632,694;19263,643;    4,885;    6,500
633,271;19478,526;    1,975;    2,682
633,848;19381,229;    1,430;    2,045
634,426;19405,078;    1,521;    1,773
635,003;18684,181;   -0,207;   -0,409
635,580;18967,993;    1,884;    3,682
636,158;19452,376;    3,793;    1,227
636,735;19380,185;    3,339;   -0,500
637,312;19464,646;    0,521;   -0,682
637,889;19575,251;    2,248;   -0,682
638,466;19137,393;    0,066;   -0,409
639,043;19117,848;    1,702;   -1,136
639,620;19430,482;    0,611;   -0,955
640,197;19673,430;    1,612;    1,682
640,774;19821,422;    1,430;    1,136
641,351;20210,233;    0,612;    1,136
641,928;19675,679;    2,794;    1,409
642,505;19382,217;    0,794;   -0,500
643,082;19497,937;    1,885;    1,227
643,658;18621,566;    1,157;    1,500
644,235;19228,376;   -2,479;    2,500
644,812;19491,823;    1,794;    0,773
645,388;19276,633;    1,612;    1,409
645,965;19328,535;    1,521;    1,682
646,542;19420,164;    3,430;   -0,227
647,118;19389,883;    3,703;   -0,955
647,695;19619,694;    0,339;    1,136
648,271;19578,232;   -2,115;    0,500
648,848;19801,860;    0,248;    2,227
649,424;19683,125;    0,976;    1,318
650,000;19456,936;   -0,388;   -1,045
650,577;19308,292;    0,158;   -0,955
651,153;19662,284;   -1,115;    0,955
651,729;20523,004;    0,521;    0,864
652,305;20566,087;    1,339;    2,773
652,881;23972,716;   -1,297;    1,136
653,458;29316,890;    0,249;    0,227
654,034;32328,700;    0,703;    1,591
654,610;33470,602;    0,339;    0,773
655,186;34607,230;    1,612;    3,045
655,762;34357,768;   -1,842;    0,409
656,338;34372,397;    0,703;    0,136
656,913;35295,389;   -0,297;    0,409
657,489;34665,745;    0,249;   -0,318
658,065;34657,828;    0,794;   -1,591
658,641;35233,184;    2,158;   -0,864
659,217;34627,268;    2,067;    0,409
659,792;34111,896;   -1,751;   -0,409
660,368;34435,798;   -0,388;   -0,682
660,944;34394,699;    1,794;    1,227
661,519;30756,510;    0,522;    0,409
662,095;25925,957;   -0,206;    0,591
662,670;22158,858;   -0,206;   -0,136
663,246;21290,305;   -0,660;   -0,409
663,821;20690,479;    0,431;    1,682
664,396;20207,744;    0,613;    1,864
664,972;20447,464;   -0,660;   -0,500
665,547;20748,547;    3,794;    0,136
666,122;20717,085;    1,340;    0,318
666,698;20951,259;    2,431;    0,318
667,273;20346,160;    0,885;    0,136
667,848;21115,062;    0,340;    1,500
668,423;20860,781;    1,795;    2,318
668,998;21255,592;    0,976;   -0,682
669,573;21764,584;    2,067;   -1,500
670,148;21643,577;    1,885;   -0,682
670,723;21379,114;   -0,024;    0,318
671,298;21793,470;   -1,296;    1,045
671,873;21895,826;   -0,296;   -0,136
672,448;21806,182;    1,704;    0,136
673,023;22086,175;    0,249;   -0,227
673,597;22381,349;    2,704;    2,318
674,172;22213,341;    2,431;    0,318
674,747;21713,333;   -0,205;   -1,045
675,321;21543,235;   -0,933;    3,318
675,896;21215,227;    2,158;    1,045
676,471;22044,401;    2,522;    1,591
677,045;21852,666;   -0,296;    0,682
677,620;21857,204;    2,158;    1,136
678,194;22171,015;    0,249;    1,136
678,769;21817,825;    0,886;   -0,318
679,343;21994,545;   -0,023;    1,773
679,917;21844,355;    0,340;    1,955
680,492;21880,802;    0,249;    3,227
681,066;22018,795;    0,613;    0,409
681,640;22040,969;    1,795;   -0,318
682,214;22761,416;    2,340;    0,500
682,788;22327,226;    0,613;   -0,773
683,363;22221,491;    1,977;    1,682
683,937;21984,211;    0,886;   -0,318
684,511;22674,476;   -1,023;   -0,591
685,085;22375,104;   -1,478;    0,318
685,659;22097,733;    1,431;    0,864
686,232;22349,816;    1,159;   -0,318
686,806;22135,081;    2,159;    0,409
687,380;22710,256;   -1,932;    0,591
687,954;22886,521;    2,432;    1,136
688,528;22598,604;    2,613;    1,955
689,101;23319,051;    0,432;    1,045
689,675;22939,134;    0,886;   -0,136
690,249;22350,217;    3,432;    0,409
690,822;22690,119;    1,159;    0,318
691,396;22806,566;    2,068;    1,227
691,969;22277,376;    2,523;    0,136
692,543;22713,550;   -0,568;   -1,955
693,116;22356,724;   -0,659;   -1,409
693,690;22267,989;   -0,296;    0,500
694,263;22787,255;    2,341;    2,955
694,836;22797,247;    2,795;    3,591
695,410;21545,694;    1,159;    1,773
695,983;21972,413;    1,614;    0,591
696,556;21979,042;   -0,750;   -1,045
697,129;22323,853;   -1,114;    1,409
697,703;21974,845;    1,341;    1,955
698,276;21966,928;    1,705;   -0,773
698,849;21828,193;   -1,023;    1,409
699,422;22153,913;    1,250;    0,591
699,995;21927,451;   -0,659;    0,136
700,568;22338,625;   -0,204;    3,045
701,140;22361,253;   -1,841;    1,682
701,713;22137,246;    0,341;    2,409
702,286;21901,511;    0,796;    0,864
702,859;21793,412;    0,614;   -0,591
703,432;21042,768;   -0,841;    0,682
704,004;21452,033;    1,978;    0,318
704,577;21347,935;    1,068;    0,136
705,150;21845,200;    0,887;    2,500
705,722;21668,283;    1,523;   -3,227
706,295;21446,003;    1,432;   -0,591
706,867;21368,450;    0,250;    1,955
707,440;21553,078;   -0,113;   -0,409
708,012;21797,889;   -0,022;    0,591
708,584;21678,154;    2,705;    0,227
709,157;21908,873;    1,160;   -0,591
709,729;21658,229;    1,069;    2,045
710,301;22427,949;   -1,204;    0,045
710,874;22445,941;    0,341;   -0,227
711,446;21378,479;   -0,295;    0,864
712,018;21272,108;   -3,022;    0,500
712,590;21028,464;   -0,204;    1,682
713,162;21534,002;   -0,477;    1,318
713,734;21724,176;    1,796;   -2,045
714,306;21662,532;    0,342;   -0,409
714,878;20449,069;   -0,295;    0,864
715,450;21251,335;   -0,113;    0,864
716,022;21541,054;    2,433;    1,318
716,593;21635,319;    0,978;    0,591
717,165;21555,584;    1,796;   -1,227
717,737;21348,304;    0,796;    0,409
718,309;21054,842;    1,160;   -0,045
718,880;21026,107;   -1,295;   -1,409
719,452;21200,644;    0,887;   -1,591
720,024;20853,910;    1,705;   -0,591
720,595;21380,629;    2,978;    0,955
721,167;20985,803;    1,160;   -2,045
721,738;20498,796;    2,069;   -1,045
722,309;20550,697;    1,251;   -1,227
722,881;20340,780;    2,705;    0,773
723,452;20895,591;    1,251;    2,864
724,023;21044,492;    1,524;    2,682
724,595;20891,394;    2,342;    0,682
725,166;20612,841;    1,524;   -0,409
725,737;20308,469;    1,887;    0,227
726,308;20381,280;    0,797;    0,318
726,879;20777,181;    1,069;    1,227
727,450;20618,174;   -2,022;   -0,045
728,021;20579,439;    1,069;    0,682
728,592;20402,431;    1,160;    0,500
729,163;20701,332;    1,433;   -0,136
729,734;20676,052;    2,160;   -0,227
730,305;21065,226;    0,615;    0,136
730,876;21376,128;    0,888;    2,955
731,447;21050,483;    0,797;    2,682
732,017;21150,476;   -0,840;    1,864
732,588;20742,014;   -0,021;    1,227
733,159;20857,097;    3,615;   -1,045
733,729;20696,635;    1,251;    0,409
734,300;20060,536;    0,160;    0,864
734,870;20452,437;   -1,385;    0,591
735,441;20947,248;    0,888;   -0,591
736,011;20759,695;    1,070;   -1,591
736,582;20689,687;    1,251;    0,045
737,152;20175,589;    0,979;   -2,045
737,722;20637,490;    1,070;   -0,682
738,293;20369,482;   -2,021;    1,318
738,863;20267,747;    1,797;    2,318
739,433;20127,558;    4,524;    0,318
740,003;20666,641;    1,524;   -0,682
740,573;20156,179;    2,252;   -1,591
741,143;20142,808;    3,615;    0,318
741,713;20803,982;    0,252;   -0,500
742,283;20529,701;    1,706;    1,591
742,853;20388,876;    0,524;    1,591
743,423;19925,141;    0,161;    0,045
743,993;19958,951;    1,070;    1,500
744,563;19460,762;    2,524;   -0,864
745,133;19383,845;   -0,112;   -0,864
745,702;19984,110;    2,797;    1,773
746,272;19282,921;    0,434;    0,591
746,842;19136,549;   -0,748;   -0,591
747,411;19520,451;   -0,839;   -0,318
747,981;19664,988;   -0,930;    0,500
748,551;19726,617;   -0,021;   -1,045
749,120;19598,882;   -0,112;   -0,227
749,690;19901,056;    2,161;    2,409
750,259;20203,503;    0,979;    2,955
750,828;20111,041;    4,070;   -1,955
751,398;20345,761;   -0,112;   -0,045
751,967;19906,844;    2,888;    0,409
752,536;20078,200;    1,161;   -0,227
753,105;20473,374;   -1,384;    0,227
753,675;20229,548;   -0,112;    1,773
754,244;20154,268;    0,888;    3,591
754,813;20207,260;    0,979;    1,227
755,382;19836,798;    0,798;    0,955
755,951;20293,154;   -0,112;    3,682
756,520;19908,783;    2,525;    1,864
757,089;20407,138;    1,888;    0,500
757,658;20473,131;    2,434;    1,227
758,227;20527,214;   -1,111;    0,318
758,795;20766,843;   -1,021;    1,136
759,364;20997,562;    0,525;   -0,591
759,933;20129,646;    1,343;   -0,045
760,501;19690,365;    0,252;   -1,318
761,070;20127,539;   -0,293;   -1,409
761,639;20781,532;    1,434;    1,318
762,207;20132,706;    0,889;   -0,955
762,776;20107,425;    2,889;    0,864
763,344;20068,418;    0,071;    0,591
763,913;19237,410;    1,616;    1,409
764,481;19916,948;    1,980;   -0,136
765,049;19766,577;    0,616;    1,409
765,618;19709,933;    1,434;    0,318
766,186;19761,652;    2,434;    0,136
766,754;19968,554;    1,798;    1,864
767,322;19066,455;    1,162;    0,409
767,890;19028,266;    0,525;   -1,773
768,459;19457,440;    2,616;   -0,318
769,027;19554,977;    2,525;    3,409
769,595;18660,970;    2,616;    2,591
770,163;19127,508;    3,344;    2,955
770,730;18891,591;    2,525;   -0,136
771,298;18771,947;    1,162;   -1,409
771,866;18838,303;    0,253;    4,955
772,434;19113,386;    1,162;   -1,864
773,002;19247,833;    2,616;    0,682
773,569;18979,553;    1,071;    1,682
774,137;18757,999;    0,889;   -0,045
774,705;19505,628;   -0,747;   -0,136
775,272;19128,257;    0,253;    0,682
775,840;18911,885;   -0,111;    2,682
776,407;18445,514;   -0,293;    1,955
776,975;18073,325;    1,162;    0,318
777,542;19049,135;    2,162;   -0,045
778,110;18920,400;    0,707;   -0,045
778,677;18630,665;    1,071;   -0,864
779,244;18383,021;   -1,020;    1,045
779,812;18470,195;    0,980;    0,864
780,379;18333,006;    2,435;    1,136
780,946;18550,907;    2,617;   -0,773
781,513;18867,991;   -0,565;    0,318
782,080;18269,528;    1,253;    2,864
782,647;18901,248;    1,708;    3,045
783,214;18558,604;   -0,201;    3,864
783,781;18220,778;    1,708;   -0,682
784,348;18100,498;    0,253;    1,500
784,915;18505,581;   -1,474;    0,318
785,482;18303,391;    2,708;    2,591
786,049;18758,475;    1,071;   -0,591
786,615;18884,649;    1,708;   -0,955
787,182;18628,641;   -3,201;   -0,682
787,749;18319,452;   -2,201;    1,409
788,315;17694,899;    0,253;   -0,409
788,882;17972,164;    0,981;   -1,227
789,448;18565,701;    1,435;   -0,955
790,015;18656,785;    1,799;    3,227
790,581;18229,232;    0,708;    0,227
791,148;18147,678;    1,344;    1,045
791,714;18319,489;   -1,019;    3,136
792,280;18055,936;    3,708;    1,591
792,847;17714,565;   -0,928;    2,500
793,413;18144,284;   -0,110;   -0,318
793,979;17781,913;    1,526;   -1,318
794,545;17857,542;    2,981;    2,682
795,111;17368,443;    2,435;    1,318
795,678;17540,617;    3,526;   -1,682
796,244;17207,519;    2,799;    0,136
796,810;17710,693;    0,799;    0,773
797,375;17470,594;   -0,292;   -2,136
797,941;17476,586;   -1,110;    0,591
798,507;17558,397;    0,254;   -0,955
799,073;17186,389;    2,708;    0,591
799,639;17266,836;    1,435;    3,136
800,205;17315,829;   -1,565;    2,682
800,770;16908,184;    1,345;    1,773
801,336;16958,086;    2,981;   -0,955
801,901;16700,715;    6,072;    3,136
802,467;17250,616;    0,526;    2,045
803,033;16641,154;   -0,019;    0,864
803,598;16805,964;    1,072;   -1,045
804,163;16889,866;    0,708;   -0,318
804,729;16826,131;   -0,110;    1,136
805,294;17142,123;    1,072;    2,227
805,859;16976,206;    0,890;   -0,409
806,425;16588,835;    3,890;    2,682
806,990;16254,737;    1,890;    4,318
807,555;16633,274;   -0,110;    2,591
808,120;16548,812;   -1,292;   -0,409
808,685;16628,441;    1,072;   -2,500
809,250;16231,342;    2,072;   -0,500
809,815;16440,062;   -0,201;    0,682
810,380;16913,509;    0,981;    1,591
810,945;17352,319;    2,890;    2,045
811,510;16720,948;   -0,200;    1,591
812,075;16412,122;    2,800;   -1,409
812,640;16440,660;    3,709;    1,409
813,204;16546,652;    2,163;   -0,227
813,769;16973,463;    0,254;   -0,045
814,334;16490,455;    0,527;    0,864
814,898;16542,629;    1,981;    0,591
815,463;16368,349;    0,981;   -0,773
816,027;16354,523;    1,345;   -2,318
816,592;16494,061;    2,163;   -2,045
817,156;16107,871;   -2,200;    1,136
817,721;15954,318;    0,982;    2,318
818,285;15914,947;    0,618;    1,500
818,849;16457,757;   -0,018;    1,682
819,414;16361,113;    0,073;    2,955
819,978;15974,287;   -0,291;    1,773
820,542;16538,280;    2,891;    0,500
821,106;16312,908;    2,800;    0,682
821,670;16416,537;    2,709;    2,591
822,234;16163,075;    1,073;    1,409
822,798;15637,249;   -0,836;    0,500
823,362;15630,241;    1,527;    4,227
823,926;15052,779;   -0,018;    1,136
824,490;15205,590;    3,527;   -0,682
825,054;15605,491;    2,527;   -1,136
825,618;15321,120;   -1,200;   -1,500
826,181;15253,294;    0,982;   -1,318
826,745;15175,559;   -0,745;   -1,045
827,309;15484,279;    2,255;    1,318
827,872;14993,816;    0,527;    0,955
828,436;15840,991;    1,982;   -0,773
828,999;15973,074;    2,436;    1,227
829,563;14968,339;   -0,654;    1,136
830,126;14779,877;   -0,018;   -0,591
830,690;14814,869;    0,709;    2,864
831,253;14356,043;   -0,473;    2,227
831,816;14481,581;   -0,018;    0,500
832,380;14485,210;    1,164;    0,864
832,943;14675,657;    3,073;   -0,500
833,506;14183,922;    0,255;   -1,227
834,069;14874,278;    2,164;   -0,955
834,632;15005,543;   -2,200;    1,318
835,195;14909,717;    1,346;    0,955
835,758;14208,436;    0,709;    1,955
836,321;14053,883;    1,073;   -1,045
836,884;14153,512;   -1,291;   -0,955
837,447;14232,686;    0,528;    1,773
838,010;14469,951;    1,800;    3,227
838,573;14720,398;    0,528;    0,773
839,135;14679,845;   -0,109;   -0,955
839,698;14184,019;    2,528;    0,409
840,261;13776,830;    0,255;   -0,227
840,823;13681,822;   -0,927;    0,864
841,386;13942,269;   -0,018;   -2,409
841,948;13826,898;    0,255;    1,773
842,511;13587,617;    0,255;    1,682
843,073;13724,519;    2,982;    0,227
843,636;13573,329;    0,619;   -0,227
844,198;13486,503;    1,255;    0,591
844,760;13619,041;    0,619;    1,955
845,322;13317,397;    0,164;    1,136
845,885;13699,935;   -0,290;    0,591
846,447;14084,927;    0,710;    0,227
847,009;13721,374;    3,983;   -0,682
847,571;13960,003;    1,346;   -2,045
848,133;14039,813;   -0,199;   -1,864
848,695;13868,533;    2,346;    1,409
849,257;13514,525;    1,346;   -1,682
849,819;13703,881;    2,983;   -0,409
850,381;13675,783;    1,801;   -0,864
850,942;13937,411;    1,892;   -0,591
851,504;13886,676;    0,983;    0,227
852,066;13944,941;    1,619;   -1,591
852,628;13591,843;    0,165;    1,955
853,189;13158,471;    0,256;    2,682
853,751;13286,373;   -0,654;    1,409
854,312;13102,274;    1,256;   -1,682
854,874;13535,812;   -0,108;   -0,773
855,435;13970,350;    0,528;   -1,682
855,997;14131,251;    3,983;   -0,136
856,558;13496,607;    0,801;    1,773
857,119;13597,872;   -0,744;    2,864
857,681;13331,410;   -0,108;    0,318
858,242;13343,766;    1,347;   -2,136
858,803;13746,668;    1,074;   -0,773
859,364;14308,024;    0,892;   -4,773
859,925;13719,834;   -0,290;   -0,955
860,486;13622,826;    0,529;   -0,955
861,047;13354,910;    0,165;   -1,227
861,608;13218,266;    0,165;   -0,773
862,169;13370,167;   -0,562;   -0,045
862,730;13126,705;   -0,290;    1,409
863,291;13363,788;    0,438;   -0,500
863,852;13654,235;   -0,926;    1,955
864,412;13196,773;   -1,835;   -0,864
864,973;11974,674;    1,892;    0,500
865,534;11866,212;    2,074;    0,227
866,094;13167,568;    2,620;    0,227
866,655;12866,015;    4,711;    3,318
867,215;13142,553;    0,074;    0,136
867,776;13013,818;   -1,199;   -0,136
868,336;13063,901;    1,529;    0,136
868,897;12700,439;    3,438;    1,682
869,457;12487,613;    3,256;    0,318
870,017;12722,514;    2,438;   -1,227
870,578;13129,052;    1,893;    0,773
871,138;12770,317;    2,620;   -0,955
871,698;12393,582;   -0,562;   -1,318
872,258;12282,120;    0,711;   -2,864
872,818;12650,840;    2,347;    0,045
873,378;12614,377;   -2,198;    1,045
873,938;12245,006;    4,984;    0,500
874,498;12476,998;    1,256;   -1,955
875,058;12415,627;    4,347;    1,773
875,618;12256,983;    1,438;   -2,682
876,177;12208,612;   -0,471;    0,136
876,737;11851,149;   -0,289;    1,955
877,297;11888,960;    2,711;    1,955
877,856;11958,589;    2,529;    0,318
878,416;11902,217;    2,438;   -0,136
878,976;12100,846;    3,438;    0,409
879,535;12263,929;    4,529;    3,136
880,095;12074,649;    1,347;    0,045
880,654;12112,550;    0,347;    1,318
881,213;12242,543;    2,347;    1,500
881,773;11923,444;    1,984;    2,682
882,332;12261,527;    6,075;    5,136
882,891;12094,247;    0,711;    2,136
883,451;12458,148;   -2,016;    1,682
884,010;11983,504;   -1,107;   -0,409
884,569;12075,497;   -2,289;   -0,045
885,128;12182,034;   -0,743;   -1,864
885,687;12234,027;   -0,743;    0,682
886,246;12009,383;    2,620;    2,136
886,805;11768,102;    1,620;    2,045
887,364;11989,367;    1,166;   -0,500
887,922;12283,633;   -0,016;    0,045
888,481;11831,716;    1,530;    0,591
889,040;12096,890;    3,711;    2,136
889,599;12695,791;    2,166;    1,409
890,157;12739,329;    2,166;    2,409
890,716;12371,140;    2,166;    0,227
891,274;12223,950;    0,075;   -1,136
891,833;12592,397;    1,166;    0,864
892,391;12466,662;    1,802;    0,500
892,950;12524,109;    0,166;   -0,773
893,508;12891,010;    0,984;   -0,409
894,067;12295,094;   -0,379;    0,136
894,625;12222,541;   -1,016;   -1,500
895,183;12419,896;   -0,198;   -0,682
895,741;12332,252;    2,257;   -1,773
896,299;12156,699;    1,621;   -2,409
896,858;12335,328;    1,530;   -1,591
897,416;12478,411;    0,166;   -1,318
897,974;12276,313;   -2,197;    0,318
898,532;12411,487;    6,530;    2,682
899,089;12354,025;    0,621;   -0,682
899,647;12404,835;    0,530;    1,318
900,205;12219,464;    0,257;    1,045
900,763;12362,911;    2,166;    0,227
901,321;12405,085;    3,530;   -1,409
901,878;11888,350;    3,257;   -0,773
902,436;11775,433;    0,257;    1,318
902,994;12149,971;    6,712;    3,682
903,551;11657,600;    1,439;    0,409
904,109;12032,865;    1,530;   -1,409
904,666;11709,493;    1,439;    1,045
905,224;11555,849;    3,894;   -0,409
905,781;11326,387;   -0,470;   -0,318
906,338;11380,380;    0,167;    1,045
906,895;11368,917;    1,894;    2,045
907,453;11294,455;    2,348;    1,136
908,010;11330,811;    3,348;    0,409
908,567;11018,894;   -0,561;    0,591
909,124;10601,068;    2,439;   -1,500
909,681;10655,606;   -1,288;    0,682
910,238;10858,235;   -0,106;   -1,318
910,795;11170,773;   -1,561;   -1,136
911,352;10829,045;   -0,379;   -2,682
911,909;10317,591;    2,803;   -0,864
912,466;10771,409;    1,985;    1,500
913,022;10355,136;   -0,924;    0,500
913,579;10694,318;   -0,470;    2,045
914,136;10454,136;   -2,561;    0,955
914,692;10751,045;    1,530;   -1,227
915,249;10411,591;    0,530;    0,409
915,806;10598,773;    1,803;    1,955
916,362;10426,591;    0,894;    1,864
916,918;10019,318;    2,439;    1,045
917,475;10048,500;    1,621;    0,955
918,031;10126,591;    0,076;   -0,045
918,587; 9669,773;    0,621;   -0,318
919,144; 9902,136;   -0,379;    0,227
919,700;10125,500;    0,167;    0,773
920,256; 9741,409;    0,439;    0,045
920,812; 9475,500;    1,439;   -1,045
921,368; 9525,864;    1,348;   -1,045
921,924; 9198,682;    0,439;   -0,136
922,480; 8850,773;    0,076;    1,227
923,036; 9395,045;   -0,652;    1,955
923,592; 9369,500;    0,621;    0,318
924,148; 9331,136;    1,894;   -0,955
924,704; 8753,409;    0,258;   -0,409
925,259; 9055,773;   -0,561;    0,591
925,815; 8821,409;    3,803;    0,500
926,371; 8418,682;    3,530;    1,409
926,926; 8342,682;    1,621;    0,591
927,482; 8059,773;    1,621;    0,773
928,037; 7992,500;   -0,833;    2,045
928,593; 8292,500;    0,258;    1,045
929,148; 8160,864;    1,167;   -1,500
929,704; 7737,318;    2,439;   -0,500
930,259; 7895,045;    0,894;   -0,136
930,814; 7171,591;    1,803;    1,955
931,369; 6961,136;    0,258;   -0,773
931,925; 6867,045;   -1,924;    0,136
932,480; 6802,409;    3,076;   -2,591
933,035; 6774,227;    3,985;   -0,318
933,590; 6593,409;   -1,742;   -1,773
934,145; 6317,955;   -1,288;   -0,318
934,700; 6597,136;    0,348;   -0,591
935,255; 6472,227;    4,803;    0,045
935,809; 5981,500;    6,258;    0,864
936,364; 5253,500;    2,167;   -0,136
936,919; 5298,500;    2,348;   -1,773
937,474; 5236,136;    1,348;    0,136
938,028; 5054,500;    3,076;    1,136
938,583; 4677,864;    6,348;    4,682
939,138; 4905,955;    0,167;    2,136
939,692; 4454,955;   -1,015;   -1,136
940,247; 4241,682;    1,167;   -1,045
940,801; 3954,591;    0,621;    0,227
941,355; 3892,318;    0,439;    2,591
941,910; 3609,500;    0,712;   -2,136
942,464; 3717,591;    2,712;   -0,318
943,018; 3620,864;    3,258;   -0,227
943,572; 3566,591;    2,803;   -0,682
944,126; 3135,227;   -0,924;   -0,409
944,681; 3038,227;    0,712;    0,227
945,235; 3003,591;    2,167;   -0,591
945,789; 2934,045;    1,258;   -1,864
946,342; 3132,864;   -0,561;   -0,591
946,896; 2904,773;    0,348;    0,955
947,450; 2693,864;   -0,561;   -0,227
948,004; 2930,318;    1,076;   -0,045
948,558; 2898,773;    1,258;   -0,864
949,111; 2819,318;   -1,197;   -0,318
949,665; 2942,682;   -0,106;   -0,682
950,219; 2846,955;    0,621;   -1,045
950,772; 2845,864;    0,258;    1,864
951,326; 2773,045;   -1,106;   -0,955
951,879; 2837,773;    1,076;   -2,318
952,433; 2894,227;    1,348;    2,227
952,986; 2724,318;    0,348;    0,682
953,539; 2685,318;    1,530;    0,591
954,093; 2642,045;    0,985;   -1,318
954,646; 2765,227;   -0,288;    1,318
955,199; 2579,136;    1,258;   -0,500
955,752; 2553,318;    1,985;    1,773
956,305; 2502,591;    0,894;    2,955
956,858; 2634,136;    0,621;   -0,318
957,411; 2790,136;    3,621;    2,136
957,964; 2612,955;    2,076;    2,136
958,517; 2581,045;    0,985;    3,136
959,070; 2478,955;   -1,197;    1,955
959,623; 2645,773;    1,076;    1,500
960,176; 2443,591;    0,712;    2,045
960,728; 2406,682;    1,712;    0,773
961,281; 2454,409;    2,258;    0,500
961,834; 2450,864;   -0,833;    0,864
962,386; 2382,227;    1,258;    1,045
962,939; 2301,955;    3,439;   -0,318
963,491; 2427,864;    2,621;    1,136
964,043; 2323,409;    0,076;    2,409
964,596; 2467,955;    1,712;    2,227
965,148; 2316,227;   -0,379;    1,773
965,700; 2256,136;   -0,015;   -0,227
966,253; 2390,227;   -0,833;    0,318
966,805; 2253,864;    1,894;    0,773
967,357; 2263,045;    0,439;   -1,500
967,909; 2276,500;    1,167;   -1,227
968,461; 2321,682;    0,894;    3,136
969,013; 2259,955;   -1,561;   -0,864
969,565; 2340,136;    1,803;   -1,136
970,117; 2539,136;    3,803;    1,045
970,669; 2300,864;    3,258;   -0,136
971,220; 2135,227;    2,167;   -1,500
971,772; 2109,227;    1,348;   -0,318
972,324; 2230,318;   -1,197;   -0,500
972,876; 2153,500;    0,167;   -0,045
973,427; 2304,318;   -1,197;   -1,045
973,979; 2287,045;    0,076;   -2,500
974,530; 2226,318;    0,803;    1,318
975,082; 2257,409;    2,167;    1,682
975,633; 2179,409;    2,894;    1,682
976,184; 2317,136;    2,076;    0,773
976,736; 2172,955;    0,348;    0,227
977,287; 2022,591;    0,258;   -0,500
977,838; 2137,682;   -0,924;   -0,318
978,389; 2196,955;    0,803;   -0,500
978,940; 2057,500;    1,258;   -0,409
979,491; 2073,045;    2,258;   -0,500
980,042; 2080,864;   -0,652;    3,045
980,593; 2119,864;    1,894;    0,227
981,144; 2195,136;    3,530;   -0,500
981,695; 2213,136;   -0,470;    1,500
982,246; 2153,864;   -1,833;    1,045
982,797; 2193,409;   -0,561;    0,682
983,347; 2324,591;    2,167;    0,591
983,898; 2529,045;    4,167;    0,409
984,449; 2389,500;    2,530;    0,773
984,999; 2216,682;    1,894;   -1,136
985,550; 2069,682;    3,167;   -0,318
986,100; 2054,318;    0,712;   -0,318
986,651; 2068,591;    0,258;    0,045
987,201; 2061,500;    0,894;   -0,591
987,751; 2129,682;   -0,288;    2,864
988,302; 2141,136;   -0,379;    1,500
988,852; 2158,045;    1,985;   -1,136
989,402; 2250,955;    0,985;    0,682
989,952; 2171,682;    1,621;    0,864
990,502; 2189,773;    1,076;    0,682
991,052; 2137,955;   -0,106;    0,045
991,602; 2053,682;    1,167;    1,318
992,152; 2075,500;    2,803;    0,682
992,702; 2052,955;    1,167;   -0,045
993,252; 1999,409;    0,076;   -0,500
993,802; 2120,227;    1,167;    1,318
994,352; 2264,045;   -0,742;    1,136
994,901; 2287,591;    1,076;    3,227
995,451; 2238,864;   -1,197;    0,318
996,000; 2278,773;    1,076;    0,318
996,550; 2055,864;    2,894;    0,227
997,100; 2081,136;   -0,561;   -0,045
997,649; 2331,045;   -0,197;    0,955
998,198; 2045,045;   -0,288;   -1,500
998,748; 2249,409;    0,348;   -2,318
999,297; 2123,318;    0,985;   -0,409
999,846; 2207,045;    1,894;   -0,773
1000,395; 2208,318;    1,530;    0,500
1000,945; 2250,955;    1,076;   -0,773
1001,494; 2304,318;    0,167;    0,682
1002,043; 2269,136;    0,712;    0,864
1002,592; 2076,136;    3,439;    1,955
1003,141; 2212,409;    2,439;   -0,682
1003,690; 2147,864;    1,258;    0,500
1004,238; 2139,773;   -0,106;   -0,045
1004,787; 1837,773;   -1,288;    1,227
1005,336; 2107,318;    1,621;    0,682
1005,885; 2174,045;   -0,197;   -2,773
1006,433; 2253,500;   -0,470;    0,955
1006,982; 2418,682;    2,167;    1,682
1007,531; 2286,136;    2,712;   -0,227
1008,079; 2197,864;    0,258;    0,500
1008,627; 2296,955;    1,621;    0,409
1009,176; 2111,045;    0,076;   -1,955
1009,724; 2134,227;   -2,742;    0,864
1010,273; 2235,318;    1,076;    0,500
1010,821; 2275,318;    1,076;    1,409
1011,369; 2068,682;    0,076;    1,318
1011,917; 2059,045;   -0,833;   -0,591
1012,465; 2288,864;    2,530;   -1,591
1013,013; 2354,773;    0,439;   -1,682
1013,561; 2313,955;   -1,288;   -0,773
1014,109; 2396,682;   -0,833;    1,682
1014,657; 2247,409;    1,348;    0,591
1015,205; 2287,682;    0,894;   -0,955
1015,753; 2306,409;    0,258;   -1,409
1016,301; 2366,227;    2,621;    3,045
1016,848; 2380,864;    2,167;    0,409
1017,396; 2411,409;    1,621;    0,045
1017,944; 2505,409;    2,621;    1,864
1018,491; 2278,136;   -0,197;    1,409
1019,039; 2520,864;   -0,652;    0,591
1019,586; 2373,682;    0,076;    1,682
1020,134; 2420,045;    0,712;    1,500
1020,681; 2461,045;    2,894;   -1,136
1021,228; 2437,864;   -0,561;   -2,227
1021,776; 2305,591;   -0,833;   -1,136
1022,323; 2543,318;    0,803;    0,773
1022,870; 2463,500;   -0,470;   -0,045
1023,417; 2415,773;    2,076;    1,864
1023,964; 2445,955;    0,621;    1,227
1024,511; 2358,500;   -0,652;    0,773
1025,058; 2187,500;    0,439;   -0,045
1025,605; 2219,955;   -1,742;    3,136
1026,152; 2475,136;   -0,106;   -0,591
1026,699; 2207,409;    0,167;    1,318
1027,245; 2328,864;    2,439;    0,318
1027,792; 2464,955;    0,712;    1,409
1028,339; 2451,409;    4,076;   -0,045
1028,885; 2292,955;    3,621;   -0,227
1029,432; 2237,227;   -0,106;    0,227
1029,978; 2336,227;    1,348;   -1,591
1030,525; 2242,045;    1,621;    0,409
1031,071; 2387,773;    0,348;    1,136
1031,618; 2589,318;    1,258;    1,682
1032,164; 2346,409;    2,076;    3,045
1032,710; 2390,318;    0,076;   -1,500
1033,256; 2305,682;    0,712;   -0,136
1033,803; 2232,409;   -0,288;    1,500
1034,349; 2021,591;    1,803;    0,136
1034,895; 2164,045;    2,621;   -0,318
1035,441; 2149,227;    0,439;    0,318
1035,987; 2176,318;   -2,288;   -0,682
1036,533; 2210,773;   -0,197;   -0,955
1037,078; 2439,136;    4,712;    1,682
1037,624; 2242,045;    2,439;   -0,955
1038,170; 2217,136;    1,712;   -0,318
1038,716; 2191,409;    2,167;   -0,409
1039,261; 2065,409;    2,167;   -0,773
1039,807; 2035,682;   -0,015;    3,409
1040,352; 2114,318;   -1,288;   -0,318
1040,898; 2134,955;    0,167;   -0,682
1041,443; 2041,864;    0,803;   -2,591
1041,989; 2180,409;    3,621;    1,591
1042,534; 2010,227;    0,985;    2,591
1043,079; 2048,136;    1,985;    0,955
1043,625; 1928,682;    0,258;    0,500
1044,170; 1987,682;    2,439;    1,045
1044,715; 2247,773;    0,167;    0,955
1045,260; 2077,409;   -0,833;   -0,955
1045,805; 2056,045;    0,258;   -0,591
1046,350; 1980,500;    0,530;   -0,409
1046,895; 2046,682;    0,803;    1,591
1047,440; 2021,227;    1,530;    0,409
1047,985; 1879,773;   -1,197;   -0,955
1048,530; 1802,409;    1,348;    1,227
1049,074; 1889,682;    2,803;    0,318
1049,619; 1834,500;   -0,924;    1,955
1050,164; 1683,409;    1,076;    0,227
1050,708; 1736,500;    2,621;    0,045
1051,253; 2136,773;    3,258;   -2,227
1051,797; 1863,045;   -0,197;   -1,318
1052,342; 1790,500;    1,348;    1,045
1052,886; 1810,591;    1,803;   -1,409
1053,430; 1673,864;    2,167;    0,136
1053,975; 1722,955;    0,894;   -0,318
1054,519; 1726,136;    1,803;    3,227
1055,063; 1775,955;    3,621;    1,318
1055,607; 1691,136;    1,348;    0,227
1056,151; 1693,045;    0,530;    1,682
1056,695; 1589,136;   -1,833;   -1,136
1057,239; 1667,591;   -1,197;   -0,682
1057,783; 1685,591;    2,258;   -1,500
1058,327; 1678,409;    3,076;    1,409
1058,871; 1910,955;    3,985;    1,318
1059,415; 1648,409;   -0,561;   -0,045
1059,958; 1913,136;    2,985;    2,591
1060,502; 1615,318;    1,348;   -0,773
1061,046; 1487,227;    1,712;   -0,955
1061,589; 1467,682;    2,803;   -1,136
1062,133; 1376,682;    0,985;    1,864
1062,676; 1349,227;    1,439;    0,864
1063,220; 1366,682;    0,985;    0,500
1063,763; 1399,682;    2,985;    1,136
1064,306; 1475,682;    0,985;    1,864
1064,849; 1389,773;    2,076;    0,591
1065,393; 1385,500;    2,894;   -1,500
1065,936; 1464,682;    2,530;   -0,409
1066,479; 1333,682;    2,621;    1,318
1067,022; 1371,864;    1,894;   -0,227
1067,565; 1297,227;   -1,197;   -1,318
1068,108; 1309,591;    1,258;   -0,591
1068,651; 1266,955;   -2,470;    1,409
1069,194; 1211,227;   -1,106;   -1,682
1069,736; 1239,955;    3,803;    0,955
1070,279; 1210,318;   -1,652;   -0,500
1070,822; 1284,500;    1,530;   -0,318
1071,364; 1395,409;    0,530;    1,318
1071,907; 1213,318;    0,348;    3,227
1072,450; 1078,682;    0,258;   -0,045
1072,992; 1107,500;   -0,561;    3,136
1073,535; 1261,136;    0,167;    2,136
1074,077; 1066,682;    2,985;    2,045
1074,619; 1050,318;    0,985;    0,591
1075,161; 1100,318;   -0,561;    1,500
1075,704; 1275,318;    0,258;    1,227
1076,246; 1051,682;    1,530;    0,682
1076,788;  968,318;   -1,015;    1,773
1077,330; 1019,773;   -2,106;    2,136
1077,872; 1030,409;   -1,924;    0,955
1078,414; 1260,864;    3,712;    0,773
1078,956; 1016,773;    0,167;   -0,227
1079,498; 1273,682;    0,439;    0,318
1080,040; 1000,409;    0,985;   -1,318
1080,581;  929,318;    0,621;   -0,318
1081,123;  846,682;   -0,106;   -0,773
1081,665;  894,227;    3,803;   -0,955
1082,206; 1194,773;    3,258;   -0,500
1082,748; 1062,591;    3,258;    2,045
1083,289;  936,864;    0,167;    1,318
1083,831;  870,955;    0,258;    0,227
1084,372;  923,409;    0,894;    0,591
1084,913;  920,409;    3,348;    0,864
1085,455;  867,864;    1,530;   -2,045
1085,996;  855,318;    0,530;    0,136
1086,537;  887,773;    0,985;    0,864
1087,078;  913,227;    0,439;   -2,136
1087,619;  966,227;   -1,652;    0,227
1088,160;  884,136;    1,439;    1,318
1088,701;  850,682;   -0,742;    0,682
1089,242;  810,500;   -0,561;   -2,227
1089,783;  901,045;   -0,561;    1,409
1090,324;  883,045;   -0,833;    0,682
1090,865;  765,955;   -1,924;   -0,409
1091,405;  710,773;   -0,561;    2,227
1091,946;  742,864;   -0,197;   -0,955
1092,487;  668,955;   -1,288;   -1,409
1093,027;  853,227;    1,803;   -1,500
1093,568;  722,409;    2,258;    1,227
1094,108;  810,864;    0,621;    1,773
1094,649;  754,045;   -0,470;    0,136
1095,189;  693,318;    1,167;   -0,682
1095,729;  656,409;    0,712;    0,955
1096,269;  654,045;    1,258;   -0,955
1096,810;  960,864;   -0,197;    0,500
1097,350;  807,591;   -0,561;   -0,773
1097,890;  701,136;    2,985;    1,227
1098,430;  951,955;    4,985;    2,864
1098,970;  847,955;    1,894;    1,682
1099,510;  687,227;   -0,833;   -2,318
1100,050;  614,773;    0,258;   -1,591
1100,589;  598,955;    0,076;   -0,318
1101,129;  718,773;    0,894;   -0,955
1101,669;  871,682;    2,803;    2,136
1102,209;  718,500;    1,530;    2,227
1102,748;  667,045;    3,439;    0,955
1103,288;  657,136;    0,712;   -1,227
1103,827;  670,773;    3,530;   -2,227
1104,367;  563,682;    1,712;   -2,409
1104,906;  534,318;   -1,015;   -1,136
1105,445;  611,227;    0,985;   -1,136
1105,985;  567,500;   -0,652;    1,500
1106,524;  603,864;    1,530;   -0,682
1107,063;  583,045;    1,167;    1,409
1107,602;  544,682;    1,894;   -1,500
1108,141;  491,864;    1,621;    1,500
1108,680;  594,955;    3,985;   -0,591
1109,219;  530,409;    0,167;   -0,500
1109,758;  520,318;    4,167;    0,682
1110,297;  503,955;   -1,106;   -0,682
1110,836;  451,409;    1,439;    0,955
1111,375;  604,500;    0,348;    0,409
1111,913;  620,864;    0,985;    0,773
1112,452;  550,045;    0,894;    0,136
1112,991;  451,227;    1,076;    1,955
1113,529;  419,227;    0,167;   -0,045
1114,068;  492,500;    0,439;    2,955
1114,606;  405,773;   -0,561;   -0,955
1115,144;  553,500;    1,530;    1,045
1115,683;  487,500;    1,985;    0,318
1116,221;  545,318;    2,076;   -0,864
1116,759;  445,864;    1,621;   -0,864
1117,297;  628,864;    1,621;    1,864
1117,836;  458,864;    1,985;   -1,227
1118,374;  461,318;    0,258;   -0,682
1118,912;  427,045;    0,439;    2,682
1119,450;  415,773;    0,985;    0,864
1119,988;  444,409;    3,348;    2,136
1120,525;  877,136;    7,258;    3,318
1121,063;  598,591;    0,530;    1,864
1121,601;  422,136;    1,076;   -1,227
1122,139;  376,500;    1,076;   -2,045
1122,676;  569,318;   -1,652;    2,773
1123,214;  506,591;    0,712;    4,409
1123,751;  337,773;    0,621;    2,227
1124,289;  456,955;    0,894;   -0,409
1124,826;  341,591;   -0,379;    0,227
1125,364;  275,227;    0,712;   -0,955
1125,901;  448,591;    6,258;    1,227
1126,438;  553,955;    3,530;    0,955
1126,975;  289,773;    2,985;   -0,773
1127,513;  349,318;    2,621;    2,136
1128,050;  275,500;   -0,561;   -0,682
1128,587;  366,227;    1,348;   -0,227
1129,124;  403,045;   -0,015;    1,318
1129,661;  277,136;   -1,924;    0,227
1130,198;  436,500;    2,439;    0,773
1130,734;  379,136;   -0,379;    1,409
1131,271;  258,591;   -1,197;    0,864
1131,808;  424,227;    1,621;    3,045
1132,345;  306,682;    4,530;    0,318
1132,881;  184,318;   -0,561;   -1,864
1133,418;  312,591;    0,348;   -1,136
1133,954;  260,136;    0,712;   -2,682
1134,491;  323,227;    1,712;   -0,773
1135,027;  234,864;    2,167;    0,864
1135,564;  315,409;    1,439;    2,955
1136,100;  302,227;   -0,742;    2,136
1136,636;  202,955;   -1,015;   -1,045
1137,172;  280,500;    0,894;   -1,045
1137,708;  218,773;   -1,561;   -1,045
1138,245;  219,591;    0,803;   -1,227
1138,781;  171,864;    1,803;   -3,318
1139,317;  236,773;    1,894;   -1,409
1139,852;  236,409;    3,076;    0,136
1140,388;  331,500;    2,076;   -0,409
1140,924;  221,773;    1,076;   -2,227
1141,460;  168,318;   -0,288;    0,136
1141,996;  118,955;   -0,652;    2,682
1142,531;  157,136;    1,076;    3,318
1143,067;  352,773;    1,167;    1,045
1143,602;  404,136;    3,439;   -0,318
1144,138;  272,591;    0,803;    1,045
1144,673;  154,136;    1,621;    1,409
1145,209;  215,318;    2,894;   -0,318
1145,744;  135,409;    0,803;    0,864
1146,279;  259,409;    1,530;   -0,136
1146,815;  179,500;    1,530;   -2,682
1147,350;  219,045;   -0,924;    0,045
1147,885;  142,682;   -1,924;   -1,318
1148,420;  144,955;    2,439;    0,773
1148,955;  132,682;   -1,470;    1,864
1149,490;  154,955;   -1,106;   -1,591
1150,025;  133,136;   -1,106;   -1,773
1150,560;  238,591;   -0,288;   -0,955
1151,094;  206,409;    0,258;   -0,591
1151,629;  209,227;   -3,742;    0,864
1152,164;  146,227;   -1,288;    1,318
1152,698;  108,955;    1,258;   -0,136
1153,233;   73,409;   -1,379;   -0,682
1153,767;  119,955;   -0,288;   -2,318
1154,302;  157,136;   -0,379;    1,773
1154,836;  155,591;    0,803;   -2,136
1155,371;  206,318;    2,258;    3,682
1155,905;  162,773;    1,985;    1,682
1156,439;  140,318;    0,530;   -0,500
1156,973;  162,773;    0,439;    0,318
1157,507;  105,955;   -1,742;    0,682
1158,042;  134,682;   -0,652;    1,045
1158,576;  173,227;   -0,561;    1,773
1159,110;  162,500;    0,076;    2,409
1159,643;  142,682;   -2,470;   -0,045
1160,177;   98,773;   -2,015;    1,500

