
Integration time [ms]:   0,050
Averaging Nr. [scans]: 11
Smoothing Nr. [pixels]: 0
Data measured with spectrometer [name]: 7318044SP
Wave   ;Sample   ;Dark     ;Reference
[nm]   ;[counts] ;[counts] ;[counts] 

186,757;  -22,810;   38,161;    1,318
187,357;   -4,015;   26,706;    0,955
187,958;  -15,662;   17,252;   -1,591
188,558;   20,179;   12,979;   -1,227
189,159;   -5,362;   10,070;   -4,500
189,759;  -23,763;    5,797;   -3,591
190,360;  -25,209;    6,797;   -2,136
190,960;   -8,997;    5,706;   -4,136
191,560;    6,506;    2,614;   -6,591
192,161;  181,074;    5,885;   -3,500
192,761;   62,219;    5,520;   -3,227
193,361;   14,513;    3,065;   -3,773
193,962;   49,229;    1,612;   -2,682
194,562;   -6,903;   -0,114;   -3,955
195,162;   -5,854;   -0,567;   -2,227
195,762;  105,860;    2,433;   -0,045
196,362;   60,470;    1,706;   -2,500
196,963;   -9,133;    1,706;   -0,864
197,563;   31,366;    1,252;   -0,955
198,163;  -12,231;   -0,111;   -0,682
198,763;   -3,563;   -0,020;   -0,500
199,363;   38,057;    3,616;   -0,500
199,963;   12,503;    2,162;    0,409
200,563;    4,059;    6,344;   -1,409
201,163;  -11,640;    5,435;   -0,227
201,763;   23,696;    1,435;    0,318
202,363;   -1,924;    0,980;    1,500
202,963;   22,681;    1,526;    1,045
203,563;   61,836;    0,344;    0,500
204,162;    5,312;    1,889;   -1,864
204,762;    9,180;    2,071;    0,591
205,362;  -10,671;    0,708;    1,955
205,962;   10,354;    3,435;    1,955
206,562;    7,949;    1,889;    2,318
207,161;   -7,156;    1,708;    0,318
207,761;   58,254;    4,435;    2,409
208,361;   -4,768;    1,889;    1,409
208,960;   12,987;    2,889;    1,500
209,560;   15,742;    0,435;    1,591
210,160;   26,485;    5,071;    1,864
210,759;   11,372;    0,708;    1,227
211,359;   -3,541;   -0,474;    1,045
211,958;   90,410;    3,526;    2,045
212,558;   92,650;    0,799;    1,864
213,157;   26,630;   -0,929;    1,500
213,757;  152,401;    5,617;   -0,227
214,356;   52,256;    1,708;   -0,409
214,956;  129,704;    3,526;    0,409
215,555;   33,610;    0,617;    2,136
216,154;   10,642;   -0,292;   -0,591
216,754;    8,267;    1,253;    0,773
217,353;   16,395;   -0,383;   -1,045
217,952;  -20,764;    2,072;    0,318
218,552;   41,242;    0,254;   -0,773
219,151;    5,975;   -1,110;    0,955
219,750;   -2,949;    0,890;   -0,227
220,349;  -10,582;   -2,292;    1,045
220,948;   43,312;    1,163;    1,136
221,548;    6,391;    0,617;    1,227
222,147;    2,760;   -1,292;   -0,409
222,746;   68,114;    1,254;   -0,955
223,345;   25,323;   -1,019;    0,500
223,944;   27,279;    1,163;    0,773
224,543;   25,482;    4,072;   -1,409
225,142;   13,671;    1,345;    0,136
225,741;   21,103;    1,163;    1,045
226,340;   13,889;    1,254;   -0,955
226,939;   55,840;    2,708;   -0,136
227,538;    8,210;    1,163;   -0,773
228,137;   62,674;    0,435;    0,864
228,735;   34,032;    0,435;    1,227
229,334;  -19,524;   -0,474;   -0,227
229,933;   68,278;    0,799;    0,591
230,532;   58,941;   -1,201;   -0,409
231,131;   83,839;    1,253;    0,318
231,729;   32,615;    1,163;   -2,318
232,328;    9,657;    0,435;   -1,500
232,927;    9,320;    4,526;   -0,500
233,525;    6,578;    0,981;    0,045
234,124;   15,545;    1,890;   -1,591
234,723;   -5,685;    1,617;   -1,045
235,321;  -10,903;    1,163;    0,136
235,920;    3,802;    2,526;   -1,227
236,518;   57,220;    1,072;    0,318
237,117;    2,001;    2,890;   -0,227
237,715;   14,176;    1,163;   -0,500
238,314;   18,139;    1,708;   -2,318
238,912;   66,625;    0,526;   -1,409
239,510;   31,876;    1,162;   -1,227
240,109;   78,672;   -0,474;    3,773
240,707;   56,394;   -0,474;    1,227
241,305;   -1,536;   -0,383;    0,136
241,904;   25,737;   -0,292;   -2,045
242,502;   83,208;    3,253;   -0,227
243,100;   30,257;    3,344;   -0,955
243,698;   -9,204;    2,799;    1,682
244,297;    9,118;   -0,656;    0,682
244,895;    7,904;   -0,474;   -2,318
245,493;   74,562;    2,981;   -0,591
246,091;   85,600;    5,163;   -1,318
246,689;   43,231;    2,163;    0,591
247,287;   38,011;   -0,019;   -1,136
247,885;   22,028;   -1,019;    1,227
248,483;    6,247;   -0,201;   -0,500
249,081;   40,281;    0,981;    1,591
249,679;   53,837;   -1,019;    1,682
250,277;   12,172;   -2,292;    0,864
250,875;   49,807;    0,617;   -1,045
251,473;   14,675;   -0,019;    0,500
252,071;   59,701;   -0,383;    1,045
252,669;   20,643;   -1,565;    0,318
253,267;    5,645;    1,618;    0,773
253,864;   26,557;    0,617;    0,682
254,462;   75,558;    1,526;    1,591
255,060;   11,349;    0,072;    1,318
255,658;    7,734;   -3,292;   -0,136
256,255;   20,006;   -0,201;   -2,045
256,853;   46,847;    2,345;    1,409
257,451;   24,552;    1,981;    1,864
258,048;  203,070;    2,072;    1,864
258,646;   92,189;    0,436;   -1,045
259,243;  127,756;    2,981;    2,227
259,841;   70,434;    1,799;    0,318
260,438;   22,093;    0,254;    0,864
261,036;   65,882;    0,617;    1,409
261,633;   27,472;    1,526;    2,227
262,231;   11,750;   -0,110;   -0,045
262,828;    6,481;   -0,383;    1,136
263,425;   27,878;   -1,928;   -0,591
264,023;   36,712;    1,436;    0,045
264,620;   97,996;    1,526;   -0,318
265,217;  151,830;    2,890;    3,136
265,815;   47,543;    2,527;    2,136
266,412;   96,750;    0,072;    0,136
267,009;   92,819;    0,526;    0,773
267,606;  133,461;    0,345;   -0,955
268,203;   69,754;   -0,383;   -0,591
268,801;   71,215;   -0,474;    0,591
269,398;   42,168;   -0,564;    2,500
269,995;  105,390;    0,890;    1,591
270,592;   87,599;    0,799;   -0,500
271,189;   45,836;    1,981;    0,409
271,786;   31,097;    2,072;    1,227
272,383;  136,166;   -0,383;    0,227
272,980;   72,980;    1,617;    0,318
273,577;   50,080;    2,162;    1,227
274,174;   47,406;    1,435;    2,591
274,771;  118,279;    1,890;   -0,773
275,367;  342,165;    3,253;    1,409
275,964;  197,021;   -0,565;   -0,500
276,561;   85,932;   -2,474;   -1,045
277,158;   34,655;    1,799;   -1,773
277,755;  166,826;   -0,110;    0,409
278,351;  115,547;    0,436;   -1,500
278,948;  149,879;   -0,201;    0,045
279,545;  117,483;    0,527;    2,318
280,141;  198,621;    1,254;   -2,045
280,738;  200,178;    2,435;   -0,136
281,334;   88,531;   -0,383;    0,591
281,931;   84,495;    2,890;   -1,318
282,528;  161,591;    4,072;   -0,500
283,124;  199,649;    3,345;   -0,500
283,721;  189,110;    0,709;    1,409
284,317;  111,929;    0,163;    2,500
284,913;  219,089;   -0,110;    0,591
285,510;  352,634;    2,890;   -0,318
286,106;  250,987;    2,345;   -0,955
286,703;  160,013;    0,072;    1,955
287,299;  120,434;    1,254;   -0,591
287,895;  121,937;    0,890;   -1,045
288,491;  106,986;    0,163;    2,136
289,088;  185,275;    0,163;    2,409
289,684;  223,825;    2,890;    1,500
290,280;  337,150;    1,890;    0,682
290,876;  303,231;    0,163;    5,500
291,472;  263,596;    2,163;    2,227
292,068;  288,452;    1,254;    0,227
292,665;  214,253;   -0,564;    0,773
293,261;  163,483;   -1,292;    2,136
293,857;  323,412;    4,072;    2,136
294,453;  274,091;   -0,928;    0,955
295,049;  463,586;    0,253;    1,955
295,644;  344,432;   -1,292;    0,136
296,240;  252,035;    0,162;   -0,136
296,836;  389,098;   -0,747;    0,318
297,432;  524,033;    2,980;   -0,500
298,028;  587,007;    0,435;    0,773
298,624;  471,842;    0,889;    1,864
299,220;  470,398;    0,435;    0,591
299,815;  480,436;    0,526;   -0,409
300,411;  602,677;    0,435;    1,773
301,007;  742,809;    1,889;    0,227
301,602;  595,259;    2,071;   -2,318
302,198;  738,027;    1,435;   -0,773
302,794;  605,077;    1,526;   -0,500
303,389;  590,002;    1,071;    1,045
303,985;  653,168;    1,253;    1,409
304,580;  796,071;    0,889;    1,591
305,176;  712,008;    0,344;    0,136
305,771;  600,998;   -0,929;   -1,227
306,367; 1010,367;    3,071;    0,136
306,962;  789,441;    2,889;    1,500
307,558;  800,377;    2,435;    0,136
308,153;  895,650;   -0,383;   -1,136
308,748;  672,676;    0,162;    1,682
309,344; 1061,581;    0,253;   -1,318
309,939; 1075,110;    2,071;   -1,318
310,534;  741,346;   -2,020;   -1,682
311,130;  685,837;   -0,656;   -2,500
311,725;  623,789;    0,526;   -0,500
312,320;  668,419;    1,253;    0,045
312,915;  780,351;    2,890;   -1,045
313,510;  986,645;    0,526;   -0,500
314,105;  714,830;   -3,565;    1,409
314,700;  518,692;   -1,656;   -1,045
315,295;  568,798;   -0,020;    0,045
315,890;  466,157;   -0,292;    0,864
316,485;  567,800;    0,253;   -0,318
317,080;  486,361;   -0,929;    1,591
317,675;  789,061;    3,071;   -0,682
318,270;  968,509;    6,889;    3,318
318,865;  843,231;    2,435;    3,045
319,460;  664,500;   -1,565;    0,591
320,055;  487,150;   -2,565;   -1,227
320,650;  466,091;   -1,838;   -0,591
321,244;  450,814;    0,889;   -1,409
321,839;  491,799;    0,980;   -0,227
322,434;  533,329;   -0,111;   -1,591
323,029;  452,659;   -0,474;    1,591
323,623;  414,222;    0,798;    0,773
324,218;  570,803;    2,707;    1,409
324,812;  509,900;    0,889;    1,591
325,407;  516,318;   -0,929;    2,045
326,002;  641,660;    0,526;   -0,409
326,596;  600,766;   -0,656;    1,318
327,191;  445,542;   -0,383;   -1,045
327,785;  445,312;   -0,747;   -0,227
328,379;  491,483;   -0,383;    0,136
328,974;  543,788;    1,798;   -3,955
329,568;  593,847;    2,889;   -2,409
330,163;  682,702;    2,435;    1,045
330,757;  563,602;    0,253;    1,591
331,351;  511,211;   -0,292;    0,682
331,945;  538,526;   -0,383;    1,409
332,540;  716,671;    1,617;   -0,591
333,134;  735,035;    3,344;    0,773
333,728;  756,457;    2,799;    0,318
334,322;  721,323;    0,889;   -0,864
334,916;  697,881;    0,344;    0,955
335,510;  947,596;   -0,111;   -0,136
336,105; 1018,179;   -0,929;    1,591
336,699;  906,778;   -1,292;    0,591
337,293;  995,747;    1,071;    0,318
337,887; 1005,724;    0,071;    1,955
338,481; 1253,789;    2,980;    0,591
339,074; 1452,148;    2,071;    2,682
339,668; 1461,453;   -0,110;    1,227
340,262; 2205,164;    7,708;    3,227
340,856; 1776,630;    1,708;   -0,682
341,450; 1417,374;    0,708;    1,864
342,044; 1696,202;    1,799;    0,136
342,637; 1885,490;    1,162;   -2,136
343,231; 1995,798;   -1,474;    0,682
343,825; 1850,046;   -0,747;   -0,591
344,419; 1949,740;   -0,474;    0,500
345,012; 2571,542;    2,889;    4,045
345,606; 2455,204;   -0,656;    1,591
346,199; 2247,712;   -0,111;   -0,227
346,793; 2335,289;    2,525;    2,045
347,386; 2371,499;    0,889;   -1,136
347,980; 2299,529;   -0,838;   -0,045
348,573; 2438,047;   -1,748;    0,409
349,167; 2607,191;    6,161;    4,773
349,760; 2815,688;    2,252;    2,682
350,354; 2748,648;    1,616;    1,136
350,947; 2755,976;    2,798;    1,682
351,540; 2588,088;    0,616;   -1,409
352,134; 2499,902;   -1,111;    1,136
352,727; 2629,230;   -0,657;    1,136
353,320; 2646,143;    2,343;    0,591
353,913; 2518,571;   -1,929;    1,864
354,507; 2757,234;    0,434;   -1,227
355,100; 2780,293;    0,071;    0,864
355,693; 2782,639;    4,798;    2,409
356,286; 2603,806;    0,980;    2,773
356,879; 2652,153;   -0,475;    1,227
357,472; 2453,929;    0,980;    1,500
358,065; 2570,265;    3,161;    2,500
358,658; 2509,875;    0,798;    2,318
359,251; 2333,250;    0,252;   -0,591
359,844; 2261,613;    0,343;   -1,136
360,437; 2398,363;    0,252;    0,045
361,030; 2398,763;    0,525;   -0,682
361,623; 2197,922;    0,434;    0,318
362,215; 2356,645;    0,979;    2,045
362,808; 2198,768;   -2,293;   -1,682
363,401; 2188,847;    0,798;    0,136
363,994; 2290,494;    3,252;   -1,500
364,586; 2077,733;    0,888;   -1,500
365,179; 2062,941;   -0,203;   -1,136
365,772; 1764,457;   -0,930;    2,045
366,364; 1884,299;    1,524;   -3,227
366,957; 2057,597;    1,342;   -0,045
367,549; 1937,200;   -0,203;   -0,864
368,142; 1849,884;    0,978;   -1,500
368,734; 1854,373;    2,523;   -2,136
369,327; 1792,452;    2,341;   -0,500
369,919; 1776,151;   -1,659;    0,409
370,512; 1778,470;   -1,023;   -0,500
371,104; 1867,519;    2,704;    1,591
371,696; 1946,546;    1,703;   -0,955
372,289; 1826,174;    0,157;    1,136
372,881; 1781,169;    1,156;    1,318
373,473; 1618,940;    4,064;    1,136
374,066; 1677,910;    1,336;    0,500
374,658; 1606,862;    0,879;    1,136
375,250; 1617,145;   -1,668;   -1,409
375,842; 1605,273;   -0,124;   -0,045
376,434; 1508,739;   -2,762;   -0,409
377,026; 1696,849;   -1,855;   -2,500
377,618; 1626,960;    0,779;   -0,682
378,210; 1510,136;    3,141;   -1,955
378,802; 1402,337;    3,412;   -0,591
379,394; 1813,663;    3,411;    0,682
379,986; 1717,465;    1,138;   -0,955
380,578; 1650,282;    1,410;    0,773
381,170; 1701,383;    0,320;    0,045
381,762; 1566,352;   -0,224;    1,409
382,354; 1548,061;   -0,223;   -1,318
382,945; 1502,182;    0,870;    0,318
383,537; 1530,652;    1,144;   -1,955
384,129; 1563,799;    0,963;   -1,136
384,721; 1676,438;    0,418;    0,955
385,312; 1543,772;   -1,399;   -0,955
385,904; 1691,487;   -0,945;    1,591
386,496; 1407,394;    0,691;    1,045
387,087; 1585,338;    0,418;    2,500
387,679; 1508,908;   -0,401;    0,045
388,270; 1559,330;   -2,401;    2,045
388,862; 1527,721;   -0,401;   -0,318
389,453; 1383,576;    1,054;    1,045
390,045; 1528,726;    3,236;   -2,682
390,636; 1478,094;    0,144;   -0,591
391,227; 1443,277;    2,054;   -0,045
391,819; 1497,187;    0,781;    0,773
392,410; 1723,921;    0,600;    0,045
393,001; 1546,881;    1,600;   -1,591
393,593; 1658,176;    0,600;   -0,045
394,184; 1652,710;    0,873;   -0,409
394,775; 1465,657;    1,146;    2,136
395,366; 1562,431;    1,782;    0,773
395,957; 1685,509;   -2,400;    0,136
396,548; 1624,286;    1,054;    2,682
397,139; 1809,524;    2,236;    0,591
397,730; 1626,569;    0,873;    0,955
398,321; 1634,790;    0,509;    0,955
398,912; 1581,774;   -0,764;    0,136
399,503; 1679,614;   -1,945;   -1,409
400,094; 1543,187;   -1,582;    1,682
400,685; 1509,528;    3,600;    0,045
401,276; 1407,212;   -0,400;   -0,955
401,867; 1486,769;   -1,127;    0,773
402,458; 1481,896;    1,509;   -2,318
403,048; 1599,079;    0,146;    0,591
403,639; 1401,730;    1,509;    0,864
404,230; 1641,031;    0,691;    0,318
404,821; 1642,068;   -0,127;    0,045
405,411; 1543,561;   -0,763;   -2,591
406,002; 1329,304;    3,237;   -1,136
406,592; 1571,530;    2,691;    0,045
407,183; 1447,376;    0,328;   -1,500
407,774; 1311,820;    1,419;   -0,136
408,364; 1335,012;    2,600;    0,409
408,954; 1387,857;   -0,036;    1,227
409,545; 1357,386;    1,873;    1,045
410,135; 1167,628;   -1,581;    0,500
410,726; 1131,476;    0,783;    0,318
411,316; 1357,795;    2,237;    0,773
411,906; 1083,673;    0,146;   -0,409
412,497;  991,414;   -0,490;   -0,045
413,087;  978,308;    0,783;   -0,227
413,677;  977,962;   -2,490;    3,864
414,267;  876,727;   -1,035;    1,409
414,857;  802,668;    0,419;    4,227
415,448;  811,367;   -0,763;    0,500
416,038;  777,244;   -2,945;   -0,591
416,628;  773,946;    0,965;    0,409
417,218;  820,626;   -1,762;    3,318
417,808;  984,567;    0,965;   -0,409
418,398;  789,605;   -1,035;    2,682
418,988;  625,145;   -2,217;    0,591
419,578;  680,599;    3,601;    1,409
420,168;  642,411;    0,692;   -0,955
420,757;  769,671;    0,964;   -1,500
421,347;  590,991;    1,601;   -0,227
421,937;  515,462;    3,329;    1,409
422,527;  644,259;    2,602;   -0,773
423,116;  771,450;    2,692;   -0,045
423,706;  433,397;    2,965;    0,318
424,296;  340,022;    1,601;    0,682
424,885;  517,659;    1,510;   -3,045
425,475;  453,649;    1,147;   -2,864
426,065;  286,307;   -1,489;   -0,318
426,654;  252,046;    0,329;   -0,318
427,244;  577,339;    1,147;    1,409
427,833;  502,119;    1,056;   -0,500
428,423;  329,046;    0,147;    1,136
429,012;  329,464;    2,420;   -1,136
429,601;  454,027;    2,057;    0,136
430,191;  314,009;    2,511;    4,318
430,780;  165,116;   -1,671;   -0,409
431,369;  383,305;    1,329;   -0,045
431,959;  260,727;    1,693;    0,500
432,548;  156,957;   -1,398;   -0,045
433,137;   81,113;    0,329;   -1,318
433,726;  168,974;    0,148;    0,500
434,315;  170,717;    0,148;    2,409
434,905;  276,420;    0,693;    1,409
435,494;  264,526;    3,148;    0,955
436,083;  109,514;    1,420;   -0,955
436,672;  190,215;    1,148;    0,500
437,261;  136,847;    0,512;   -1,955
437,850;  371,670;   -1,125;    0,682
438,439;  407,201;    2,239;    1,955
439,027;  509,790;    3,421;    1,773
439,616;  420,657;    2,239;    1,227
440,205;  184,341;    0,057;   -2,136
440,794;  119,593;   -0,306;   -0,045
441,383;   41,423;    1,603;   -0,591
441,971;    1,402;   -0,306;    0,591
442,560;   18,109;    0,603;   -1,773
443,149;  -77,337;    3,060;   -1,318
443,737;  -39,540;    0,968;   -2,318
444,326;  -15,511;    0,331;    0,318
444,915;   26,130;   -1,851;    0,864
445,503;   29,344;    0,058;   -0,318
446,092;  280,750;    7,876;    2,136
446,680;  205,286;    1,876;    0,318
447,269;  103,575;   -1,487;   -0,318
447,857;   79,774;    2,240;   -1,773
448,445;   39,844;    2,149;    1,318
449,034;  -12,066;    0,876;   -1,136
449,622;   -0,424;    1,240;    3,500
450,210;  251,535;    3,149;    2,227
450,799;  169,210;    2,604;   -0,591
451,387;  120,194;    1,786;   -0,591
451,975;  104,135;   -1,305;    0,864
452,563;  166,642;    0,422;    2,318
453,151;   19,980;   -1,032;   -1,227
453,739;   52,715;   -1,577;    0,136
454,328;  145,794;    0,604;   -2,136
454,916;   84,367;    1,150;   -0,136
455,504;  104,500;    3,513;    1,227
456,092;    4,826;    2,150;   -1,591
456,679;  -32,645;    0,604;    0,682
457,267;  357,736;    3,604;    1,045
457,855;   65,769;    3,241;    1,409
458,443;  -60,375;   -0,304;    1,682
459,031;   64,635;    1,332;    2,409
459,619;   35,169;   -3,577;    2,864
460,206;  -50,477;   -0,759;    2,045
460,794;  -43,097;   -0,668;   -0,227
461,382;   -4,266;    0,878;   -0,864
461,970;   -9,149;    0,605;    1,864
462,557;  -67,946;    0,878;   -0,682
463,145;   47,508;   -0,304;   -1,682
463,732;  250,863;    2,514;   -1,045
464,320;   57,115;    1,514;   -3,045
464,907;  170,853;    0,423;   -0,773
465,495;   83,625;    2,696;   -1,227
466,082;   19,404;    2,060;   -0,045
466,670;   42,425;    2,605;    1,227
467,257;  -34,612;    0,060;    2,045
467,844;   49,287;    1,514;    0,045
468,432;   19,796;   -0,031;    3,500
469,019;   -5,904;    1,606;   -1,773
469,606;   72,251;    0,969;    3,682
470,193;   86,231;    2,151;    0,227
470,780;   48,679;    0,333;    0,864
471,368;  -14,919;   -1,212;   -0,773
471,955;   80,396;    1,060;   -0,682
472,542;   53,295;   -0,303;   -1,136
473,129;  -46,422;   -0,485;    0,136
473,716;  -43,492;    0,060;    0,591
474,303;  -20,299;    1,333;   -0,864
474,890;   -9,741;    2,333;   -0,500
475,477;   83,479;   -0,576;    0,409
476,064;   -7,637;    0,697;   -1,591
476,650;  100,950;    2,152;    0,318
477,237;   21,768;    1,879;    0,955
477,824;    4,469;    3,879;    0,864
478,411;  -60,917;    0,606;   -0,318
478,997;  -77,520;    0,606;   -0,773
479,584; -118,935;   -0,666;   -0,409
480,171;   33,454;    1,243;   -0,773
480,757;   82,450;   -0,848;    0,773
481,344;   -6,658;    0,334;    0,409
481,931;  -86,798;   -0,393;    1,045
482,517;   21,927;    0,425;    0,318
483,104;   96,305;    1,334;    2,864
483,690;  -19,133;    0,243;    0,045
484,276;  -37,255;    0,698;    0,227
484,863;  147,675;    2,152;    1,136
485,449;   16,933;    0,152;    0,318
486,035;  -20,195;   -0,666;   -0,136
486,622;   53,328;   -2,393;    0,045
487,208;  -12,538;    1,334;    1,500
487,794;  -78,676;    0,971;    0,318
488,380;  -74,633;    0,698;   -1,409
488,967;  -75,877;   -1,120;   -0,409
489,553;  -60,113;   -1,029;   -1,409
490,139;    5,593;    0,971;    0,773
490,725;  -54,471;    0,789;   -0,227
491,311;  -17,530;    1,516;    3,045
491,897;  -33,968;   -0,665;    1,500
492,483;  -24,893;    0,426;    1,227
493,069;  385,294;    5,426;    0,864
493,655;  111,701;    1,789;    0,682
494,241;    4,006;    1,517;   -0,955
494,826;    9,609;    0,335;   -1,045
495,412;   53,732;    0,335;   -0,682
495,998;  -18,720;    0,971;   -0,318
496,584;   32,969;    2,244;    1,045
497,169;   45,633;    2,335;   -0,682
497,755;   -3,296;    1,244;    1,227
498,341;  107,718;    2,153;    0,318
498,926;  226,954;    2,881;    1,955
499,512;  -12,405;   -0,028;    2,955
500,097;  -16,316;   -0,574;   -0,318
500,683;    7,165;   -0,028;    2,136
501,268;  -30,520;    1,881;   -0,955
501,854;   -8,851;   -0,119;    1,227
502,439;  -20,609;   -0,573;   -1,773
503,024;   -3,385;    1,608;    0,500
503,610;   23,903;    1,335;   -0,682
504,195;  -20,914;    1,245;    1,955
504,780;   64,502;    2,335;    1,227
505,366;  139,651;    4,063;    2,864
505,951;   74,130;   -1,119;    1,045
506,536;   15,221;    1,427;   -3,682
507,121;   71,188;    1,699;   -0,318
507,706;   32,023;   -0,392;    1,045
508,291;   -2,592;   -2,937;    1,136
508,876;    0,101;   -0,482;    2,591
509,461;   58,442;    1,427;   -0,773
510,046;  124,634;   -0,391;    0,318
510,631;  161,179;   -0,119;   -0,773
511,216;   95,768;   -0,664;   -0,500
511,801;  197,750;   -0,755;    2,591
512,386;  277,008;    0,972;    0,500
512,971;  340,887;    0,427;    0,955
513,555;  466,570;    1,154;   -1,500
514,140;  503,822;    1,336;   -3,136
514,725;  745,508;    1,791;   -1,136
515,309;  728,112;    1,064;    0,318
515,894;  711,893;   -0,300;   -2,227
516,479;  904,401;    1,973;   -0,955
517,063; 1057,444;    0,882;    1,227
517,648; 1265,192;    0,155;   -1,136
518,232; 1353,671;   -1,300;   -1,409
518,817; 1770,468;    1,337;    1,682
519,401; 2271,312;    0,700;    0,591
519,985; 2280,269;    2,700;    1,136
520,570; 2555,398;   -0,118;   -1,955
521,154; 3138,714;    0,064;    0,591
521,738; 3715,138;    1,064;    2,409
522,323; 4449,046;   -0,390;    1,682
522,907; 4690,544;    2,428;   -0,136
523,491; 5036,470;    1,155;    0,955
524,075; 5494,721;    0,428;    0,591
524,659; 6054,480;    0,973;    0,591
525,243; 6190,624;    0,883;    0,409
525,827; 6846,331;    0,883;   -0,045
526,411; 7906,207;    1,155;   -0,136
526,995; 8596,592;    0,337;    1,409
527,579; 8725,701;    1,974;   -1,045
528,163; 9393,274;    0,428;   -1,500
528,747; 9798,884;    1,065;   -0,773
529,331;10457,252;    0,883;   -1,409
529,915;10938,408;    2,338;    0,955
530,499;11296,012;    0,247;    1,227
531,082;11362,054;    1,065;    1,591
531,666;11191,174;    0,520;    0,773
532,250;12121,590;    0,428;    2,682
532,833;12686,569;    0,610;    2,773
533,417;12835,249;    1,247;    0,864
534,001;13011,747;    0,429;   -0,318
534,584;13885,347;    1,974;    0,500
535,168;13945,791;    3,247;    1,409
535,751;14196,666;    4,520;    0,045
536,334;13814,442;    4,520;   -0,409
536,918;14631,003;    1,974;    1,591
537,501;14859,442;    1,520;    1,318
538,085;14966,298;    1,702;    1,045
538,668;15285,731;    0,883;    2,409
539,251;15724,256;    3,156;    3,773
539,834;15859,779;    0,156;    0,773
540,418;15862,054;    3,247;    4,318
541,001;16082,887;    2,702;    1,773
541,584;16196,927;    1,429;    2,227
542,167;15907,198;    0,702;    2,955
542,750;16142,188;    0,793;   -0,773
543,333;15767,243;    1,429;    2,136
543,916;16583,884;   -0,298;    2,500
544,499;17283,360;    2,520;    0,227
545,082;17433,799;    0,248;    3,591
545,665;17616,424;   -0,207;    1,500
546,248;17992,970;    0,520;   -0,318
546,830;17712,366;   -1,752;    1,955
547,413;18184,821;    0,157;   -0,773
547,996;18772,768;    0,157;    0,500
548,579;18565,010;   -0,843;    0,955
549,161;18387,994;    0,884;    2,682
549,744;18197,326;    0,612;    0,409
550,326;18777,155;    0,885;   -1,136
550,909;18500,926;    2,339;    0,591
551,492;18899,759;    0,521;    0,227
552,074;18769,274;   -0,024;   -1,318
552,657;19361,247;    2,430;    0,045
553,239;19173,183;   -3,024;   -0,773
553,821;19108,530;   -1,570;    1,045
554,404;18580,755;   -0,024;    1,136
554,986;18981,547;    2,248;    1,045
555,568;19615,029;    0,430;   -0,955
556,151;18798,189;    4,067;   -0,227
556,733;18992,611;   -1,388;   -0,864
557,315;19505,602;    4,703;    0,500
557,897;19285,548;    0,521;   -0,500
558,479;19491,773;    1,703;    1,318
559,061;19633,480;    1,067;   -0,864
559,643;19993,100;   -0,297;    0,045
560,225;20345,195;   -0,388;    2,864
560,807;20371,736;    0,340;    0,318
561,389;19868,100;   -1,206;    2,318
561,971;20645,396;   -0,660;    2,136
562,553;20482,336;    0,613;    1,591
563,135;20612,807;    1,249;    1,136
563,717;20220,769;    3,158;    1,136
564,298;20913,673;    3,976;   -0,045
564,880;20630,328;    0,340;   -1,409
565,462;20826,328;    1,977;    1,318
566,043;22059,364;   -0,933;    2,318
566,625;21551,540;    4,067;    1,227
567,207;21410,546;    0,704;    1,682
567,788;22604,664;   -0,114;    1,500
568,370;23470,312;   -1,841;   -0,500
568,951;23263,943;   -0,569;    0,227
569,533;24191,570;    0,977;   -0,500
570,114;24750,899;   -0,296;    0,682
570,695;25200,746;   -0,478;   -1,318
571,277;25713,356;   -0,205;   -1,682
571,858;26518,425;    2,704;   -1,136
572,439;27481,959;    0,795;   -1,045
573,021;27650,186;    0,432;   -2,773
573,602;28181,389;    1,795;    0,318
574,183;29140,700;   -0,114;    2,227
574,764;29327,651;    2,068;    0,409
575,345;29895,892;    0,250;   -0,136
575,926;30522,394;    2,704;    0,136
576,507;30528,838;    2,704;   -0,227
577,088;31668,806;    1,704;    1,682
577,669;31684,058;    1,704;    1,955
578,250;32450,700;   -0,750;   -1,045
578,831;33087,760;   -0,841;   -2,227
579,412;33407,946;   -1,205;    0,955
579,993;34390,930;    1,432;    0,227
580,573;34697,513;   -0,023;   -0,955
581,154;33675,186;    1,613;   -0,591
581,735;34566,475;    0,341;    0,773
582,315;34029,293;    0,523;    2,136
582,896;34365,833;   -1,750;    1,227
583,477;33831,508;    0,614;    1,227
584,057;34014,989;    1,159;    0,955
584,638;34278,657;   -2,750;    2,318
585,218;34284,796;    2,886;    2,682
585,799;34450,240;    1,977;   -0,227
586,379;34480,442;    1,250;    1,591
586,959;33210,764;    2,613;    0,318
587,540;32545,466;    0,432;    2,227
588,120;31946,012;   -1,113;   -0,045
588,700;30911,739;    2,977;    2,136
589,281;31248,812;    1,250;   -0,955
589,861;31089,786;   -0,296;   -1,682
590,441;30939,187;   -1,477;   -2,682
591,021;29862,925;    1,432;   -2,591
591,601;30106,982;    0,431;    0,500
592,181;30125,356;   -1,296;   -0,773
592,761;29408,322;    2,250;    1,409
593,341;29285,635;    1,522;    0,045
593,921;29302,501;   -0,569;    1,591
594,501;29144,069;    1,250;    1,318
595,081;28996,886;    0,522;   -0,318
595,661;29318,368;    1,068;    0,955
596,240;29881,741;   -1,023;    0,136
596,820;29478,853;    2,613;    1,955
597,400;29687,929;    1,977;    0,773
597,980;29946,821;   -0,750;    1,045
598,559;29957,549;    0,341;   -0,227
599,139;29733,763;   -0,750;   -1,227
599,718;29604,400;    0,795;   -0,409
600,298;29820,581;   -2,387;    0,682
600,877;30095,928;    4,795;    1,409
601,457;30311,312;    0,340;    1,136
602,036;30287,067;    1,795;    2,045
602,616;30474,089;    2,250;    1,682
603,195;30825,125;    0,431;    3,500
603,774;30313,125;   -0,296;    2,045
604,354;30243,650;    2,522;   -0,500
604,933;29694,148;    0,250;    1,864
605,512;29774,361;    2,340;    0,591
606,091;29814,964;    1,886;    3,773
606,671;30630,377;    0,249;    0,773
607,250;29693,842;    1,431;    3,136
607,829;29971,081;    1,158;    3,227
608,408;29833,194;    4,613;    2,591
608,987;28839,572;    2,704;    3,409
609,566;29151,100;    0,341;   -2,500
610,145;29174,835;    2,885;    0,682
610,723;29644,343;    1,613;    6,864
611,302;28840,615;    1,067;    1,682
611,881;28320,749;    5,158;   11,227
612,460;29152,460;    0,795;    3,955
613,039;29612,384;    1,703;    2,045
613,617;28317,135;    0,886;    4,773
614,196;28542,765;    1,613;    1,227
614,775;28872,251;    1,249;    2,409
615,353;28795,977;   -1,660;    0,864
615,932;28476,871;    0,249;    2,409
616,510;29075,609;    0,158;    0,591
617,089;28611,582;    8,794;   17,591
617,667;28373,240;    4,885;    6,136
618,246;28151,843;   -1,115;    1,318
618,824;28353,924;    1,612;   -0,955
619,402;27874,747;    0,431;   -1,773
619,981;28409,495;    1,067;   -1,045
620,559;28279,233;    0,794;    1,682
621,137;27788,506;    3,067;    1,864
621,715;27765,105;    3,703;   -0,682
622,293;27674,923;    1,885;   -0,773
622,871;28160,238;    0,340;    0,500
623,450;27703,296;    0,430;   -0,864
624,028;27596,078;   -0,388;   -0,955
624,606;27171,778;    2,339;    1,682
625,183;27604,761;   -0,661;   -1,136
625,761;27288,756;    1,885;    1,136
626,339;27555,954;    2,339;    2,591
626,917;27918,097;    0,339;   -0,045
627,495;27973,600;    2,794;    1,318
628,073;27457,824;    5,248;    2,864
628,650;27105,648;    3,067;    2,136
629,228;27516,125;    1,248;    4,409
629,806;26901,386;   -0,024;    1,136
630,383;27172,717;    0,066;   -0,318
630,961;26951,146;   -2,206;   -0,955
631,539;26637,220;   -2,479;    0,227
632,116;25884,600;   12,703;   15,409
632,694;26519,182;    4,885;    6,500
633,271;26814,587;    1,975;    2,682
633,848;26807,481;    1,430;    2,045
634,426;26837,047;    1,521;    1,773
635,003;25955,366;   -0,207;   -0,409
635,580;26234,890;    1,884;    3,682
636,158;26792,918;    3,793;    1,227
636,735;26731,437;    3,339;   -0,500
637,312;26927,567;    0,521;   -0,682
637,889;27058,897;    2,248;   -0,682
638,466;26516,584;    0,066;   -0,409
639,043;26439,006;    1,702;   -1,136
639,620;26789,423;    0,611;   -0,955
640,197;27145,550;    1,612;    1,682
640,774;27306,790;    1,430;    1,136
641,351;27698,213;    0,612;    1,136
641,928;27069,999;    2,794;    1,409
642,505;26704,967;    0,794;   -0,500
643,082;26847,843;    1,885;    1,227
643,658;25824,902;    1,157;    1,500
644,235;26586,779;   -2,479;    2,500
644,812;26868,020;    1,794;    0,773
645,388;26606,442;    1,612;    1,409
645,965;26683,319;    1,521;    1,682
646,542;26764,468;    3,430;   -0,227
647,118;26759,163;    3,703;   -0,955
647,695;27106,859;    0,339;    1,136
648,271;27027,917;   -2,115;    0,500
648,848;27319,067;    0,248;    2,227
649,424;27142,671;    0,976;    1,318
650,000;26867,275;   -0,388;   -1,045
650,577;26675,970;    0,158;   -0,955
651,153;27184,574;   -1,115;    0,955
651,729;28118,360;    0,521;    0,864
652,305;28330,965;    1,339;    2,773
652,881;32816,023;   -1,297;    1,136
653,458;39836,809;    0,249;    0,227
654,034;43811,595;    0,703;    1,591
654,610;45467,563;    0,339;    0,773
655,186;46882,803;    1,612;    3,045
655,762;46641,135;   -1,842;    0,409
656,338;46685,466;    0,703;    0,136
656,913;47707,798;   -0,297;    0,409
657,489;46900,311;    0,249;   -0,318
658,065;46953,552;    0,794;   -1,591
658,641;47601,065;    2,158;   -0,864
659,217;46913,305;    2,067;    0,409
659,792;46291,182;   -1,751;   -0,409
660,368;46590,150;   -0,388;   -0,682
660,944;46272,663;    1,794;    1,227
661,519;41615,176;    0,522;    0,409
662,095;35268,599;   -0,206;    0,591
662,670;30351,021;   -0,206;   -0,136
663,246;29133,989;   -0,660;   -0,409
663,821;28371,048;    0,431;    1,682
664,396;27900,197;    0,613;    1,864
664,972;28119,620;   -0,660;   -0,500
665,547;28491,315;    3,794;    0,136
666,122;28512,192;    1,340;    0,318
666,698;28821,250;    2,431;    0,318
667,273;28127,763;    0,885;    0,136
667,848;28999,368;    0,340;    1,500
668,423;28724,608;    1,795;    2,318
668,998;29287,394;    0,976;   -0,682
669,573;29804,635;    2,067;   -1,500
670,148;29630,148;    1,885;   -0,682
670,723;29434,116;   -0,024;    0,318
671,298;29912,447;   -1,296;    1,045
671,873;29998,051;   -0,296;   -0,136
672,448;29971,019;    1,704;    0,136
673,023;30326,441;    0,249;   -0,227
673,597;30601,500;    2,704;    2,318
674,172;30403,286;    2,431;    0,318
674,747;29955,618;   -0,205;   -1,045
675,321;29772,676;   -0,933;    3,318
675,896;29293,099;    2,158;    1,045
676,471;30290,066;    2,522;    1,591
677,045;30060,489;   -0,296;    0,682
677,620;30078,366;    2,158;    1,136
678,194;30453,152;    0,249;    1,136
678,769;29962,756;    0,886;   -0,318
679,343;30168,178;   -0,023;    1,773
679,917;30066,328;    0,340;    1,955
680,492;30088,659;    0,249;    3,227
681,066;30240,263;    0,613;    0,409
681,640;30309,413;    1,795;   -0,318
682,214;31109,381;    2,340;    0,500
682,788;30589,076;    0,613;   -0,773
683,363;30596,862;    1,977;    1,682
683,937;30226,920;    0,886;   -0,318
684,511;31038,343;   -1,023;   -0,591
685,085;30770,401;   -1,478;    0,318
685,659;30525,278;    1,431;    0,864
686,232;30773,246;    1,159;   -0,318
686,806;30495,759;    2,159;    0,409
687,380;31171,545;   -1,932;    0,591
687,954;31449,240;    2,432;    1,136
688,528;31058,299;    2,613;    1,955
689,101;31881,085;    0,432;    1,045
689,675;31424,598;    0,886;   -0,136
690,249;30738,021;    3,432;    0,409
690,822;31110,625;    1,159;    0,318
691,396;31180,502;    2,068;    1,227
691,969;30622,924;    2,523;    0,136
692,543;31062,528;   -0,568;   -1,955
693,116;30727,769;   -0,659;   -1,409
693,690;30545,373;   -0,296;    0,500
694,263;31115,432;    2,341;    2,955
694,836;31153,945;    2,795;    3,591
695,410;29779,003;    1,159;    1,773
695,983;30253,789;    1,614;    0,591
696,556;30178,939;   -0,750;   -1,045
697,129;30595,816;   -1,114;    1,409
697,703;30222,693;    1,341;    1,955
698,276;30269,388;    1,705;   -0,773
698,849;30041,628;   -1,023;    1,409
699,422;30414,960;    1,250;    0,591
699,995;30092,109;   -0,659;    0,136
700,568;30572,623;   -0,204;    3,045
701,140;30560,318;   -1,841;    1,682
701,713;30323,013;    0,341;    2,409
702,286;30084,617;    0,796;    0,864
702,859;29949,039;    0,614;   -0,591
703,432;29064,643;   -0,841;    0,682
704,004;29610,884;    1,978;    0,318
704,577;29512,306;    1,068;    0,136
705,150;30040,274;    0,887;    2,500
705,722;29875,424;    1,523;   -3,227
706,295;29680,392;    1,432;   -0,591
706,867;29462,996;    0,250;    1,955
707,440;29703,873;   -0,113;   -0,409
708,012;29870,295;   -0,022;    0,591
708,584;29783,899;    2,705;    0,227
709,157;30112,685;    1,160;   -0,591
709,729;29771,198;    1,069;    2,045
710,301;30658,893;   -1,204;    0,045
710,874;30620,679;    0,341;   -0,227
711,446;29469,465;   -0,295;    0,864
712,018;29410,979;   -3,022;    0,500
712,590;29082,946;   -0,204;    1,682
713,162;29639,005;   -0,477;    1,318
713,734;29871,882;    1,796;   -2,045
714,306;29733,213;    0,342;   -0,409
714,878;28450,908;   -0,295;    0,864
715,450;29305,603;   -0,113;    0,864
716,022;29583,844;    2,433;    1,318
716,593;29724,175;    0,978;    0,591
717,165;29634,689;    1,796;   -1,227
717,737;29353,293;    0,796;    0,409
718,309;29016,897;    1,160;   -0,045
718,880;28947,956;   -1,295;   -1,409
719,452;29159,196;    0,887;   -1,591
720,024;28713,164;    1,705;   -0,591
720,595;29315,041;    2,978;    0,955
721,167;28836,190;    1,160;   -2,045
721,738;28351,340;    2,069;   -1,045
722,309;28233,490;    1,251;   -1,227
722,881;28053,276;    2,705;    0,773
723,452;28788,971;    1,251;    2,864
724,023;28929,484;    1,524;    2,682
724,595;28677,361;    2,342;    0,682
725,166;28374,965;    1,524;   -0,409
725,737;28013,296;    1,887;    0,227
726,308;28148,992;    0,797;    0,318
726,879;28525,505;    1,069;    1,227
727,450;28441,563;   -2,022;   -0,045
728,021;28401,440;    1,069;    0,682
728,592;28211,590;    1,160;    0,500
729,163;28507,012;    1,433;   -0,136
729,734;28444,344;    2,160;   -0,227
730,305;28790,675;    0,615;    0,136
730,876;29169,461;    0,888;    2,955
731,447;28880,156;    0,797;    2,682
732,017;28984,942;   -0,840;    1,864
732,588;28511,092;   -0,021;    1,227
733,159;28664,696;    3,615;   -1,045
733,729;28486,209;    1,251;    0,409
734,300;27769,995;    0,160;    0,864
734,870;28221,418;   -1,385;    0,591
735,441;28746,931;    0,888;   -0,591
736,011;28486,808;    1,070;   -1,591
736,582;28484,594;    1,251;    0,045
737,152;27896,107;    0,979;   -2,045
737,722;28395,256;    1,070;   -0,682
738,293;28062,679;   -2,021;    1,318
738,863;27922,101;    1,797;    2,318
739,433;27693,342;    4,524;    0,318
740,003;28339,673;    1,524;   -0,682
740,573;27783,459;    2,252;   -1,591
741,143;27822,154;    3,615;    0,318
741,713;28557,758;    0,252;   -0,500
742,283;28246,908;    1,706;    1,591
742,853;28009,512;    0,524;    1,591
743,423;27459,753;    0,161;    0,045
743,993;27573,902;    1,070;    1,500
744,563;26886,143;    2,524;   -0,864
745,133;26872,474;   -0,112;   -0,864
745,702;27579,442;    2,797;    1,773
746,272;26745,046;    0,434;    0,591
746,842;26501,832;   -0,748;   -0,591
747,411;26989,436;   -0,839;   -0,318
747,981;27118,313;   -0,930;    0,500
748,551;27185,645;   -0,021;   -1,045
749,120;27050,521;   -0,112;   -0,227
749,690;27405,671;    2,161;    2,409
750,259;27748,002;    0,979;    2,955
750,828;27625,607;    4,070;   -1,955
751,398;27884,211;   -0,112;   -0,045
751,967;27387,542;    2,888;    0,409
752,536;27616,055;    1,161;   -0,227
753,105;27974,569;   -1,384;    0,227
753,675;27737,809;   -0,112;    1,773
754,244;27719,504;    0,888;    3,591
754,813;27797,563;    0,979;    1,227
755,382;27366,167;    0,798;    0,955
755,951;27883,226;   -0,112;    3,682
756,520;27478,830;    2,525;    1,864
757,089;28054,707;    1,888;    0,500
757,658;28152,311;    2,434;    1,227
758,227;28110,824;   -1,111;    0,318
758,795;28444,883;   -1,021;    1,136
759,364;28738,214;    0,525;   -0,591
759,933;27695,000;    1,343;   -0,045
760,501;27249,059;    0,252;   -1,318
761,070;27651,754;   -0,293;   -1,409
761,639;28426,086;    1,434;    1,318
762,207;27694,599;    0,889;   -0,955
762,776;27619,476;    2,889;    0,864
763,344;27578,080;    0,071;    0,591
763,913;26733,229;    1,616;    1,409
764,481;27479,743;    1,980;   -0,136
765,049;27281,983;    0,616;    1,409
765,618;27147,860;    1,434;    0,318
766,186;27239,192;    2,434;    0,136
766,754;27366,068;    1,798;    1,864
767,322;26336,218;    1,162;    0,409
767,890;26391,004;    0,525;   -1,773
768,459;26805,426;    2,616;   -0,318
769,027;26954,485;    2,525;    3,409
769,595;25965,453;    2,616;    2,591
770,163;26357,239;    3,344;    2,955
770,730;26097,934;    2,525;   -0,136
771,298;25999,174;    1,162;   -1,409
771,866;26072,869;    0,253;    4,955
772,434;26369,655;    1,162;   -1,864
773,002;26536,623;    2,616;    0,682
773,569;26148,136;    1,071;    1,682
774,137;26005,377;    0,889;   -0,045
774,705;26805,436;   -0,747;   -0,136
775,272;26220,131;    0,253;    0,682
775,840;26070,371;   -0,111;    2,682
776,407;25573,521;   -0,293;    1,955
776,975;25120,307;    1,162;    0,318
777,542;26183,547;    2,162;   -0,045
778,110;26046,788;    0,707;   -0,045
778,677;25677,392;    1,071;   -0,864
779,244;25413,360;   -1,020;    1,045
779,812;25546,146;    0,980;    0,864
780,379;25364,750;    2,435;    1,136
780,946;25613,081;    2,617;   -0,773
781,513;25912,958;   -0,565;    0,318
782,080;25218,108;    1,253;    2,864
782,647;25999,258;    1,708;    3,045
783,214;25578,771;   -0,201;    3,864
783,781;25196,284;    1,708;   -0,682
784,348;25085,434;    0,253;    1,500
784,915;25540,220;   -1,474;    0,318
785,482;25318,369;    2,708;    2,591
786,049;25783,246;    1,071;   -0,591
786,615;25893,487;    1,708;   -0,955
787,182;25677,545;   -3,201;   -0,682
787,749;25351,968;   -2,201;    1,409
788,315;24578,572;    0,253;   -0,409
788,882;24962,085;    0,981;   -1,227
789,448;25595,598;    1,435;   -0,955
790,015;25621,748;    1,799;    3,227
790,581;25167,443;    0,708;    0,227
791,148;25066,956;    1,344;    1,045
791,714;25273,288;   -1,019;    3,136
792,280;24992,528;    3,708;    1,591
792,847;24512,041;   -0,928;    2,500
793,413;25072,282;   -0,110;   -0,318
793,979;24601,704;    1,526;   -1,318
794,545;24713,399;    2,981;    2,682
795,111;24106,458;    2,435;    1,318
795,678;24260,244;    3,526;   -1,682
796,244;23933,303;    2,799;    0,136
796,810;24473,816;    0,799;    0,773
797,375;24164,966;   -0,292;   -2,136
797,941;24157,570;   -1,110;    0,591
798,507;24314,356;    0,254;   -0,955
799,073;23895,323;    2,708;    0,591
799,639;23981,200;    1,435;    3,136
800,205;23980,895;   -1,565;    2,682
800,770;23494,500;    1,345;    1,773
801,336;23540,195;    2,981;   -0,955
801,901;23196,072;    6,072;    3,136
802,467;23778,403;    0,526;    2,045
803,033;23114,098;   -0,019;    0,864
803,598;23356,793;    1,072;   -1,045
804,163;23432,306;    0,708;   -0,318
804,729;23360,910;   -0,110;    1,136
805,294;23740,424;    1,072;    2,227
805,859;23542,119;    0,890;   -0,409
806,425;22994,814;    3,890;    2,682
806,990;22685,145;    1,890;    4,318
807,555;23165,113;   -0,110;    2,591
808,120;23057,172;   -1,292;   -0,409
808,685;23105,867;    1,072;   -2,500
809,250;22602,562;    2,072;   -0,500
809,815;22915,712;   -0,201;    0,682
810,380;23458,407;    0,981;    1,591
810,945;23995,011;    2,890;    2,045
811,510;23180,069;   -0,200;    1,591
812,075;22820,219;    2,800;   -1,409
812,640;22901,732;    3,709;    1,409
813,204;22914,518;    2,163;   -0,227
813,769;23391,032;    0,254;   -0,045
814,334;22815,999;    0,527;    0,864
814,898;22875,603;    1,981;    0,591
815,463;22774,117;    0,981;   -0,773
816,027;22728,448;    1,345;   -2,318
816,592;22812,416;    2,163;   -2,045
817,156;22291,838;   -2,200;    1,136
817,721;22046,442;    0,982;    2,318
818,285;22036,592;    0,618;    1,500
818,849;22742,287;   -0,018;    1,682
819,414;22666,528;    0,073;    2,955
819,978;22229,223;   -0,291;    1,773
820,542;22832,372;    2,891;    0,500
821,106;22534,522;    2,800;    0,682
821,670;22607,672;    2,709;    2,591
822,234;22314,276;    1,073;    1,409
822,798;21674,607;   -0,836;    0,500
823,362;21650,848;    1,527;    4,227
823,926;20943,088;   -0,018;    1,136
824,490;21188,147;    3,527;   -0,682
825,054;21684,660;    2,527;   -1,136
825,618;21265,082;   -1,200;   -1,500
826,181;21135,050;    0,982;   -1,318
826,745;21036,291;   -0,745;   -1,045
827,309;21454,259;    2,255;    1,318
827,872;20827,317;    0,527;    0,955
828,436;21825,649;    1,982;   -0,773
828,999;21870,526;    2,436;    1,227
829,563;20670,402;   -0,654;    1,136
830,126;20526,279;   -0,018;   -0,591
830,690;20526,520;    0,709;    2,864
831,253;20022,397;   -0,473;    2,227
831,816;20152,092;   -0,018;    0,500
832,380;20098,332;    1,164;    0,864
832,943;20337,300;    3,073;   -0,500
833,506;19808,450;    0,255;   -1,227
834,069;20575,781;    2,164;   -0,955
834,632;20615,294;   -2,200;    1,318
835,195;20524,626;    1,346;    0,955
835,758;19744,594;    0,709;    1,955
836,321;19580,470;    1,073;   -1,045
836,884;19691,620;   -1,291;   -0,955
837,447;19684,224;    0,528;    1,773
838,010;19947,919;    1,800;    3,227
838,573;20297,614;    0,528;    0,773
839,135;20237,309;   -0,109;   -0,955
839,698;19651,005;    2,528;    0,409
840,261;19204,790;    0,255;   -0,227
840,823;19056,304;   -0,927;    0,864
841,386;19307,635;   -0,018;   -2,409
841,948;19190,330;    0,255;    1,773
842,511;18883,116;    0,255;    1,682
843,073;19094,357;    2,982;    0,227
843,636;18905,870;    0,619;   -0,227
844,198;18788,656;    1,255;    0,591
844,760;18928,442;    0,619;    1,955
845,322;18540,501;    0,164;    1,136
845,885;18984,287;   -0,290;    0,591
846,447;19408,163;    0,710;    0,227
847,009;18987,131;    3,983;   -0,682
847,571;19322,190;    1,346;   -2,045
848,133;19422,249;   -0,199;   -1,864
848,695;19261,944;    2,346;    1,409
849,257;18821,457;    1,346;   -1,682
849,819;18967,698;    2,983;   -0,409
850,381;18984,938;    1,801;   -0,864
850,942;19354,179;    1,892;   -0,591
851,504;19257,874;    0,983;    0,227
852,066;19325,387;    1,619;   -1,591
852,628;18893,355;    0,165;    1,955
853,189;18426,868;    0,256;    2,682
853,751;18568,745;   -0,654;    1,409
854,312;18381,076;    1,256;   -1,682
854,874;18909,317;   -0,108;   -0,773
855,435;19386,103;    0,528;   -1,682
855,997;19488,616;    3,983;   -0,136
856,558;18748,947;    0,801;    1,773
857,119;18912,824;   -0,744;    2,864
857,681;18564,883;   -0,108;    0,318
858,242;18580,123;    1,347;   -2,136
858,803;19096,546;    1,074;   -0,773
859,364;19678,514;    0,892;   -4,773
859,925;18986,209;   -0,290;   -0,955
860,486;18884,995;    0,529;   -0,955
861,047;18574,962;    0,165;   -1,227
861,608;18399,658;    0,165;   -0,773
862,169;18539,807;   -0,562;   -0,045
862,730;18293,866;   -0,290;    1,409
863,291;18550,015;    0,438;   -0,500
863,852;18843,438;   -0,926;    1,955
864,412;18348,133;   -1,835;   -0,864
864,973;16916,828;    1,892;    0,500
865,534;16790,705;    2,074;    0,227
866,094;18255,491;    2,620;    0,227
866,655;17912,368;    4,711;    3,318
867,215;18226,881;    0,074;    0,136
867,776;18075,031;   -1,199;   -0,136
868,336;18207,726;    1,529;    0,136
868,897;17636,148;    3,438;    1,682
869,457;17381,934;    3,256;    0,318
870,017;17675,993;    2,438;   -1,227
870,578;18191,506;    1,893;    0,773
871,138;17782,655;    2,620;   -0,955
871,698;17343,260;   -0,562;   -1,318
872,258;17188,500;    0,711;   -2,864
872,818;17539,741;    2,347;    0,045
873,378;17535,890;   -2,198;    1,045
873,938;17089,767;    4,984;    0,500
874,498;17405,826;    1,256;   -1,955
875,058;17289,885;    4,347;    1,773
875,618;17193,034;    1,438;   -2,682
876,177;17139,093;   -0,471;    0,136
876,737;16647,788;   -0,289;    1,955
877,297;16603,847;    2,711;    1,955
877,856;16648,996;    2,529;    0,318
878,416;16594,782;    2,438;   -0,136
878,976;16844,750;    3,438;    0,409
879,535;17030,354;    4,529;    3,136
880,095;16750,322;    1,347;    0,045
880,654;16855,835;    0,347;    1,318
881,213;16947,076;    2,347;    1,500
881,773;16605,680;    1,984;    2,682
882,332;16987,193;    6,075;    5,136
882,891;16846,161;    0,711;    2,136
883,451;17300,401;   -2,016;    1,682
884,010;16717,096;   -1,107;   -0,409
884,569;16806,610;   -2,289;   -0,045
885,128;16946,305;   -0,743;   -1,864
885,687;17040,363;   -0,743;    0,682
886,246;16689,513;    2,620;    2,136
886,805;16435,845;    1,620;    2,045
887,364;16778,903;    1,166;   -0,500
887,922;17152,326;   -0,016;    0,045
888,481;16622,112;    1,530;    0,591
889,040;16933,716;    3,711;    2,136
889,599;17601,865;    2,166;    1,409
890,157;17671,924;    2,166;    2,409
890,716;17364,437;    2,166;    0,227
891,274;17153,496;    0,075;   -1,136
891,833;17544,827;    1,166;    0,864
892,391;17427,613;    1,802;    0,500
892,950;17551,490;    0,166;   -0,773
893,508;17884,731;    0,984;   -0,409
894,067;17222,153;   -0,379;    0,136
894,625;17159,030;   -1,016;   -1,500
895,183;17334,180;   -0,198;   -0,682
895,741;17240,329;    2,257;   -1,773
896,299;17069,024;    1,621;   -2,409
896,858;17284,628;    1,530;   -1,591
897,416;17355,687;    0,166;   -1,318
897,974;17124,837;   -2,197;    0,318
898,532;17294,805;    6,530;    2,682
899,089;17196,591;    0,621;   -0,682
899,647;17247,104;    0,530;    1,318
900,205;16965,344;    0,257;    1,045
900,763;17192,312;    2,166;    0,227
901,321;17174,007;    3,530;   -1,409
901,878;16591,066;    3,257;   -0,773
902,436;16478,125;    0,257;    1,318
902,994;16875,729;    6,712;    3,682
903,551;16317,878;    1,439;    0,409
904,109;16694,392;    1,530;   -1,409
904,666;16340,814;    1,439;    1,045
905,224;16100,236;    3,894;   -0,409
905,781;15807,386;   -0,470;   -0,318
906,338;15926,172;    0,167;    1,045
906,895;15882,776;    1,894;    2,045
907,453;15781,926;    2,348;    1,136
908,010;15783,166;    3,348;    0,409
908,567;15396,316;   -0,561;    0,591
909,124;14935,283;    2,439;   -1,500
909,681;15018,251;   -1,288;    0,682
910,238;15178,401;   -0,106;   -1,318
910,795;15479,278;   -1,561;   -1,136
911,352;15138,551;   -0,379;   -2,682
911,909;14550,005;    2,803;   -0,864
912,466;14987,551;    1,985;    1,500
913,022;14526,005;   -0,924;    0,500
913,579;14896,005;   -0,470;    2,045
914,136;14580,641;   -2,561;    0,955
914,692;14976,096;    1,530;   -1,227
915,249;14525,551;    0,530;    0,409
915,806;14767,369;    1,803;    1,955
916,362;14495,187;    0,894;    1,864
916,918;14055,096;    2,439;    1,045
917,475;14050,641;    1,621;    0,955
918,031;14137,551;    0,076;   -0,045
918,587;13602,823;    0,621;   -0,318
919,144;13815,641;   -0,379;    0,227
919,700;14111,823;    0,167;    0,773
920,256;13717,551;    0,439;    0,045
920,812;13342,096;    1,439;   -1,045
921,368;13317,187;    1,348;   -1,045
921,924;12957,823;    0,439;   -0,136
922,480;12514,278;    0,076;    1,227
923,036;13117,823;   -0,652;    1,955
923,592;13089,641;    0,621;    0,318
924,148;12998,369;    1,894;   -0,955
924,704;12337,096;    0,258;   -0,409
925,259;12618,369;   -0,561;    0,591
925,815;12342,460;    3,803;    0,500
926,371;11901,732;    3,530;    1,409
926,926;11734,005;    1,621;    0,591
927,482;11357,005;    1,621;    0,773
928,037;11271,187;   -0,833;    2,045
928,593;11573,369;    0,258;    1,045
929,148;11394,914;    1,167;   -1,500
929,704;10903,278;    2,439;   -0,500
930,259;11084,641;    0,894;   -0,136
930,814;10143,096;    1,803;    1,955
931,369; 9858,369;    0,258;   -0,773
931,925; 9781,369;   -1,924;    0,136
932,480; 9633,278;    3,076;   -2,591
933,035; 9530,187;    3,985;   -0,318
933,590; 9263,005;   -1,742;   -1,773
934,145; 8940,914;   -1,288;   -0,318
934,700; 9299,369;    0,348;   -0,591
935,255; 9084,278;    4,803;    0,045
935,809; 8331,278;    6,258;    0,864
936,364; 7483,369;    2,167;   -0,136
936,919; 7484,641;    2,348;   -1,773
937,474; 7361,551;    1,348;    0,136
938,028; 7142,187;    3,076;    1,136
938,583; 6573,096;    6,348;    4,682
939,138; 6893,096;    0,167;    2,136
939,692; 6364,460;   -1,015;   -1,136
940,247; 6010,551;    1,167;   -1,045
940,801; 5559,005;    0,621;    0,227
941,355; 5461,551;    0,439;    2,591
941,910; 5127,005;    0,712;   -2,136
942,464; 5234,823;    2,712;   -0,318
943,018; 5010,460;    3,258;   -0,227
943,572; 4965,369;    2,803;   -0,682
944,126; 4366,096;   -0,924;   -0,409
944,681; 4238,460;    0,712;    0,227
945,235; 4224,278;    2,167;   -0,591
945,789; 4181,732;    1,258;   -1,864
946,342; 4266,460;   -0,561;   -0,591
946,896; 4064,914;    0,348;    0,955
947,450; 3816,460;   -0,561;   -0,227
948,004; 4029,005;    1,076;   -0,045
948,558; 4053,914;    1,258;   -0,864
949,111; 3967,551;   -1,197;   -0,318
949,665; 4003,369;   -0,106;   -0,682
950,219; 3862,823;    0,621;   -1,045
950,772; 3941,641;    0,258;    1,864
951,326; 3866,187;   -1,106;   -0,955
951,879; 3964,823;    1,076;   -2,318
952,433; 3985,732;    1,348;    2,227
952,986; 3820,460;    0,348;    0,682
953,539; 3756,187;    1,530;    0,591
954,093; 3691,369;    0,985;   -1,318
954,646; 3823,460;   -0,288;    1,318
955,199; 3639,278;    1,258;   -0,500
955,752; 3521,005;    1,985;    1,773
956,305; 3474,914;    0,894;    2,955
956,858; 3650,460;    0,621;   -0,318
957,411; 3847,460;    3,621;    2,136
957,964; 3637,914;    2,076;    2,136
958,517; 3645,278;    0,985;    3,136
959,070; 3484,096;   -1,197;    1,955
959,623; 3536,460;    1,076;    1,500
960,176; 3305,641;    0,712;    2,045
960,728; 3274,187;    1,712;    0,773
961,281; 3359,551;    2,258;    0,500
961,834; 3389,369;   -0,833;    0,864
962,386; 3312,460;    1,258;    1,045
962,939; 3221,278;    3,439;   -0,318
963,491; 3364,278;    2,621;    1,136
964,043; 3223,641;    0,076;    2,409
964,596; 3367,187;    1,712;    2,227
965,148; 3194,005;   -0,379;    1,773
965,700; 3139,369;   -0,015;   -0,227
966,253; 3300,460;   -0,833;    0,318
966,805; 3117,823;    1,894;    0,773
967,357; 3172,641;    0,439;   -1,500
967,909; 3117,278;    1,167;   -1,227
968,461; 3232,551;    0,894;    3,136
969,013; 3145,641;   -1,561;   -0,864
969,565; 3230,187;    1,803;   -1,136
970,117; 3299,732;    3,803;    1,045
970,669; 3140,914;    3,258;   -0,136
971,220; 2979,460;    2,167;   -1,500
971,772; 2904,551;    1,348;   -0,318
972,324; 3027,641;   -1,197;   -0,500
972,876; 2987,096;    0,167;   -0,045
973,427; 3120,732;   -1,197;   -1,045
973,979; 3109,551;    0,076;   -2,500
974,530; 3108,732;    0,803;    1,318
975,082; 3129,914;    2,167;    1,682
975,633; 3029,551;    2,894;    1,682
976,184; 3188,369;    2,076;    0,773
976,736; 2976,460;    0,348;    0,227
977,287; 2763,096;    0,258;   -0,500
977,838; 2936,551;   -0,924;   -0,318
978,389; 2994,187;    0,803;   -0,500
978,940; 2885,914;    1,258;   -0,409
979,491; 2909,187;    2,258;   -0,500
980,042; 2855,551;   -0,652;    3,045
980,593; 2928,369;    1,894;    0,227
981,144; 2977,369;    3,530;   -0,500
981,695; 2934,641;   -0,470;    1,500
982,246; 2885,460;   -1,833;    1,045
982,797; 3056,187;   -0,561;    0,682
983,347; 3179,369;    2,167;    0,591
983,898; 3315,914;    4,167;    0,409
984,449; 3139,551;    2,530;    0,773
984,999; 3061,369;    1,894;   -1,136
985,550; 2806,278;    3,167;   -0,318
986,100; 2861,369;    0,712;   -0,318
986,651; 2913,369;    0,258;    0,045
987,201; 2896,278;    0,894;   -0,591
987,751; 2980,096;   -0,288;    2,864
988,302; 2964,460;   -0,379;    1,500
988,852; 2978,914;    1,985;   -1,136
989,402; 3009,096;    0,985;    0,682
989,952; 2917,096;    1,621;    0,864
990,502; 3032,460;    1,076;    0,682
991,052; 2998,732;   -0,106;    0,045
991,602; 2872,187;    1,167;    1,318
992,152; 2864,187;    2,803;    0,682
992,702; 2840,187;    1,167;   -0,045
993,252; 2748,460;    0,076;   -0,500
993,802; 2837,278;    1,167;    1,318
994,352; 3084,187;   -0,742;    1,136
994,901; 3177,278;    1,076;    3,227
995,451; 3103,096;   -1,197;    0,318
996,000; 3195,460;    1,076;    0,318
996,550; 2883,278;    2,894;    0,227
997,100; 2892,823;   -0,561;   -0,045
997,649; 3195,278;   -0,197;    0,955
998,198; 2838,005;   -0,288;   -1,500
998,748; 2981,641;    0,348;   -2,318
999,297; 2889,551;    0,985;   -0,409
999,846; 2989,732;    1,894;   -0,773
1000,395; 3025,096;    1,530;    0,500
1000,945; 2968,096;    1,076;   -0,773
1001,494; 3053,551;    0,167;    0,682
1002,043; 3060,460;    0,712;    0,864
1002,592; 2878,096;    3,439;    1,955
1003,141; 3028,823;    2,439;   -0,682
1003,690; 2863,823;    1,258;    0,500
1004,238; 2941,187;   -0,106;   -0,045
1004,787; 2583,187;   -1,288;    1,227
1005,336; 2821,005;    1,621;    0,682
1005,885; 2981,551;   -0,197;   -2,773
1006,433; 3107,551;   -0,470;    0,955
1006,982; 3169,914;    2,167;    1,682
1007,531; 3086,096;    2,712;   -0,227
1008,079; 3049,187;    0,258;    0,500
1008,627; 3214,005;    1,621;    0,409
1009,176; 2928,005;    0,076;   -1,955
1009,724; 2966,823;   -2,742;    0,864
1010,273; 3004,369;    1,076;    0,500
1010,821; 3140,914;    1,076;    1,409
1011,369; 2870,641;    0,076;    1,318
1011,917; 2844,187;   -0,833;   -0,591
1012,465; 3138,096;    2,530;   -1,591
1013,013; 3251,460;    0,439;   -1,682
1013,561; 3136,096;   -1,288;   -0,773
1014,109; 3157,460;   -0,833;    1,682
1014,657; 3022,914;    1,348;    0,591
1015,205; 3159,823;    0,894;   -0,955
1015,753; 3194,914;    0,258;   -1,409
1016,301; 3240,096;    2,621;    3,045
1016,848; 3249,278;    2,167;    0,409
1017,396; 3275,551;    1,621;    0,045
1017,944; 3409,732;    2,621;    1,864
1018,491; 3155,460;   -0,197;    1,409
1019,039; 3324,278;   -0,652;    0,591
1019,586; 3239,187;    0,076;    1,682
1020,134; 3332,096;    0,712;    1,500
1020,681; 3345,278;    2,894;   -1,136
1021,228; 3367,914;   -0,561;   -2,227
1021,776; 3183,460;   -0,833;   -1,136
1022,323; 3379,187;    0,803;    0,773
1022,870; 3331,096;   -0,470;   -0,045
1023,417; 3237,914;    2,076;    1,864
1023,964; 3377,914;    0,621;    1,227
1024,511; 3207,641;   -0,652;    0,773
1025,058; 3012,732;    0,439;   -0,045
1025,605; 3068,278;   -1,742;    3,136
1026,152; 3256,278;   -0,106;   -0,591
1026,699; 3000,005;    0,167;    1,318
1027,245; 3175,914;    2,439;    0,318
1027,792; 3398,278;    0,712;    1,409
1028,339; 3279,460;    4,076;   -0,045
1028,885; 3139,732;    3,621;   -0,227
1029,432; 3060,096;   -0,106;    0,227
1029,978; 3110,005;    1,348;   -1,591
1030,525; 3009,369;    1,621;    0,409
1031,071; 3276,187;    0,348;    1,136
1031,618; 3381,369;    1,258;    1,682
1032,164; 3156,005;    2,076;    3,045
1032,710; 3202,460;    0,076;   -1,500
1033,256; 3125,641;    0,712;   -0,136
1033,803; 3115,460;   -0,288;    1,500
1034,349; 2864,914;    1,803;    0,136
1034,895; 3008,641;    2,621;   -0,318
1035,441; 2980,641;    0,439;    0,318
1035,987; 2978,641;   -2,288;   -0,682
1036,533; 2968,460;   -0,197;   -0,955
1037,078; 3169,460;    4,712;    1,682
1037,624; 2999,914;    2,439;   -0,955
1038,170; 3033,641;    1,712;   -0,318
1038,716; 2924,914;    2,167;   -0,409
1039,261; 2839,187;    2,167;   -0,773
1039,807; 2794,187;   -0,015;    3,409
1040,352; 2855,096;   -1,288;   -0,318
1040,898; 2879,278;    0,167;   -0,682
1041,443; 2799,460;    0,803;   -2,591
1041,989; 2823,369;    3,621;    1,591
1042,534; 2715,278;    0,985;    2,591
1043,079; 2838,187;    1,985;    0,955
1043,625; 2596,096;    0,258;    0,500
1044,170; 2650,641;    2,439;    1,045
1044,715; 2918,914;    0,167;    0,955
1045,260; 2731,005;   -0,833;   -0,955
1045,805; 2780,096;    0,258;   -0,591
1046,350; 2720,005;    0,530;   -0,409
1046,895; 2686,914;    0,803;    1,591
1047,440; 2626,732;    1,530;    0,409
1047,985; 2524,005;   -1,197;   -0,955
1048,530; 2449,641;    1,348;    1,227
1049,074; 2522,369;    2,803;    0,318
1049,619; 2490,551;   -0,924;    1,955
1050,164; 2287,914;    1,076;    0,227
1050,708; 2339,187;    2,621;    0,045
1051,253; 2704,551;    3,258;   -2,227
1051,797; 2416,187;   -0,197;   -1,318
1052,342; 2442,369;    1,348;    1,045
1052,886; 2415,096;    1,803;   -1,409
1053,430; 2317,732;    2,167;    0,136
1053,975; 2326,914;    0,894;   -0,318
1054,519; 2306,096;    1,803;    3,227
1055,063; 2309,278;    3,621;    1,318
1055,607; 2191,914;    1,348;    0,227
1056,151; 2212,732;    0,530;    1,682
1056,695; 2137,278;   -1,833;   -1,136
1057,239; 2194,732;   -1,197;   -0,682
1057,783; 2213,732;    2,258;   -1,500
1058,327; 2167,732;    3,076;    1,409
1058,871; 2383,914;    3,985;    1,318
1059,415; 2087,823;   -0,561;   -0,045
1059,958; 2319,460;    2,985;    2,591
1060,502; 2056,460;    1,348;   -0,773
1061,046; 1959,096;    1,712;   -0,955
1061,589; 1960,369;    2,803;   -1,136
1062,133; 1846,005;    0,985;    1,864
1062,676; 1776,823;    1,439;    0,864
1063,220; 1789,096;    0,985;    0,500
1063,763; 1799,005;    2,985;    1,136
1064,306; 1867,369;    0,985;    1,864
1064,849; 1766,914;    2,076;    0,591
1065,393; 1775,096;    2,894;   -1,500
1065,936; 1899,460;    2,530;   -0,409
1066,479; 1796,641;    2,621;    1,318
1067,022; 1805,641;    1,894;   -0,227
1067,565; 1695,187;   -1,197;   -1,318
1068,108; 1729,278;    1,258;   -0,591
1068,651; 1709,187;   -2,470;    1,409
1069,194; 1636,551;   -1,106;   -1,682
1069,736; 1625,823;    3,803;    0,955
1070,279; 1603,641;   -1,652;   -0,500
1070,822; 1652,460;    1,530;   -0,318
1071,364; 1718,551;    0,530;    1,318
1071,907; 1555,460;    0,348;    3,227
1072,450; 1483,551;    0,258;   -0,045
1072,992; 1469,369;   -0,561;    3,136
1073,535; 1589,823;    0,167;    2,136
1074,077; 1399,732;    2,985;    2,045
1074,619; 1355,551;    0,985;    0,591
1075,161; 1389,187;   -0,561;    1,500
1075,704; 1569,641;    0,258;    1,227
1076,246; 1387,369;    1,530;    0,682
1076,788; 1311,278;   -1,015;    1,773
1077,330; 1382,732;   -2,106;    2,136
1077,872; 1345,096;   -1,924;    0,955
1078,414; 1573,823;    3,712;    0,773
1078,956; 1300,096;    0,167;   -0,227
1079,498; 1545,005;    0,439;    0,318
1080,040; 1249,369;    0,985;   -1,318
1080,581; 1207,551;    0,621;   -0,318
1081,123; 1140,460;   -0,106;   -0,773
1081,665; 1192,732;    3,803;   -0,955
1082,206; 1456,005;    3,258;   -0,500
1082,748; 1341,369;    3,258;    2,045
1083,289; 1225,005;    0,167;    1,318
1083,831; 1127,732;    0,258;    0,227
1084,372; 1155,641;    0,894;    0,591
1084,913; 1143,460;    3,348;    0,864
1085,455; 1139,641;    1,530;   -2,045
1085,996; 1103,551;    0,530;    0,136
1086,537; 1117,187;    0,985;    0,864
1087,078; 1148,005;    0,439;   -2,136
1087,619; 1189,005;   -1,652;    0,227
1088,160; 1105,914;    1,439;    1,318
1088,701; 1091,460;   -0,742;    0,682
1089,242; 1043,551;   -0,561;   -2,227
1089,783; 1121,187;   -0,561;    1,409
1090,324; 1094,914;   -0,833;    0,682
1090,865;  976,823;   -1,924;   -0,409
1091,405;  954,005;   -0,561;    2,227
1091,946;  986,369;   -0,197;   -0,955
1092,487;  915,551;   -1,288;   -1,409
1093,027; 1057,460;    1,803;   -1,500
1093,568;  908,823;    2,258;    1,227
1094,108;  997,096;    0,621;    1,773
1094,649;  952,187;   -0,470;    0,136
1095,189;  901,460;    1,167;   -0,682
1095,729;  844,641;    0,712;    0,955
1096,269;  856,369;    1,258;   -0,955
1096,810; 1152,369;   -0,197;    0,500
1097,350;  980,460;   -0,561;   -0,773
1097,890;  894,278;    2,985;    1,227
1098,430; 1140,823;    4,985;    2,864
1098,970; 1022,096;    1,894;    1,682
1099,510;  900,096;   -0,833;   -2,318
1100,050;  807,732;    0,258;   -1,591
1100,589;  774,914;    0,076;   -0,318
1101,129;  891,187;    0,894;   -0,955
1101,669; 1032,914;    2,803;    2,136
1102,209;  863,096;    1,530;    2,227
1102,748;  814,460;    3,439;    0,955
1103,288;  791,551;    0,712;   -1,227
1103,827;  825,369;    3,530;   -2,227
1104,367;  713,460;    1,712;   -2,409
1104,906;  683,641;   -1,015;   -1,136
1105,445;  755,732;    0,985;   -1,136
1105,985;  705,732;   -0,652;    1,500
1106,524;  737,369;    1,530;   -0,682
1107,063;  714,641;    1,167;    1,409
1107,602;  692,187;    1,894;   -1,500
1108,141;  621,460;    1,621;    1,500
1108,680;  711,369;    3,985;   -0,591
1109,219;  648,369;    0,167;   -0,500
1109,758;  655,551;    4,167;    0,682
1110,297;  629,914;   -1,106;   -0,682
1110,836;  579,460;    1,439;    0,955
1111,375;  740,732;    0,348;    0,409
1111,913;  752,096;    0,985;    0,773
1112,452;  691,914;    0,894;    0,136
1112,991;  583,005;    1,076;    1,955
1113,529;  534,460;    0,167;   -0,045
1114,068;  606,005;    0,439;    2,955
1114,606;  501,551;   -0,561;   -0,955
1115,144;  652,187;    1,530;    1,045
1115,683;  591,096;    1,985;    0,318
1116,221;  645,369;    2,076;   -0,864
1116,759;  554,460;    1,621;   -0,864
1117,297;  741,369;    1,621;    1,864
1117,836;  559,551;    1,985;   -1,227
1118,374;  550,278;    0,258;   -0,682
1118,912;  516,823;    0,439;    2,682
1119,450;  502,187;    0,985;    0,864
1119,988;  536,460;    3,348;    2,136
1120,525;  987,278;    7,258;    3,318
1121,063;  690,460;    0,530;    1,864
1121,601;  508,278;    1,076;   -1,227
1122,139;  460,278;    1,076;   -2,045
1122,676;  653,460;   -1,652;    2,773
1123,214;  586,005;    0,712;    4,409
1123,751;  403,823;    0,621;    2,227
1124,289;  534,823;    0,894;   -0,409
1124,826;  408,732;   -0,379;    0,227
1125,364;  340,460;    0,712;   -0,955
1125,901;  511,460;    6,258;    1,227
1126,438;  614,732;    3,530;    0,955
1126,975;  359,369;    2,985;   -0,773
1127,513;  422,823;    2,621;    2,136
1128,050;  347,369;   -0,561;   -0,682
1128,587;  431,096;    1,348;   -0,227
1129,124;  469,369;   -0,015;    1,318
1129,661;  350,278;   -1,924;    0,227
1130,198;  502,005;    2,439;    0,773
1130,734;  449,823;   -0,379;    1,409
1131,271;  321,823;   -1,197;    0,864
1131,808;  480,005;    1,621;    3,045
1132,345;  360,369;    4,530;    0,318
1132,881;  245,914;   -0,561;   -1,864
1133,418;  371,187;    0,348;   -1,136
1133,954;  303,369;    0,712;   -2,682
1134,491;  376,460;    1,712;   -0,773
1135,027;  287,460;    2,167;    0,864
1135,564;  366,732;    1,439;    2,955
1136,100;  344,278;   -0,742;    2,136
1136,636;  249,551;   -1,015;   -1,045
1137,172;  329,187;    0,894;   -1,045
1137,708;  262,187;   -1,561;   -1,045
1138,245;  267,914;    0,803;   -1,227
1138,781;  234,096;    1,803;   -3,318
1139,317;  285,914;    1,894;   -1,409
1139,852;  277,005;    3,076;    0,136
1140,388;  376,187;    2,076;   -0,409
1140,924;  266,460;    1,076;   -2,227
1141,460;  212,732;   -0,288;    0,136
1141,996;  157,551;   -0,652;    2,682
1142,531;  194,641;    1,076;    3,318
1143,067;  390,005;    1,167;    1,045
1143,602;  447,278;    3,439;   -0,318
1144,138;  297,641;    0,803;    1,045
1144,673;  184,187;    1,621;    1,409
1145,209;  251,823;    2,894;   -0,318
1145,744;  175,187;    0,803;    0,864
1146,279;  283,551;    1,530;   -0,136
1146,815;  212,278;    1,530;   -2,682
1147,350;  252,551;   -0,924;    0,045
1147,885;  174,278;   -1,924;   -1,318
1148,420;  175,732;    2,439;    0,773
1148,955;  162,823;   -1,470;    1,864
1149,490;  181,369;   -1,106;   -1,591
1150,025;  161,460;   -1,106;   -1,773
1150,560;  264,096;   -0,288;   -0,955
1151,094;  230,732;    0,258;   -0,591
1151,629;  235,278;   -3,742;    0,864
1152,164;  166,732;   -1,288;    1,318
1152,698;  135,460;    1,258;   -0,136
1153,233;   95,005;   -1,379;   -0,682
1153,767;  140,460;   -0,288;   -2,318
1154,302;  188,823;   -0,379;    1,773
1154,836;  190,641;    0,803;   -2,136
1155,371;  230,732;    2,258;    3,682
1155,905;  189,460;    1,985;    1,682
1156,439;  164,096;    0,530;   -0,500
1156,973;  190,914;    0,439;    0,318
1157,507;  134,096;   -1,742;    0,682
1158,042;  151,823;   -0,652;    1,045
1158,576;  186,551;   -0,561;    1,773
1159,110;  190,278;    0,076;    2,409
1159,643;  164,187;   -2,470;   -0,045
1160,177;  102,732;   -2,015;    1,500

