
Integration time [ms]:   0,050
Averaging Nr. [scans]: 11
Smoothing Nr. [pixels]: 0
Data measured with spectrometer [name]: 7318044SP
Wave   ;Sample   ;Dark     ;Reference
[nm]   ;[counts] ;[counts] ;[counts] 

186,757;  -29,194;   38,161;    1,318
187,357;   -5,235;   26,706;    0,955
187,958;  -25,503;   17,252;   -1,591
188,558;   14,150;   12,979;   -1,227
189,159;   -7,025;   10,070;   -4,500
189,759;  -28,795;    5,797;   -3,591
190,360;  -28,327;    6,797;   -2,136
190,960;   -8,390;    5,706;   -4,136
191,560;   -6,740;    2,614;   -6,591
192,161;  176,723;    5,885;   -3,500
192,761;   53,720;    5,520;   -3,227
193,361;   11,755;    3,065;   -3,773
193,962;   39,559;    1,612;   -2,682
194,562;  -12,707;   -0,114;   -3,955
195,162;    1,224;   -0,567;   -2,227
195,762;  102,817;    2,433;   -0,045
196,362;   58,476;    1,706;   -2,500
196,963;   -8,329;    1,706;   -0,864
197,563;   20,342;    1,252;   -0,955
198,163;  -11,566;   -0,111;   -0,682
198,763;    1,852;   -0,020;   -0,500
199,363;   40,847;    3,616;   -0,500
199,963;    5,060;    2,162;    0,409
200,563;    4,307;    6,344;   -1,409
201,163;  -14,144;    5,435;   -0,227
201,763;   19,990;    1,435;    0,318
202,363;  -17,231;    0,980;    1,500
202,963;   16,624;    1,526;    1,045
203,563;   64,826;    0,344;    0,500
204,162;    8,137;    1,889;   -1,864
204,762;    2,727;    2,071;    0,591
205,362;  -15,468;    0,708;    1,955
205,962;    5,574;    3,435;    1,955
206,562;    6,935;    1,889;    2,318
207,161;   -7,657;    1,708;    0,318
207,761;   57,059;    4,435;    2,409
208,361;   -0,480;    1,889;    1,409
208,960;    9,227;    2,889;    1,500
209,560;   16,482;    0,435;    1,591
210,160;   29,531;    5,071;    1,864
210,759;    1,834;    0,708;    1,227
211,359;   -9,103;   -0,474;    1,045
211,958;   82,014;    3,526;    2,045
212,558;   76,867;    0,799;    1,864
213,157;   20,990;   -0,929;    1,500
213,757;  149,772;    5,617;   -0,227
214,356;   46,381;    1,708;   -0,409
214,956;  128,346;    3,526;    0,409
215,555;   33,911;    0,617;    2,136
216,154;    2,126;   -0,292;   -0,591
216,754;    1,198;    1,253;    0,773
217,353;   13,874;   -0,383;   -1,045
217,952;  -20,287;    2,072;    0,318
218,552;   26,631;    0,254;   -0,773
219,151;   -3,767;   -1,110;    0,955
219,750;  -12,520;    0,890;   -0,227
220,349;  -17,991;   -2,292;    1,045
220,948;   32,051;    1,163;    1,136
221,548;   -9,153;    0,617;    1,227
222,147;    4,288;   -1,292;   -0,409
222,746;   66,477;    1,254;   -0,955
223,345;   17,070;   -1,019;    0,500
223,944;   18,220;    1,163;    0,773
224,543;   25,005;    4,072;   -1,409
225,142;    5,589;    1,345;    0,136
225,741;    8,798;    1,163;    1,045
226,340;    7,424;    1,254;   -0,955
226,939;   46,541;    2,708;   -0,136
227,538;   -0,288;    1,163;   -0,773
228,137;   55,705;    0,435;    0,864
228,735;   32,968;    0,435;    1,227
229,334;  -18,869;   -0,474;   -0,227
229,933;   60,035;    0,799;    0,591
230,532;   55,376;   -1,201;   -0,409
231,131;   88,333;    1,253;    0,318
231,729;   28,806;    1,163;   -2,318
232,328;    0,108;    0,435;   -1,500
232,927;   11,698;    4,526;   -0,500
233,525;    8,402;    0,981;    0,045
234,124;   19,706;    1,890;   -1,591
234,723;   -7,036;    1,617;   -1,045
235,321;  -13,827;    1,163;    0,136
235,920;   -0,185;    2,526;   -1,227
236,518;   56,115;    1,072;    0,318
237,117;   -5,904;    2,890;   -0,227
237,715;    5,925;    1,163;   -0,500
238,314;   22,404;    1,708;   -2,318
238,912;   68,529;    0,526;   -1,409
239,510;   31,127;    1,162;   -1,227
240,109;   66,746;   -0,474;    3,773
240,707;   45,942;   -0,474;    1,227
241,305;  -12,504;   -0,383;    0,136
241,904;   18,678;   -0,292;   -2,045
242,502;   76,343;    3,253;   -0,227
243,100;   29,543;    3,344;   -0,955
243,698;   -3,992;    2,799;    1,682
244,297;   15,413;   -0,656;    0,682
244,895;   15,699;   -0,474;   -2,318
245,493;   67,397;    2,981;   -0,591
246,091;   70,326;    5,163;   -1,318
246,689;   33,589;    2,163;    0,591
247,287;   31,819;   -0,019;   -1,136
247,885;   14,463;   -1,019;    1,227
248,483;    0,048;   -0,201;   -0,500
249,081;   32,791;    0,981;    1,591
249,679;   37,423;   -1,019;    1,682
250,277;   -3,967;   -2,292;    0,864
250,875;   36,007;    0,617;   -1,045
251,473;    3,866;   -0,019;    0,500
252,071;   37,139;   -0,383;    1,045
252,669;    2,038;   -1,565;    0,318
253,267;   -5,731;    1,618;    0,773
253,864;    6,637;    0,617;    0,682
254,462;   47,616;    1,526;    1,591
255,060;   -3,522;    0,072;    1,318
255,658;   -5,962;   -3,292;   -0,136
256,255;    4,809;   -0,201;   -2,045
256,853;   23,736;    2,345;    1,409
257,451;   -1,440;    1,981;    1,864
258,048;  151,331;    2,072;    1,864
258,646;   57,698;    0,436;   -1,045
259,243;   94,099;    2,981;    2,227
259,841;   39,923;    1,799;    0,318
260,438;   -4,198;    0,254;    0,864
261,036;   29,638;    0,617;    1,409
261,633;   -0,580;    1,526;    2,227
262,231;   -4,775;   -0,110;   -0,045
262,828;   -8,883;   -0,383;    1,136
263,425;  -10,325;   -1,928;   -0,591
264,023;   -4,249;    1,436;    0,045
264,620;   35,770;    1,526;   -0,318
265,217;   71,684;    2,890;    3,136
265,815;   11,045;    2,527;    2,136
266,412;   27,794;    0,072;    0,136
267,009;   20,187;    0,526;    0,773
267,606;   53,425;    0,345;   -0,955
268,203;    0,982;   -0,383;   -0,591
268,801;    7,244;   -0,474;    0,591
269,398;   -5,748;   -0,564;    2,500
269,995;   25,935;    0,890;    1,591
270,592;    2,346;    0,799;   -0,500
271,189;   -5,351;    1,981;    0,409
271,786;  -12,827;    2,072;    1,227
272,383;   30,657;   -0,383;    0,227
272,980;    4,718;    1,617;    0,318
273,577;   -1,768;    2,162;    1,227
274,174;   -7,605;    1,435;    2,591
274,771;   23,492;    1,890;   -0,773
275,367;  166,041;    3,253;    1,409
275,964;   73,222;   -0,565;   -0,500
276,561;   16,066;   -2,474;   -1,045
277,158;  -12,940;    1,799;   -1,773
277,755;   58,064;   -0,110;    0,409
278,351;   20,688;    0,436;   -1,500
278,948;   31,839;   -0,201;    0,045
279,545;   19,395;    0,527;    2,318
280,141;   60,431;    1,254;   -2,045
280,738;   70,564;    2,435;   -0,136
281,334;   13,525;   -0,383;    0,591
281,931;   -0,287;    2,890;   -1,318
282,528;   45,154;    4,072;   -0,500
283,124;   61,343;    3,345;   -0,500
283,721;   56,857;    0,709;    1,409
284,317;   19,153;    0,163;    2,500
284,913;   64,843;   -0,110;    0,591
285,510;  114,661;    2,890;   -0,318
286,106;   72,686;    2,345;   -0,955
286,703;   27,777;    0,072;    1,955
287,299;    4,196;    1,254;   -0,591
287,895;    2,076;    0,890;   -1,045
288,491;    2,888;    0,163;    2,136
289,088;   31,122;    0,163;    2,409
289,684;   28,583;    2,890;    1,500
290,280;   77,675;    1,890;    0,682
290,876;   53,272;    0,163;    5,500
291,472;   40,366;    2,163;    2,227
292,068;   53,796;    1,254;    0,227
292,665;   16,196;   -0,564;    0,773
293,261;   -2,423;   -1,292;    2,136
293,857;   45,111;    4,072;    2,136
294,453;   21,207;   -0,928;    0,955
295,049;   83,571;    0,253;    1,955
295,644;   34,712;   -1,292;    0,136
296,240;   -5,301;    0,162;   -0,136
296,836;   22,491;   -0,747;    0,318
297,432;   51,808;    2,980;   -0,500
298,028;   58,784;    0,435;    0,773
298,624;   18,428;    0,889;    1,864
299,220;   22,037;    0,435;    0,591
299,815;   17,581;    0,526;   -0,409
300,411;   51,571;    0,435;    1,773
301,007;   66,028;    1,889;    0,227
301,602;   13,567;    2,071;   -2,318
302,198;   66,297;    1,435;   -0,773
302,794;   27,611;    1,526;   -0,500
303,389;   -7,542;    1,071;    1,045
303,985;   10,725;    1,253;    1,409
304,580;   66,783;    0,889;    1,591
305,176;   27,083;    0,344;    0,136
305,771;  -25,980;   -0,929;   -1,227
306,367;  134,326;    3,071;    0,136
306,962;   45,203;    2,889;    1,500
307,558;   62,773;    2,435;    0,136
308,153;   50,183;   -0,383;   -1,136
308,748;    7,366;    0,162;    1,682
309,344;  129,904;    0,253;   -1,318
309,939;  108,034;    2,071;   -1,318
310,534;   25,197;   -2,020;   -1,682
311,130;   16,988;   -0,656;   -2,500
311,725;    9,882;    0,526;   -0,500
312,320;   19,189;    1,253;    0,045
312,915;   47,933;    2,890;   -1,045
313,510;  131,561;    0,526;   -0,500
314,105;   33,430;   -3,565;    1,409
314,700;   -3,131;   -1,656;   -1,045
315,295;    9,056;   -0,020;    0,045
315,890;   -8,816;   -0,292;    0,864
316,485;   30,719;    0,253;   -0,318
317,080;   -3,414;   -0,929;    1,591
317,675;  112,471;    3,071;   -0,682
318,270;  214,163;    6,889;    3,318
318,865;  138,517;    2,435;    3,045
319,460;   72,715;   -1,565;    0,591
320,055;   15,671;   -2,565;   -1,227
320,650;    9,590;   -1,838;   -0,591
321,244;    8,900;    0,889;   -1,409
321,839;   15,898;    0,980;   -0,227
322,434;   29,098;   -0,111;   -1,591
323,029;    1,607;   -0,474;    1,591
323,623;    4,457;    0,798;    0,773
324,218;   76,450;    2,707;    1,409
324,812;   45,711;    0,889;    1,591
325,407;   25,534;   -0,929;    2,045
326,002;   98,428;    0,526;   -0,409
326,596;   68,477;   -0,656;    1,318
327,191;    5,199;   -0,383;   -1,045
327,785;   12,659;   -0,747;   -0,227
328,379;   11,142;   -0,383;    0,136
328,974;   14,448;    1,798;   -3,955
329,568;   33,664;    2,889;   -2,409
330,163;   73,387;    2,435;    1,045
330,757;   10,350;    0,253;    1,591
331,351;  -10,448;   -0,292;    0,682
331,945;  -12,398;   -0,383;    1,409
332,540;   40,289;    1,617;   -0,591
333,134;   30,881;    3,344;    0,773
333,728;   43,255;    2,799;    0,318
334,322;    4,974;    0,889;   -0,864
334,916;    4,134;    0,344;    0,955
335,510;   63,748;   -0,111;   -0,136
336,105;   53,381;   -0,929;    1,591
336,699;    8,954;   -1,292;    0,591
337,293;   37,536;    1,071;    0,318
337,887;   26,041;    0,071;    1,955
338,481;   81,040;    2,980;    0,591
339,074;  142,397;    2,071;    2,682
339,668;  137,134;   -0,110;    1,227
340,262;  475,833;    7,708;    3,227
340,856;  240,195;    1,708;   -0,682
341,450;   80,974;    0,708;    1,864
342,044;  128,718;    1,799;    0,136
342,637;  204,473;    1,162;   -2,136
343,231;  177,354;   -1,474;    0,682
343,825;  151,126;   -0,747;   -0,591
344,419;  158,113;   -0,474;    0,500
345,012;  568,061;    2,889;    4,045
345,606;  426,516;   -0,656;    1,591
346,199;  211,790;   -0,111;   -0,227
346,793;  326,982;    2,525;    2,045
347,386;  195,669;    0,889;   -1,136
347,980;  135,993;   -0,838;   -0,045
348,573;  231,807;   -1,748;    0,409
349,167;  498,512;    6,161;    4,773
349,760;  397,656;    2,252;    2,682
350,354;  378,789;    1,616;    1,136
350,947;  425,840;    2,798;    1,682
351,540;  325,127;    0,616;   -1,409
352,134;  228,235;   -1,111;    1,136
352,727;  256,491;   -0,657;    1,136
353,320;  288,770;    2,343;    0,591
353,913;  231,769;   -1,929;    1,864
354,507;  432,181;    0,434;   -1,227
355,100;  319,942;    0,071;    0,864
355,693;  705,591;    4,798;    2,409
356,286;  483,225;    0,980;    2,773
356,879;  340,675;   -0,475;    1,227
357,472;  338,918;    0,980;    1,500
358,065;  380,915;    3,161;    2,500
358,658;  245,302;    0,798;    2,318
359,251;  217,230;    0,252;   -0,591
359,844;  379,341;    0,343;   -1,136
360,437;  459,018;    0,252;    0,045
361,030;  298,287;    0,525;   -0,682
361,623;  290,792;    0,434;    0,318
362,215;  509,466;    0,979;    2,045
362,808;  357,068;   -2,293;   -1,682
363,401;  274,319;    0,798;    0,136
363,994;  478,564;    3,252;   -1,500
364,586;  288,868;    0,888;   -1,500
365,179;  235,276;   -0,203;   -1,136
365,772;  114,342;   -0,930;    2,045
366,364;  228,950;    1,524;   -3,227
366,957;  278,332;    1,342;   -0,045
367,549;  234,524;   -0,203;   -0,864
368,142;  244,560;    0,978;   -1,500
368,734;  198,210;    2,523;   -2,136
369,327;  137,848;    2,341;   -0,500
369,919;  168,956;   -1,659;    0,409
370,512;  177,807;   -1,023;   -0,500
371,104;  408,777;    2,704;    1,591
371,696;  428,479;    1,703;   -0,955
372,289;  293,849;    0,157;    1,136
372,881;  244,653;    1,156;    1,318
373,473;  138,044;    4,064;    1,136
374,066;  221,303;    1,336;    0,500
374,658;  186,778;    0,879;    1,136
375,250;  117,265;   -1,668;   -1,409
375,842;  149,933;   -0,124;   -0,045
376,434;   97,878;   -2,762;   -0,409
377,026;   97,083;   -1,855;   -2,500
377,618;  128,699;    0,779;   -0,682
378,210;   48,863;    3,141;   -1,955
378,802;   38,685;    3,412;   -0,591
379,394;  435,204;    3,411;    0,682
379,986;  189,787;    1,138;   -0,955
380,578;   90,306;    1,410;    0,773
381,170;  343,350;    0,320;    0,045
381,762;  235,118;   -0,224;    1,409
382,354;  211,299;   -0,223;   -1,318
382,945;  118,086;    0,870;    0,318
383,537;   82,303;    1,144;   -1,955
384,129;   97,566;    0,963;   -1,136
384,721;  207,891;    0,418;    0,955
385,312;  137,840;   -1,399;   -0,955
385,904;  222,067;   -0,945;    1,591
386,496;  132,290;    0,691;    1,045
387,087;  263,621;    0,418;    2,500
387,679;  196,346;   -0,401;    0,045
388,270;  171,492;   -2,401;    2,045
388,862;  137,131;   -0,401;   -0,318
389,453;  116,400;    1,054;    1,045
390,045;  131,640;    3,236;   -2,682
390,636;   20,532;    0,144;   -0,591
391,227;   82,854;    2,054;   -0,045
391,819;   66,561;    0,781;    0,773
392,410;  333,028;    0,600;    0,045
393,001;  139,825;    1,600;   -1,591
393,593;  194,637;    0,600;   -0,045
394,184;  241,390;    0,873;   -0,409
394,775;  111,342;    1,146;    2,136
395,366;   45,240;    1,782;    0,773
395,957;  214,898;   -2,400;    0,136
396,548;  111,509;    1,054;    2,682
397,139;  222,766;    2,236;    0,591
397,730;  139,187;    0,873;    0,955
398,321;  154,778;    0,509;    0,955
398,912;   99,797;   -0,764;    0,136
399,503;   98,357;   -1,945;   -1,409
400,094;  141,360;   -1,582;    1,682
400,685;  130,956;    3,600;    0,045
401,276;   66,698;   -0,400;   -0,955
401,867;   46,151;   -1,127;    0,773
402,458;   11,828;    1,509;   -2,318
403,048;  156,308;    0,146;    0,591
403,639;   93,651;    1,509;    0,864
404,230;  204,361;    0,691;    0,318
404,821;  259,357;   -0,127;    0,045
405,411;  163,197;   -0,763;   -2,591
406,002;   69,906;    3,237;   -1,136
406,592;  289,689;    2,691;    0,045
407,183;  151,490;    0,328;   -1,500
407,774;  125,060;    1,419;   -0,136
408,364;   79,941;    2,600;    0,409
408,954;  190,739;   -0,036;    1,227
409,545;  185,802;    1,873;    1,045
410,135;  134,522;   -1,581;    0,500
410,726;   77,120;    0,783;    0,318
411,316;  242,564;    2,237;    0,773
411,906;   94,897;    0,146;   -0,409
412,497;   95,488;   -0,490;   -0,045
413,087;   44,393;    0,783;   -0,227
413,677;  -17,028;   -2,490;    3,864
414,267;  -26,099;   -1,035;    1,409
414,857;  -51,952;    0,419;    4,227
415,448;  -45,618;   -0,763;    0,500
416,038;  -25,446;   -2,945;   -0,591
416,628;    5,307;    0,965;    0,409
417,218;   53,952;   -1,762;    3,318
417,808;  189,100;    0,965;   -0,409
418,398;   73,143;   -1,035;    2,682
418,988;  -24,934;   -2,217;    0,591
419,578;   53,995;    3,601;    1,409
420,168;   -9,721;    0,692;   -0,955
420,757;  104,780;    0,964;   -1,500
421,347;   14,820;    1,601;   -0,227
421,937;  -15,266;    3,329;    1,409
422,527;   96,403;    2,602;   -0,773
423,116;  212,894;    2,692;   -0,045
423,706;  -14,380;    2,965;    0,318
424,296;  -56,944;    1,601;    0,682
424,885;   52,783;    1,510;   -3,045
425,475;   18,198;    1,147;   -2,864
426,065;  -61,788;   -1,489;   -0,318
426,654;  -72,059;    0,329;   -0,318
427,244;  141,087;    1,147;    1,409
427,833;  102,930;    1,056;   -0,500
428,423;   -2,833;    0,147;    1,136
429,012;    6,604;    2,420;   -1,136
429,601;  110,316;    2,057;    0,136
430,191;   16,739;    2,511;    4,318
430,780;  -66,121;   -1,671;   -0,409
431,369;   95,689;    1,329;   -0,045
431,959;    6,134;    1,693;    0,500
432,548;  -49,350;   -1,398;   -0,045
433,137;  -92,781;    0,329;   -1,318
433,726;  -31,958;    0,148;    0,500
434,315;  -13,360;    0,148;    2,409
434,905;   78,143;    0,693;    1,409
435,494;   67,714;    3,148;    0,955
436,083;  -38,762;    1,420;   -0,955
436,672;   41,534;    1,148;    0,500
437,261;   -7,837;    0,512;   -1,955
437,850;  179,035;   -1,125;    0,682
438,439;  235,262;    2,239;    1,955
439,027;  343,246;    3,421;    1,773
439,616;  259,379;    2,239;    1,227
440,205;   63,620;    0,057;   -2,136
440,794;   25,153;   -0,306;   -0,045
441,383;  -31,007;    1,603;   -0,591
441,971;  -58,317;   -0,306;    0,591
442,560;  -45,602;    0,603;   -1,773
443,149; -128,258;    3,060;   -1,318
443,737;  -93,575;    0,968;   -2,318
444,326;  -63,210;    0,331;    0,318
444,915;  -23,860;   -1,851;    0,864
445,503;  -24,510;    0,058;   -0,318
446,092;  219,566;    7,876;    2,136
446,680;  159,072;    1,876;    0,318
447,269;   69,397;   -1,487;   -0,318
447,857;   52,132;    2,240;   -1,773
448,445;   11,504;    2,149;    1,318
449,034;  -34,792;    0,876;   -1,136
449,622;  -27,692;    1,240;    3,500
450,210;  214,898;    3,149;    2,227
450,799;  138,782;    2,604;   -0,591
451,387;  101,437;    1,786;   -0,591
451,975;   84,969;   -1,305;    0,864
452,563;  147,856;    0,422;    2,318
453,151;    0,131;   -1,032;   -1,227
453,739;   39,032;   -1,577;    0,136
454,328;  135,330;    0,604;   -2,136
454,916;   75,060;    1,150;   -0,136
455,504;   91,042;    3,513;    1,227
456,092;   -9,138;    2,150;   -1,591
456,679;  -38,780;    0,604;    0,682
457,267;  348,592;    3,604;    1,045
457,855;   54,581;    3,241;    1,409
458,443;  -70,282;   -0,304;    1,682
459,031;   54,666;    1,332;    2,409
459,619;   18,964;   -3,577;    2,864
460,206;  -50,735;   -0,759;    2,045
460,794;  -58,933;   -0,668;   -0,227
461,382;  -11,706;    0,878;   -0,864
461,970;  -11,500;    0,605;    1,864
462,557;  -68,758;    0,878;   -0,682
463,145;   30,741;   -0,304;   -1,682
463,732;  240,135;    2,514;   -1,045
464,320;   52,032;    1,514;   -3,045
464,907;  162,368;    0,423;   -0,773
465,495;   82,790;    2,696;   -1,227
466,082;   19,856;    2,060;   -0,045
466,670;   43,075;    2,605;    1,227
467,257;  -54,466;    0,060;    2,045
467,844;   31,289;    1,514;    0,045
468,432;   10,542;   -0,031;    3,500
469,019;  -22,135;    1,606;   -1,773
469,606;   62,407;    0,969;    3,682
470,193;   82,715;    2,151;    0,227
470,780;   35,043;    0,333;    0,864
471,368;  -19,207;   -1,212;   -0,773
471,955;   73,798;    1,060;   -0,682
472,542;   32,987;   -0,303;   -1,136
473,129;  -58,269;   -0,485;    0,136
473,716;  -45,006;    0,060;    0,591
474,303;  -23,714;    1,333;   -0,864
474,890;  -15,598;    2,333;   -0,500
475,477;   74,946;   -0,576;    0,409
476,064;  -11,779;    0,697;   -1,591
476,650;   97,520;    2,152;    0,318
477,237;   10,883;    1,879;    0,955
477,824;   -6,844;    3,879;    0,864
478,411;  -79,610;    0,606;   -0,318
478,997;  -81,664;    0,606;   -0,773
479,584; -125,595;   -0,666;   -0,409
480,171;   27,018;    1,243;   -0,773
480,757;   72,217;   -0,848;    0,773
481,344;  -14,632;    0,334;    0,409
481,931;  -84,989;   -0,393;    1,045
482,517;   15,871;    0,425;    0,318
483,104;   91,008;    1,334;    2,864
483,690;  -24,055;    0,243;    0,045
484,276;  -37,631;    0,698;    0,227
484,863;  146,882;    2,152;    1,136
485,449;    7,267;    0,152;    0,318
486,035;  -33,207;   -0,666;   -0,136
486,622;   42,049;   -2,393;    0,045
487,208;  -20,125;    1,334;    1,500
487,794;  -87,093;    0,971;    0,318
488,380;  -79,472;    0,698;   -1,409
488,967;  -81,102;   -1,120;   -0,409
489,553;  -66,493;   -1,029;   -1,409
490,139;    0,674;    0,971;    0,773
490,725;  -57,551;    0,789;   -0,227
491,311;  -25,086;    1,516;    3,045
491,897;  -45,785;   -0,665;    1,500
492,483;  -35,403;    0,426;    1,227
493,069;  371,674;    5,426;    0,864
493,655;  112,160;    1,789;    0,682
494,241;  -10,921;    1,517;   -0,955
494,826;    4,952;    0,335;   -1,045
495,412;   49,077;    0,335;   -0,682
495,998;  -20,894;    0,971;   -0,318
496,584;   22,743;    2,244;    1,045
497,169;   40,632;    2,335;   -0,682
497,755;  -19,606;    1,244;    1,227
498,341;   95,441;    2,153;    0,318
498,926;  208,832;    2,881;    1,955
499,512;  -14,204;   -0,028;    2,955
500,097;  -25,890;   -0,574;   -0,318
500,683;   -8,004;   -0,028;    2,136
501,268;  -43,860;    1,881;   -0,955
501,854;  -19,962;   -0,119;    1,227
502,439;  -26,151;   -0,573;   -1,773
503,024;  -18,920;    1,608;    0,500
503,610;    5,267;    1,335;   -0,682
504,195;  -35,504;    1,245;    1,955
504,780;   44,541;    2,335;    1,227
505,366;  114,211;    4,063;    2,864
505,951;   53,325;   -1,119;    1,045
506,536;  -15,607;    1,427;   -3,682
507,121;   22,312;    1,699;   -0,318
507,706;  -13,295;   -0,392;    1,045
508,291;  -45,574;   -2,937;    1,136
508,876;  -44,019;   -0,482;    2,591
509,461;  -13,218;    1,427;   -0,773
510,046;   30,050;   -0,391;    0,318
510,631;   33,798;   -0,119;   -0,773
511,216;  -37,739;   -0,664;   -0,500
511,801;    9,570;   -0,755;    2,591
512,386;   29,749;    0,972;    0,500
512,971;   39,742;    0,427;    0,955
513,555;   70,165;    1,154;   -1,500
514,140;   35,719;    1,336;   -3,136
514,725;  142,444;    1,791;   -1,136
515,309;   64,205;    1,064;    0,318
515,894;   -3,293;   -0,300;   -2,227
516,479;   44,529;    1,973;   -0,955
517,063;   53,990;    0,882;    1,227
517,648;   25,391;    0,155;   -1,136
518,232;   21,889;   -1,300;   -1,409
518,817;  140,784;    1,337;    1,682
519,401;  301,239;    0,700;    0,591
519,985;  303,436;    2,700;    1,136
520,570;  207,458;   -0,118;   -1,955
521,154;  404,557;    0,064;    0,591
521,738;  708,550;    1,064;    2,409
522,323;  630,864;   -0,390;    1,682
522,907;  715,761;    2,428;   -0,136
523,491;  748,153;    1,155;    0,955
524,075;  848,775;    0,428;    0,591
524,659; 1257,920;    0,973;    0,591
525,243; 1320,082;    0,883;    0,409
525,827; 1522,478;    0,883;   -0,045
526,411; 1967,193;    1,155;   -0,136
526,995; 2514,254;    0,337;    1,409
527,579; 2754,423;    1,974;   -1,045
528,163; 3197,881;    0,428;   -1,500
528,747; 3730,379;    1,065;   -0,773
529,331; 4258,638;    0,883;   -1,409
529,915; 4698,661;    2,338;    0,955
530,499; 5208,082;    0,247;    1,227
531,082; 5552,495;    1,065;    1,591
531,666; 5753,434;    0,520;    0,773
532,250; 6682,637;    0,428;    2,682
532,833; 7388,716;    0,610;    2,773
533,417; 7806,041;    1,247;    0,864
534,001; 8212,982;    0,429;   -0,318
534,584; 9261,488;    1,974;    0,500
535,168; 9581,832;    3,247;    1,409
535,751;10101,295;    4,520;    0,045
536,334; 9991,107;    4,520;   -0,409
536,918;10999,112;    1,974;    1,591
537,501;11433,972;    1,520;    1,318
538,085;11758,402;    1,702;    1,045
538,668;12214,661;    0,883;    2,409
539,251;12908,101;    3,156;    3,773
539,834;13261,881;    0,156;    0,773
540,418;13481,362;    3,247;    4,318
541,001;13841,343;    2,702;    1,773
541,584;14104,937;    1,429;    2,227
542,167;14016,706;    0,702;    2,955
542,750;14358,006;    0,793;   -0,773
543,333;14151,104;    1,429;    2,136
543,916;15136,838;   -0,298;    2,500
544,499;15925,808;    2,520;    0,227
545,082;16141,076;    0,248;    3,591
545,665;16433,761;   -0,207;    1,500
546,248;16897,104;    0,520;   -0,318
546,830;16669,841;   -1,752;    1,955
547,413;17260,208;    0,157;   -0,773
547,996;17899,570;    0,157;    0,500
548,579;17772,153;   -0,843;    0,955
549,161;17714,875;    0,884;    2,682
549,744;17590,730;    0,612;    0,409
550,326;18184,294;    0,885;   -1,136
550,909;18015,393;    2,339;    0,591
551,492;18541,055;    0,521;    0,227
552,074;18400,957;   -0,024;   -1,318
552,657;19020,115;    2,430;    0,045
553,239;18856,708;   -3,024;   -0,773
553,821;18865,246;   -1,570;    1,045
554,404;18396,799;   -0,024;    1,136
554,986;18788,095;    2,248;    1,045
555,568;19506,779;    0,430;   -0,955
556,151;18712,855;    4,067;   -0,227
556,733;18969,866;   -1,388;   -0,864
557,315;19507,624;    4,703;    0,500
557,897;19310,007;    0,521;   -0,500
558,479;19515,696;    1,703;    1,318
559,061;19697,071;    1,067;   -0,864
559,643;20074,178;   -0,297;    0,045
560,225;20454,774;   -0,388;    2,864
560,807;20546,178;    0,340;    0,318
561,389;20060,565;   -1,206;    2,318
561,971;20802,107;   -0,660;    2,136
562,553;20628,569;    0,613;    1,591
563,135;20802,665;    1,249;    1,136
563,717;20414,167;    3,158;    1,136
564,298;21198,295;    3,976;   -0,045
564,880;20899,579;    0,340;   -1,409
565,462;21088,215;    1,977;    1,318
566,043;22301,845;   -0,933;    2,318
566,625;21833,108;    4,067;    1,227
567,207;21704,279;    0,704;    1,682
567,788;22889,417;   -0,114;    1,500
568,370;23778,711;   -1,841;   -0,500
568,951;23588,450;   -0,569;    0,227
569,533;24545,117;    0,977;   -0,500
570,114;25086,145;   -0,296;    0,682
570,695;25589,242;   -0,478;   -1,318
571,277;26103,538;   -0,205;   -1,682
571,858;26895,113;    2,704;   -1,136
572,439;27859,502;    0,795;   -1,045
573,021;28027,492;    0,432;   -2,773
573,602;28595,551;    1,795;    0,318
574,183;29548,186;   -0,114;    2,227
574,764;29728,306;    2,068;    0,409
575,345;30329,501;    0,250;   -0,136
575,926;30939,628;    2,704;    0,136
576,507;31015,905;    2,704;   -0,227
577,088;32157,871;    1,704;    1,682
577,669;32178,564;    1,704;    1,955
578,250;32993,641;   -0,750;   -1,045
578,831;33691,748;   -0,841;   -2,227
579,412;34030,822;   -1,205;    0,955
579,993;34958,453;    1,432;    0,227
580,573;35308,769;   -0,023;   -0,955
581,154;34268,879;    1,613;   -0,591
581,735;35145,430;    0,341;    0,773
582,315;34617,975;    0,523;    2,136
582,896;34970,033;   -1,750;    1,227
583,477;34435,806;    0,614;    1,227
584,057;34695,511;    1,159;    0,955
584,638;34974,726;   -2,750;    2,318
585,218;34966,764;    2,886;    2,682
585,799;35157,813;    1,977;   -0,227
586,379;35145,326;    1,250;    1,591
586,959;33888,253;    2,613;    0,318
587,540;33203,892;    0,432;    2,227
588,120;32673,372;   -1,113;   -0,045
588,700;31601,551;    2,977;    2,136
589,281;31981,611;    1,250;   -0,955
589,861;31876,338;   -0,296;   -1,682
590,441;31687,357;   -1,477;   -2,682
591,021;30660,080;    1,432;   -2,591
591,601;30868,202;    0,431;    0,500
592,181;30915,016;   -1,296;   -0,773
592,761;30226,254;    2,250;    1,409
593,341;30167,846;    1,522;    0,045
593,921;30074,202;   -0,569;    1,591
594,501;29900,923;    1,250;    1,318
595,081;29776,307;    0,522;   -0,318
595,661;30154,196;    1,068;    0,955
596,240;30726,781;   -1,023;    0,136
596,820;30323,089;    2,613;    1,955
597,400;30511,292;    1,977;    0,773
597,980;30793,375;   -0,750;    1,045
598,559;30822,354;    0,341;   -0,227
599,139;30531,320;   -0,750;   -1,227
599,718;30418,411;    0,795;   -0,409
600,298;30719,297;   -2,387;    0,682
600,877;30945,676;    4,795;    1,409
601,457;31185,802;    0,340;    1,136
602,036;31130,556;    1,795;    2,045
602,616;31317,911;    2,250;    1,682
603,195;31626,429;    0,431;    3,500
603,774;31172,362;   -0,296;    2,045
604,354;31100,620;    2,522;   -0,500
604,933;30530,628;    0,250;    1,864
605,512;30706,160;    2,340;    0,591
606,091;30695,966;    1,886;    3,773
606,671;31557,142;    0,249;    0,773
607,250;30556,343;    1,431;    3,136
607,829;30853,216;    1,158;    3,227
608,408;30709,459;    4,613;    2,591
608,987;29732,074;    2,704;    3,409
609,566;30085,660;    0,341;   -2,500
610,145;30139,715;    2,885;    0,682
610,723;30629,241;    1,613;    6,864
611,302;29807,261;    1,067;    1,682
611,881;29271,701;    5,158;   11,227
612,460;30164,514;    0,795;    3,955
613,039;30583,358;    1,703;    2,045
613,617;29271,287;    0,886;    4,773
614,196;29452,638;    1,613;    1,227
614,775;29813,305;    1,249;    2,409
615,353;29768,895;   -1,660;    0,864
615,932;29429,981;    0,249;    2,409
616,510;30104,478;    0,158;    0,591
617,089;29559,521;    8,794;   17,591
617,667;29288,536;    4,885;    6,136
618,246;29162,637;   -1,115;    1,318
618,824;29356,460;    1,612;   -0,955
619,402;28908,924;    0,431;   -1,773
619,981;29367,710;    1,067;   -1,045
620,559;29251,955;    0,794;    1,682
621,137;28794,160;    3,067;    1,864
621,715;28726,322;    3,703;   -0,682
622,293;28662,390;    1,885;   -0,773
622,871;29214,806;    0,340;    0,500
623,450;28773,042;    0,430;   -0,864
624,028;28649,706;   -0,388;   -0,955
624,606;28214,180;    2,339;    1,682
625,183;28653,560;   -0,661;   -1,136
625,761;28220,187;    1,885;    1,136
626,339;28562,558;    2,339;    2,591
626,917;28947,442;    0,339;   -0,045
627,495;28988,413;    2,794;    1,318
628,073;28404,759;    5,248;    2,864
628,650;28114,226;    3,067;    2,136
629,228;28593,401;    1,248;    4,409
629,806;27919,063;   -0,024;    1,136
630,383;28198,959;    0,066;   -0,318
630,961;27943,551;   -2,206;   -0,955
631,539;27676,452;   -2,479;    0,227
632,116;26884,733;   12,703;   15,409
632,694;27580,887;    4,885;    6,500
633,271;27921,072;    1,975;    2,682
633,848;27827,386;    1,430;    2,045
634,426;27888,580;    1,521;    1,773
635,003;26974,932;   -0,207;   -0,409
635,580;27242,712;    1,884;    3,682
636,158;27870,944;    3,793;    1,227
636,735;27811,469;    3,339;   -0,500
637,312;27984,218;    0,521;   -0,682
637,889;28081,772;    2,248;   -0,682
638,466;27561,292;    0,066;   -0,409
639,043;27525,596;    1,702;   -1,136
639,620;27814,644;    0,611;   -0,955
640,197;28200,071;    1,612;    1,682
640,774;28343,868;    1,430;    1,136
641,351;28827,118;    0,612;    1,136
641,928;28229,369;    2,794;    1,409
642,505;27773,438;    0,794;   -0,500
643,082;27891,143;    1,885;    1,227
643,658;26858,303;    1,157;    1,500
644,235;27663,554;   -2,479;    2,500
644,812;27944,259;    1,794;    0,773
645,388;27716,782;    1,612;    1,409
645,965;27760,215;    1,521;    1,682
646,542;27848,466;    3,430;   -0,227
647,118;27827,080;    3,703;   -0,955
647,695;28164,058;    0,339;    1,136
648,271;28059,854;   -2,115;    0,500
648,848;28375,196;    0,248;    2,227
649,424;28176,901;    0,976;    1,318
650,000;27939,697;   -0,388;   -1,045
650,577;27809,584;    0,158;   -0,955
651,153;28280,290;   -1,115;    0,955
651,729;29242,359;    0,521;    0,864
652,305;29510,064;    1,339;    2,773
652,881;34070,496;   -1,297;    1,136
653,458;41188,474;    0,249;    0,227
654,034;45255,998;    0,703;    1,591
654,610;46856,976;    0,339;    0,773
655,186;48230,863;    1,612;    3,045
655,762;47990,932;   -1,842;    0,409
656,338;48045,637;    0,703;    0,136
656,913;49129,615;   -0,297;    0,409
657,489;48433,411;    0,249;   -0,318
658,065;48347,207;    0,794;   -1,591
658,641;48929,913;    2,158;   -0,864
659,217;48337,618;    2,067;    0,409
659,792;47666,596;   -1,751;   -0,409
660,368;48014,392;   -0,388;   -0,682
660,944;47743,734;    1,794;    1,227
661,519;43000,803;    0,522;    0,409
662,095;36526,781;   -0,206;    0,591
662,670;31511,304;   -0,206;   -0,136
663,246;30223,646;   -0,660;   -0,409
663,821;29514,351;    0,431;    1,682
664,396;29017,875;    0,613;    1,864
664,972;29316,853;   -0,660;   -0,500
665,547;29654,740;    3,794;    0,136
666,122;29677,809;    1,340;    0,318
666,698;29997,968;    2,431;    0,318
667,273;29288,946;    0,885;    0,136
667,848;30127,833;    0,340;    1,500
668,423;29926,084;    1,795;    2,318
668,998;30543,153;    0,976;   -0,682
669,573;31080,404;    2,067;   -1,500
670,148;30867,291;    1,885;   -0,682
670,723;30694,814;   -0,024;    0,318
671,298;31145,701;   -1,296;    1,045
671,873;31224,588;   -0,296;   -0,136
672,448;31203,566;    1,704;    0,136
673,023;31568,726;    0,249;   -0,227
673,597;31827,250;    2,704;    2,318
674,172;31640,591;    2,431;    0,318
674,747;31145,297;   -0,205;   -1,045
675,321;31084,638;   -0,933;    3,318
675,896;30535,162;    2,158;    1,045
676,471;31539,412;    2,522;    1,591
677,045;31265,390;   -0,296;    0,682
677,620;31346,732;    2,158;    1,136
678,194;31683,983;    0,249;    1,136
678,769;31176,870;    0,886;   -0,318
679,343;31372,393;   -0,023;    1,773
679,917;31299,371;    0,340;    1,955
680,492;31411,077;    0,249;    3,227
681,066;31543,146;    0,613;    0,409
681,640;31556,669;    1,795;   -0,318
682,214;32415,465;    2,340;    0,500
682,788;31881,079;    0,613;   -0,773
683,363;31847,057;    1,977;    1,682
683,937;31535,308;    0,886;   -0,318
684,511;32386,923;   -1,023;   -0,591
685,085;32044,901;   -1,478;    0,318
685,659;31812,788;    1,431;    0,864
686,232;31982,129;    1,159;   -0,318
686,806;31757,744;    2,159;    0,409
687,380;32431,358;   -1,932;    0,591
687,954;32677,427;    2,432;    1,136
688,528;32311,587;    2,613;    1,955
689,101;33147,837;    0,432;    1,045
689,675;32709,088;    0,886;   -0,136
690,249;32047,248;    3,432;    0,409
690,822;32338,771;    1,159;    0,318
691,396;32427,022;    2,068;    1,227
691,969;31876,273;    2,523;    0,136
692,543;32417,160;   -0,568;   -1,955
693,116;31990,683;   -0,659;   -1,409
693,690;31822,571;   -0,296;    0,500
694,263;32386,730;    2,341;    2,955
694,836;32412,527;    2,795;    3,591
695,410;30999,414;    1,159;    1,773
695,983;31513,846;    1,614;    0,591
696,556;31510,642;   -0,750;   -1,045
697,129;31886,711;   -1,114;    1,409
697,703;31511,235;    1,341;    1,955
698,276;31508,394;    1,705;   -0,773
698,849;31300,918;   -1,023;    1,409
699,422;31718,078;    1,250;    0,591
699,995;31327,056;   -0,659;    0,136
700,568;31856,488;   -0,204;    3,045
701,140;31864,921;   -1,841;    1,682
701,713;31552,990;    0,341;    2,409
702,286;31323,331;    0,796;    0,864
702,859;31242,400;    0,614;   -0,591
703,432;30345,015;   -0,841;    0,682
704,004;30899,174;    1,978;    0,318
704,577;30688,607;    1,068;    0,136
705,150;31303,312;    0,887;    2,500
705,722;31092,472;    1,523;   -3,227
706,295;30901,814;    1,432;   -0,591
706,867;30717,610;    0,250;    1,955
707,440;30885,679;   -0,113;   -0,409
708,012;31138,384;   -0,022;    0,591
708,584;31033,726;    2,705;    0,227
709,157;31402,249;    1,160;   -0,591
709,729;31081,773;    1,069;    2,045
710,301;31925,660;   -1,204;    0,045
710,874;31892,729;    0,341;   -0,227
711,446;30747,434;   -0,295;    0,864
712,018;30681,503;   -3,022;    0,500
712,590;30369,299;   -0,204;    1,682
713,162;30897,095;   -0,477;    1,318
713,734;31149,709;    1,796;   -2,045
714,306;31045,597;    0,342;   -0,409
714,878;29671,120;   -0,295;    0,864
715,450;30496,280;   -0,113;    0,864
716,022;30756,349;    2,433;    1,318
716,593;30919,872;    0,978;    0,591
717,165;30842,396;    1,796;   -1,227
717,737;30560,101;    0,796;    0,409
718,309;30282,352;    1,160;   -0,045
718,880;30166,148;   -1,295;   -1,409
719,452;30389,671;    0,887;   -1,591
720,024;29906,286;    1,705;   -0,591
720,595;30468,536;    2,978;    0,955
721,167;29999,333;    1,160;   -2,045
721,738;29530,038;    2,069;   -1,045
722,309;29434,016;    1,251;   -1,227
722,881;29194,176;    2,705;    0,773
723,452;29933,335;    1,251;    2,864
724,023;30113,313;    1,524;    2,682
724,595;29843,110;    2,342;    0,682
725,166;29554,542;    1,524;   -0,409
725,737;29201,066;    1,887;    0,227
726,308;29250,771;    0,797;    0,318
726,879;29666,476;    1,069;    1,227
727,450;29629,181;   -2,022;   -0,045
728,021;29539,159;    1,069;    0,682
728,592;29367,956;    1,160;    0,500
729,163;29696,297;    1,433;   -0,136
729,734;29644,912;    2,160;   -0,227
730,305;29968,708;    0,615;    0,136
730,876;30378,868;    0,888;    2,955
731,447;30048,118;    0,797;    2,682
732,017;30192,733;   -0,840;    1,864
732,588;29684,165;   -0,021;    1,227
733,159;29832,416;    3,615;   -1,045
733,729;29663,303;    1,251;    0,409
734,300;28888,372;    0,160;    0,864
734,870;29343,350;   -1,385;    0,591
735,441;29928,237;    0,888;   -0,591
736,011;29640,397;    1,070;   -1,591
736,582;29641,648;    1,251;    0,045
737,152;29075,626;    0,979;   -2,045
737,722;29569,149;    1,070;   -0,682
738,293;29265,854;   -2,021;    1,318
738,863;29127,105;    1,797;    2,318
739,433;28879,992;    4,524;    0,318
740,003;29574,697;    1,524;   -0,682
740,573;28933,494;    2,252;   -1,591
741,143;28920,653;    3,615;    0,318
741,713;29705,086;    0,252;   -0,500
742,283;29367,428;    1,706;    1,591
742,853;29097,405;    0,524;    1,591
743,423;28562,474;    0,161;    0,045
743,993;28699,543;    1,070;    1,500
744,563;28094,703;    2,524;   -0,864
745,133;28045,045;   -0,112;   -0,864
745,702;28757,659;    2,797;    1,773
746,272;27864,183;    0,434;    0,591
746,842;27623,070;   -0,748;   -0,591
747,411;28095,957;   -0,839;   -0,318
747,981;28290,662;   -0,930;    0,500
748,551;28314,913;   -0,021;   -1,045
749,120;28153,527;   -0,112;   -0,227
749,690;28557,414;    2,161;    2,409
750,259;28858,301;    0,979;    2,955
750,828;28767,552;    4,070;   -1,955
751,398;29025,530;   -0,112;   -0,045
751,967;28449,326;    2,888;    0,409
752,536;28696,577;    1,161;   -0,227
753,105;29157,828;   -1,384;    0,227
753,675;28940,260;   -0,112;    1,773
754,244;28884,875;    0,888;    3,591
754,813;28895,943;    0,979;    1,227
755,382;28507,921;    0,798;    0,955
755,951;29052,172;   -0,112;    3,682
756,520;28572,514;    2,525;    1,864
757,089;29158,855;    1,888;    0,500
757,658;29307,197;    2,434;    1,227
758,227;29277,266;   -1,111;    0,318
758,795;29628,153;   -1,021;    1,136
759,364;29920,676;    0,525;   -0,591
759,933;28858,745;    1,343;   -0,045
760,501;28354,360;    0,252;   -1,318
761,070;28789,065;   -0,293;   -1,409
761,639;29587,588;    1,434;    1,318
762,207;28783,294;    0,889;   -0,955
762,776;28793,363;    2,889;    0,864
763,344;28749,977;    0,071;    0,591
763,913;27902,955;    1,616;    1,409
764,481;28645,206;    1,980;   -0,136
765,049;28424,547;    0,616;    1,409
765,618;28287,889;    1,434;    0,318
766,186;28334,594;    2,434;    0,136
766,754;28510,936;    1,798;    1,864
767,322;27477,005;    1,162;    0,409
767,890;27518,074;    0,525;   -1,773
768,459;27927,234;    2,616;   -0,318
769,027;28096,302;    2,525;    3,409
769,595;27046,917;    2,616;    2,591
770,163;27467,622;    3,344;    2,955
770,730;27230,964;    2,525;   -0,136
771,298;27103,487;    1,162;   -1,409
771,866;27186,374;    0,253;    4,955
772,434;27451,080;    1,162;   -1,864
773,002;27614,967;    2,616;    0,682
773,569;27272,672;    1,071;    1,682
774,137;27127,104;    0,889;   -0,045
774,705;27939,173;   -0,747;   -0,136
775,272;27343,333;    0,253;    0,682
775,840;27117,766;   -0,111;    2,682
776,407;26624,016;   -0,293;    1,955
776,975;26230,085;    1,162;    0,318
777,542;27268,427;    2,162;   -0,045
778,110;27069,223;    0,707;   -0,045
778,677;26721,565;    1,071;   -0,864
779,244;26480,725;   -1,020;    1,045
779,812;26622,703;    0,980;    0,864
780,379;26409,953;    2,435;    1,136
780,946;26692,749;    2,617;   -0,773
781,513;27014,000;   -0,565;    0,318
782,080;26345,342;    1,253;    2,864
782,647;27065,502;    1,708;    3,045
783,214;26651,843;   -0,201;    3,864
783,781;26201,821;    1,708;   -0,682
784,348;26139,072;    0,253;    1,500
784,915;26604,505;   -1,474;    0,318
785,482;26353,301;    2,708;    2,591
786,049;26810,006;    1,071;   -0,591
786,615;27005,984;    1,708;   -0,955
787,182;26763,235;   -3,201;   -0,682
787,749;26391,304;   -2,201;    1,409
788,315;25655,645;    0,253;   -0,409
788,882;25931,350;    0,981;   -1,227
789,448;26610,056;    1,435;   -0,955
790,015;26649,852;    1,799;    3,227
790,581;26211,557;    0,708;    0,227
791,148;26135,990;    1,344;    1,045
791,714;26324,968;   -1,019;    3,136
792,280;25967,946;    3,708;    1,591
792,847;25488,378;   -0,928;    2,500
793,413;26121,265;   -0,110;   -0,318
793,979;25670,880;    1,526;   -1,318
794,545;25702,585;    2,981;    2,682
795,111;25074,472;    2,435;    1,318
795,678;25294,632;    3,526;   -1,682
796,244;24927,064;    2,799;    0,136
796,810;25471,588;    0,799;    0,773
797,375;25191,111;   -0,292;   -2,136
797,941;25213,635;   -1,110;    0,591
798,507;25357,431;    0,254;   -0,955
799,073;24906,954;    2,708;    0,591
799,639;24968,387;    1,435;    3,136
800,205;24972,638;   -1,565;    2,682
800,770;24462,979;    1,345;    1,773
801,336;24510,594;    2,981;   -0,955
801,901;24187,844;    6,072;    3,136
802,467;24825,822;    0,526;    2,045
803,033;24127,528;   -0,019;    0,864
803,598;24341,506;    1,072;   -1,045
804,163;24373,393;    0,708;   -0,318
804,729;24306,189;   -0,110;    1,136
805,294;24702,440;    1,072;    2,227
805,859;24547,327;    0,890;   -0,409
806,425;23967,577;    3,890;    2,682
806,990;23611,192;    1,890;    4,318
807,555;24187,170;   -0,110;    2,591
808,120;24060,421;   -1,292;   -0,409
808,685;24098,217;    1,072;   -2,500
809,250;23592,013;    2,072;   -0,500
809,815;23911,445;   -0,201;    0,682
810,380;24427,514;    0,981;    1,591
810,945;24909,220;    2,890;    2,045
811,510;24117,107;   -0,200;    1,591
812,075;23837,267;    2,800;   -1,409
812,640;23883,972;    3,709;    1,409
813,204;23920,132;    2,163;   -0,227
813,769;24423,837;    0,254;   -0,045
814,334;23800,997;    0,527;    0,864
814,898;23828,702;    1,981;    0,591
815,463;23678,680;    0,981;   -0,773
816,027;23720,840;    1,345;   -2,318
816,592;23803,363;    2,163;   -2,045
817,156;23248,887;   -2,200;    1,136
817,721;23067,865;    0,982;    2,318
818,285;23023,206;    0,618;    1,500
818,849;23716,457;   -0,018;    1,682
819,414;23599,708;    0,073;    2,955
819,978;23132,413;   -0,291;    1,773
820,542;23762,573;    2,891;    0,500
821,106;23480,187;    2,800;    0,682
821,670;23512,074;    2,709;    2,591
822,234;23261,598;    1,073;    1,409
822,798;22620,939;   -0,836;    0,500
823,362;22597,463;    1,527;    4,227
823,926;21841,714;   -0,018;    1,136
824,490;22093,146;    3,527;   -0,682
825,054;22603,397;    2,527;   -1,136
825,618;22146,920;   -1,200;   -1,500
826,181;22090,807;    0,982;   -1,318
826,745;21986,331;   -0,745;   -1,045
827,309;22326,400;    2,255;    1,318
827,872;21705,378;    0,527;    0,955
828,436;22736,356;    1,982;   -0,773
828,999;22794,425;    2,436;    1,227
829,563;21571,494;   -0,654;    1,136
830,126;21395,744;   -0,018;   -0,591
830,690;21395,540;    0,709;    2,864
831,253;20890,518;   -0,473;    2,227
831,816;21084,315;   -0,018;    0,500
832,380;20970,656;    1,164;    0,864
832,943;21150,362;    3,073;   -0,500
833,506;20660,885;    0,255;   -1,227
834,069;21485,863;    2,164;   -0,955
834,632;21527,477;   -2,200;    1,318
835,195;21417,910;    1,346;    0,955
835,758;20574,706;    0,709;    1,955
836,321;20371,139;    1,073;   -1,045
836,884;20514,207;   -1,291;   -0,955
837,447;20595,185;    0,528;    1,773
838,010;20830,891;    1,800;    3,227
838,573;21112,596;    0,528;    0,773
839,135;21084,938;   -0,109;   -0,955
839,698;20489,461;    2,528;    0,409
840,261;20009,530;    0,255;   -0,227
840,823;19908,690;   -0,927;    0,864
841,386;20212,395;   -0,018;   -2,409
841,948;20041,100;    0,255;    1,773
842,511;19736,351;    0,255;    1,682
843,073;19917,238;    2,982;    0,227
843,636;19726,125;    0,619;   -0,227
844,198;19611,012;    1,255;    0,591
844,760;19756,809;    0,619;    1,955
845,322;19397,332;    0,164;    1,136
845,885;19845,583;   -0,290;    0,591
846,447;20268,924;    0,710;    0,227
847,009;19772,539;    3,983;   -0,682
847,571;20141,608;    1,346;   -2,045
848,133;20225,040;   -0,199;   -1,864
848,695;20061,200;    2,346;    1,409
849,257;19595,814;    1,346;   -1,682
849,819;19807,701;    2,983;   -0,409
850,381;19856,952;    1,801;   -0,864
850,942;20205,294;    1,892;   -0,591
851,504;20094,635;    0,983;    0,227
852,066;20165,795;    1,619;   -1,591
852,628;19709,410;    0,165;    1,955
853,189;19215,024;    0,256;    2,682
853,751;19352,729;   -0,654;    1,409
854,312;19205,071;    1,256;   -1,682
854,874;19706,140;   -0,108;   -0,773
855,435;20216,481;    0,528;   -1,682
855,997;20358,914;    3,983;   -0,136
856,558;19577,892;    0,801;    1,773
857,119;19699,415;   -0,744;    2,864
857,681;19361,939;   -0,108;    0,318
858,242;19394,644;    1,347;   -2,136
858,803;19890,349;    1,074;   -0,773
859,364;20469,236;    0,892;   -4,773
859,925;19817,396;   -0,290;   -0,955
860,486;19699,920;    0,529;   -0,955
861,047;19454,807;    0,165;   -1,227
861,608;19196,058;    0,165;   -0,773
862,169;19321,217;   -0,562;   -0,045
862,730;19132,468;   -0,290;    1,409
863,291;19337,355;    0,438;   -0,500
863,852;19691,788;   -0,926;    1,955
864,412;19134,402;   -1,835;   -0,864
864,973;17659,835;    1,892;    0,500
865,534;17522,176;    2,074;    0,227
866,094;19074,791;    2,620;    0,227
866,655;18722,678;    4,711;    3,318
867,215;19052,201;    0,074;    0,136
867,776;18876,452;   -1,199;   -0,136
868,336;18927,884;    1,529;    0,136
868,897;18369,226;    3,438;    1,682
869,457;18165,477;    3,256;    0,318
870,017;18433,727;    2,438;   -1,227
870,578;18953,978;    1,893;    0,773
871,138;18590,411;    2,620;   -0,955
871,698;18151,207;   -0,562;   -1,318
872,258;17959,821;    0,711;   -2,864
872,818;18328,345;    2,347;    0,045
873,378;18259,595;   -2,198;    1,045
873,938;17843,301;    4,984;    0,500
874,498;18169,006;    1,256;   -1,955
875,058;18037,257;    4,347;    1,773
875,618;17891,962;    1,438;   -2,682
876,177;17865,031;   -0,471;    0,136
876,737;17416,191;   -0,289;    1,955
877,297;17386,896;    2,711;    1,955
877,856;17390,510;    2,529;    0,318
878,416;17328,852;    2,438;   -0,136
878,976;17581,012;    3,438;    0,409
879,535;17757,535;    4,529;    3,136
880,095;17460,059;    1,347;    0,045
880,654;17592,400;    0,347;    1,318
881,213;17658,651;    2,347;    1,500
881,773;17320,902;    1,984;    2,682
882,332;17687,971;    6,075;    5,136
882,891;17553,949;    0,711;    2,136
883,451;18015,745;   -2,016;    1,682
884,010;17459,632;   -1,107;   -0,409
884,569;17539,155;   -2,289;   -0,045
885,128;17645,770;   -0,743;   -1,864
885,687;17741,202;   -0,743;    0,682
886,246;17416,453;    2,620;    2,136
886,805;17166,158;    1,620;    2,045
887,364;17509,318;    1,166;   -0,500
887,922;17899,296;   -0,016;    0,045
888,481;17377,729;    1,530;    0,591
889,040;17709,070;    3,711;    2,136
889,599;18394,866;    2,166;    1,409
890,157;18481,117;    2,166;    2,409
890,716;18105,004;    2,166;    0,227
891,274;17919,437;    0,075;   -1,136
891,833;18371,688;    1,166;    0,864
892,391;18251,393;    1,802;    0,500
892,950;18313,462;    0,166;   -0,773
893,508;18641,440;    0,984;   -0,409
894,067;17974,236;   -0,379;    0,136
894,625;17940,850;   -1,016;   -1,500
895,183;18145,192;   -0,198;   -0,682
895,741;18051,352;    2,257;   -1,773
896,299;17882,693;    1,621;   -2,409
896,858;18079,126;    1,530;   -1,591
897,416;18168,740;    0,166;   -1,318
897,974;17878,900;   -2,197;    0,318
898,532;18067,878;    6,530;    2,682
899,089;17969,947;    0,621;   -0,682
899,647;18023,379;    0,530;    1,318
900,205;17722,721;    0,257;    1,045
900,763;17901,608;    2,166;    0,227
901,321;17934,313;    3,530;   -1,409
901,878;17359,928;    3,257;   -0,773
902,436;17192,542;    0,257;    1,318
902,994;17626,793;    6,712;    3,682
903,551;17057,498;    1,439;    0,409
904,109;17459,294;    1,530;   -1,409
904,666;17053,454;    1,439;    1,045
905,224;16800,523;    3,894;   -0,409
905,781;16522,319;   -0,470;   -0,318
906,338;16627,206;    0,167;    1,045
906,895;16568,821;    1,894;    2,045
907,453;16459,526;    2,348;    1,136
908,010;16487,140;    3,348;    0,409
908,567;16102,664;   -0,561;    0,591
909,124;15639,096;    2,439;   -1,500
909,681;15691,983;   -1,288;    0,682
910,238;15813,234;   -0,106;   -1,318
910,795;16170,758;   -1,561;   -1,136
911,352;15773,848;   -0,379;   -2,682
911,909;15202,848;    2,803;   -0,864
912,466;15701,485;    1,985;    1,500
913,022;15239,303;   -0,924;    0,500
913,579;15580,121;   -0,470;    2,045
914,136;15263,939;   -2,561;    0,955
914,692;15644,758;    1,530;   -1,227
915,249;15202,576;    0,530;    0,409
915,806;15423,848;    1,803;    1,955
916,362;15105,848;    0,894;    1,864
916,918;14655,667;    2,439;    1,045
917,475;14669,939;    1,621;    0,955
918,031;14776,394;    0,076;   -0,045
918,587;14191,576;    0,621;   -0,318
919,144;14414,848;   -0,379;    0,227
919,700;14755,303;    0,167;    0,773
920,256;14315,667;    0,439;    0,045
920,812;13923,848;    1,439;   -1,045
921,368;13916,576;    1,348;   -1,045
921,924;13548,848;    0,439;   -0,136
922,480;13089,576;    0,076;    1,227
923,036;13726,939;   -0,652;    1,955
923,592;13685,303;    0,621;    0,318
924,148;13581,485;    1,894;   -0,955
924,704;12904,485;    0,258;   -0,409
925,259;13189,576;   -0,561;    0,591
925,815;12928,485;    3,803;    0,500
926,371;12448,303;    3,530;    1,409
926,926;12300,758;    1,621;    0,591
927,482;11878,121;    1,621;    0,773
928,037;11752,485;   -0,833;    2,045
928,593;12045,758;    0,258;    1,045
929,148;11876,848;    1,167;   -1,500
929,704;11375,394;    2,439;   -0,500
930,259;11554,758;    0,894;   -0,136
930,814;10618,758;    1,803;    1,955
931,369;10322,303;    0,258;   -0,773
931,925;10200,303;   -1,924;    0,136
932,480;10063,848;    3,076;   -2,591
933,035; 9964,485;    3,985;   -0,318
933,590; 9732,667;   -1,742;   -1,773
934,145; 9337,030;   -1,288;   -0,318
934,700; 9695,212;    0,348;   -0,591
935,255; 9471,212;    4,803;    0,045
935,809; 8712,576;    6,258;    0,864
936,364; 7817,848;    2,167;   -0,136
936,919; 7783,485;    2,348;   -1,773
937,474; 7710,485;    1,348;    0,136
938,028; 7465,848;    3,076;    1,136
938,583; 6844,485;    6,348;    4,682
939,138; 7171,303;    0,167;    2,136
939,692; 6652,394;   -1,015;   -1,136
940,247; 6310,394;    1,167;   -1,045
940,801; 5802,667;    0,621;    0,227
941,355; 5725,212;    0,439;    2,591
941,910; 5386,121;    0,712;   -2,136
942,464; 5462,485;    2,712;   -0,318
943,018; 5227,667;    3,258;   -0,227
943,572; 5178,485;    2,803;   -0,682
944,126; 4556,576;   -0,924;   -0,409
944,681; 4437,121;    0,712;    0,227
945,235; 4439,303;    2,167;   -0,591
945,789; 4393,030;    1,258;   -1,864
946,342; 4433,121;   -0,561;   -0,591
946,896; 4268,394;    0,348;    0,955
947,450; 4028,212;   -0,561;   -0,227
948,004; 4192,667;    1,076;   -0,045
948,558; 4211,121;    1,258;   -0,864
949,111; 4131,485;   -1,197;   -0,318
949,665; 4162,939;   -0,106;   -0,682
950,219; 4024,667;    0,621;   -1,045
950,772; 4124,939;    0,258;    1,864
951,326; 4045,848;   -1,106;   -0,955
951,879; 4136,667;    1,076;   -2,318
952,433; 4161,212;    1,348;    2,227
952,986; 3981,576;    0,348;    0,682
953,539; 3918,121;    1,530;    0,591
954,093; 3871,394;    0,985;   -1,318
954,646; 4001,394;   -0,288;    1,318
955,199; 3817,939;    1,258;   -0,500
955,752; 3686,303;    1,985;    1,773
956,305; 3644,939;    0,894;    2,955
956,858; 3794,758;    0,621;   -0,318
957,411; 3986,303;    3,621;    2,136
957,964; 3804,303;    2,076;    2,136
958,517; 3809,485;    0,985;    3,136
959,070; 3656,939;   -1,197;    1,955
959,623; 3683,576;    1,076;    1,500
960,176; 3438,030;    0,712;    2,045
960,728; 3404,303;    1,712;    0,773
961,281; 3483,758;    2,258;    0,500
961,834; 3529,667;   -0,833;    0,864
962,386; 3458,394;    1,258;    1,045
962,939; 3370,576;    3,439;   -0,318
963,491; 3519,030;    2,621;    1,136
964,043; 3386,030;    0,076;    2,409
964,596; 3519,758;    1,712;    2,227
965,148; 3336,576;   -0,379;    1,773
965,700; 3284,121;   -0,015;   -0,227
966,253; 3432,121;   -0,833;    0,318
966,805; 3244,758;    1,894;    0,773
967,357; 3308,576;    0,439;   -1,500
967,909; 3243,030;    1,167;   -1,227
968,461; 3383,848;    0,894;    3,136
969,013; 3302,485;   -1,561;   -0,864
969,565; 3374,576;    1,803;   -1,136
970,117; 3424,848;    3,803;    1,045
970,669; 3280,121;    3,258;   -0,136
971,220; 3160,121;    2,167;   -1,500
971,772; 3054,667;    1,348;   -0,318
972,324; 3162,576;   -1,197;   -0,500
972,876; 3140,121;    0,167;   -0,045
973,427; 3247,758;   -1,197;   -1,045
973,979; 3223,758;    0,076;   -2,500
974,530; 3269,212;    0,803;    1,318
975,082; 3287,758;    2,167;    1,682
975,633; 3156,576;    2,894;    1,682
976,184; 3336,576;    2,076;    0,773
976,736; 3105,576;    0,348;    0,227
977,287; 2869,848;    0,258;   -0,500
977,838; 3079,121;   -0,924;   -0,318
978,389; 3124,758;    0,803;   -0,500
978,940; 3007,758;    1,258;   -0,409
979,491; 3053,758;    2,258;   -0,500
980,042; 2978,121;   -0,652;    3,045
980,593; 3029,121;    1,894;    0,227
981,144; 3078,394;    3,530;   -0,500
981,695; 3053,303;   -0,470;    1,500
982,246; 3017,848;   -1,833;    1,045
982,797; 3199,939;   -0,561;    0,682
983,347; 3309,667;    2,167;    0,591
983,898; 3448,394;    4,167;    0,409
984,449; 3260,212;    2,530;    0,773
984,999; 3196,485;    1,894;   -1,136
985,550; 2948,939;    3,167;   -0,318
986,100; 3011,303;    0,712;   -0,318
986,651; 3024,576;    0,258;    0,045
987,201; 3009,758;    0,894;   -0,591
987,751; 3108,030;   -0,288;    2,864
988,302; 3079,212;   -0,379;    1,500
988,852; 3094,212;    1,985;   -1,136
989,402; 3130,667;    0,985;    0,682
989,952; 3047,667;    1,621;    0,864
990,502; 3167,394;    1,076;    0,682
991,052; 3143,939;   -0,106;    0,045
991,602; 2981,303;    1,167;    1,318
992,152; 2985,212;    2,803;    0,682
992,702; 2961,758;    1,167;   -0,045
993,252; 2880,121;    0,076;   -0,500
993,802; 2959,758;    1,167;    1,318
994,352; 3222,030;   -0,742;    1,136
994,901; 3323,121;    1,076;    3,227
995,451; 3239,394;   -1,197;    0,318
996,000; 3330,121;    1,076;    0,318
996,550; 3019,030;    2,894;    0,227
997,100; 3025,030;   -0,561;   -0,045
997,649; 3296,121;   -0,197;    0,955
998,198; 2920,485;   -0,288;   -1,500
998,748; 3103,030;    0,348;   -2,318
999,297; 3027,394;    0,985;   -0,409
999,846; 3112,030;    1,894;   -0,773
1000,395; 3162,667;    1,530;    0,500
1000,945; 3088,212;    1,076;   -0,773
1001,494; 3165,394;    0,167;    0,682
1002,043; 3182,667;    0,712;    0,864
1002,592; 3016,030;    3,439;    1,955
1003,141; 3170,394;    2,439;   -0,682
1003,690; 2991,030;    1,258;    0,500
1004,238; 3059,576;   -0,106;   -0,045
1004,787; 2707,576;   -1,288;    1,227
1005,336; 2922,394;    1,621;    0,682
1005,885; 3094,758;   -0,197;   -2,773
1006,433; 3250,848;   -0,470;    0,955
1006,982; 3298,303;    2,167;    1,682
1007,531; 3213,394;    2,712;   -0,227
1008,079; 3171,576;    0,258;    0,500
1008,627; 3340,303;    1,621;    0,409
1009,176; 3046,303;    0,076;   -1,955
1009,724; 3099,939;   -2,742;    0,864
1010,273; 3137,121;    1,076;    0,500
1010,821; 3277,667;    1,076;    1,409
1011,369; 2998,394;    0,076;    1,318
1011,917; 2977,939;   -0,833;   -0,591
1012,465; 3281,758;    2,530;   -1,591
1013,013; 3394,030;    0,439;   -1,682
1013,561; 3250,394;   -1,288;   -0,773
1014,109; 3299,939;   -0,833;    1,682
1014,657; 3156,576;    1,348;    0,591
1015,205; 3305,212;    0,894;   -0,955
1015,753; 3340,212;    0,258;   -1,409
1016,301; 3368,030;    2,621;    3,045
1016,848; 3367,939;    2,167;    0,409
1017,396; 3405,848;    1,621;    0,045
1017,944; 3543,939;    2,621;    1,864
1018,491; 3319,394;   -0,197;    1,409
1019,039; 3453,121;   -0,652;    0,591
1019,586; 3370,212;    0,076;    1,682
1020,134; 3482,030;    0,712;    1,500
1020,681; 3481,667;    2,894;   -1,136
1021,228; 3506,030;   -0,561;   -2,227
1021,776; 3338,303;   -0,833;   -1,136
1022,323; 3524,303;    0,803;    0,773
1022,870; 3475,303;   -0,470;   -0,045
1023,417; 3377,485;    2,076;    1,864
1023,964; 3539,667;    0,621;    1,227
1024,511; 3355,303;   -0,652;    0,773
1025,058; 3133,212;    0,439;   -0,045
1025,605; 3186,576;   -1,742;    3,136
1026,152; 3399,121;   -0,106;   -0,591
1026,699; 3149,848;    0,167;    1,318
1027,245; 3321,121;    2,439;    0,318
1027,792; 3551,121;    0,712;    1,409
1028,339; 3411,030;    4,076;   -0,045
1028,885; 3259,758;    3,621;   -0,227
1029,432; 3194,939;   -0,106;    0,227
1029,978; 3253,394;    1,348;   -1,591
1030,525; 3138,485;    1,621;    0,409
1031,071; 3433,303;    0,348;    1,136
1031,618; 3505,394;    1,258;    1,682
1032,164; 3305,848;    2,076;    3,045
1032,710; 3348,212;    0,076;   -1,500
1033,256; 3280,212;    0,712;   -0,136
1033,803; 3256,576;   -0,288;    1,500
1034,349; 2990,939;    1,803;    0,136
1034,895; 3134,394;    2,621;   -0,318
1035,441; 3114,394;    0,439;    0,318
1035,987; 3122,848;   -2,288;   -0,682
1036,533; 3112,848;   -0,197;   -0,955
1037,078; 3316,394;    4,712;    1,682
1037,624; 3134,758;    2,439;   -0,955
1038,170; 3161,303;    1,712;   -0,318
1038,716; 3049,667;    2,167;   -0,409
1039,261; 2973,485;    2,167;   -0,773
1039,807; 2902,758;   -0,015;    3,409
1040,352; 2948,667;   -1,288;   -0,318
1040,898; 3007,121;    0,167;   -0,682
1041,443; 2917,667;    0,803;   -2,591
1041,989; 2918,303;    3,621;    1,591
1042,534; 2820,121;    0,985;    2,591
1043,079; 2953,121;    1,985;    0,955
1043,625; 2717,485;    0,258;    0,500
1044,170; 2748,667;    2,439;    1,045
1044,715; 3013,030;    0,167;    0,955
1045,260; 2816,485;   -0,833;   -0,955
1045,805; 2899,212;    0,258;   -0,591
1046,350; 2836,030;    0,530;   -0,409
1046,895; 2791,485;    0,803;    1,591
1047,440; 2702,212;    1,530;    0,409
1047,985; 2627,394;   -1,197;   -0,955
1048,530; 2577,394;    1,348;    1,227
1049,074; 2632,939;    2,803;    0,318
1049,619; 2593,121;   -0,924;    1,955
1050,164; 2371,848;    1,076;    0,227
1050,708; 2435,030;    2,621;    0,045
1051,253; 2791,667;    3,258;   -2,227
1051,797; 2511,121;   -0,197;   -1,318
1052,342; 2531,212;    1,348;    1,045
1052,886; 2519,394;    1,803;   -1,409
1053,430; 2408,121;    2,167;    0,136
1053,975; 2414,030;    0,894;   -0,318
1054,519; 2392,303;    1,803;    3,227
1055,063; 2383,848;    3,621;    1,318
1055,607; 2271,121;    1,348;    0,227
1056,151; 2315,394;    0,530;    1,682
1056,695; 2249,030;   -1,833;   -1,136
1057,239; 2299,121;   -1,197;   -0,682
1057,783; 2288,030;    2,258;   -1,500
1058,327; 2232,121;    3,076;    1,409
1058,871; 2461,030;    3,985;    1,318
1059,415; 2163,848;   -0,561;   -0,045
1059,958; 2416,030;    2,985;    2,591
1060,502; 2142,667;    1,348;   -0,773
1061,046; 2068,576;    1,712;   -0,955
1061,589; 2029,485;    2,803;   -1,136
1062,133; 1920,394;    0,985;    1,864
1062,676; 1842,030;    1,439;    0,864
1063,220; 1851,667;    0,985;    0,500
1063,763; 1868,667;    2,985;    1,136
1064,306; 1944,303;    0,985;    1,864
1064,849; 1832,030;    2,076;    0,591
1065,393; 1841,667;    2,894;   -1,500
1065,936; 1957,303;    2,530;   -0,409
1066,479; 1839,939;    2,621;    1,318
1067,022; 1873,576;    1,894;   -0,227
1067,565; 1757,212;   -1,197;   -1,318
1068,108; 1795,030;    1,258;   -0,591
1068,651; 1766,848;   -2,470;    1,409
1069,194; 1705,576;   -1,106;   -1,682
1069,736; 1693,848;    3,803;    0,955
1070,279; 1681,758;   -1,652;   -0,500
1070,822; 1721,485;    1,530;   -0,318
1071,364; 1782,485;    0,530;    1,318
1071,907; 1614,485;    0,348;    3,227
1072,450; 1535,303;    0,258;   -0,045
1072,992; 1531,485;   -0,561;    3,136
1073,535; 1643,394;    0,167;    2,136
1074,077; 1461,303;    2,985;    2,045
1074,619; 1415,212;    0,985;    0,591
1075,161; 1436,303;   -0,561;    1,500
1075,704; 1622,121;    0,258;    1,227
1076,246; 1425,030;    1,530;    0,682
1076,788; 1356,758;   -1,015;    1,773
1077,330; 1456,485;   -2,106;    2,136
1077,872; 1400,848;   -1,924;    0,955
1078,414; 1615,394;    3,712;    0,773
1078,956; 1354,212;    0,167;   -0,227
1079,498; 1592,667;    0,439;    0,318
1080,040; 1283,030;    0,985;   -1,318
1080,581; 1242,485;    0,621;   -0,318
1081,123; 1197,394;   -0,106;   -0,773
1081,665; 1249,030;    3,803;   -0,955
1082,206; 1510,848;    3,258;   -0,500
1082,748; 1378,485;    3,258;    2,045
1083,289; 1278,212;    0,167;    1,318
1083,831; 1168,758;    0,258;    0,227
1084,372; 1182,848;    0,894;    0,591
1084,913; 1191,939;    3,348;    0,864
1085,455; 1174,848;    1,530;   -2,045
1085,996; 1141,121;    0,530;    0,136
1086,537; 1150,667;    0,985;    0,864
1087,078; 1190,121;    0,439;   -2,136
1087,619; 1236,576;   -1,652;    0,227
1088,160; 1143,212;    1,439;    1,318
1088,701; 1123,758;   -0,742;    0,682
1089,242; 1074,758;   -0,561;   -2,227
1089,783; 1168,576;   -0,561;    1,409
1090,324; 1132,848;   -0,833;    0,682
1090,865; 1015,212;   -1,924;   -0,409
1091,405; 1003,848;   -0,561;    2,227
1091,946; 1027,848;   -0,197;   -0,955
1092,487;  947,667;   -1,288;   -1,409
1093,027; 1110,121;    1,803;   -1,500
1093,568;  969,848;    2,258;    1,227
1094,108; 1034,121;    0,621;    1,773
1094,649;  979,030;   -0,470;    0,136
1095,189;  940,576;    1,167;   -0,682
1095,729;  871,939;    0,712;    0,955
1096,269;  893,576;    1,258;   -0,955
1096,810; 1194,121;   -0,197;    0,500
1097,350; 1024,576;   -0,561;   -0,773
1097,890;  916,485;    2,985;    1,227
1098,430; 1161,303;    4,985;    2,864
1098,970; 1034,485;    1,894;    1,682
1099,510;  916,758;   -0,833;   -2,318
1100,050;  846,485;    0,258;   -1,591
1100,589;  803,939;    0,076;   -0,318
1101,129;  922,121;    0,894;   -0,955
1101,669; 1051,758;    2,803;    2,136
1102,209;  885,030;    1,530;    2,227
1102,748;  841,576;    3,439;    0,955
1103,288;  828,848;    0,712;   -1,227
1103,827;  858,485;    3,530;   -2,227
1104,367;  740,121;    1,712;   -2,409
1104,906;  716,667;   -1,015;   -1,136
1105,445;  776,121;    0,985;   -1,136
1105,985;  731,667;   -0,652;    1,500
1106,524;  767,303;    1,530;   -0,682
1107,063;  736,121;    1,167;    1,409
1107,602;  724,121;    1,894;   -1,500
1108,141;  647,576;    1,621;    1,500
1108,680;  733,485;    3,985;   -0,591
1109,219;  682,303;    0,167;   -0,500
1109,758;  683,848;    4,167;    0,682
1110,297;  652,030;   -1,106;   -0,682
1110,836;  598,667;    1,439;    0,955
1111,375;  763,212;    0,348;    0,409
1111,913;  761,848;    0,985;    0,773
1112,452;  710,667;    0,894;    0,136
1112,991;  607,758;    1,076;    1,955
1113,529;  563,121;    0,167;   -0,045
1114,068;  628,758;    0,439;    2,955
1114,606;  513,758;   -0,561;   -0,955
1115,144;  657,121;    1,530;    1,045
1115,683;  614,030;    1,985;    0,318
1116,221;  670,576;    2,076;   -0,864
1116,759;  577,758;    1,621;   -0,864
1117,297;  759,485;    1,621;    1,864
1117,836;  570,030;    1,985;   -1,227
1118,374;  566,121;    0,258;   -0,682
1118,912;  530,485;    0,439;    2,682
1119,450;  513,121;    0,985;    0,864
1119,988;  559,121;    3,348;    2,136
1120,525; 1003,758;    7,258;    3,318
1121,063;  706,667;    0,530;    1,864
1121,601;  517,848;    1,076;   -1,227
1122,139;  484,030;    1,076;   -2,045
1122,676;  659,121;   -1,652;    2,773
1123,214;  607,485;    0,712;    4,409
1123,751;  422,667;    0,621;    2,227
1124,289;  546,485;    0,894;   -0,409
1124,826;  425,394;   -0,379;    0,227
1125,364;  358,303;    0,712;   -0,955
1125,901;  538,030;    6,258;    1,227
1126,438;  634,212;    3,530;    0,955
1126,975;  373,939;    2,985;   -0,773
1127,513;  431,394;    2,621;    2,136
1128,050;  357,030;   -0,561;   -0,682
1128,587;  448,758;    1,348;   -0,227
1129,124;  484,576;   -0,015;    1,318
1129,661;  358,939;   -1,924;    0,227
1130,198;  518,030;    2,439;    0,773
1130,734;  459,121;   -0,379;    1,409
1131,271;  314,758;   -1,197;    0,864
1131,808;  488,121;    1,621;    3,045
1132,345;  369,758;    4,530;    0,318
1132,881;  258,303;   -0,561;   -1,864
1133,418;  379,848;    0,348;   -1,136
1133,954;  320,667;    0,712;   -2,682
1134,491;  393,758;    1,712;   -0,773
1135,027;  297,212;    2,167;    0,864
1135,564;  370,394;    1,439;    2,955
1136,100;  358,576;   -0,742;    2,136
1136,636;  261,394;   -1,015;   -1,045
1137,172;  336,485;    0,894;   -1,045
1137,708;  275,121;   -1,561;   -1,045
1138,245;  275,758;    0,803;   -1,227
1138,781;  236,303;    1,803;   -3,318
1139,317;  282,939;    1,894;   -1,409
1139,852;  278,121;    3,076;    0,136
1140,388;  389,212;    2,076;   -0,409
1140,924;  272,939;    1,076;   -2,227
1141,460;  223,485;   -0,288;    0,136
1141,996;  170,303;   -0,652;    2,682
1142,531;  206,576;    1,076;    3,318
1143,067;  407,485;    1,167;    1,045
1143,602;  462,848;    3,439;   -0,318
1144,138;  307,667;    0,803;    1,045
1144,673;  188,758;    1,621;    1,409
1145,209;  251,121;    2,894;   -0,318
1145,744;  172,030;    0,803;    0,864
1146,279;  295,576;    1,530;   -0,136
1146,815;  218,667;    1,530;   -2,682
1147,350;  256,848;   -0,924;    0,045
1147,885;  180,576;   -1,924;   -1,318
1148,420;  176,758;    2,439;    0,773
1148,955;  161,667;   -1,470;    1,864
1149,490;  185,848;   -1,106;   -1,591
1150,025;  173,030;   -1,106;   -1,773
1150,560;  267,667;   -0,288;   -0,955
1151,094;  240,848;    0,258;   -0,591
1151,629;  247,394;   -3,742;    0,864
1152,164;  176,485;   -1,288;    1,318
1152,698;  140,212;    1,258;   -0,136
1153,233;   97,758;   -1,379;   -0,682
1153,767;  138,121;   -0,288;   -2,318
1154,302;  183,667;   -0,379;    1,773
1154,836;  194,848;    0,803;   -2,136
1155,371;  241,121;    2,258;    3,682
1155,905;  189,758;    1,985;    1,682
1156,439;  169,212;    0,530;   -0,500
1156,973;  193,485;    0,439;    0,318
1157,507;  128,667;   -1,742;    0,682
1158,042;  162,303;   -0,652;    1,045
1158,576;  197,212;   -0,561;    1,773
1159,110;  185,758;    0,076;    2,409
1159,643;  162,485;   -2,470;   -0,045
1160,177;  100,848;   -2,015;    1,500

