
Integration time [ms]:   0,050
Averaging Nr. [scans]: 11
Smoothing Nr. [pixels]: 0
Data measured with spectrometer [name]: 7318044SP
Wave   ;Sample   ;Dark     ;Reference
[nm]   ;[counts] ;[counts] ;[counts] 

186,757;  -33,574;   38,161;    1,318
187,357;   -3,230;   26,706;    0,955
187,958;  -23,241;   17,252;   -1,591
188,558;   18,506;   12,979;   -1,227
189,159;   -6,215;   10,070;   -4,500
189,759;  -27,161;    5,797;   -3,591
190,360;  -27,240;    6,797;   -2,136
190,960;   -9,569;    5,706;   -4,136
191,560;    2,579;    2,614;   -6,591
192,161;  183,983;    5,885;   -3,500
192,761;   63,145;    5,520;   -3,227
193,361;   13,077;    3,065;   -3,773
193,962;   52,874;    1,612;   -2,682
194,562;   -0,280;   -0,114;   -3,955
195,162;    6,939;   -0,567;   -2,227
195,762;  102,285;    2,433;   -0,045
196,362;   60,530;    1,706;   -2,500
196,963;  -12,620;    1,706;   -0,864
197,563;   30,966;    1,252;   -0,955
198,163;   -6,998;   -0,111;   -0,682
198,763;   -0,329;   -0,020;   -0,500
199,363;   37,564;    3,616;   -0,500
199,963;   16,916;    2,162;    0,409
200,563;    7,472;    6,344;   -1,409
201,163;   -7,957;    5,435;   -0,227
201,763;   11,835;    1,435;    0,318
202,363;   -7,968;    0,980;    1,500
202,963;   16,454;    1,526;    1,045
203,563;   69,064;    0,344;    0,500
204,162;    5,449;    1,889;   -1,864
204,762;   -0,141;    2,071;    0,591
205,362;  -17,081;    0,708;    1,955
205,962;    3,583;    3,435;    1,955
206,562;    3,721;    1,889;    2,318
207,161;  -11,024;    1,708;    0,318
207,761;   57,208;    4,435;    2,409
208,361;   -1,813;    1,889;    1,409
208,960;   14,395;    2,889;    1,500
209,560;   14,148;    0,435;    1,591
210,160;   26,983;    5,071;    1,864
210,759;    7,325;    0,708;    1,227
211,359;   -1,591;   -0,474;    1,045
211,958;   92,089;    3,526;    2,045
212,558;   91,785;    0,799;    1,864
213,157;   32,308;   -0,929;    1,500
213,757;  165,532;    5,617;   -0,227
214,356;   61,570;    1,708;   -0,409
214,956;  142,657;    3,526;    0,409
215,555;   31,740;    0,617;    2,136
216,154;   11,863;   -0,292;   -0,591
216,754;   10,671;    1,253;    0,773
217,353;   17,073;   -0,383;   -1,045
217,952;  -25,453;    2,072;    0,318
218,552;   29,280;    0,254;   -0,773
219,151;   -3,897;   -1,110;    0,955
219,750;   -1,005;    0,890;   -0,227
220,349;  -13,544;   -2,292;    1,045
220,948;   39,348;    1,163;    1,136
221,548;   -2,298;    0,617;    1,227
222,147;    4,253;   -1,292;   -0,409
222,746;   76,242;    1,254;   -0,955
223,345;   24,541;   -1,019;    0,500
223,944;   22,408;    1,163;    0,773
224,543;   24,612;    4,072;   -1,409
225,142;   14,706;    1,345;    0,136
225,741;   15,140;    1,163;    1,045
226,340;    6,108;    1,254;   -0,955
226,939;   52,334;    2,708;   -0,136
227,538;   10,793;    1,163;   -0,773
228,137;   71,259;    0,435;    0,864
228,735;   37,527;    0,435;    1,227
229,334;  -18,939;   -0,474;   -0,227
229,933;   58,954;    0,799;    0,591
230,532;   52,618;   -1,201;   -0,409
231,131;   91,517;    1,253;    0,318
231,729;   33,019;    1,163;   -2,318
232,328;   -0,575;    0,435;   -1,500
232,927;   11,634;    4,526;   -0,500
233,525;    7,071;    0,981;    0,045
234,124;   19,859;    1,890;   -1,591
234,723;   -6,554;    1,617;   -1,045
235,321;  -13,501;    1,163;    0,136
235,920;   -2,067;    2,526;   -1,227
236,518;   68,531;    1,072;    0,318
237,117;    4,766;    2,890;   -0,227
237,715;   15,398;    1,163;   -0,500
238,314;   12,543;    1,708;   -2,318
238,912;   60,757;    0,526;   -1,409
239,510;   33,372;    1,162;   -1,227
240,109;   71,533;   -0,474;    3,773
240,707;   53,982;   -0,474;    1,227
241,305;   -5,130;   -0,383;    0,136
241,904;   24,779;   -0,292;   -2,045
242,502;   91,704;    3,253;   -0,227
243,100;   38,933;    3,344;   -0,955
243,698;   -0,799;    2,799;    1,682
244,297;   13,339;   -0,656;    0,682
244,895;   15,034;   -0,474;   -2,318
245,493;   74,419;    2,981;   -0,591
246,091;   91,275;    5,163;   -1,318
246,689;   46,269;    2,163;    0,591
247,287;   42,323;   -0,019;   -1,136
247,885;   26,974;   -1,019;    1,227
248,483;   10,376;   -0,201;   -0,500
249,081;   44,134;    0,981;    1,591
249,679;   53,418;   -1,019;    1,682
250,277;    4,574;   -2,292;    0,864
250,875;   53,211;    0,617;   -1,045
251,473;   20,895;   -0,019;    0,500
252,071;   61,013;   -0,383;    1,045
252,669;   22,953;   -1,565;    0,318
253,267;   18,316;    1,618;    0,773
253,864;   39,868;    0,617;    0,682
254,462;   96,413;    1,526;    1,591
255,060;   24,386;    0,072;    1,318
255,658;   21,317;   -3,292;   -0,136
256,255;   40,136;   -0,201;   -2,045
256,853;   69,793;    2,345;    1,409
257,451;   45,317;    1,981;    1,864
258,048;  257,654;    2,072;    1,864
258,646;  132,135;    0,436;   -1,045
259,243;  172,974;    2,981;    2,227
259,841;  105,472;    1,799;    0,318
260,438;   40,493;    0,254;    0,864
261,036;  105,104;    0,617;    1,409
261,633;   53,146;    1,526;    2,227
262,231;   40,879;   -0,110;   -0,045
262,828;   32,703;   -0,383;    1,136
263,425;   62,826;   -1,928;   -0,591
264,023;   71,659;    1,436;    0,045
264,620;  152,943;    1,526;   -0,318
265,217;  232,231;    2,890;    3,136
265,815;   92,033;    2,527;    2,136
266,412;  149,333;    0,072;    0,136
267,009;  153,585;    0,526;    0,773
267,606;  202,499;    0,345;   -0,955
268,203;  120,703;   -0,383;   -0,591
268,801;  134,889;   -0,474;    0,591
269,398;   92,659;   -0,564;    2,500
269,995;  174,703;    0,890;    1,591
270,592;  140,730;    0,799;   -0,500
271,189;   88,054;    1,981;    0,409
271,786;   70,499;    2,072;    1,227
272,383;  210,569;   -0,383;    0,227
272,980;  137,927;    1,617;    0,318
273,577;  106,575;    2,162;    1,227
274,174;   89,447;    1,435;    2,591
274,771;  181,681;    1,890;   -0,773
275,367;  441,297;    3,253;    1,409
275,964;  285,516;   -0,565;   -0,500
276,561;  154,606;   -2,474;   -1,045
277,158;   97,418;    1,799;   -1,773
277,755;  256,225;   -0,110;    0,409
278,351;  182,039;    0,436;   -1,500
278,948;  230,006;   -0,201;    0,045
279,545;  190,429;    0,527;    2,318
280,141;  306,932;    1,254;   -2,045
280,738;  295,034;    2,435;   -0,136
281,334;  153,113;   -0,383;    0,591
281,931;  158,529;    2,890;   -1,318
282,528;  239,898;    4,072;   -0,500
283,124;  289,868;    3,345;   -0,500
283,721;  289,144;    0,709;    1,409
284,317;  195,689;    0,163;    2,500
284,913;  326,850;   -0,110;    0,591
285,510;  501,486;    2,890;   -0,318
286,106;  374,567;    2,345;   -0,955
286,703;  237,867;    0,072;    1,955
287,299;  198,745;    1,254;   -0,591
287,895;  206,247;    0,890;   -1,045
288,491;  198,750;    0,163;    2,136
289,088;  289,129;    0,163;    2,409
289,684;  341,044;    2,890;    1,500
290,280;  484,280;    1,890;    0,682
290,876;  460,542;    0,163;    5,500
291,472;  408,359;    2,163;    2,227
292,068;  436,305;    1,254;    0,227
292,665;  341,108;   -0,564;    0,773
293,261;  277,338;   -1,292;    2,136
293,857;  484,633;    4,072;    2,136
294,453;  423,585;   -0,928;    0,955
295,049;  657,358;    0,253;    1,955
295,644;  519,838;   -1,292;    0,136
296,240;  414,079;    0,162;   -0,136
296,836;  586,690;   -0,747;    0,318
297,432;  760,262;    2,980;   -0,500
298,028;  826,508;    0,435;    0,773
298,624;  703,978;    0,889;    1,864
299,220;  728,989;    0,435;    0,591
299,815;  732,390;    0,526;   -0,409
300,411;  873,176;    0,435;    1,773
301,007; 1031,129;    1,889;    0,227
301,602;  876,395;    2,071;   -2,318
302,198; 1036,712;    1,435;   -0,773
302,794;  905,759;    1,526;   -0,500
303,389;  916,321;    1,071;    1,045
303,985;  994,668;    1,253;    1,409
304,580; 1124,481;    0,889;    1,591
305,176; 1036,325;    0,344;    0,136
305,771;  935,133;   -0,929;   -1,227
306,367; 1356,501;    3,071;    0,136
306,962; 1138,123;    2,889;    1,500
307,558; 1121,059;    2,435;    0,136
308,153; 1225,331;   -0,383;   -1,136
308,748; 1022,449;    0,162;    1,682
309,344; 1428,624;    0,253;   -1,318
309,939; 1452,336;    2,071;   -1,318
310,534; 1100,116;   -2,020;   -1,682
311,130; 1023,518;   -0,656;   -2,500
311,725;  930,197;    0,526;   -0,500
312,320;  999,192;    1,253;    0,045
312,915; 1117,485;    2,890;   -1,045
313,510; 1325,780;    0,526;   -0,500
314,105; 1077,423;   -3,565;    1,409
314,700;  819,465;   -1,656;   -1,045
315,295;  862,663;   -0,020;    0,045
315,890;  741,748;   -0,292;    0,864
316,485;  856,208;    0,253;   -0,318
317,080;  765,042;   -0,929;    1,591
317,675; 1079,107;    3,071;   -0,682
318,270; 1260,739;    6,889;    3,318
318,865; 1129,279;    2,435;    3,045
319,460;  907,000;   -1,565;    0,591
320,055;  742,381;   -2,565;   -1,227
320,650;  708,413;   -1,838;   -0,591
321,244;  701,316;    0,889;   -1,409
321,839;  781,299;    0,980;   -0,227
322,434;  812,192;   -0,111;   -1,591
323,029;  685,434;   -0,474;    1,591
323,623;  638,903;    0,798;    0,773
324,218;  806,851;    2,707;    1,409
324,812;  756,674;    0,889;    1,591
325,407;  759,363;   -0,929;    2,045
326,002;  888,705;    0,526;   -0,409
326,596;  840,540;   -0,656;    1,318
327,191;  705,679;   -0,383;   -1,045
327,785;  668,086;   -0,747;   -0,227
328,379;  762,438;   -0,383;    0,136
328,974;  807,743;    1,798;   -3,955
329,568;  870,620;    2,889;   -2,409
330,163;  967,658;    2,435;    1,045
330,757;  872,464;    0,253;    1,591
331,351;  830,256;   -0,292;    0,682
331,945;  870,118;   -0,383;    1,409
332,540; 1058,716;    1,617;   -0,591
333,134; 1070,715;    3,344;    0,773
333,728; 1087,502;    2,799;    0,318
334,322; 1111,551;    0,889;   -0,864
334,916; 1066,469;    0,344;    0,955
335,510; 1336,550;   -0,111;   -0,136
336,105; 1449,770;   -0,929;    1,591
336,699; 1340,005;   -1,292;    0,591
337,293; 1427,517;    1,071;    0,318
337,887; 1460,497;    0,071;    1,955
338,481; 1708,743;    2,980;    0,591
339,074; 1958,646;    2,071;    2,682
339,668; 1978,587;   -0,110;    1,227
340,262; 2725,389;    7,708;    3,227
340,856; 2303,854;    1,708;   -0,682
341,450; 1938,960;    0,708;    1,864
342,044; 2299,608;    1,799;    0,136
342,637; 2463,897;    1,162;   -2,136
343,231; 2572,290;   -1,474;    0,682
343,825; 2447,545;   -0,747;   -0,591
344,419; 2584,059;   -0,474;    0,500
345,012; 3107,679;    2,889;    4,045
345,606; 3047,070;   -0,656;    1,591
346,199; 2881,215;   -0,111;   -0,227
346,793; 2918,974;    2,525;    2,045
347,386; 2993,727;    0,889;   -1,136
347,980; 2969,579;   -0,838;   -0,045
348,573; 3093,099;   -1,748;    0,409
349,167; 3182,880;    6,161;    4,773
349,760; 3437,923;    2,252;    2,682
350,354; 3377,069;    1,616;    1,136
350,947; 3363,667;    2,798;    1,682
351,540; 3183,598;    0,616;   -1,409
352,134; 3135,409;   -1,111;    1,136
352,727; 3234,553;   -0,657;    1,136
353,320; 3223,468;    2,343;    0,591
353,913; 3101,896;   -1,929;    1,864
354,507; 3319,468;    0,434;   -1,227
355,100; 3361,618;    0,071;    0,864
355,693; 3230,148;    4,798;    2,409
356,286; 3108,677;    0,980;    2,773
356,879; 3218,661;   -0,475;    1,227
357,472; 2977,890;    0,980;    1,500
358,065; 3133,046;    3,161;    2,500
358,658; 3059,928;    0,798;    2,318
359,251; 2843,848;    0,252;   -0,591
359,844; 2709,576;    0,343;   -1,136
360,437; 2834,869;    0,252;    0,045
361,030; 2885,543;    0,525;   -0,682
361,623; 2659,341;    0,434;    0,318
362,215; 2770,517;    0,979;    2,045
362,808; 2613,458;   -2,293;   -1,682
363,401; 2619,266;    0,798;    0,136
363,994; 2682,641;    3,252;   -1,500
364,586; 2515,246;    0,888;   -1,500
365,179; 2533,910;   -0,203;   -1,136
365,772; 2196,239;   -0,930;    2,045
366,364; 2306,086;    1,524;   -3,227
366,957; 2493,206;    1,342;   -0,045
367,549; 2363,447;   -0,203;   -0,864
368,142; 2246,496;    0,978;   -1,500
368,734; 2281,535;    2,523;   -2,136
369,327; 2239,344;    2,341;   -0,500
369,919; 2204,227;   -1,659;    0,409
370,512; 2179,459;   -1,023;   -0,500
371,104; 2203,607;    2,704;    1,591
371,696; 2291,734;    1,703;   -0,955
372,289; 2214,822;    0,157;    1,136
372,881; 2169,554;    1,156;    1,318
373,473; 2028,424;    4,064;    1,136
374,066; 2046,864;    1,336;    0,500
374,658; 1958,108;    0,879;    1,136
375,250; 2027,775;   -1,668;   -1,409
375,842; 1966,378;   -0,124;   -0,045
376,434; 1874,134;   -2,762;   -0,409
377,026; 2105,813;   -1,855;   -2,500
377,618; 2032,583;    0,779;   -0,682
378,210; 1904,415;    3,141;   -1,955
378,802; 1766,903;    3,412;   -0,591
379,394; 2126,149;    3,411;    0,682
379,986; 2117,687;    1,138;   -0,955
380,578; 2054,325;    1,410;    0,773
381,170; 2024,508;    0,320;    0,045
381,762; 1893,011;   -0,224;    1,409
382,354; 1909,886;   -0,223;   -1,318
382,945; 1879,991;    0,870;    0,318
383,537; 1919,716;    1,144;   -1,955
384,129; 1945,030;    0,963;   -1,136
384,721; 2052,391;    0,418;    0,955
385,312; 1941,176;   -1,399;   -0,955
385,904; 2087,894;   -0,945;    1,591
386,496; 1754,804;    0,691;    1,045
387,087; 1924,753;    0,418;    2,500
387,679; 1839,235;   -0,401;    0,045
388,270; 1918,295;   -2,401;    2,045
388,862; 1905,776;   -0,401;   -0,318
389,453; 1723,450;    1,054;    1,045
390,045; 1884,782;    3,236;   -2,682
390,636; 1871,061;    0,144;   -0,591
391,227; 1820,514;    2,054;   -0,045
391,819; 1874,786;    0,781;    0,773
392,410; 2062,609;    0,600;    0,045
393,001; 1922,381;    1,600;   -1,591
393,593; 2016,220;    0,600;   -0,045
394,184; 2010,028;    0,873;   -0,409
394,775; 1805,884;    1,146;    2,136
395,366; 1946,661;    1,782;    0,773
395,957; 2043,742;   -2,400;    0,136
396,548; 2031,971;    1,054;    2,682
397,139; 2232,577;    2,236;    0,591
397,730; 2023,527;    0,873;    0,955
398,321; 2023,382;    0,509;    0,955
398,912; 1973,456;   -0,764;    0,136
399,503; 2117,750;   -1,945;   -1,409
400,094; 1906,504;   -1,582;    1,682
400,685; 1854,847;    3,600;    0,045
401,276; 1777,441;   -0,400;   -0,955
401,867; 1875,269;   -1,127;    0,773
402,458; 1895,216;    1,509;   -2,318
403,048; 1983,943;    0,146;    0,591
403,639; 1736,596;    1,509;    0,864
404,230; 2008,985;    0,691;    0,318
404,821; 2006,932;   -0,127;    0,045
405,411; 1934,969;   -0,763;   -2,591
406,002; 1678,349;    3,237;   -1,136
406,592; 1877,027;    2,691;    0,045
407,183; 1776,598;    0,328;   -1,500
407,774; 1650,224;    1,419;   -0,136
408,364; 1709,235;    2,600;    0,409
408,954; 1703,625;   -0,036;    1,227
409,545; 1665,882;    1,873;    1,045
410,135; 1436,031;   -1,581;    0,500
410,726; 1411,692;    0,783;    0,318
411,316; 1644,832;    2,237;    0,773
411,906; 1368,890;    0,146;   -0,409
412,497; 1243,180;   -0,490;   -0,045
413,087; 1265,164;    0,783;   -0,227
413,677; 1271,542;   -2,490;    3,864
414,267; 1156,125;   -1,035;    1,409
414,857; 1075,975;    0,419;    4,227
415,448; 1089,950;   -0,763;    0,500
416,038; 1024,554;   -2,945;   -0,591
416,628; 1007,526;    0,965;    0,409
417,218; 1047,477;   -1,762;    3,318
417,808; 1203,509;    0,965;   -0,409
418,398; 1005,910;   -1,035;    2,682
418,988;  833,814;   -2,217;    0,591
419,578;  888,814;    3,601;    1,409
420,168;  879,537;    0,692;   -0,955
420,757;  977,073;    0,964;   -1,500
421,347;  763,294;    1,601;   -0,227
421,937;  680,038;    3,329;    1,409
422,527;  817,197;    2,602;   -0,773
423,116;  949,937;    2,692;   -0,045
423,706;  610,156;    2,965;    0,318
424,296;  492,691;    1,601;    0,682
424,885;  680,145;    1,510;   -3,045
425,475;  610,043;    1,147;   -2,864
426,065;  437,883;   -1,489;   -0,318
426,654;  391,255;    0,329;   -0,318
427,244;  723,823;    1,147;    1,409
427,833;  644,332;    1,056;   -0,500
428,423;  457,347;    0,147;    1,136
429,012;  462,581;    2,420;   -1,136
429,601;  583,596;    2,057;    0,136
430,191;  423,127;    2,511;    4,318
430,780;  250,689;   -1,671;   -0,409
431,369;  498,602;    1,329;   -0,045
431,959;  379,842;    1,693;    0,500
432,548;  256,254;   -1,398;   -0,045
433,137;  164,408;    0,329;   -1,318
433,726;  259,724;    0,148;    0,500
434,315;  251,467;    0,148;    2,409
434,905;  367,348;    0,693;    1,409
435,494;  359,092;    3,148;    0,955
436,083;  184,446;    1,420;   -0,955
436,672;  265,419;    1,148;    0,500
437,261;  191,685;    0,512;   -1,955
437,850;  460,964;   -1,125;    0,682
438,439;  488,673;    2,239;    1,955
439,027;  592,716;    3,421;    1,773
439,616;  503,127;    2,239;    1,227
440,205;  239,085;    0,057;   -2,136
440,794;  170,153;   -0,306;   -0,045
441,383;   87,527;    1,603;   -0,591
441,971;   49,869;   -0,306;    0,591
442,560;   54,029;    0,603;   -1,773
443,149;  -61,352;    3,060;   -1,318
443,737;  -16,718;    0,968;   -2,318
444,326;    8,772;    0,331;    0,318
444,915;   53,414;   -1,851;    0,864
445,503;   60,083;    0,058;   -0,318
446,092;  320,671;    7,876;    2,136
446,680;  237,023;    1,876;    0,318
447,269;  132,857;   -1,487;   -0,318
447,857;  112,872;    2,240;   -1,773
448,445;   72,487;    2,149;    1,318
449,034;   10,123;    0,876;   -1,136
449,622;   19,947;    1,240;    3,500
450,210;  278,357;    3,149;    2,227
450,799;  189,939;    2,604;   -0,591
451,387;  130,650;    1,786;   -0,591
451,975;  117,319;   -1,305;    0,864
452,563;  185,101;    0,422;    2,318
453,151;   34,800;   -1,032;   -1,227
453,739;   73,076;   -1,577;    0,136
454,328;  158,612;    0,604;   -2,136
454,916;   95,274;    1,150;   -0,136
455,504;  117,863;    3,513;    1,227
456,092;   14,644;    2,150;   -1,591
456,679;  -21,372;    0,604;    0,682
457,267;  374,734;    3,604;    1,045
457,855;   74,130;    3,241;    1,409
458,443;  -57,198;   -0,304;    1,682
459,031;   67,723;    1,332;    2,409
459,619;   36,440;   -3,577;    2,864
460,206;  -43,298;   -0,759;    2,045
460,794;  -42,828;   -0,668;   -0,227
461,382;    1,363;    0,878;   -0,864
461,970;   -0,610;    0,605;    1,864
462,557;  -56,498;    0,878;   -0,682
463,145;   38,412;   -0,304;   -1,682
463,732;  265,036;    2,514;   -1,045
464,320;   54,741;    1,514;   -3,045
464,907;  171,479;    0,423;   -0,773
465,495;   97,338;    2,696;   -1,227
466,082;   30,484;    2,060;   -0,045
466,670;   45,415;    2,605;    1,227
467,257;  -44,078;    0,060;    2,045
467,844;   48,729;    1,514;    0,045
468,432;   22,964;   -0,031;    3,500
469,019;  -10,283;    1,606;   -1,773
469,606;   72,964;    0,969;    3,682
470,193;   88,850;    2,151;    0,227
470,780;   40,301;    0,333;    0,864
471,368;  -17,299;   -1,212;   -0,773
471,955;   74,290;    1,060;   -0,682
472,542;   37,914;   -0,303;   -1,136
473,129;  -52,347;   -0,485;    0,136
473,716;  -37,689;    0,060;    0,591
474,303;  -16,133;    1,333;   -0,864
474,890;  -12,215;    2,333;   -0,500
475,477;   76,186;   -0,576;    0,409
476,064;   -8,570;    0,697;   -1,591
476,650;  106,202;    2,152;    0,318
477,237;   14,747;    1,879;    0,955
477,824;   -1,644;    3,879;    0,864
478,411;  -67,938;    0,606;   -0,318
478,997;  -71,179;    0,606;   -0,773
479,584; -111,597;   -0,666;   -0,409
480,171;   36,339;    1,243;   -0,773
480,757;   82,787;   -0,848;    0,773
481,344;   -5,501;    0,334;    0,409
481,931;  -83,921;   -0,393;    1,045
482,517;   32,080;    0,425;    0,318
483,104;  106,643;    1,334;    2,864
483,690;  -18,432;    0,243;    0,045
484,276;  -36,192;    0,698;    0,227
484,863;  142,284;    2,152;    1,136
485,449;    8,176;    0,152;    0,318
486,035;  -23,680;   -0,666;   -0,136
486,622;   61,118;   -2,393;    0,045
487,208;  -10,476;    1,334;    1,500
487,794;  -81,798;    0,971;    0,318
488,380;  -76,664;    0,698;   -1,409
488,967;  -71,457;   -1,120;   -0,409
489,553;  -55,237;   -1,029;   -1,409
490,139;    7,923;    0,971;    0,773
490,725;  -54,687;    0,789;   -0,227
491,311;  -15,018;    1,516;    3,045
491,897;  -28,639;   -0,665;    1,500
492,483;  -23,110;    0,426;    1,227
493,069;  390,987;    5,426;    0,864
493,655;  111,847;    1,789;    0,682
494,241;    0,698;    1,517;   -0,955
494,826;    6,757;    0,335;   -1,045
495,412;   60,971;    0,335;   -0,682
495,998;  -16,394;    0,971;   -0,318
496,584;   33,387;    2,244;    1,045
497,169;   54,959;    2,335;   -0,682
497,755;   -3,155;    1,244;    1,227
498,341;  103,317;    2,153;    0,318
498,926;  233,006;    2,881;    1,955
499,512;   -7,542;   -0,028;    2,955
500,097;   -9,996;   -0,574;   -0,318
500,683;   18,668;   -0,028;    2,136
501,268;  -21,653;    1,881;   -0,955
501,854;   -5,894;   -0,119;    1,227
502,439;  -11,836;   -0,573;   -1,773
503,024;    4,753;    1,608;    0,500
503,610;   20,405;    1,335;   -0,682
504,195;  -20,595;    1,245;    1,955
504,780;   76,914;    2,335;    1,227
505,366;  156,882;    4,063;    2,864
505,951;   91,991;   -1,119;    1,045
506,536;   22,355;    1,427;   -3,682
507,121;   91,869;    1,699;   -0,318
507,706;   58,703;   -0,392;    1,045
508,291;   16,451;   -2,937;    1,136
508,876;   32,230;   -0,482;    2,591
509,461;  111,573;    1,427;   -0,773
510,046;  191,402;   -0,391;    0,318
510,631;  235,675;   -0,119;   -0,773
511,216;  174,081;   -0,664;   -0,500
511,801;  308,157;   -0,755;    2,591
512,386;  408,504;    0,972;    0,500
512,971;  511,198;    0,427;    0,955
513,555;  665,156;    1,154;   -1,500
514,140;  745,316;    1,336;   -3,136
514,725; 1016,454;    1,791;   -1,136
515,309; 1046,786;    1,064;    0,318
515,894; 1070,203;   -0,300;   -2,227
516,479; 1316,983;    1,973;   -0,955
517,063; 1526,663;    0,882;    1,227
517,648; 1830,593;    0,155;   -1,136
518,232; 1919,522;   -1,300;   -1,409
518,817; 2442,500;    1,337;    1,682
519,401; 3011,163;    0,700;    0,591
519,985; 3020,394;    2,700;    1,136
520,570; 3379,158;   -0,118;   -1,955
521,154; 4034,200;    0,064;    0,591
521,738; 4631,530;    1,064;    2,409
522,323; 5494,895;   -0,390;    1,682
522,907; 5769,391;    2,428;   -0,136
523,491; 6082,680;    1,155;    0,955
524,075; 6539,568;    0,428;    0,591
524,659; 7091,601;    0,973;    0,591
525,243; 7208,290;    0,883;    0,409
525,827; 7843,632;    0,883;   -0,045
526,411; 8940,873;    1,155;   -0,136
526,995; 9581,894;    0,337;    1,409
527,579; 9653,818;    1,974;   -1,045
528,163;10324,753;    0,428;   -1,500
528,747;10642,817;    1,065;   -0,773
529,331;11292,096;    0,883;   -1,409
529,915;11772,069;    2,338;    0,955
530,499;12069,400;    0,247;    1,227
531,082;12045,989;    1,065;    1,591
531,666;11819,923;    0,520;    0,773
532,250;12730,341;    0,428;    2,682
532,833;13274,955;    0,610;    2,773
533,417;13372,180;    1,247;    0,864
534,001;13535,858;    0,429;   -0,318
534,584;14434,547;    1,974;    0,500
535,168;14411,264;    3,247;    1,409
535,751;14612,688;    4,520;    0,045
536,334;14238,281;    4,520;   -0,409
536,918;14976,297;    1,974;    1,591
537,501;15216,826;    1,520;    1,318
538,085;15306,590;    1,702;    1,045
538,668;15523,660;    0,883;    2,409
539,251;15969,911;    3,156;    3,773
539,834;16104,072;    0,156;    0,773
540,418;16093,252;    3,247;    4,318
541,001;16308,542;    2,702;    1,773
541,584;16366,941;    1,429;    2,227
542,167;16122,124;    0,702;    2,955
542,750;16330,022;    0,793;   -0,773
543,333;15982,256;    1,429;    2,136
543,916;16832,171;   -0,298;    2,500
544,499;17463,374;    2,520;    0,227
545,082;17523,085;    0,248;    3,591
545,665;17735,348;   -0,207;    1,500
546,248;18117,438;    0,520;   -0,318
546,830;17800,925;   -1,752;    1,955
547,413;18270,833;    0,157;   -0,773
547,996;18861,052;    0,157;    0,500
548,579;18683,201;   -0,843;    0,955
549,161;18490,548;    0,884;    2,682
549,744;18314,243;    0,612;    0,409
550,326;18863,981;    0,885;   -1,136
550,909;18562,750;    2,339;    0,591
551,492;19019,858;    0,521;    0,227
552,074;18821,916;   -0,024;   -1,318
552,657;19425,889;    2,430;    0,045
553,239;19242,733;   -3,024;   -0,773
553,821;19145,446;   -1,570;    1,045
554,404;18595,033;   -0,024;    1,136
554,986;19023,551;    2,248;    1,045
555,568;19661,851;    0,430;   -0,955
556,151;18832,193;    4,067;   -0,227
556,733;19080,343;   -1,388;   -0,864
557,315;19553,331;    4,703;    0,500
557,897;19371,641;    0,521;   -0,500
558,479;19560,230;    1,703;    1,318
559,061;19668,843;    1,067;   -0,864
559,643;20034,919;   -0,297;    0,045
560,225;20404,289;   -0,388;    2,864
560,807;20424,373;    0,340;    0,318
561,389;19910,828;   -1,206;    2,318
561,971;20653,848;   -0,660;    2,136
562,553;20451,608;    0,613;    1,591
563,135;20611,715;    1,249;    1,136
563,717;20229,860;    3,158;    1,136
564,298;20991,399;    3,976;   -0,045
564,880;20697,141;    0,340;   -1,409
565,462;20882,323;    1,977;    1,318
566,043;22055,725;   -0,933;    2,318
566,625;21601,902;    4,067;    1,227
567,207;21445,088;    0,704;    1,682
567,788;22627,842;   -0,114;    1,500
568,370;23528,488;   -1,841;   -0,500
568,951;23320,301;   -0,569;    0,227
569,533;24198,653;    0,977;   -0,500
570,114;24725,078;   -0,296;    0,682
570,695;25213,376;   -0,478;   -1,318
571,277;25779,257;   -0,205;   -1,682
571,858;26538,964;    2,704;   -1,136
572,439;27512,681;    0,795;   -1,045
573,021;27684,903;    0,432;   -2,773
573,602;28227,198;    1,795;    0,318
574,183;29166,326;   -0,114;    2,227
574,764;29370,187;    2,068;    0,409
575,345;29912,882;    0,250;   -0,136
575,926;30557,476;    2,704;    0,136
576,507;30570,193;    2,704;   -0,227
577,088;31693,342;    1,704;    1,682
577,669;31738,775;    1,704;    1,955
578,250;32430,326;   -0,750;   -1,045
578,831;33155,292;   -0,841;   -2,227
579,412;33428,571;   -1,205;    0,955
579,993;34388,828;    1,432;    0,227
580,573;34736,593;   -0,023;   -0,955
581,154;33727,630;    1,613;   -0,591
581,735;34565,192;    0,341;    0,773
582,315;34039,101;    0,523;    2,136
582,896;34365,278;   -1,750;    1,227
583,477;33853,223;    0,614;    1,227
584,057;34024,887;    1,159;    0,955
584,638;34264,646;   -2,750;    2,318
585,218;34319,876;    2,886;    2,682
585,799;34427,866;    1,977;   -0,227
586,379;34439,797;    1,250;    1,591
586,959;33224,572;    2,613;    0,318
587,540;32537,180;    0,432;    2,227
588,120;31982,361;   -1,113;   -0,045
588,700;30937,271;    2,977;    2,136
589,281;31272,710;    1,250;   -0,955
589,861;31174,320;   -0,296;   -1,682
590,441;30983,357;   -1,477;   -2,682
591,021;29912,186;    1,432;   -2,591
591,601;30141,701;    0,431;    0,500
592,181;30110,621;   -1,296;   -0,773
592,761;29429,217;    2,250;    1,409
593,341;29283,443;    1,522;    0,045
593,921;29257,401;   -0,569;    1,591
594,501;29111,604;    1,250;    1,318
595,081;28978,514;    0,522;   -0,318
595,661;29343,085;    1,068;    0,955
596,240;29852,278;   -1,023;    0,136
596,820;29471,028;    2,613;    1,955
597,400;29730,465;    1,977;    0,773
597,980;29965,359;   -0,750;    1,045
598,559;29939,358;    0,341;   -0,227
599,139;29684,208;   -0,750;   -1,227
599,718;29545,572;    0,795;   -0,409
600,298;29778,299;   -2,387;    0,682
600,877;30036,102;    4,795;    1,409
601,457;30355,579;    0,340;    1,136
602,036;30264,605;    1,795;    2,045
602,616;30442,626;    2,250;    1,682
603,195;30791,028;    0,431;    3,500
603,774;30326,755;   -0,296;    2,045
604,354;30179,825;    2,522;   -0,500
604,933;29649,230;    0,250;    1,864
605,512;29748,899;    2,340;    0,591
606,091;29801,777;    1,886;    3,773
606,671;30623,007;    0,249;    0,773
607,250;29629,199;    1,431;    3,136
607,829;29930,350;    1,158;    3,227
608,408;29794,734;    4,613;    2,591
608,987;28827,297;    2,704;    3,409
609,566;29131,272;    0,341;   -2,500
610,145;29189,377;    2,885;    0,682
610,723;29657,976;    1,613;    6,864
611,302;28886,249;    1,067;    1,682
611,881;28320,019;    5,158;   11,227
612,460;29186,185;    0,795;    3,955
613,039;29634,747;    1,703;    2,045
613,617;28414,221;    0,886;    4,773
614,196;28466,126;    1,613;    1,227
614,775;28828,341;    1,249;    2,409
615,353;28770,614;   -1,660;    0,864
615,932;28460,689;    0,249;    2,409
616,510;29042,608;    0,158;    0,591
617,089;28574,309;    8,794;   17,591
617,667;28338,603;    4,885;    6,136
618,246;28126,299;   -1,115;    1,318
618,824;28344,379;    1,612;   -0,955
619,402;27887,929;    0,431;   -1,773
619,981;28409,133;    1,067;   -1,045
620,559;28278,508;    0,794;    1,682
621,137;27811,326;    3,067;    1,864
621,715;27723,834;    3,703;   -0,682
622,293;27629,561;    1,885;   -0,773
622,871;28132,513;    0,340;    0,500
623,450;27698,664;    0,430;   -0,864
624,028;27573,171;   -0,388;   -0,955
624,606;27187,781;    2,339;    1,682
625,183;27576,038;   -0,661;   -1,136
625,761;27229,033;    1,885;    1,136
626,339;27540,776;    2,339;    2,591
626,917;27893,376;    0,339;   -0,045
627,495;27992,879;    2,794;    1,318
628,073;27399,831;    5,248;    2,864
628,650;26998,108;    3,067;    2,136
629,228;27489,765;    1,248;    4,409
629,806;26785,210;   -0,024;    1,136
630,383;27143,178;    0,066;   -0,318
630,961;26931,424;   -2,206;   -0,955
631,539;26634,681;   -2,479;    0,227
632,116;25889,242;   12,703;   15,409
632,694;26529,553;    4,885;    6,500
633,271;26859,415;    1,975;    2,682
633,848;26779,671;    1,430;    2,045
634,426;26835,239;    1,521;    1,773
635,003;25948,288;   -0,207;   -0,409
635,580;26205,994;    1,884;    3,682
636,158;26795,384;    3,793;    1,227
636,735;26767,447;    3,339;   -0,500
637,312;26876,211;    0,521;   -0,682
637,889;26973,089;    2,248;   -0,682
638,466;26515,872;    0,066;   -0,409
639,043;26469,841;    1,702;   -1,136
639,620;26804,076;    0,611;   -0,955
640,197;27142,195;    1,612;    1,682
640,774;27274,708;    1,430;    1,136
641,351;27723,948;    0,612;    1,136
641,928;27079,552;    2,794;    1,409
642,505;26681,702;    0,794;   -0,500
643,082;26776,669;    1,885;    1,227
643,658;25786,091;    1,157;    1,500
644,235;26567,241;   -2,479;    2,500
644,812;26864,117;    1,794;    0,773
645,388;26618,267;    1,612;    1,409
645,965;26671,234;    1,521;    1,682
646,542;26734,929;    3,430;   -0,227
647,118;26746,988;    3,703;   -0,955
647,695;27063,955;    0,339;    1,136
648,271;26968,286;   -2,115;    0,500
648,848;27324,890;    0,248;    2,227
649,424;27079,767;    0,976;    1,318
650,000;26816,825;   -0,388;   -1,045
650,577;26645,520;    0,158;   -0,955
651,153;27164,397;   -1,115;    0,955
651,729;28141,092;    0,521;    0,864
652,305;28340,878;    1,339;    2,773
652,881;32856,118;   -1,297;    1,136
653,458;39888,085;    0,249;    0,227
654,034;43889,871;    0,703;    1,591
654,610;45477,384;    0,339;    0,773
655,186;46866,443;    1,612;    3,045
655,762;46614,138;   -1,842;    0,409
656,338;46685,014;    0,703;    0,136
656,913;47717,618;   -0,297;    0,409
657,489;46961,858;    0,249;   -0,318
658,065;46981,372;    0,794;   -1,591
658,641;47562,066;    2,158;   -0,864
659,217;46818,579;    2,067;    0,409
659,792;46306,092;   -1,751;   -0,409
660,368;46652,060;   -0,388;   -0,682
660,944;46362,937;    1,794;    1,227
661,519;41640,359;    0,522;    0,409
662,095;35228,326;   -0,206;    0,591
662,670;30335,112;   -0,206;   -0,136
663,246;29112,080;   -0,660;   -0,409
663,821;28428,684;    0,431;    1,682
664,396;27911,560;    0,613;    1,864
664,972;28151,346;   -0,660;   -0,500
665,547;28475,768;    3,794;    0,136
666,122;28528,645;    1,340;    0,318
666,698;28761,612;    2,431;    0,318
667,273;28081,944;    0,885;    0,136
667,848;28932,275;    0,340;    1,500
668,423;28714,697;    1,795;    2,318
668,998;29275,937;    0,976;   -0,682
669,573;29817,632;    2,067;   -1,500
670,148;29662,509;    1,885;   -0,682
670,723;29470,385;   -0,024;    0,318
671,298;29910,444;   -1,296;    1,045
671,873;30016,139;   -0,296;   -0,136
672,448;29956,834;    1,704;    0,136
673,023;30340,165;    0,249;   -0,227
673,597;30598,223;    2,704;    2,318
674,172;30384,282;    2,431;    0,318
674,747;29838,158;   -0,205;   -1,045
675,321;29763,035;   -0,933;    3,318
675,896;29332,912;    2,158;    1,045
676,471;30312,516;    2,522;    1,591
677,045;30029,756;   -0,296;    0,682
677,620;30040,178;    2,158;    1,136
678,194;30398,600;    0,249;    1,136
678,769;29919,931;    0,886;   -0,318
679,343;30166,626;   -0,023;    1,773
679,917;30004,594;    0,340;    1,955
680,492;30117,925;    0,249;    3,227
681,066;30259,347;    0,613;    0,409
681,640;30279,587;    1,795;   -0,318
682,214;31103,100;    2,340;    0,500
682,788;30604,614;    0,613;   -0,773
683,363;30591,399;    1,977;    1,682
683,937;30214,094;    0,886;   -0,318
684,511;31061,971;   -1,023;   -0,591
685,085;30753,120;   -1,478;    0,318
685,659;30521,179;    1,431;    0,864
686,232;30728,510;    1,159;   -0,318
686,806;30461,841;    2,159;    0,409
687,380;31135,809;   -1,932;    0,591
687,954;31369,049;    2,432;    1,136
688,528;30997,198;    2,613;    1,955
689,101;31820,075;    0,432;    1,045
689,675;31380,770;    0,886;   -0,136
690,249;30710,283;    3,432;    0,409
690,822;31064,705;    1,159;    0,318
691,396;31136,491;    2,068;    1,227
691,969;30573,731;    2,523;    0,136
692,543;31089,517;   -0,568;   -1,955
693,116;30741,212;   -0,659;   -1,409
693,690;30555,816;   -0,296;    0,500
694,263;31112,056;    2,341;    2,955
694,836;31160,842;    2,795;    3,591
695,410;29708,536;    1,159;    1,773
695,983;30188,050;    1,614;    0,591
696,556;30170,926;   -0,750;   -1,045
697,129;30565,348;   -1,114;    1,409
697,703;30207,861;    1,341;    1,955
698,276;30213,193;    1,705;   -0,773
698,849;29982,796;   -1,023;    1,409
699,422;30395,310;    1,250;    0,591
699,995;30044,368;   -0,659;    0,136
700,568;30524,154;   -0,204;    3,045
701,140;30557,576;   -1,841;    1,682
701,713;30305,453;    0,341;    2,409
702,286;30020,875;    0,796;    0,864
702,859;29990,933;    0,614;   -0,591
703,432;29087,446;   -0,841;    0,682
704,004;29583,050;    1,978;    0,318
704,577;29471,109;    1,068;    0,136
705,150;30044,258;    0,887;    2,500
705,722;29827,044;    1,523;   -3,227
706,295;29587,557;    1,432;   -0,591
706,867;29425,433;    0,250;    1,955
707,440;29644,492;   -0,113;   -0,409
708,012;29875,278;   -0,022;    0,591
708,584;29777,336;    2,705;    0,227
709,157;30061,940;    1,160;   -0,591
709,729;29778,817;    1,069;    2,045
710,301;30671,602;   -1,204;    0,045
710,874;30644,934;    0,341;   -0,227
711,446;29496,810;   -0,295;    0,864
712,018;29352,960;   -3,022;    0,500
712,590;29061,382;   -0,204;    1,682
713,162;29607,622;   -0,477;    1,318
713,734;29858,953;    1,796;   -2,045
714,306;29683,921;    0,342;   -0,409
714,878;28437,707;   -0,295;    0,864
715,450;29230,583;   -0,113;    0,864
716,022;29513,096;    2,433;    1,318
716,593;29671,337;    0,978;    0,591
717,165;29616,759;    1,796;   -1,227
717,737;29321,817;    0,796;    0,409
718,309;29046,876;    1,160;   -0,045
718,880;28957,298;   -1,295;   -1,409
719,452;29180,993;    0,887;   -1,591
720,024;28714,869;    1,705;   -0,591
720,595;29250,837;    2,978;    0,955
721,167;28759,805;    1,160;   -2,045
721,738;28285,772;    2,069;   -1,045
722,309;28204,922;    1,251;   -1,227
722,881;28006,616;    2,705;    0,773
723,452;28740,402;    1,251;    2,864
724,023;28882,461;    1,524;    2,682
724,595;28610,065;    2,342;    0,682
725,166;28333,759;    1,524;   -0,409
725,737;28009,727;    1,887;    0,227
726,308;28118,604;    0,797;    0,318
726,879;28509,844;    1,069;    1,227
727,450;28405,902;   -2,022;   -0,045
728,021;28371,688;    1,069;    0,682
728,592;28172,110;    1,160;    0,500
729,163;28490,896;    1,433;   -0,136
729,734;28501,045;    2,160;   -0,227
730,305;28840,649;    0,615;    0,136
730,876;29182,253;    0,888;    2,955
731,447;28856,766;    0,797;    2,682
732,017;28977,825;   -0,840;    1,864
732,588;28504,701;   -0,021;    1,227
733,159;28669,578;    3,615;   -1,045
733,729;28498,182;    1,251;    0,409
734,300;27719,968;    0,160;    0,864
734,870;28131,026;   -1,385;    0,591
735,441;28696,903;    0,888;   -0,591
736,011;28440,143;    1,070;   -1,591
736,582;28434,474;    1,251;    0,045
737,152;27888,351;    0,979;   -2,045
737,722;28338,864;    1,070;   -0,682
738,293;28058,195;   -2,021;    1,318
738,863;27915,345;    1,797;    2,318
739,433;27696,767;    4,524;    0,318
740,003;28374,371;    1,524;   -0,682
740,573;27767,702;    2,252;   -1,591
741,143;27778,397;    3,615;    0,318
741,713;28493,546;    0,252;   -0,500
742,283;28182,968;    1,706;    1,591
742,853;27951,118;    0,524;    1,591
743,423;27385,176;    0,161;    0,045
743,993;27520,598;    1,070;    1,500
744,563;26863,384;    2,524;   -0,864
745,133;26848,988;   -0,112;   -0,864
745,702;27512,137;    2,797;    1,773
746,272;26679,650;    0,434;    0,591
746,842;26427,982;   -0,748;   -0,591
747,411;26886,131;   -0,839;   -0,318
747,981;27090,190;   -0,930;    0,500
748,551;27196,339;   -0,021;   -1,045
749,120;27020,488;   -0,112;   -0,227
749,690;27372,274;    2,161;    2,409
750,259;27713,787;    0,979;    2,955
750,828;27647,937;    4,070;   -1,955
751,398;27832,268;   -0,112;   -0,045
751,967;27311,053;    2,888;    0,409
752,536;27535,839;    1,161;   -0,227
753,105;27965,989;   -1,384;    0,227
753,675;27795,229;   -0,112;    1,773
754,244;27740,560;    0,888;    3,591
754,813;27754,800;    0,979;    1,227
755,382;27349,313;    0,798;    0,955
755,951;27906,099;   -0,112;    3,682
756,520;27406,976;    2,525;    1,864
757,089;27977,307;    1,888;    0,500
757,658;28146,002;    2,434;    1,227
758,227;28121,515;   -1,111;    0,318
758,795;28433,119;   -1,021;    1,136
759,364;28696,450;    0,525;   -0,591
759,933;27629,781;    1,343;   -0,045
760,501;27177,749;    0,252;   -1,318
761,070;27706,080;   -0,293;   -1,409
761,639;28423,593;    1,434;    1,318
762,207;27662,743;    0,889;   -0,955
762,776;27606,074;    2,889;    0,864
763,344;27582,950;    0,071;    0,591
763,913;26736,373;    1,616;    1,409
764,481;27519,613;    1,980;   -0,136
765,049;27297,671;    0,616;    1,409
765,618;27130,184;    1,434;    0,318
766,186;27225,516;    2,434;    0,136
766,754;27376,119;    1,798;    1,864
767,322;26367,633;    1,162;    0,409
767,890;26399,509;    0,525;   -1,773
768,459;26753,386;    2,616;   -0,318
769,027;26965,172;    2,525;    3,409
769,595;25935,139;    2,616;    2,591
770,163;26302,107;    3,344;    2,955
770,730;26055,620;    2,525;   -0,136
771,298;25953,587;    1,162;   -1,409
771,866;26061,555;    0,253;    4,955
772,434;26359,613;    1,162;   -1,864
773,002;26516,490;    2,616;    0,682
773,569;26093,549;    1,071;    1,682
774,137;25944,698;    0,889;   -0,045
774,705;26773,938;   -0,747;   -0,136
775,272;26271,815;    0,253;    0,682
775,840;26051,055;   -0,111;    2,682
776,407;25547,386;   -0,293;    1,955
776,975;25103,172;    1,162;    0,318
777,542;26136,867;    2,162;   -0,045
778,110;25983,744;    0,707;   -0,045
778,677;25661,166;    1,071;   -0,864
779,244;25423,406;   -1,020;    1,045
779,812;25506,192;    0,980;    0,864
780,379;25332,887;    2,435;    1,136
780,946;25603,491;    2,617;   -0,773
781,513;25924,549;   -0,565;    0,318
782,080;25210,062;    1,253;    2,864
782,647;25990,939;    1,708;    3,045
783,214;25622,543;   -0,201;    3,864
783,781;25181,783;    1,708;   -0,682
784,348;25059,296;    0,253;    1,500
784,915;25520,264;   -1,474;    0,318
785,482;25289,413;    2,708;    2,591
786,049;25736,108;    1,071;   -0,591
786,615;25846,621;    1,708;   -0,955
787,182;25604,316;   -3,201;   -0,682
787,749;25296,829;   -2,201;    1,409
788,315;24555,887;    0,253;   -0,409
788,882;24930,491;    0,981;   -1,227
789,448;25616,459;    1,435;   -0,955
790,015;25574,790;    1,799;    3,227
790,581;25147,485;    0,708;    0,227
791,148;25013,089;    1,344;    1,045
791,714;25236,784;   -1,019;    3,136
792,280;24941,842;    3,708;    1,591
792,847;24523,264;   -0,928;    2,500
793,413;25104,595;   -0,110;   -0,318
793,979;24579,290;    1,526;   -1,318
794,545;24609,076;    2,981;    2,682
795,111;24038,589;    2,435;    1,318
795,678;24260,284;    3,526;   -1,682
796,244;23896,251;    2,799;    0,136
796,810;24453,946;    0,799;    0,773
797,375;24123,278;   -0,292;   -2,136
797,941;24133,972;   -1,110;    0,591
798,507;24278,485;    0,254;   -0,955
799,073;23861,908;    2,708;    0,591
799,639;23929,875;    1,435;    3,136
800,205;23944,752;   -1,565;    2,682
800,770;23445,265;    1,345;    1,773
801,336;23504,051;    2,981;   -0,955
801,901;23215,654;    6,072;    3,136
802,467;23781,895;    0,526;    2,045
803,033;23112,771;   -0,019;    0,864
803,598;23275,103;    1,072;   -1,045
804,163;23406,979;    0,708;   -0,318
804,729;23295,401;   -0,110;    1,136
805,294;23654,187;    1,072;    2,227
805,859;23523,155;    0,890;   -0,409
806,425;22944,304;    3,890;    2,682
806,990;22599,908;    1,890;    4,318
807,555;23140,057;   -0,110;    2,591
808,120;23044,571;   -1,292;   -0,409
808,685;23054,902;    1,072;   -2,500
809,250;22578,960;    2,072;   -0,500
809,815;22886,473;   -0,201;    0,682
810,380;23452,623;    0,981;    1,591
810,945;23966,863;    2,890;    2,045
811,510;23102,103;   -0,200;    1,591
812,075;22792,344;    2,800;   -1,409
812,640;22860,857;    3,709;    1,409
813,204;22903,824;    2,163;   -0,227
813,769;23426,428;    0,254;   -0,045
814,334;22793,577;    0,527;    0,864
814,898;22835,181;    1,981;    0,591
815,463;22717,603;    0,981;   -0,773
816,027;22689,844;    1,345;   -2,318
816,592;22813,448;    2,163;   -2,045
817,156;22244,597;   -2,200;    1,136
817,721;22066,928;    0,982;    2,318
818,285;22005,441;    0,618;    1,500
818,849;22711,863;   -0,018;    1,682
819,414;22617,286;    0,073;    2,955
819,978;22169,708;   -0,291;    1,773
820,542;22785,039;    2,891;    0,500
821,106;22520,552;    2,800;    0,682
821,670;22613,247;    2,709;    2,591
822,234;22293,123;    1,073;    1,409
822,798;21630,636;   -0,836;    0,500
823,362;21641,240;    1,527;    4,227
823,926;20916,572;   -0,018;    1,136
824,490;21111,266;    3,527;   -0,682
825,054;21612,416;    2,527;   -1,136
825,618;21232,293;   -1,200;   -1,500
826,181;21177,078;    0,982;   -1,318
826,745;21050,410;   -0,745;   -1,045
827,309;21421,923;    2,255;    1,318
827,872;20820,436;    0,527;    0,955
828,436;21816,767;    1,982;   -0,773
828,999;21859,643;    2,436;    1,227
829,563;20699,429;   -0,654;    1,136
830,126;20467,669;   -0,018;   -0,591
830,690;20454,364;    0,709;    2,864
831,253;19948,332;   -0,473;    2,227
831,816;20146,209;   -0,018;    0,500
832,380;20082,813;    1,164;    0,864
832,943;20290,507;    3,073;   -0,500
833,506;19783,293;    0,255;   -1,227
834,069;20593,352;    2,164;   -0,955
834,632;20651,410;   -2,200;    1,318
835,195;20506,559;    1,346;    0,955
835,758;19722,436;    0,709;    1,955
836,321;19576,222;    1,073;   -1,045
836,884;19660,826;   -1,291;   -0,955
837,447;19708,430;    0,528;    1,773
838,010;19976,943;    1,800;    3,227
838,573;20303,001;    0,528;    0,773
839,135;20239,151;   -0,109;   -0,955
839,698;19621,573;    2,528;    0,409
840,261;19149,904;    0,255;   -0,227
840,823;19031,144;   -0,927;    0,864
841,386;19317,021;   -0,018;   -2,409
841,948;19195,625;    0,255;    1,773
842,511;18943,592;    0,255;    1,682
843,073;19086,378;    2,982;    0,227
843,636;18909,528;    0,619;   -0,227
844,198;18793,586;    1,255;    0,591
844,760;18942,826;    0,619;    1,955
845,322;18569,521;    0,164;    1,136
845,885;19012,489;   -0,290;    0,591
846,447;19430,911;    0,710;    0,227
847,009;18959,333;    3,983;   -0,682
847,571;19320,755;    1,346;   -2,045
848,133;19415,723;   -0,199;   -1,864
848,695;19243,690;    2,346;    1,409
849,257;18785,931;    1,346;   -1,682
849,819;18977,625;    2,983;   -0,409
850,381;19006,502;    1,801;   -0,864
850,942;19350,288;    1,892;   -0,591
851,504;19260,255;    0,983;    0,227
852,066;19344,496;    1,619;   -1,591
852,628;18860,827;    0,165;    1,955
853,189;18396,976;    0,256;    2,682
853,751;18521,762;   -0,654;    1,409
854,312;18322,639;    1,256;   -1,682
854,874;18804,606;   -0,108;   -0,773
855,435;19316,938;    0,528;   -1,682
855,997;19483,451;    3,983;   -0,136
856,558;18771,327;    0,801;    1,773
857,119;18887,477;   -0,744;    2,864
857,681;18596,899;   -0,108;    0,318
858,242;18634,230;    1,347;   -2,136
858,803;19070,016;    1,074;   -0,773
859,364;19600,256;    0,892;   -4,773
859,925;18983,224;   -0,290;   -0,955
860,486;18879,373;    0,529;   -0,955
861,047;18600,886;    0,165;   -1,227
861,608;18399,672;    0,165;   -0,773
862,169;18562,367;   -0,562;   -0,045
862,730;18296,152;   -0,290;    1,409
863,291;18515,938;    0,438;   -0,500
863,852;18853,724;   -0,926;    1,955
864,412;18341,873;   -1,835;   -0,864
864,973;16898,568;    1,892;    0,500
865,534;16721,172;    2,074;    0,227
866,094;18246,685;    2,620;    0,227
866,655;17914,016;    4,711;    3,318
867,215;18204,893;    0,074;    0,136
867,776;18090,315;   -1,199;   -0,136
868,336;18180,374;    1,529;    0,136
868,897;17591,250;    3,438;    1,682
869,457;17377,672;    3,256;    0,318
870,017;17639,185;    2,438;   -1,227
870,578;18174,062;    1,893;    0,773
871,138;17750,030;    2,620;   -0,955
871,698;17331,452;   -0,562;   -1,318
872,258;17154,601;    0,711;   -2,864
872,818;17534,660;    2,347;    0,045
873,378;17519,173;   -2,198;    1,045
873,938;17095,140;    4,984;    0,500
874,498;17403,290;    1,256;   -1,955
875,058;17265,712;    4,347;    1,773
875,618;17133,225;    1,438;   -2,682
876,177;17081,738;   -0,471;    0,136
876,737;16624,251;   -0,289;    1,955
877,297;16644,946;    2,711;    1,955
877,856;16653,913;    2,529;    0,318
878,416;16576,426;    2,438;   -0,136
878,976;16840,485;    3,438;    0,409
879,535;17023,270;    4,529;    3,136
880,095;16745,147;    1,347;    0,045
880,654;16843,842;    0,347;    1,318
881,213;16881,446;    2,347;    1,500
881,773;16571,050;    1,984;    2,682
882,332;16986,017;    6,075;    5,136
882,891;16836,894;    0,711;    2,136
883,451;17259,134;   -2,016;    1,682
884,010;16746,466;   -1,107;   -0,409
884,569;16808,070;   -2,289;   -0,045
885,128;16911,492;   -0,743;   -1,864
885,687;16991,005;   -0,743;    0,682
886,246;16691,063;    2,620;    2,136
886,805;16426,940;    1,620;    2,045
887,364;16779,453;    1,166;   -0,500
887,922;17127,420;   -0,016;    0,045
888,481;16599,115;    1,530;    0,591
889,040;16932,446;    3,711;    2,136
889,599;17603,869;    2,166;    1,409
890,157;17678,382;    2,166;    2,409
890,716;17348,804;    2,166;    0,227
891,274;17114,499;    0,075;   -1,136
891,833;17543,557;    1,166;    0,864
892,391;17440,706;    1,802;    0,500
892,950;17555,674;    0,166;   -0,773
893,508;17865,005;    0,984;   -0,409
894,067;17214,882;   -0,379;    0,136
894,625;17141,849;   -1,016;   -1,500
895,183;17374,090;   -0,198;   -0,682
895,741;17317,512;    2,257;   -1,773
896,299;17129,934;    1,621;   -2,409
896,858;17283,538;    1,530;   -1,591
897,416;17393,324;    0,166;   -1,318
897,974;17124,291;   -2,197;    0,318
898,532;17289,350;    6,530;    2,682
899,089;17200,590;    0,621;   -0,682
899,647;17243,830;    0,530;    1,318
900,205;16967,889;    0,257;    1,045
900,763;17159,856;    2,166;    0,227
901,321;17156,733;    3,530;   -1,409
901,878;16598,519;    3,257;   -0,773
902,436;16408,214;    0,257;    1,318
902,994;16879,454;    6,712;    3,682
903,551;16328,058;    1,439;    0,409
904,109;16685,389;    1,530;   -1,409
904,666;16286,993;    1,439;    1,045
905,224;16088,779;    3,894;   -0,409
905,781;15777,837;   -0,470;   -0,318
906,338;15871,441;    0,167;    1,045
906,895;15820,136;    1,894;    2,045
907,453;15708,104;    2,348;    1,136
908,010;15745,617;    3,348;    0,409
908,567;15414,130;   -0,561;    0,591
909,124;14929,734;    2,439;   -1,500
909,681;14993,247;   -1,288;    0,682
910,238;15152,487;   -0,106;   -1,318
910,795;15458,455;   -1,561;   -1,136
911,352;15099,727;   -0,379;   -2,682
911,909;14505,545;    2,803;   -0,864
912,466;15023,636;    1,985;    1,500
913,022;14518,364;   -0,924;    0,500
913,579;14903,727;   -0,470;    2,045
914,136;14587,273;   -2,561;    0,955
914,692;14955,909;    1,530;   -1,227
915,249;14524,091;    0,530;    0,409
915,806;14726,273;    1,803;    1,955
916,362;14449,455;    0,894;    1,864
916,918;14036,182;    2,439;    1,045
917,475;14025,727;    1,621;    0,955
918,031;14140,273;    0,076;   -0,045
918,587;13556,364;    0,621;   -0,318
919,144;13803,364;   -0,379;    0,227
919,700;14107,273;    0,167;    0,773
920,256;13675,364;    0,439;    0,045
920,812;13282,727;    1,439;   -1,045
921,368;13289,273;    1,348;   -1,045
921,924;12967,909;    0,439;   -0,136
922,480;12491,364;    0,076;    1,227
923,036;13113,818;   -0,652;    1,955
923,592;13122,364;    0,621;    0,318
924,148;13039,636;    1,894;   -0,955
924,704;12334,727;    0,258;   -0,409
925,259;12619,000;   -0,561;    0,591
925,815;12339,818;    3,803;    0,500
926,371;11866,545;    3,530;    1,409
926,926;11752,545;    1,621;    0,591
927,482;11379,273;    1,621;    0,773
928,037;11242,636;   -0,833;    2,045
928,593;11529,273;    0,258;    1,045
929,148;11338,818;    1,167;   -1,500
929,704;10907,727;    2,439;   -0,500
930,259;11059,182;    0,894;   -0,136
930,814;10153,273;    1,803;    1,955
931,369; 9850,091;    0,258;   -0,773
931,925; 9743,727;   -1,924;    0,136
932,480; 9621,000;    3,076;   -2,591
933,035; 9487,000;    3,985;   -0,318
933,590; 9268,818;   -1,742;   -1,773
934,145; 8953,636;   -1,288;   -0,318
934,700; 9327,818;    0,348;   -0,591
935,255; 9072,000;    4,803;    0,045
935,809; 8332,909;    6,258;    0,864
936,364; 7483,818;    2,167;   -0,136
936,919; 7454,182;    2,348;   -1,773
937,474; 7343,455;    1,348;    0,136
938,028; 7124,000;    3,076;    1,136
938,583; 6568,455;    6,348;    4,682
939,138; 6850,636;    0,167;    2,136
939,692; 6316,727;   -1,015;   -1,136
940,247; 5973,818;    1,167;   -1,045
940,801; 5554,636;    0,621;    0,227
941,355; 5479,273;    0,439;    2,591
941,910; 5143,545;    0,712;   -2,136
942,464; 5220,636;    2,712;   -0,318
943,018; 5001,727;    3,258;   -0,227
943,572; 4935,545;    2,803;   -0,682
944,126; 4353,091;   -0,924;   -0,409
944,681; 4258,545;    0,712;    0,227
945,235; 4231,364;    2,167;   -0,591
945,789; 4185,273;    1,258;   -1,864
946,342; 4256,091;   -0,561;   -0,591
946,896; 4064,364;    0,348;    0,955
947,450; 3836,273;   -0,561;   -0,227
948,004; 4003,636;    1,076;   -0,045
948,558; 4038,636;    1,258;   -0,864
949,111; 3940,000;   -1,197;   -0,318
949,665; 3984,273;   -0,106;   -0,682
950,219; 3852,909;    0,621;   -1,045
950,772; 3946,818;    0,258;    1,864
951,326; 3880,273;   -1,106;   -0,955
951,879; 3955,091;    1,076;   -2,318
952,433; 3965,091;    1,348;    2,227
952,986; 3822,364;    0,348;    0,682
953,539; 3745,818;    1,530;    0,591
954,093; 3696,545;    0,985;   -1,318
954,646; 3825,818;   -0,288;    1,318
955,199; 3649,273;    1,258;   -0,500
955,752; 3511,909;    1,985;    1,773
956,305; 3460,818;    0,894;    2,955
956,858; 3643,091;    0,621;   -0,318
957,411; 3823,545;    3,621;    2,136
957,964; 3639,273;    2,076;    2,136
958,517; 3632,727;    0,985;    3,136
959,070; 3458,818;   -1,197;    1,955
959,623; 3539,182;    1,076;    1,500
960,176; 3314,818;    0,712;    2,045
960,728; 3273,818;    1,712;    0,773
961,281; 3363,000;    2,258;    0,500
961,834; 3391,818;   -0,833;    0,864
962,386; 3302,091;    1,258;    1,045
962,939; 3227,182;    3,439;   -0,318
963,491; 3379,545;    2,621;    1,136
964,043; 3235,818;    0,076;    2,409
964,596; 3357,727;    1,712;    2,227
965,148; 3193,636;   -0,379;    1,773
965,700; 3147,000;   -0,015;   -0,227
966,253; 3319,545;   -0,833;    0,318
966,805; 3126,545;    1,894;    0,773
967,357; 3159,182;    0,439;   -1,500
967,909; 3105,455;    1,167;   -1,227
968,461; 3231,545;    0,894;    3,136
969,013; 3136,182;   -1,561;   -0,864
969,565; 3207,273;    1,803;   -1,136
970,117; 3287,636;    3,803;    1,045
970,669; 3120,455;    3,258;   -0,136
971,220; 3004,182;    2,167;   -1,500
971,772; 2914,000;    1,348;   -0,318
972,324; 3043,364;   -1,197;   -0,500
972,876; 3001,364;    0,167;   -0,045
973,427; 3118,091;   -1,197;   -1,045
973,979; 3094,273;    0,076;   -2,500
974,530; 3117,909;    0,803;    1,318
975,082; 3130,091;    2,167;    1,682
975,633; 3013,364;    2,894;    1,682
976,184; 3185,727;    2,076;    0,773
976,736; 2973,182;    0,348;    0,227
977,287; 2751,818;    0,258;   -0,500
977,838; 2936,727;   -0,924;   -0,318
978,389; 2992,000;    0,803;   -0,500
978,940; 2868,909;    1,258;   -0,409
979,491; 2911,273;    2,258;   -0,500
980,042; 2849,091;   -0,652;    3,045
980,593; 2931,364;    1,894;    0,227
981,144; 2978,727;    3,530;   -0,500
981,695; 2935,818;   -0,470;    1,500
982,246; 2886,000;   -1,833;    1,045
982,797; 3053,091;   -0,561;    0,682
983,347; 3166,909;    2,167;    0,591
983,898; 3306,818;    4,167;    0,409
984,449; 3135,818;    2,530;    0,773
984,999; 3048,455;    1,894;   -1,136
985,550; 2807,909;    3,167;   -0,318
986,100; 2867,909;    0,712;   -0,318
986,651; 2918,182;    0,258;    0,045
987,201; 2870,636;    0,894;   -0,591
987,751; 2956,273;   -0,288;    2,864
988,302; 2956,000;   -0,379;    1,500
988,852; 2959,909;    1,985;   -1,136
989,402; 3003,818;    0,985;    0,682
989,952; 2938,545;    1,621;    0,864
990,502; 3023,364;    1,076;    0,682
991,052; 3003,818;   -0,106;    0,045
991,602; 2866,636;    1,167;    1,318
992,152; 2853,636;    2,803;    0,682
992,702; 2809,545;    1,167;   -0,045
993,252; 2747,000;    0,076;   -0,500
993,802; 2835,909;    1,167;    1,318
994,352; 3082,545;   -0,742;    1,136
994,901; 3184,091;    1,076;    3,227
995,451; 3094,818;   -1,197;    0,318
996,000; 3162,000;    1,076;    0,318
996,550; 2890,545;    2,894;    0,227
997,100; 2897,636;   -0,561;   -0,045
997,649; 3177,545;   -0,197;    0,955
998,198; 2817,545;   -0,288;   -1,500
998,748; 2989,000;    0,348;   -2,318
999,297; 2892,545;    0,985;   -0,409
999,846; 2967,636;    1,894;   -0,773
1000,395; 3033,727;    1,530;    0,500
1000,945; 2991,182;    1,076;   -0,773
1001,494; 3039,545;    0,167;    0,682
1002,043; 3050,636;    0,712;    0,864
1002,592; 2887,364;    3,439;    1,955
1003,141; 3025,636;    2,439;   -0,682
1003,690; 2868,182;    1,258;    0,500
1004,238; 2942,455;   -0,106;   -0,045
1004,787; 2591,000;   -1,288;    1,227
1005,336; 2826,182;    1,621;    0,682
1005,885; 2959,364;   -0,197;   -2,773
1006,433; 3104,273;   -0,470;    0,955
1006,982; 3166,818;    2,167;    1,682
1007,531; 3072,455;    2,712;   -0,227
1008,079; 3028,909;    0,258;    0,500
1008,627; 3188,182;    1,621;    0,409
1009,176; 2918,091;    0,076;   -1,955
1009,724; 2959,364;   -2,742;    0,864
1010,273; 2994,000;    1,076;    0,500
1010,821; 3131,000;    1,076;    1,409
1011,369; 2869,273;    0,076;    1,318
1011,917; 2844,636;   -0,833;   -0,591
1012,465; 3139,636;    2,530;   -1,591
1013,013; 3251,636;    0,439;   -1,682
1013,561; 3103,818;   -1,288;   -0,773
1014,109; 3150,727;   -0,833;    1,682
1014,657; 3031,364;    1,348;    0,591
1015,205; 3144,364;    0,894;   -0,955
1015,753; 3172,273;    0,258;   -1,409
1016,301; 3216,273;    2,621;    3,045
1016,848; 3252,545;    2,167;    0,409
1017,396; 3275,000;    1,621;    0,045
1017,944; 3397,818;    2,621;    1,864
1018,491; 3140,182;   -0,197;    1,409
1019,039; 3314,000;   -0,652;    0,591
1019,586; 3226,545;    0,076;    1,682
1020,134; 3325,727;    0,712;    1,500
1020,681; 3322,273;    2,894;   -1,136
1021,228; 3330,545;   -0,561;   -2,227
1021,776; 3177,364;   -0,833;   -1,136
1022,323; 3402,818;    0,803;    0,773
1022,870; 3336,091;   -0,470;   -0,045
1023,417; 3219,545;    2,076;    1,864
1023,964; 3375,909;    0,621;    1,227
1024,511; 3217,364;   -0,652;    0,773
1025,058; 3010,818;    0,439;   -0,045
1025,605; 3058,818;   -1,742;    3,136
1026,152; 3269,636;   -0,106;   -0,591
1026,699; 3008,909;    0,167;    1,318
1027,245; 3181,000;    2,439;    0,318
1027,792; 3398,000;    0,712;    1,409
1028,339; 3265,636;    4,076;   -0,045
1028,885; 3130,091;    3,621;   -0,227
1029,432; 3068,727;   -0,106;    0,227
1029,978; 3121,364;    1,348;   -1,591
1030,525; 3012,909;    1,621;    0,409
1031,071; 3281,455;    0,348;    1,136
1031,618; 3379,727;    1,258;    1,682
1032,164; 3157,636;    2,076;    3,045
1032,710; 3210,636;    0,076;   -1,500
1033,256; 3129,364;    0,712;   -0,136
1033,803; 3108,727;   -0,288;    1,500
1034,349; 2833,182;    1,803;    0,136
1034,895; 2997,545;    2,621;   -0,318
1035,441; 2974,455;    0,439;    0,318
1035,987; 2995,000;   -2,288;   -0,682
1036,533; 2988,182;   -0,197;   -0,955
1037,078; 3153,182;    4,712;    1,682
1037,624; 2993,455;    2,439;   -0,955
1038,170; 3023,818;    1,712;   -0,318
1038,716; 2911,182;    2,167;   -0,409
1039,261; 2849,182;    2,167;   -0,773
1039,807; 2785,909;   -0,015;    3,409
1040,352; 2833,909;   -1,288;   -0,318
1040,898; 2883,727;    0,167;   -0,682
1041,443; 2795,091;    0,803;   -2,591
1041,989; 2824,636;    3,621;    1,591
1042,534; 2715,273;    0,985;    2,591
1043,079; 2836,545;    1,985;    0,955
1043,625; 2600,182;    0,258;    0,500
1044,170; 2647,636;    2,439;    1,045
1044,715; 2916,273;    0,167;    0,955
1045,260; 2725,818;   -0,833;   -0,955
1045,805; 2766,909;    0,258;   -0,591
1046,350; 2720,727;    0,530;   -0,409
1046,895; 2694,000;    0,803;    1,591
1047,440; 2622,909;    1,530;    0,409
1047,985; 2527,818;   -1,197;   -0,955
1048,530; 2443,818;    1,348;    1,227
1049,074; 2509,000;    2,803;    0,318
1049,619; 2482,182;   -0,924;    1,955
1050,164; 2290,273;    1,076;    0,227
1050,708; 2339,636;    2,621;    0,045
1051,253; 2699,182;    3,258;   -2,227
1051,797; 2415,545;   -0,197;   -1,318
1052,342; 2439,091;    1,348;    1,045
1052,886; 2421,818;    1,803;   -1,409
1053,430; 2313,000;    2,167;    0,136
1053,975; 2326,818;    0,894;   -0,318
1054,519; 2295,273;    1,803;    3,227
1055,063; 2296,091;    3,621;    1,318
1055,607; 2181,091;    1,348;    0,227
1056,151; 2213,273;    0,530;    1,682
1056,695; 2135,273;   -1,833;   -1,136
1057,239; 2203,000;   -1,197;   -0,682
1057,783; 2202,636;    2,258;   -1,500
1058,327; 2155,455;    3,076;    1,409
1058,871; 2375,727;    3,985;    1,318
1059,415; 2089,000;   -0,561;   -0,045
1059,958; 2336,727;    2,985;    2,591
1060,502; 2061,909;    1,348;   -0,773
1061,046; 1975,273;    1,712;   -0,955
1061,589; 1971,364;    2,803;   -1,136
1062,133; 1845,182;    0,985;    1,864
1062,676; 1765,091;    1,439;    0,864
1063,220; 1776,727;    0,985;    0,500
1063,763; 1797,364;    2,985;    1,136
1064,306; 1865,909;    0,985;    1,864
1064,849; 1754,545;    2,076;    0,591
1065,393; 1756,727;    2,894;   -1,500
1065,936; 1876,455;    2,530;   -0,409
1066,479; 1780,545;    2,621;    1,318
1067,022; 1788,455;    1,894;   -0,227
1067,565; 1706,182;   -1,197;   -1,318
1068,108; 1734,727;    1,258;   -0,591
1068,651; 1710,455;   -2,470;    1,409
1069,194; 1630,091;   -1,106;   -1,682
1069,736; 1618,455;    3,803;    0,955
1070,279; 1604,091;   -1,652;   -0,500
1070,822; 1659,091;    1,530;   -0,318
1071,364; 1732,455;    0,530;    1,318
1071,907; 1548,273;    0,348;    3,227
1072,450; 1473,091;    0,258;   -0,045
1072,992; 1464,909;   -0,561;    3,136
1073,535; 1598,455;    0,167;    2,136
1074,077; 1402,091;    2,985;    2,045
1074,619; 1357,000;    0,985;    0,591
1075,161; 1386,636;   -0,561;    1,500
1075,704; 1571,091;    0,258;    1,227
1076,246; 1380,455;    1,530;    0,682
1076,788; 1302,273;   -1,015;    1,773
1077,330; 1391,636;   -2,106;    2,136
1077,872; 1338,727;   -1,924;    0,955
1078,414; 1563,000;    3,712;    0,773
1078,956; 1288,545;    0,167;   -0,227
1079,498; 1536,727;    0,439;    0,318
1080,040; 1244,909;    0,985;   -1,318
1080,581; 1198,091;    0,621;   -0,318
1081,123; 1127,818;   -0,106;   -0,773
1081,665; 1195,818;    3,803;   -0,955
1082,206; 1465,545;    3,258;   -0,500
1082,748; 1335,273;    3,258;    2,045
1083,289; 1217,273;    0,167;    1,318
1083,831; 1117,727;    0,258;    0,227
1084,372; 1155,545;    0,894;    0,591
1084,913; 1154,818;    3,348;    0,864
1085,455; 1125,545;    1,530;   -2,045
1085,996; 1100,273;    0,530;    0,136
1086,537; 1116,818;    0,985;    0,864
1087,078; 1150,545;    0,439;   -2,136
1087,619; 1184,727;   -1,652;    0,227
1088,160; 1103,455;    1,439;    1,318
1088,701; 1091,636;   -0,742;    0,682
1089,242; 1035,455;   -0,561;   -2,227
1089,783; 1111,545;   -0,561;    1,409
1090,324; 1081,455;   -0,833;    0,682
1090,865;  964,727;   -1,924;   -0,409
1091,405;  954,364;   -0,561;    2,227
1091,946;  990,364;   -0,197;   -0,955
1092,487;  913,000;   -1,288;   -1,409
1093,027; 1064,636;    1,803;   -1,500
1093,568;  930,818;    2,258;    1,227
1094,108; 1000,636;    0,621;    1,773
1094,649;  954,182;   -0,470;    0,136
1095,189;  895,818;    1,167;   -0,682
1095,729;  841,091;    0,712;    0,955
1096,269;  850,636;    1,258;   -0,955
1096,810; 1155,545;   -0,197;    0,500
1097,350;  987,091;   -0,561;   -0,773
1097,890;  889,000;    2,985;    1,227
1098,430; 1122,818;    4,985;    2,864
1098,970; 1008,273;    1,894;    1,682
1099,510;  876,455;   -0,833;   -2,318
1100,050;  811,909;    0,258;   -1,591
1100,589;  777,273;    0,076;   -0,318
1101,129;  894,909;    0,894;   -0,955
1101,669; 1027,818;    2,803;    2,136
1102,209;  868,000;    1,530;    2,227
1102,748;  814,727;    3,439;    0,955
1103,288;  808,364;    0,712;   -1,227
1103,827;  834,000;    3,530;   -2,227
1104,367;  716,818;    1,712;   -2,409
1104,906;  687,636;   -1,015;   -1,136
1105,445;  756,364;    0,985;   -1,136
1105,985;  695,636;   -0,652;    1,500
1106,524;  738,636;    1,530;   -0,682
1107,063;  707,364;    1,167;    1,409
1107,602;  690,182;    1,894;   -1,500
1108,141;  618,727;    1,621;    1,500
1108,680;  708,182;    3,985;   -0,591
1109,219;  658,273;    0,167;   -0,500
1109,758;  658,000;    4,167;    0,682
1110,297;  630,364;   -1,106;   -0,682
1110,836;  584,000;    1,439;    0,955
1111,375;  730,091;    0,348;    0,409
1111,913;  736,636;    0,985;    0,773
1112,452;  683,636;    0,894;    0,136
1112,991;  577,182;    1,076;    1,955
1113,529;  536,818;    0,167;   -0,045
1114,068;  596,545;    0,439;    2,955
1114,606;  502,000;   -0,561;   -0,955
1115,144;  655,909;    1,530;    1,045
1115,683;  590,909;    1,985;    0,318
1116,221;  645,818;    2,076;   -0,864
1116,759;  556,636;    1,621;   -0,864
1117,297;  741,909;    1,621;    1,864
1117,836;  554,455;    1,985;   -1,227
1118,374;  554,727;    0,258;   -0,682
1118,912;  516,182;    0,439;    2,682
1119,450;  504,727;    0,985;    0,864
1119,988;  549,455;    3,348;    2,136
1120,525;  984,091;    7,258;    3,318
1121,063;  690,000;    0,530;    1,864
1121,601;  506,455;    1,076;   -1,227
1122,139;  462,182;    1,076;   -2,045
1122,676;  642,000;   -1,652;    2,773
1123,214;  586,636;    0,712;    4,409
1123,751;  409,364;    0,621;    2,227
1124,289;  535,636;    0,894;   -0,409
1124,826;  411,545;   -0,379;    0,227
1125,364;  342,545;    0,712;   -0,955
1125,901;  523,818;    6,258;    1,227
1126,438;  608,455;    3,530;    0,955
1126,975;  350,091;    2,985;   -0,773
1127,513;  417,182;    2,621;    2,136
1128,050;  340,636;   -0,561;   -0,682
1128,587;  425,273;    1,348;   -0,227
1129,124;  454,818;   -0,015;    1,318
1129,661;  344,909;   -1,924;    0,227
1130,198;  495,182;    2,439;    0,773
1130,734;  438,455;   -0,379;    1,409
1131,271;  318,364;   -1,197;    0,864
1131,808;  477,455;    1,621;    3,045
1132,345;  343,545;    4,530;    0,318
1132,881;  242,455;   -0,561;   -1,864
1133,418;  368,091;    0,348;   -1,136
1133,954;  311,909;    0,712;   -2,682
1134,491;  376,727;    1,712;   -0,773
1135,027;  292,545;    2,167;    0,864
1135,564;  358,727;    1,439;    2,955
1136,100;  340,273;   -0,742;    2,136
1136,636;  257,545;   -1,015;   -1,045
1137,172;  329,182;    0,894;   -1,045
1137,708;  268,000;   -1,561;   -1,045
1138,245;  265,909;    0,803;   -1,227
1138,781;  227,273;    1,803;   -3,318
1139,317;  287,364;    1,894;   -1,409
1139,852;  281,636;    3,076;    0,136
1140,388;  385,182;    2,076;   -0,409
1140,924;  268,364;    1,076;   -2,227
1141,460;  207,091;   -0,288;    0,136
1141,996;  157,182;   -0,652;    2,682
1142,531;  195,545;    1,076;    3,318
1143,067;  397,182;    1,167;    1,045
1143,602;  447,545;    3,439;   -0,318
1144,138;  302,273;    0,803;    1,045
1144,673;  179,455;    1,621;    1,409
1145,209;  239,455;    2,894;   -0,318
1145,744;  167,364;    0,803;    0,864
1146,279;  288,545;    1,530;   -0,136
1146,815;  214,455;    1,530;   -2,682
1147,350;  262,909;   -0,924;    0,045
1147,885;  173,000;   -1,924;   -1,318
1148,420;  176,182;    2,439;    0,773
1148,955;  148,273;   -1,470;    1,864
1149,490;  179,364;   -1,106;   -1,591
1150,025;  161,273;   -1,106;   -1,773
1150,560;  259,182;   -0,288;   -0,955
1151,094;  227,545;    0,258;   -0,591
1151,629;  235,455;   -3,742;    0,864
1152,164;  166,091;   -1,288;    1,318
1152,698;  132,727;    1,258;   -0,136
1153,233;   90,182;   -1,379;   -0,682
1153,767;  135,818;   -0,288;   -2,318
1154,302;  189,455;   -0,379;    1,773
1154,836;  183,091;    0,803;   -2,136
1155,371;  231,000;    2,258;    3,682
1155,905;  203,273;    1,985;    1,682
1156,439;  159,545;    0,530;   -0,500
1156,973;  187,091;    0,439;    0,318
1157,507;  131,273;   -1,742;    0,682
1158,042;  157,273;   -0,652;    1,045
1158,576;  195,000;   -0,561;    1,773
1159,110;  189,364;    0,076;    2,409
1159,643;  159,091;   -2,470;   -0,045
1160,177;  107,182;   -2,015;    1,500

