
Integration time [ms]:   0,040
Averaging Nr. [scans]: 11
Smoothing Nr. [pixels]: 0
Data measured with spectrometer [name]: 7318044SP
Wave   ;Sample   ;Dark     ;Reference
[nm]   ;[counts] ;[counts] ;[counts] 

186,757;   32,805;   38,161;    1,318
187,357;   66,762;   26,706;    0,955
187,958;   33,745;   17,252;   -1,591
188,558;   86,938;   12,979;   -1,227
189,159;   51,972;   10,070;   -4,500
189,759;   23,606;    5,797;   -3,591
190,360;   19,128;    6,797;   -2,136
190,960;   50,898;    5,706;   -4,136
191,560;   61,721;    2,614;   -6,591
192,161;  275,967;    5,885;   -3,500
192,761;  139,209;    5,520;   -3,227
193,361;   95,634;    3,065;   -3,773
193,962;  149,422;    1,612;   -2,682
194,562;   79,668;   -0,114;   -3,955
195,162;  103,892;   -0,567;   -2,227
195,762;  251,122;    2,433;   -0,045
196,362;  204,505;    1,706;   -2,500
196,963;   86,078;    1,706;   -0,864
197,563;  156,098;    1,252;   -0,955
198,163;   96,291;   -0,111;   -0,682
198,763;  112,764;   -0,020;   -0,500
199,363;  207,859;    3,616;   -0,500
199,963;  174,092;    2,162;    0,409
200,563;  158,022;    6,344;   -1,409
201,163;  129,889;    5,435;   -0,227
201,763;  215,540;    1,435;    0,318
202,363;  160,872;    0,980;    1,500
202,963;  252,489;    1,526;    1,045
203,563;  357,927;    0,344;    0,500
204,162;  218,206;    1,889;   -1,864
204,762;  207,478;    2,071;    0,591
205,362;  172,815;    0,708;    1,955
205,962;  265,910;    3,435;    1,955
206,562;  267,483;    1,889;    2,318
207,161;  235,404;    1,708;    0,318
207,761;  390,142;    4,435;    2,409
208,361;  264,527;    1,889;    1,409
208,960;  356,362;    2,889;    1,500
209,560;  420,960;    0,435;    1,591
210,160;  406,256;    5,071;    1,864
210,759;  369,946;    0,708;    1,227
211,359;  375,825;   -0,474;    1,045
211,958;  619,193;    3,526;    2,045
212,558;  699,774;    0,799;    1,864
213,157;  541,045;   -0,929;    1,500
213,757;  957,607;    5,617;   -0,227
214,356;  668,423;    1,708;   -0,409
214,956;  985,832;    3,526;    0,409
215,555;  623,683;    0,617;    2,136
216,154;  562,161;   -0,292;   -0,591
216,754;  576,294;    1,253;    0,773
217,353;  693,442;   -0,383;   -1,045
217,952;  545,943;    2,072;    0,318
218,552;  777,922;    0,254;   -0,773
219,151;  669,328;   -1,110;    0,955
219,750;  663,518;    0,890;   -0,227
220,349;  758,611;   -2,292;    1,045
220,948;  850,588;    1,163;    1,136
221,548;  829,140;    0,617;    1,227
222,147;  944,360;   -1,292;   -0,409
222,746; 1217,560;    1,254;   -0,955
223,345; 1069,637;   -1,019;    0,500
223,944; 1084,197;    1,163;    0,773
224,543; 1254,835;    4,072;   -1,409
225,142; 1362,463;    1,345;    0,136
225,741; 1262,389;    1,163;    1,045
226,340; 1280,580;    1,254;   -0,955
226,939; 1699,311;    2,708;   -0,136
227,538; 1606,749;    1,163;   -0,773
228,137; 1773,912;    0,435;    0,864
228,735; 1877,296;    0,435;    1,227
229,334; 1638,884;   -0,474;   -0,227
229,933; 2014,707;    0,799;    0,591
230,532; 2116,778;   -1,201;   -0,409
231,131; 2177,607;    1,253;    0,318
231,729; 2282,358;    1,163;   -2,318
232,328; 2353,216;    0,435;   -1,500
232,927; 2402,438;    4,526;   -0,500
233,525; 2524,391;    0,981;    0,045
234,124; 2722,028;    1,890;   -1,591
234,723; 2721,950;    1,617;   -1,045
235,321; 2853,952;    1,163;    0,136
235,920; 3038,064;    2,526;   -1,227
236,518; 3284,702;    1,072;    0,318
237,117; 3420,641;    2,890;   -0,227
237,715; 3563,749;    1,163;   -0,500
238,314; 3626,988;    1,708;   -2,318
238,912; 3733,647;    0,526;   -1,409
239,510; 3732,914;    1,162;   -1,227
240,109; 3901,721;   -0,474;    3,773
240,707; 3935,683;   -0,474;    1,227
241,305; 4259,104;   -0,383;    0,136
241,904; 4443,104;   -0,292;   -2,045
242,502; 4410,586;    3,253;   -0,227
243,100; 4340,337;    3,344;   -0,955
243,698; 4575,899;    2,799;    1,682
244,297; 4722,772;   -0,656;    0,682
244,895; 4596,267;   -0,474;   -2,318
245,493; 4890,850;    2,981;   -0,591
246,091; 4899,457;    5,163;   -1,318
246,689; 4875,296;    2,163;    0,591
247,287; 5021,567;   -0,019;   -1,136
247,885; 5295,417;   -1,019;    1,227
248,483; 5394,201;   -0,201;   -0,500
249,081; 5495,446;    0,981;    1,591
249,679; 5613,736;   -1,019;    1,682
250,277; 5851,383;   -2,292;    0,864
250,875; 5831,770;    0,617;   -1,045
251,473; 5859,188;   -0,019;    0,500
252,071; 6034,201;   -0,383;    1,045
252,669; 6171,015;   -1,565;    0,318
253,267; 6392,023;    1,618;    0,773
253,864; 6317,749;    0,617;    0,682
254,462; 6247,571;    1,526;    1,591
255,060; 6191,677;    0,072;    1,318
255,658; 6495,288;   -3,292;   -0,136
256,255; 6871,224;   -0,201;   -2,045
256,853; 6753,053;    2,345;    1,409
257,451; 6725,711;    1,981;    1,864
258,048; 7007,907;    2,072;    1,864
258,646; 6745,138;    0,436;   -1,045
259,243; 6910,417;    2,981;    2,227
259,841; 6977,243;    1,799;    0,318
260,438; 6887,554;    0,254;    0,864
261,036; 7538,411;    0,617;    1,409
261,633; 7436,882;    1,526;    2,227
262,231; 7212,102;   -0,110;   -0,045
262,828; 7281,649;   -0,383;    1,136
263,425; 7316,041;   -1,928;   -0,591
264,023; 7581,313;    1,436;    0,045
264,620; 7142,271;    1,526;   -0,318
265,217; 7468,721;    2,890;    3,136
265,815; 7568,852;    2,527;    2,136
266,412; 7349,224;    0,072;    0,136
267,009; 7396,095;    0,526;    0,773
267,606; 7349,229;    0,345;   -0,955
268,203; 7326,076;   -0,383;   -0,591
268,801; 7579,332;   -0,474;    0,591
269,398; 7847,740;   -0,564;    2,500
269,995; 7824,195;    0,890;    1,591
270,592; 7595,726;    0,799;   -0,500
271,189; 7779,127;    1,981;    0,409
271,786; 7891,588;    2,072;    1,227
272,383; 7783,732;   -0,383;    0,227
272,980; 7928,303;    1,617;    0,318
273,577; 8341,707;    2,162;    1,227
274,174; 7918,191;    1,435;    2,591
274,771; 7934,015;    1,890;   -0,773
275,367; 8083,637;    3,253;    1,409
275,964; 8055,521;   -0,565;   -0,500
276,561; 8134,315;   -2,474;   -1,045
277,158; 8292,645;    1,799;   -1,773
277,755; 8430,083;   -0,110;    0,409
278,351; 7862,250;    0,436;   -1,500
278,948; 8136,990;   -0,201;    0,045
279,545; 8148,721;    0,527;    2,318
280,141; 8759,341;    1,254;   -2,045
280,738; 8617,694;    2,435;   -0,136
281,334; 8815,649;   -0,383;    0,591
281,931; 8201,201;    2,890;   -1,318
282,528; 8349,875;    4,072;   -0,500
283,124; 9005,207;    3,345;   -0,500
283,721; 8886,558;    0,709;    1,409
284,317; 8699,135;    0,163;    2,500
284,913; 9213,493;   -0,110;    0,591
285,510; 9383,220;    2,890;   -0,318
286,106; 9442,108;    2,345;   -0,955
286,703; 9024,848;    0,072;    1,955
287,299; 9200,789;    1,254;   -0,591
287,895; 9413,658;    0,890;   -1,045
288,491; 9931,740;    0,163;    2,136
289,088; 9684,345;    0,163;    2,409
289,684; 9778,742;    2,890;    1,500
290,280; 9778,859;    1,890;    0,682
290,876; 9832,905;    0,163;    5,500
291,472; 9736,396;    2,163;    2,227
292,068; 9815,338;    1,254;    0,227
292,665; 9513,607;   -0,564;    0,773
293,261; 9201,448;   -1,292;    2,136
293,857; 9570,901;    4,072;    2,136
294,453; 9480,273;   -0,928;    0,955
295,049; 9368,937;    0,253;    1,955
295,644; 9403,322;   -1,292;    0,136
296,240; 9331,476;    0,162;   -0,136
296,836; 9362,123;   -0,747;    0,318
297,432; 9617,255;    2,980;   -0,500
298,028; 9665,392;    0,435;    0,773
298,624;10025,969;    0,889;    1,864
299,220;10240,409;    0,435;    0,591
299,815; 9907,747;    0,526;   -0,409
300,411; 9735,210;    0,435;    1,773
301,007; 9734,455;    1,889;    0,227
301,602; 9762,331;    2,071;   -2,318
302,198; 9903,576;    1,435;   -0,773
302,794;10235,813;    1,526;   -0,500
303,389;10341,840;    1,071;    1,045
303,985;10415,208;    1,253;    1,409
304,580;10363,106;    0,889;    1,591
305,176;10373,005;    0,344;    0,136
305,771;10284,565;   -0,929;   -1,227
306,367;10199,303;    3,071;    0,136
306,962;10478,785;    2,889;    1,500
307,558;10217,193;    2,435;    0,136
308,153;10167,620;   -0,383;   -1,136
308,748;10380,996;    0,162;    1,682
309,344;10359,417;    0,253;   -1,318
309,939;10432,722;    2,071;   -1,318
310,534;10697,569;   -2,020;   -1,682
311,130;10654,113;   -0,656;   -2,500
311,725;10360,489;    0,526;   -0,500
312,320;10696,629;    1,253;    0,045
312,915;10544,275;    2,890;   -1,045
313,510;10607,218;    0,526;   -0,500
314,105;11082,462;   -3,565;    1,409
314,700;10517,202;   -1,656;   -1,045
315,295;10185,652;   -0,020;    0,045
315,890; 9743,646;   -0,292;    0,864
316,485;10089,719;    0,253;   -0,318
317,080;10197,652;   -0,929;    1,591
317,675;10726,698;    3,071;   -0,682
318,270;10182,561;    6,889;    3,318
318,865;10167,310;    2,435;    3,045
319,460;10009,035;   -1,565;    0,591
320,055;10239,840;   -2,565;   -1,227
320,650; 9924,105;   -1,838;   -0,591
321,244; 9965,916;    0,889;   -1,409
321,839;10828,775;    0,980;   -0,227
322,434;10723,538;   -0,111;   -1,591
323,029;10415,842;   -0,474;    1,591
323,623;10270,451;    0,798;    0,773
324,218;10061,899;    2,707;    1,409
324,812; 9979,791;    0,889;    1,591
325,407; 9791,944;   -0,929;    2,045
326,002; 9732,060;    0,526;   -0,409
326,596;10031,901;   -0,656;    1,318
327,191;10189,438;   -0,383;   -1,045
327,785; 9837,083;   -0,747;   -0,227
328,379;10057,825;   -0,383;    0,136
328,974; 9847,576;    1,798;   -3,955
329,568;10085,521;    2,889;   -2,409
330,163; 9928,460;    2,435;    1,045
330,757;10263,269;    0,253;    1,591
331,351; 9608,707;   -0,292;    0,682
331,945; 9929,470;   -0,383;    1,409
332,540; 9535,231;    1,617;   -0,591
333,134; 9679,931;    3,344;    0,773
333,728; 9898,390;    2,799;    0,318
334,322;10177,618;    0,889;   -0,864
334,916; 9509,584;    0,344;    0,955
335,510; 9845,409;   -0,111;   -0,136
336,105;10071,347;   -0,929;    1,591
336,699; 9774,349;   -1,292;    0,591
337,293; 9700,785;    1,071;    0,318
337,887; 9837,652;    0,071;    1,955
338,481; 9915,185;    2,980;    0,591
339,074;10070,514;    2,071;    2,682
339,668; 9888,324;   -0,110;    1,227
340,262;10172,842;    7,708;    3,227
340,856; 9668,713;    1,708;   -0,682
341,450; 9070,499;    0,708;    1,864
342,044; 9878,512;    1,799;    0,136
342,637; 9636,085;    1,162;   -2,136
343,231; 9500,666;   -1,474;    0,682
343,825; 9461,916;   -0,747;   -0,591
344,419; 9450,071;   -0,474;    0,500
345,012; 9243,375;    2,889;    4,045
345,606; 9266,297;   -0,656;    1,591
346,199; 9113,868;   -0,111;   -0,227
346,793; 8724,859;    2,525;    2,045
347,386; 8895,153;    0,889;   -1,136
347,980; 8875,682;   -0,838;   -0,045
348,573; 8688,997;   -1,748;    0,409
349,167; 8437,172;    6,161;    4,773
349,760; 8797,335;    2,252;    2,682
350,354; 8751,534;    1,616;    1,136
350,947; 8497,022;    2,798;    1,682
351,540; 8189,361;    0,616;   -1,409
352,134; 8137,631;   -1,111;    1,136
352,727; 8254,060;   -0,657;    1,136
353,320; 8062,367;    2,343;    0,591
353,913; 7919,990;   -1,929;    1,864
354,507; 8088,157;    0,434;   -1,227
355,100; 8120,012;    0,071;    0,864
355,693; 7444,976;    4,798;    2,409
356,286; 7488,834;    0,980;    2,773
356,879; 7810,838;   -0,475;    1,227
357,472; 7446,707;    0,980;    1,500
358,065; 7649,840;    3,161;    2,500
358,658; 7582,678;    0,798;    2,318
359,251; 7257,726;    0,252;   -0,591
359,844; 6816,995;    0,343;   -1,136
360,437; 6980,582;    0,252;    0,045
361,030; 7228,612;    0,525;   -0,682
361,623; 6836,934;    0,434;    0,318
362,215; 6898,200;    0,979;    2,045
362,808; 6758,346;   -2,293;   -1,682
363,401; 6929,534;    0,798;    0,136
363,994; 6703,519;    3,252;   -1,500
364,586; 6615,610;    0,888;   -1,500
365,179; 6828,014;   -0,203;   -1,136
365,772; 6324,553;   -0,930;    2,045
366,364; 6604,826;    1,524;   -3,227
366,957; 6821,799;    1,342;   -0,045
367,549; 6796,985;   -0,203;   -0,864
368,142; 6482,604;    0,978;   -1,500
368,734; 6658,685;    2,523;   -2,136
369,327; 6635,450;    2,341;   -0,500
369,919; 6572,943;   -1,659;    0,409
370,512; 6389,891;   -1,023;   -0,500
371,104; 6195,049;    2,704;    1,591
371,696; 6312,775;    1,703;   -0,955
372,289; 6391,539;    0,157;    1,136
372,881; 6528,178;    1,156;    1,318
373,473; 6451,781;    4,064;    1,136
374,066; 6287,824;    1,336;    0,500
374,658; 6132,100;    0,879;    1,136
375,250; 6452,325;   -1,668;   -1,409
375,842; 6337,254;   -0,124;   -0,045
376,434; 6213,970;   -2,762;   -0,409
377,026; 6725,049;   -1,855;   -2,500
377,618; 6613,465;    0,779;   -0,682
378,210; 6466,267;    3,141;   -1,955
378,802; 6331,424;    3,412;   -0,591
379,394; 6315,218;    3,411;    0,682
379,986; 6855,085;    1,138;   -0,955
380,578; 6912,745;    1,410;    0,773
381,170; 6314,989;    0,320;    0,045
381,762; 6262,443;   -0,224;    1,409
382,354; 6426,322;   -0,223;   -1,318
382,945; 6555,797;    0,870;    0,318
383,537; 6695,189;    1,144;   -1,955
384,129; 6697,491;    0,963;   -1,136
384,721; 6858,080;    0,418;    0,955
385,312; 6781,097;   -1,399;   -0,955
385,904; 6887,981;   -0,945;    1,591
386,496; 6281,063;    0,691;    1,045
387,087; 6431,990;    0,418;    2,500
387,679; 6449,967;   -0,401;    0,045
388,270; 6576,817;   -2,401;    2,045
388,862; 6670,047;   -0,401;   -0,318
389,453; 6544,622;    1,054;    1,045
390,045; 6815,690;    3,236;   -2,682
390,636; 6752,965;    0,144;   -0,591
391,227; 6584,155;    2,054;   -0,045
391,819; 6702,341;    0,781;    0,773
392,410; 6785,446;    0,600;    0,045
393,001; 6718,423;    1,600;   -1,591
393,593; 6996,492;    0,600;   -0,045
394,184; 6843,290;    0,873;   -0,409
394,775; 6741,473;    1,146;    2,136
395,366; 6924,939;    1,782;    0,773
395,957; 6892,882;   -2,400;    0,136
396,548; 7188,877;    1,054;    2,682
397,139; 7441,905;    2,236;    0,591
397,730; 7173,412;    0,873;    0,955
398,321; 7241,268;    0,509;    0,955
398,912; 7274,577;   -0,764;    0,136
399,503; 7367,006;   -1,945;   -1,409
400,094; 6882,328;   -1,582;    1,682
400,685; 6742,649;    3,600;    0,045
401,276; 6797,818;   -0,400;   -0,955
401,867; 7079,235;   -1,127;    0,773
402,458; 7143,837;    1,509;   -2,318
403,048; 7119,632;    0,146;    0,591
403,639; 6780,106;    1,509;    0,864
404,230; 7022,158;    0,691;    0,318
404,821; 6965,370;   -0,127;    0,045
405,411; 7084,103;   -0,763;   -2,591
406,002; 6702,431;    3,237;   -1,136
406,592; 6588,812;    2,691;    0,045
407,183; 6842,864;    0,328;   -1,500
407,774; 6754,843;    1,419;   -0,136
408,364; 7053,647;    2,600;    0,409
408,954; 6710,936;   -0,036;    1,227
409,545; 6766,000;    1,873;    1,045
410,135; 6316,589;   -1,581;    0,500
410,726; 6450,919;    0,783;    0,318
411,316; 6830,566;    2,237;    0,773
411,906; 6542,033;    0,146;   -0,409
412,497; 6083,839;   -0,490;   -0,045
413,087; 6596,116;    0,783;   -0,227
413,677; 6956,579;   -2,490;    3,864
414,267; 6837,458;   -1,035;    1,409
414,857; 6831,604;    0,419;    4,227
415,448; 7089,851;   -0,763;    0,500
416,038; 6792,133;   -2,945;   -0,591
416,628; 6766,278;    0,965;    0,409
417,218; 6321,868;   -1,762;    3,318
417,808; 6533,650;    0,965;   -0,409
418,398; 6921,562;   -1,035;    2,682
418,988; 6938,251;   -2,217;    0,591
419,578; 7144,792;    3,601;    1,409
420,168; 7447,718;    0,692;   -0,955
420,757; 7075,329;    0,964;   -1,500
421,347; 6768,513;    1,601;   -0,227
421,937; 6930,327;    3,329;    1,409
422,527; 6895,688;    2,602;   -0,773
423,116; 6719,970;    2,692;   -0,045
423,706; 7027,581;    2,965;    0,318
424,296; 6974,441;    1,601;    0,682
424,885; 7385,532;    1,510;   -3,045
425,475; 7633,851;    1,147;   -2,864
426,065; 7541,917;   -1,489;   -0,318
426,654; 7190,278;    0,329;   -0,318
427,244; 7322,062;    1,147;    1,409
427,833; 6836,574;    1,056;   -0,500
428,423; 7213,851;    0,147;    1,136
429,012; 7887,007;    2,420;   -1,136
429,601; 7452,280;    2,057;    0,136
430,191; 7690,308;    2,511;    4,318
430,780; 7311,876;   -1,671;   -0,409
431,369; 7271,168;    1,329;   -0,045
431,959; 7835,085;    1,693;    0,500
432,548; 7619,591;   -1,398;   -0,045
433,137; 7714,064;    0,329;   -1,318
433,726; 8201,345;    0,148;    0,500
434,315; 7627,041;    0,148;    2,409
434,905; 7726,491;    0,693;    1,409
435,494; 7677,119;    3,148;    0,955
436,083; 8087,398;    1,420;   -0,955
436,672; 7951,599;    1,148;    0,500
437,261; 7561,838;    0,512;   -1,955
437,850; 7690,935;   -1,125;    0,682
438,439; 7658,402;    2,239;    1,955
439,027; 7507,415;    3,421;    1,773
439,616; 7810,106;    2,239;    1,227
440,205; 7673,848;    0,057;   -2,136
440,794; 7703,000;   -0,306;   -0,045
441,383; 7936,539;    1,603;   -0,591
441,971; 7796,533;   -0,306;    0,591
442,560; 7673,140;    0,603;   -1,773
443,149; 7429,018;    3,060;   -1,318
443,737; 7552,374;    0,968;   -2,318
444,326; 7823,713;    0,331;    0,318
444,915; 7865,205;   -1,851;    0,864
445,503; 8224,620;    0,058;   -0,318
446,092; 7582,996;    7,876;    2,136
446,680; 8059,315;    1,876;    0,318
447,269; 8207,374;   -1,487;   -0,318
447,857; 7985,770;    2,240;   -1,773
448,445; 8098,917;    2,149;    1,318
449,034; 8299,068;    0,876;   -1,136
449,622; 8398,410;    1,240;    3,500
450,210; 7711,864;    3,149;    2,227
450,799; 8230,535;    2,604;   -0,591
451,387; 8137,661;    1,786;   -0,591
451,975; 7853,258;   -1,305;    0,864
452,563; 7978,433;    0,422;    2,318
453,151; 8001,274;   -1,032;   -1,227
453,739; 7909,202;   -1,577;    0,136
454,328; 7766,272;    0,604;   -2,136
454,916; 7509,321;    1,150;   -0,136
455,504; 7687,298;    3,513;    1,227
456,092; 7844,141;    2,150;   -1,591
456,679; 7801,782;    0,604;    0,682
457,267; 7808,813;    3,604;    1,045
457,855; 7905,900;    3,241;    1,409
458,443; 7673,847;   -0,304;    1,682
459,031; 7802,255;    1,332;    2,409
459,619; 8189,507;   -3,577;    2,864
460,206; 8284,885;   -0,759;    2,045
460,794; 8367,249;   -0,668;   -0,227
461,382; 8580,910;    0,878;   -0,864
461,970; 8190,955;    0,605;    1,864
462,557; 8229,929;    0,878;   -0,682
463,145; 8387,866;   -0,304;   -1,682
463,732; 8525,098;    2,514;   -1,045
464,320; 8446,160;    1,514;   -3,045
464,907; 8142,418;    0,423;   -0,773
465,495; 8012,288;    2,696;   -1,227
466,082; 8166,065;    2,060;   -0,045
466,670; 8090,435;    2,605;    1,227
467,257; 8471,768;    0,060;    2,045
467,844; 8622,056;    1,514;    0,045
468,432; 8641,722;   -0,031;    3,500
469,019; 8225,379;    1,606;   -1,773
469,606; 8652,694;    0,969;    3,682
470,193; 8471,273;    2,151;    0,227
470,780; 8080,409;    0,333;    0,864
471,368; 8428,779;   -1,212;   -0,773
471,955; 8239,424;    1,060;   -0,682
472,542; 7877,534;   -0,303;   -1,136
473,129; 8091,001;   -0,485;    0,136
473,716; 7849,671;    0,060;    0,591
474,303; 7989,447;    1,333;   -0,864
474,890; 8273,385;    2,333;   -0,500
475,477; 8319,633;   -0,576;    0,409
476,064; 8199,929;    0,697;   -1,591
476,650; 8118,751;    2,152;    0,318
477,237; 7987,569;    1,879;    0,955
477,824; 8153,102;    3,879;    0,864
478,411; 8140,005;    0,606;   -0,318
478,997; 8312,791;    0,606;   -0,773
479,584; 8353,224;   -0,666;   -0,409
480,171; 8985,751;    1,243;   -0,773
480,757; 8672,021;   -0,848;    0,773
481,344; 8929,685;    0,334;    0,409
481,931; 8449,040;   -0,393;    1,045
482,517; 9312,941;    0,425;    0,318
483,104; 9781,383;    1,334;    2,864
483,690;10016,229;    0,243;    0,045
484,276;10318,696;    0,698;    0,227
484,863;10071,425;    2,152;    1,136
485,449;10613,315;    0,152;    0,318
486,035;10581,617;   -0,666;   -0,136
486,622;10997,607;   -2,393;    0,045
487,208;10940,379;    1,334;    1,500
487,794;10780,818;    0,971;    0,318
488,380;10871,376;    0,698;   -1,409
488,967;10944,461;   -1,120;   -0,409
489,553;11013,550;   -1,029;   -1,409
490,139;11183,757;    0,971;    0,773
490,725;10650,469;    0,789;   -0,227
491,311;10348,552;    1,516;    3,045
491,897; 9742,488;   -0,665;    1,500
492,483; 9599,797;    0,426;    1,227
493,069; 9424,835;    5,426;    0,864
493,655; 9406,456;    1,789;    0,682
494,241; 9324,903;    1,517;   -0,955
494,826; 9681,389;    0,335;   -1,045
495,412; 9173,230;    0,335;   -0,682
495,998; 9341,334;    0,971;   -0,318
496,584; 9444,450;    2,244;    1,045
497,169; 9419,740;    2,335;   -0,682
497,755; 9364,137;    1,244;    1,227
498,341; 9889,852;    2,153;    0,318
498,926; 9484,854;    2,881;    1,955
499,512; 9642,843;   -0,028;    2,955
500,097; 9677,562;   -0,574;   -0,318
500,683; 9661,815;   -0,028;    2,136
501,268;10010,342;    1,881;   -0,955
501,854; 9735,974;   -0,119;    1,227
502,439; 9666,655;   -0,573;   -1,773
503,024; 9833,236;    1,608;    0,500
503,610; 9888,414;    1,335;   -0,682
504,195; 9907,932;    1,245;    1,955
504,780; 9986,894;    2,335;    1,227
505,366; 9845,657;    4,063;    2,864
505,951; 9611,739;   -1,119;    1,045
506,536; 9639,253;    1,427;   -3,682
507,121; 9592,984;    1,699;   -0,318
507,706;10074,557;   -0,392;    1,045
508,291;10397,263;   -2,937;    1,136
508,876; 9885,396;   -0,482;    2,591
509,461; 9412,204;    1,427;   -0,773
510,046; 9787,403;   -0,391;    0,318
510,631;10003,490;   -0,119;   -0,773
511,216; 9722,079;   -0,664;   -0,500
511,801;10088,166;   -0,755;    2,591
512,386;10291,933;    0,972;    0,500
512,971;10227,978;    0,427;    0,955
513,555; 9853,811;    1,154;   -1,500
514,140;10549,504;    1,336;   -3,136
514,725;10500,441;    1,791;   -1,136
515,309;10616,749;    1,064;    0,318
515,894;10166,838;   -0,300;   -2,227
516,479;10613,990;    1,973;   -0,955
517,063;10397,817;    0,882;    1,227
517,648;10494,369;    0,155;   -1,136
518,232;10138,083;   -1,300;   -1,409
518,817;10475,381;    1,337;    1,682
519,401;10710,212;    0,700;    0,591
519,985;10213,290;    2,700;    1,136
520,570;10108,388;   -0,118;   -1,955
521,154;10372,068;    0,064;    0,591
521,738;10513,112;    1,064;    2,409
522,323;11063,559;   -0,390;    1,682
522,907;10779,062;    2,428;   -0,136
523,491;10530,544;    1,155;    0,955
524,075;10519,115;    0,428;    0,591
524,659;10604,134;    0,973;    0,591
525,243;10110,436;    0,883;    0,409
525,827;10319,979;    0,883;   -0,045
526,411;11045,043;    1,155;   -0,136
526,995;11227,263;    0,337;    1,409
527,579;10869,480;    1,974;   -1,045
528,163;11149,983;    0,428;   -1,500
528,747;11103,907;    1,065;   -0,773
529,331;11357,309;    0,883;   -1,409
529,915;11505,782;    2,338;    0,955
530,499;11450,396;    0,247;    1,227
531,082;11177,341;    1,065;    1,591
531,666;10701,002;    0,520;    0,773
532,250;11278,296;    0,428;    2,682
532,833;11541,721;    0,610;    2,773
533,417;11424,611;    1,247;    0,864
534,001;11371,142;    0,429;   -0,318
534,584;11999,357;    1,974;    0,500
535,168;11841,490;    3,247;    1,409
535,751;11884,004;    4,520;    0,045
536,334;11370,178;    4,520;   -0,409
536,918;11925,901;    1,974;    1,591
537,501;11961,059;    1,520;    1,318
538,085;11978,820;    1,702;    1,045
538,668;12108,027;    0,883;    2,409
539,251;12353,598;    3,156;    3,773
539,834;12395,956;    0,156;    0,773
540,418;12323,932;    3,247;    4,318
541,001;12393,533;    2,702;    1,773
541,584;12374,606;    1,429;    2,227
542,167;12075,234;    0,702;    2,955
542,750;12203,340;    0,793;   -0,773
543,333;11805,892;    1,429;    2,136
543,916;12539,017;   -0,298;    2,500
544,499;13053,146;    2,520;    0,227
545,082;13050,877;    0,248;    3,591
545,665;13177,433;   -0,207;    1,500
546,248;13434,346;    0,520;   -0,318
546,830;13112,429;   -1,752;    1,955
547,413;13456,646;    0,157;   -0,773
547,996;13992,621;    0,157;    0,500
548,579;13748,056;   -0,843;    0,955
549,161;13577,333;    0,884;    2,682
549,744;13334,405;    0,612;    0,409
550,326;13786,363;    0,885;   -1,136
550,909;13609,862;    2,339;    0,591
551,492;13958,035;    0,521;    0,227
552,074;13752,807;   -0,024;   -1,318
552,657;14244,762;    2,430;    0,045
553,239;14054,838;   -3,024;   -0,773
553,821;13973,534;   -1,570;    1,045
554,404;13503,033;   -0,024;    1,136
554,986;13837,325;    2,248;    1,045
555,568;14319,674;    0,430;   -0,955
556,151;13666,608;    4,067;   -0,227
556,733;13834,340;   -1,388;   -0,864
557,315;14219,481;    4,703;    0,500
557,897;13976,633;    0,521;   -0,500
558,479;14125,705;    1,703;    1,318
559,061;14245,162;    1,067;   -0,864
559,643;14547,162;   -0,297;    0,045
560,225;14846,950;   -0,388;    2,864
560,807;14892,162;    0,340;    0,318
561,389;14448,830;   -1,206;    2,318
561,971;15068,844;   -0,660;    2,136
562,553;14902,800;    0,613;    1,591
563,135;15007,796;    1,249;    1,136
563,717;14598,339;    3,158;    1,136
564,298;15208,787;    3,976;   -0,045
564,880;14963,219;    0,340;   -1,409
565,462;15104,037;    1,977;    1,318
566,043;16080,212;   -0,933;    2,318
566,625;15642,506;    4,067;    1,227
567,207;15449,126;    0,704;    1,682
567,788;16390,202;   -0,114;    1,500
568,370;17105,104;   -1,841;   -0,500
568,951;16877,121;   -0,569;    0,227
569,533;17575,990;    0,977;   -0,500
570,114;18002,863;   -0,296;    0,682
570,695;18406,675;   -0,478;   -1,318
571,277;18723,240;   -0,205;   -1,682
571,858;19361,383;    2,704;   -1,136
572,439;20059,271;    0,795;   -1,045
573,021;20163,083;    0,432;   -2,773
573,602;20544,358;    1,795;    0,318
574,183;21335,696;   -0,114;    2,227
574,764;21417,373;    2,068;    0,409
575,345;21824,322;    0,250;   -0,136
575,926;22342,123;    2,704;    0,136
576,507;22305,288;    2,704;   -0,227
577,088;23231,083;    1,704;    1,682
577,669;23222,749;    1,704;    1,955
578,250;23857,060;   -0,750;   -1,045
578,831;24321,408;   -0,841;   -2,227
579,412;24479,502;   -1,205;    0,955
579,993;25405,960;    1,432;    0,227
580,573;25696,599;   -0,023;   -0,955
581,154;24692,842;    1,613;   -0,591
581,735;25452,838;    0,341;    0,773
582,315;24956,292;    0,523;    2,136
582,896;25217,100;   -1,750;    1,227
583,477;24764,501;    0,614;    1,227
584,057;24985,119;    1,159;    0,955
584,638;25249,960;   -2,750;    2,318
585,218;25222,343;    2,886;    2,682
585,799;25409,626;    1,977;   -0,227
586,379;25392,447;    1,250;    1,591
586,959;24335,561;    2,613;    0,318
587,540;23804,038;    0,432;    2,227
588,120;23408,379;   -1,113;   -0,045
588,700;22578,070;    2,977;    2,136
589,281;22879,098;    1,250;   -0,955
589,861;22766,085;   -0,296;   -1,682
590,441;22637,874;   -1,477;   -2,682
591,021;21734,254;    1,432;   -2,591
591,601;21981,982;    0,431;    0,500
592,181;22022,817;   -1,296;   -0,773
592,761;21379,558;    2,250;    1,409
593,341;21326,468;    1,522;    0,045
593,921;21380,242;   -0,569;    1,591
594,501;21250,948;    1,250;    1,318
595,081;21078,034;    0,522;   -0,318
595,661;21428,324;    1,068;    0,955
596,240;21897,096;   -1,023;    0,136
596,820;21515,975;    2,613;    1,955
597,400;21587,411;    1,977;    0,773
597,980;21813,288;   -0,750;    1,045
598,559;21864,110;    0,341;   -0,227
599,139;21628,620;   -0,750;   -1,227
599,718;21523,802;    0,795;   -0,409
600,298;21785,406;   -2,387;    0,682
600,877;21975,316;    4,795;    1,409
601,457;22206,832;    0,340;    1,136
602,036;22144,912;    1,795;    2,045
602,616;22298,400;    2,250;    1,682
603,195;22624,489;    0,431;    3,500
603,774;22156,066;   -0,296;    2,045
604,354;22004,182;    2,522;   -0,500
604,933;21575,136;    0,250;    1,864
605,512;21706,823;    2,340;    0,591
606,091;21762,887;    1,886;    3,773
606,671;22515,969;    0,249;    0,773
607,250;21724,018;    1,431;    3,136
607,829;21871,413;    1,158;    3,227
608,408;21784,451;    4,613;    2,591
608,987;20937,652;    2,704;    3,409
609,566;21179,121;    0,341;   -2,500
610,145;21278,544;    2,885;    0,682
610,723;21709,301;    1,613;    6,864
611,302;21041,751;    1,067;    1,682
611,881;20545,037;    5,158;   11,227
612,460;21304,405;    0,795;    3,955
613,039;21647,305;    1,703;    2,045
613,617;20517,897;    0,886;    4,773
614,196;20663,519;    1,613;    1,227
614,775;21026,143;    1,249;    2,409
615,353;20959,079;   -1,660;    0,864
615,932;20751,993;    0,249;    2,409
616,510;21289,527;    0,158;    0,591
617,089;20860,179;    8,794;   17,591
617,667;20677,426;    4,885;    6,136
618,246;20523,612;   -1,115;    1,318
618,824;20674,959;    1,612;   -0,955
619,402;20280,574;    0,431;   -1,773
619,981;20696,213;    1,067;   -1,045
620,559;20558,198;    0,794;    1,682
621,137;20150,048;    3,067;    1,864
621,715;20121,714;    3,703;   -0,682
622,293;20108,682;    1,885;   -0,773
622,871;20578,208;    0,340;    0,500
623,450;20176,604;    0,430;   -0,864
624,028;20063,697;   -0,388;   -0,955
624,606;19710,134;    2,339;    1,682
625,183;20030,134;   -0,661;   -1,136
625,761;19760,883;    1,885;    1,136
626,339;20057,824;    2,339;    2,591
626,917;20396,963;    0,339;   -0,045
627,495;20447,469;    2,794;    1,318
628,073;19954,082;    5,248;    2,864
628,650;19634,006;    3,067;    2,136
629,228;19974,984;    1,248;    4,409
629,806;19472,963;   -0,024;    1,136
630,383;19719,299;    0,066;   -0,318
630,961;19553,532;   -2,206;   -0,955
631,539;19284,591;   -2,479;    0,227
632,116;18712,623;   12,703;   15,409
632,694;19247,621;    4,885;    6,500
633,271;19484,139;    1,975;    2,682
633,848;19418,479;    1,430;    2,045
634,426;19463,236;    1,521;    1,773
635,003;18693,520;   -0,207;   -0,409
635,580;18925,150;    1,884;    3,682
636,158;19420,989;    3,793;    1,227
636,735;19415,253;    3,339;   -0,500
637,312;19510,987;    0,521;   -0,682
637,889;19613,955;    2,248;   -0,682
638,466;19149,913;    0,066;   -0,409
639,043;19164,186;    1,702;   -1,136
639,620;19471,547;    0,611;   -0,955
640,197;19758,043;    1,612;    1,682
640,774;19861,672;    1,430;    1,136
641,351;20197,755;    0,612;    1,136
641,928;19685,202;    2,794;    1,409
642,505;19352,195;    0,794;   -0,500
643,082;19513,460;    1,885;    1,227
643,658;18638,543;    1,157;    1,500
644,235;19287,263;   -2,479;    2,500
644,812;19470,801;    1,794;    0,773
645,388;19261,520;    1,612;    1,409
645,965;19295,513;    1,521;    1,682
646,542;19371,778;    3,430;   -0,227
647,118;19411,679;    3,703;   -0,955
647,695;19641,581;    0,339;    1,136
648,271;19552,028;   -2,115;    0,500
648,848;19799,748;    0,248;    2,227
649,424;19689,376;    0,976;    1,318
650,000;19442,278;   -0,388;   -1,045
650,577;19290,270;    0,158;   -0,955
651,153;19679,899;   -1,115;    0,955
651,729;20510,892;    0,521;    0,864
652,305;20614,611;    1,339;    2,773
652,881;23966,149;   -1,297;    1,136
653,458;29360,960;    0,249;    0,227
654,034;32367,952;    0,703;    1,591
654,610;33507,126;    0,339;    0,773
655,186;34661,210;    1,612;    3,045
655,762;34324,202;   -1,842;    0,409
656,338;34414,558;    0,703;    0,136
656,913;35326,641;   -0,297;    0,409
657,489;34733,725;    0,249;   -0,318
658,065;34656,354;    0,794;   -1,591
658,641;35260,164;    2,158;   -0,864
659,217;34634,611;    2,067;    0,409
659,792;34091,513;   -1,751;   -0,409
660,368;34450,505;   -0,388;   -0,682
660,944;34384,043;    1,794;    1,227
661,519;30810,853;    0,522;    0,409
662,095;25977,755;   -0,206;    0,591
662,670;22226,202;   -0,206;   -0,136
663,246;21303,285;   -0,660;   -0,409
663,821;20704,278;    0,431;    1,682
664,396;20258,725;    0,613;    1,864
664,972;20452,262;   -0,660;   -0,500
665,547;20704,891;    3,794;    0,136
666,122;20743,702;    1,340;    0,318
666,698;21001,876;    2,431;    0,318
667,273;20354,141;    0,885;    0,136
667,848;21112,315;    0,340;    1,500
668,423;20878,126;    1,795;    2,318
668,998;21304,755;    0,976;   -0,682
669,573;21755,293;    2,067;   -1,500
670,148;21639,285;    1,885;   -0,682
670,723;21384,187;   -0,024;    0,318
671,298;21765,634;   -1,296;    1,045
671,873;21818,353;   -0,296;   -0,136
672,448;21764,073;    1,704;    0,136
673,023;22046,338;    0,249;   -0,227
673,597;22387,785;    2,704;    2,318
674,172;22227,596;    2,431;    0,318
674,747;21760,861;   -0,205;   -1,045
675,321;21535,126;   -0,933;    3,318
675,896;21201,846;    2,158;    1,045
676,471;22049,383;    2,522;    1,591
677,045;21806,558;   -0,296;    0,682
677,620;21842,096;    2,158;    1,136
678,194;22153,815;    0,249;    1,136
678,769;21827,171;    0,886;   -0,318
679,343;22014,982;   -0,023;    1,773
679,917;21907,429;    0,340;    1,955
680,492;21880,058;    0,249;    3,227
681,066;22021,505;    0,613;    0,409
681,640;22049,406;    1,795;   -0,318
682,214;22815,398;    2,340;    0,500
682,788;22303,027;    0,613;   -0,773
683,363;22227,111;    1,977;    1,682
683,937;21992,285;    0,886;   -0,318
684,511;22688,732;   -1,023;   -0,591
685,085;22429,997;   -1,478;    0,318
685,659;22181,262;    1,431;    0,864
686,232;22384,436;    1,159;   -0,318
686,806;22105,065;    2,159;    0,409
687,380;22731,057;   -1,932;    0,591
687,954;22920,050;    2,432;    1,136
688,528;22580,497;    2,613;    1,955
689,101;23324,307;    0,432;    1,045
689,675;22941,118;    0,886;   -0,136
690,249;22347,474;    3,432;    0,409
690,822;22687,194;    1,159;    0,318
691,396;22783,095;    2,068;    1,227
691,969;22254,815;    2,523;    0,136
692,543;22713,444;   -0,568;   -1,955
693,116;22424,527;   -0,659;   -1,409
693,690;22266,338;   -0,296;    0,500
694,263;22715,876;    2,341;    2,955
694,836;22795,141;    2,795;    3,591
695,410;21558,951;    1,159;    1,773
695,983;21930,216;    1,614;    0,591
696,556;21918,118;   -0,750;   -1,045
697,129;22285,928;   -1,114;    1,409
697,703;21988,194;    1,341;    1,955
698,276;22049,186;    1,705;   -0,773
698,849;21802,815;   -1,023;    1,409
699,422;22155,807;    1,250;    0,591
699,995;21909,618;   -0,659;    0,136
700,568;22375,519;   -0,204;    3,045
701,140;22370,148;   -1,841;    1,682
701,713;22092,595;    0,341;    2,409
702,286;21889,042;    0,796;    0,864
702,859;21782,216;    0,614;   -0,591
703,432;21084,300;   -0,841;    0,682
704,004;21476,110;    1,978;    0,318
704,577;21381,648;    1,068;    0,136
705,150;21895,913;    0,887;    2,500
705,722;21709,815;    1,523;   -3,227
706,295;21474,171;    1,432;   -0,591
706,867;21306,890;    0,250;    1,955
707,440;21554,337;   -0,113;   -0,409
708,012;21791,148;   -0,022;    0,591
708,584;21668,322;    2,705;    0,227
709,157;21918,315;    1,160;   -0,591
709,729;21632,034;    1,069;    2,045
710,301;22421,118;   -1,204;    0,045
710,874;22416,746;    0,341;   -0,227
711,446;21329,193;   -0,295;    0,864
712,018;21251,822;   -3,022;    0,500
712,590;21058,724;   -0,204;    1,682
713,162;21570,443;   -0,477;    1,318
713,734;21775,072;    1,796;   -2,045
714,306;21653,610;    0,342;   -0,409
714,878;20478,421;   -0,295;    0,864
715,450;21245,231;   -0,113;    0,864
716,022;21479,042;    2,433;    1,318
716,593;21657,307;    0,978;    0,591
717,165;21569,027;    1,796;   -1,227
717,737;21276,746;    0,796;    0,409
718,309;21038,830;    1,160;   -0,045
718,880;20975,913;   -1,295;   -1,409
719,452;21201,542;    0,887;   -1,591
720,024;20871,989;    1,705;   -0,591
720,595;21406,890;    2,978;    0,955
721,167;21042,064;    1,160;   -2,045
721,738;20555,693;    2,069;   -1,045
722,309;20567,867;    1,251;   -1,227
722,881;20350,042;    2,705;    0,773
723,452;20941,852;    1,251;    2,864
724,023;21121,481;    1,524;    2,682
724,595;20902,746;    2,342;    0,682
725,166;20616,284;    1,524;   -0,409
725,737;20270,004;    1,887;    0,227
726,308;20386,996;    0,797;    0,318
726,879;20762,534;    1,069;    1,227
727,450;20613,799;   -2,022;   -0,045
728,021;20613,519;    1,069;    0,682
728,592;20441,784;    1,160;    0,500
729,163;20778,049;    1,433;   -0,136
729,734;20728,132;    2,160;   -0,227
730,305;21058,034;    0,615;    0,136
730,876;21345,844;    0,888;    2,955
731,447;21078,291;    0,797;    2,682
732,017;21169,738;   -0,840;    1,864
732,588;20777,913;   -0,021;    1,227
733,159;20875,632;    3,615;   -1,045
733,729;20712,897;    1,251;    0,409
734,300;20071,344;    0,160;    0,864
734,870;20457,882;   -1,385;    0,591
735,441;20954,966;    0,888;   -0,591
736,011;20708,322;    1,070;   -1,591
736,582;20664,132;    1,251;    0,045
737,152;20181,579;    0,979;   -2,045
737,722;20653,299;    1,070;   -0,682
738,293;20344,382;   -2,021;    1,318
738,863;20267,738;    1,797;    2,318
739,433;20081,276;    4,524;    0,318
740,003;20674,996;    1,524;   -0,682
740,573;20186,261;    2,252;   -1,591
741,143;20135,708;    3,615;    0,318
741,713;20779,609;    0,252;   -0,500
742,283;20552,238;    1,706;    1,591
742,853;20384,867;    0,524;    1,591
743,423;19879,223;    0,161;    0,045
743,993;19941,306;    1,070;    1,500
744,563;19440,662;    2,524;   -0,864
745,133;19377,382;   -0,112;   -0,864
745,702;20032,556;    2,797;    1,773
746,272;19271,640;    0,434;    0,591
746,842;19119,905;   -0,748;   -0,591
747,411;19566,806;   -0,839;   -0,318
747,981;19678,890;   -0,930;    0,500
748,551;19737,973;   -0,021;   -1,045
749,120;19600,965;   -0,112;   -0,227
749,690;19913,594;    2,161;    2,409
750,259;20220,950;    0,979;    2,955
750,828;20089,943;    4,070;   -1,955
751,398;20342,571;   -0,112;   -0,045
751,967;19912,109;    2,888;    0,409
752,536;20070,374;    1,161;   -0,227
753,105;20490,821;   -1,384;    0,227
753,675;20264,177;   -0,112;    1,773
754,244;20225,988;    0,888;    3,591
754,813;20246,617;    0,979;    1,227
755,382;19881,427;    0,798;    0,955
755,951;20321,783;   -0,112;    3,682
756,520;19960,139;    2,525;    1,864
757,089;20407,677;    1,888;    0,500
757,658;20517,852;    2,434;    1,227
758,227;20539,571;   -1,111;    0,318
758,795;20794,473;   -1,021;    1,136
759,364;21038,556;    0,525;   -0,591
759,933;20117,912;    1,343;   -0,045
760,501;19730,359;    0,252;   -1,318
761,070;20131,170;   -0,293;   -1,409
761,639;20790,617;    1,434;    1,318
762,207;20147,882;    0,889;   -0,955
762,776;20095,783;    2,889;    0,864
763,344;20057,412;    0,071;    0,591
763,913;19220,859;    1,616;    1,409
764,481;19962,851;    1,980;   -0,136
765,049;19794,844;    0,616;    1,409
765,618;19677,564;    1,434;    0,318
766,186;19775,465;    2,434;    0,136
766,754;19937,730;    1,798;    1,864
767,322;19036,359;    1,162;    0,409
767,890;18992,806;    0,525;   -1,773
768,459;19407,526;    2,616;   -0,318
769,027;19571,336;    2,525;    3,409
769,595;18647,419;    2,616;    2,591
770,163;19029,776;    3,344;    2,955
770,730;18888,495;    2,525;   -0,136
771,298;18792,579;    1,162;   -1,409
771,866;18881,935;    0,253;    4,955
772,434;19126,472;    1,162;   -1,864
773,002;19301,465;    2,616;    0,682
773,569;19014,639;    1,071;    1,682
774,137;18809,268;    0,889;   -0,045
774,705;19503,078;   -0,747;   -0,136
775,272;19123,253;    0,253;    0,682
775,840;18959,700;   -0,111;    2,682
776,407;18465,874;   -0,293;    1,955
776,975;18087,230;    1,162;    0,318
777,542;19021,404;    2,162;   -0,045
778,110;18936,306;    0,707;   -0,045
778,677;18612,571;    1,071;   -0,864
779,244;18388,291;   -1,020;    1,045
779,812;18476,192;    0,980;    0,864
780,379;18348,094;    2,435;    1,136
780,946;18542,631;    2,617;   -0,773
781,513;18838,897;   -0,565;    0,318
782,080;18278,889;    1,253;    2,864
782,647;18900,427;    1,708;    3,045
783,214;18576,237;   -0,201;    3,864
783,781;18256,684;    1,708;   -0,682
784,348;18111,131;    0,253;    1,500
784,915;18556,306;   -1,474;    0,318
785,482;18328,480;    2,708;    2,591
786,049;18741,745;    1,071;   -0,591
786,615;18876,374;    1,708;   -0,955
787,182;18600,912;   -3,201;   -0,682
787,749;18331,086;   -2,201;    1,409
788,315;17706,260;    0,253;   -0,409
788,882;18053,889;    0,981;   -1,227
789,448;18643,881;    1,435;   -0,955
790,015;18644,965;    1,799;    3,227
790,581;18273,684;    0,708;    0,227
791,148;18165,222;    1,344;    1,045
791,714;18350,760;   -1,019;    3,136
792,280;18069,843;    3,708;    1,591
792,847;17751,108;   -0,928;    2,500
793,413;18197,374;   -0,110;   -0,318
793,979;17804,275;    1,526;   -1,318
794,545;17890,358;    2,981;    2,682
795,111;17399,260;    2,435;    1,318
795,678;17555,798;    3,526;   -1,682
796,244;17222,972;    2,799;    0,136
796,810;17719,055;    0,799;    0,773
797,375;17468,502;   -0,292;   -2,136
797,941;17463,949;   -1,110;    0,591
798,507;17554,123;    0,254;   -0,955
799,073;17214,389;    2,708;    0,591
799,639;17309,654;    1,435;    3,136
800,205;17330,101;   -1,565;    2,682
800,770;16897,911;    1,345;    1,773
801,336;16926,813;    2,981;   -0,955
801,901;16740,987;    6,072;    3,136
802,467;17286,070;    0,526;    2,045
803,033;16632,881;   -0,019;    0,864
803,598;16794,055;    1,072;   -1,045
804,163;16921,320;    0,708;   -0,318
804,729;16866,767;   -0,110;    1,136
805,294;17187,396;    1,072;    2,227
805,859;16977,752;    0,890;   -0,409
806,425;16571,654;    3,890;    2,682
806,990;16223,010;    1,890;    4,318
807,555;16644,457;   -0,110;    2,591
808,120;16597,904;   -1,292;   -0,409
808,685;16662,169;    1,072;   -2,500
809,250;16213,525;    2,072;   -0,500
809,815;16466,972;   -0,201;    0,682
810,380;16936,691;    0,981;    1,591
810,945;17420,138;    2,890;    2,045
811,510;16701,767;   -0,200;    1,591
812,075;16441,123;    2,800;   -1,409
812,640;16486,116;    3,709;    1,409
813,204;16576,199;    2,163;   -0,227
813,769;17005,282;    0,254;   -0,045
814,334;16457,911;    0,527;    0,864
814,898;16497,085;    1,981;    0,591
815,463;16359,896;    0,981;   -0,773
816,027;16349,797;    1,345;   -2,318
816,592;16440,608;    2,163;   -2,045
817,156;16042,873;   -2,200;    1,136
817,721;15897,138;    0,982;    2,318
818,285;15913,312;    0,618;    1,500
818,849;16479,214;   -0,018;    1,682
819,414;16413,843;    0,073;    2,955
819,978;16010,926;   -0,291;    1,773
820,542;16547,737;    2,891;    0,500
821,106;16314,911;    2,800;    0,682
821,670;16400,903;    2,709;    2,591
822,234;16150,350;    1,073;    1,409
822,798;15620,615;   -0,836;    0,500
823,362;15594,699;    1,527;    4,227
823,926;15047,782;   -0,018;    1,136
824,490;15194,865;    3,527;   -0,682
825,054;15619,858;    2,527;   -1,136
825,618;15375,123;   -1,200;   -1,500
826,181;15305,661;    0,982;   -1,318
826,745;15198,744;   -0,745;   -1,045
827,309;15505,464;    2,255;    1,318
827,872;14996,274;    0,527;    0,955
828,436;15858,540;    1,982;   -0,773
828,999;15994,986;    2,436;    1,227
829,563;14986,524;   -0,654;    1,136
830,126;14800,062;   -0,018;   -0,591
830,690;14824,327;    0,709;    2,864
831,253;14407,138;   -0,473;    2,227
831,816;14487,494;   -0,018;    0,500
832,380;14436,214;    1,164;    0,864
832,943;14676,842;    3,073;   -0,500
833,506;14220,017;    0,255;   -1,227
834,069;14920,191;    2,164;   -0,955
834,632;14986,365;   -2,200;    1,318
835,195;14891,539;    1,346;    0,955
835,758;14219,168;    0,709;    1,955
836,321;14036,797;    1,073;   -1,045
836,884;14143,880;   -1,291;   -0,955
837,447;14176,782;    0,528;    1,773
838,010;14437,592;    1,800;    3,227
838,573;14692,948;    0,528;    0,773
839,135;14670,941;   -0,109;   -0,955
839,698;14214,024;    2,528;    0,409
840,261;13770,744;    0,255;   -0,227
840,823;13682,918;   -0,927;    0,864
841,386;13958,456;   -0,018;   -2,409
841,948;13853,994;    0,255;    1,773
842,511;13593,804;    0,255;    1,682
843,073;13717,070;    2,982;    0,227
843,636;13530,517;    0,619;   -0,227
844,198;13482,782;    1,255;    0,591
844,760;13635,320;    0,619;    1,955
845,322;13338,948;    0,164;    1,136
845,885;13672,850;   -0,290;    0,591
846,447;14048,660;    0,710;    0,227
847,009;13695,380;    3,983;   -0,682
847,571;13959,918;    1,346;   -2,045
848,133;14019,274;   -0,199;   -1,864
848,695;13884,085;    2,346;    1,409
849,257;13504,441;    1,346;   -1,682
849,819;13664,524;    2,983;   -0,409
850,381;13663,335;    1,801;   -0,864
850,942;13973,145;    1,892;   -0,591
851,504;13936,319;    0,983;    0,227
852,066;13938,948;    1,619;   -1,591
852,628;13599,759;    0,165;    1,955
853,189;13133,933;    0,256;    2,682
853,751;13287,107;   -0,654;    1,409
854,312;13120,100;    1,256;   -1,682
854,874;13564,728;   -0,108;   -0,773
855,435;13978,175;    0,528;   -1,682
855,997;14149,350;    3,983;   -0,136
856,558;13520,615;    0,801;    1,773
857,119;13587,153;   -0,744;    2,864
857,681;13326,781;   -0,108;    0,318
858,242;13358,228;    1,347;   -2,136
858,803;13736,766;    1,074;   -0,773
859,364;14282,668;    0,892;   -4,773
859,925;13729,660;   -0,290;   -0,955
860,486;13609,743;    0,529;   -0,955
861,047;13328,736;    0,165;   -1,227
861,608;13217,456;    0,165;   -0,773
862,169;13365,357;   -0,562;   -0,045
862,730;13144,622;   -0,290;    1,409
863,291;13385,615;    0,438;   -0,500
863,852;13683,607;   -0,926;    1,955
864,412;13192,418;   -1,835;   -0,864
864,973;11982,955;    1,892;    0,500
865,534;11879,584;    2,074;    0,227
866,094;13166,395;    2,620;    0,227
866,655;12859,024;    4,711;    3,318
867,215;13137,561;    0,074;    0,136
867,776;13004,008;   -1,199;   -0,136
868,336;13081,819;    1,529;    0,136
868,897;12651,993;    3,438;    1,682
869,457;12475,258;    3,256;    0,318
870,017;12739,342;    2,438;   -1,227
870,578;13147,880;    1,893;    0,773
871,138;12794,599;    2,620;   -0,955
871,698;12357,319;   -0,562;   -1,318
872,258;12279,220;    0,711;   -2,864
872,818;12623,667;    2,347;    0,045
873,378;12603,569;   -2,198;    1,045
873,938;12171,198;    4,984;    0,500
874,498;12476,008;    1,256;   -1,955
875,058;12419,910;    4,347;    1,773
875,618;12275,266;    1,438;   -2,682
876,177;12236,167;   -0,471;    0,136
876,737;11896,342;   -0,289;    1,955
877,297;11943,607;    2,711;    1,955
877,856;11961,963;    2,529;    0,318
878,416;11910,228;    2,438;   -0,136
878,976;12075,220;    3,438;    0,409
879,535;12240,576;    4,529;    3,136
880,095;12036,114;    1,347;    0,045
880,654;12106,288;    0,347;    1,318
881,213;12246,826;    2,347;    1,500
881,773;11895,637;    1,984;    2,682
882,332;12266,902;    6,075;    5,136
882,891;12093,622;    0,711;    2,136
883,451;12455,069;   -2,016;    1,682
884,010;11968,516;   -1,107;   -0,409
884,569;12068,599;   -2,289;   -0,045
885,128;12157,682;   -0,743;   -1,864
885,687;12232,493;   -0,743;    0,682
886,246;12010,394;    2,620;    2,136
886,805;11786,114;    1,620;    2,045
887,364;11994,379;    1,166;   -0,500
887,922;12311,372;   -0,016;    0,045
888,481;11845,637;    1,530;    0,591
889,040;12119,266;    3,711;    2,136
889,599;12688,531;    2,166;    1,409
890,157;12755,614;    2,166;    2,409
890,716;12398,516;    2,166;    0,227
891,274;12236,963;    0,075;   -1,136
891,833;12584,137;    1,166;    0,864
892,391;12471,493;    1,802;    0,500
892,950;12527,849;    0,166;   -0,773
893,508;12891,023;    0,984;   -0,409
894,067;12311,015;   -0,379;    0,136
894,625;12220,190;   -1,016;   -1,500
895,183;12428,637;   -0,198;   -0,682
895,741;12379,447;    2,257;   -1,773
896,299;12203,803;    1,621;   -2,409
896,858;12338,796;    1,530;   -1,591
897,416;12472,697;    0,166;   -1,318
897,974;12300,417;   -2,197;    0,318
898,532;12451,137;    6,530;    2,682
899,089;12324,038;    0,621;   -0,682
899,647;12383,667;    0,530;    1,318
900,205;12196,205;    0,257;    1,045
900,763;12358,197;    2,166;    0,227
901,321;12416,462;    3,530;   -1,409
901,878;11866,727;    3,257;   -0,773
902,436;11796,265;    0,257;    1,318
902,994;12194,167;    6,712;    3,682
903,551;11689,523;    1,439;    0,409
904,109;12030,879;    1,530;   -1,409
904,666;11693,871;    1,439;    1,045
905,224;11549,136;    3,894;   -0,409
905,781;11355,311;   -0,470;   -0,318
906,338;11367,030;    0,167;    1,045
906,895;11370,114;    1,894;    2,045
907,453;11327,015;    2,348;    1,136
908,010;11364,189;    3,348;    0,409
908,567;11054,455;   -0,561;    0,591
909,124;10588,538;    2,439;   -1,500
909,681;10669,985;   -1,288;    0,682
910,238;10865,068;   -0,106;   -1,318
910,795;11164,697;   -1,561;   -1,136
911,352;10830,152;   -0,379;   -2,682
911,909;10353,333;    2,803;   -0,864
912,466;10799,333;    1,985;    1,500
913,022;10353,515;   -0,924;    0,500
913,579;10676,788;   -0,470;    2,045
914,136;10461,424;   -2,561;    0,955
914,692;10813,606;    1,530;   -1,227
915,249;10427,606;    0,530;    0,409
915,806;10636,061;    1,803;    1,955
916,362;10495,424;    0,894;    1,864
916,918;10037,697;    2,439;    1,045
917,475;10064,333;    1,621;    0,955
918,031;10117,333;    0,076;   -0,045
918,587; 9668,424;    0,621;   -0,318
919,144; 9923,788;   -0,379;    0,227
919,700;10119,606;    0,167;    0,773
920,256; 9761,333;    0,439;    0,045
920,812; 9485,152;    1,439;   -1,045
921,368; 9535,424;    1,348;   -1,045
921,924; 9253,152;    0,439;   -0,136
922,480; 8879,333;    0,076;    1,227
923,036; 9427,788;   -0,652;    1,955
923,592; 9367,242;    0,621;    0,318
924,148; 9344,333;    1,894;   -0,955
924,704; 8771,606;    0,258;   -0,409
925,259; 9077,152;   -0,561;    0,591
925,815; 8859,970;    3,803;    0,500
926,371; 8445,424;    3,530;    1,409
926,926; 8375,242;    1,621;    0,591
927,482; 8095,970;    1,621;    0,773
928,037; 8018,879;   -0,833;    2,045
928,593; 8280,697;    0,258;    1,045
929,148; 8130,242;    1,167;   -1,500
929,704; 7734,697;    2,439;   -0,500
930,259; 7929,788;    0,894;   -0,136
930,814; 7170,333;    1,803;    1,955
931,369; 6968,970;    0,258;   -0,773
931,925; 6887,152;   -1,924;    0,136
932,480; 6811,788;    3,076;   -2,591
933,035; 6775,333;    3,985;   -0,318
933,590; 6592,424;   -1,742;   -1,773
934,145; 6323,788;   -1,288;   -0,318
934,700; 6634,697;    0,348;   -0,591
935,255; 6479,242;    4,803;    0,045
935,809; 5984,333;    6,258;    0,864
936,364; 5261,606;    2,167;   -0,136
936,919; 5304,242;    2,348;   -1,773
937,474; 5222,242;    1,348;    0,136
938,028; 5048,242;    3,076;    1,136
938,583; 4688,515;    6,348;    4,682
939,138; 4899,606;    0,167;    2,136
939,692; 4460,333;   -1,015;   -1,136
940,247; 4268,152;    1,167;   -1,045
940,801; 3961,424;    0,621;    0,227
941,355; 3898,152;    0,439;    2,591
941,910; 3594,606;    0,712;   -2,136
942,464; 3709,152;    2,712;   -0,318
943,018; 3612,333;    3,258;   -0,227
943,572; 3546,061;    2,803;   -0,682
944,126; 3133,697;   -0,924;   -0,409
944,681; 3056,606;    0,712;    0,227
945,235; 3021,424;    2,167;   -0,591
945,789; 2961,697;    1,258;   -1,864
946,342; 3139,697;   -0,561;   -0,591
946,896; 2919,697;    0,348;    0,955
947,450; 2722,879;   -0,561;   -0,227
948,004; 2958,152;    1,076;   -0,045
948,558; 2906,061;    1,258;   -0,864
949,111; 2837,606;   -1,197;   -0,318
949,665; 2951,333;   -0,106;   -0,682
950,219; 2824,515;    0,621;   -1,045
950,772; 2850,879;    0,258;    1,864
951,326; 2794,879;   -1,106;   -0,955
951,879; 2825,788;    1,076;   -2,318
952,433; 2903,606;    1,348;    2,227
952,986; 2702,606;    0,348;    0,682
953,539; 2658,697;    1,530;    0,591
954,093; 2634,697;    0,985;   -1,318
954,646; 2755,152;   -0,288;    1,318
955,199; 2576,606;    1,258;   -0,500
955,752; 2549,424;    1,985;    1,773
956,305; 2498,606;    0,894;    2,955
956,858; 2630,606;    0,621;   -0,318
957,411; 2791,697;    3,621;    2,136
957,964; 2620,333;    2,076;    2,136
958,517; 2591,515;    0,985;    3,136
959,070; 2476,242;   -1,197;    1,955
959,623; 2637,606;    1,076;    1,500
960,176; 2451,879;    0,712;    2,045
960,728; 2420,515;    1,712;    0,773
961,281; 2456,788;    2,258;    0,500
961,834; 2461,424;   -0,833;    0,864
962,386; 2379,879;    1,258;    1,045
962,939; 2315,424;    3,439;   -0,318
963,491; 2439,697;    2,621;    1,136
964,043; 2325,879;    0,076;    2,409
964,596; 2464,879;    1,712;    2,227
965,148; 2329,242;   -0,379;    1,773
965,700; 2250,788;   -0,015;   -0,227
966,253; 2383,970;   -0,833;    0,318
966,805; 2263,424;    1,894;    0,773
967,357; 2264,152;    0,439;   -1,500
967,909; 2275,515;    1,167;   -1,227
968,461; 2316,242;    0,894;    3,136
969,013; 2263,424;   -1,561;   -0,864
969,565; 2350,606;    1,803;   -1,136
970,117; 2556,606;    3,803;    1,045
970,669; 2303,061;    3,258;   -0,136
971,220; 2106,879;    2,167;   -1,500
971,772; 2108,515;    1,348;   -0,318
972,324; 2241,697;   -1,197;   -0,500
972,876; 2154,515;    0,167;   -0,045
973,427; 2311,152;   -1,197;   -1,045
973,979; 2292,061;    0,076;   -2,500
974,530; 2252,515;    0,803;    1,318
975,082; 2260,333;    2,167;    1,682
975,633; 2186,424;    2,894;    1,682
976,184; 2335,242;    2,076;    0,773
976,736; 2174,970;    0,348;    0,227
977,287; 2033,242;    0,258;   -0,500
977,838; 2154,697;   -0,924;   -0,318
978,389; 2199,061;    0,803;   -0,500
978,940; 2058,879;    1,258;   -0,409
979,491; 2087,061;    2,258;   -0,500
980,042; 2091,515;   -0,652;    3,045
980,593; 2109,333;    1,894;    0,227
981,144; 2205,697;    3,530;   -0,500
981,695; 2219,697;   -0,470;    1,500
982,246; 2156,879;   -1,833;    1,045
982,797; 2216,697;   -0,561;    0,682
983,347; 2337,515;    2,167;    0,591
983,898; 2515,606;    4,167;    0,409
984,449; 2383,970;    2,530;    0,773
984,999; 2221,061;    1,894;   -1,136
985,550; 2079,515;    3,167;   -0,318
986,100; 2045,424;    0,712;   -0,318
986,651; 2072,970;    0,258;    0,045
987,201; 2074,333;    0,894;   -0,591
987,751; 2131,515;   -0,288;    2,864
988,302; 2145,152;   -0,379;    1,500
988,852; 2157,152;    1,985;   -1,136
989,402; 2234,515;    0,985;    0,682
989,952; 2180,242;    1,621;    0,864
990,502; 2198,970;    1,076;    0,682
991,052; 2125,152;   -0,106;    0,045
991,602; 2039,697;    1,167;    1,318
992,152; 2069,242;    2,803;    0,682
992,702; 2067,242;    1,167;   -0,045
993,252; 1994,152;    0,076;   -0,500
993,802; 2098,152;    1,167;    1,318
994,352; 2255,242;   -0,742;    1,136
994,901; 2285,788;    1,076;    3,227
995,451; 2230,879;   -1,197;    0,318
996,000; 2297,152;    1,076;    0,318
996,550; 2086,242;    2,894;    0,227
997,100; 2082,152;   -0,561;   -0,045
997,649; 2343,697;   -0,197;    0,955
998,198; 2041,515;   -0,288;   -1,500
998,748; 2231,970;    0,348;   -2,318
999,297; 2122,606;    0,985;   -0,409
999,846; 2227,424;    1,894;   -0,773
1000,395; 2217,697;    1,530;    0,500
1000,945; 2236,242;    1,076;   -0,773
1001,494; 2307,061;    0,167;    0,682
1002,043; 2275,424;    0,712;    0,864
1002,592; 2089,879;    3,439;    1,955
1003,141; 2207,515;    2,439;   -0,682
1003,690; 2144,242;    1,258;    0,500
1004,238; 2139,515;   -0,106;   -0,045
1004,787; 1853,970;   -1,288;    1,227
1005,336; 2119,515;    1,621;    0,682
1005,885; 2188,061;   -0,197;   -2,773
1006,433; 2253,152;   -0,470;    0,955
1006,982; 2421,879;    2,167;    1,682
1007,531; 2283,606;    2,712;   -0,227
1008,079; 2201,970;    0,258;    0,500
1008,627; 2299,152;    1,621;    0,409
1009,176; 2111,061;    0,076;   -1,955
1009,724; 2124,788;   -2,742;    0,864
1010,273; 2250,333;    1,076;    0,500
1010,821; 2277,424;    1,076;    1,409
1011,369; 2062,970;    0,076;    1,318
1011,917; 2045,515;   -0,833;   -0,591
1012,465; 2301,242;    2,530;   -1,591
1013,013; 2365,152;    0,439;   -1,682
1013,561; 2323,970;   -1,288;   -0,773
1014,109; 2395,333;   -0,833;    1,682
1014,657; 2255,242;    1,348;    0,591
1015,205; 2298,697;    0,894;   -0,955
1015,753; 2280,061;    0,258;   -1,409
1016,301; 2340,333;    2,621;    3,045
1016,848; 2360,515;    2,167;    0,409
1017,396; 2423,333;    1,621;    0,045
1017,944; 2506,970;    2,621;    1,864
1018,491; 2277,333;   -0,197;    1,409
1019,039; 2539,879;   -0,652;    0,591
1019,586; 2366,606;    0,076;    1,682
1020,134; 2429,788;    0,712;    1,500
1020,681; 2455,333;    2,894;   -1,136
1021,228; 2406,879;   -0,561;   -2,227
1021,776; 2293,333;   -0,833;   -1,136
1022,323; 2549,061;    0,803;    0,773
1022,870; 2457,970;   -0,470;   -0,045
1023,417; 2415,424;    2,076;    1,864
1023,964; 2441,788;    0,621;    1,227
1024,511; 2351,788;   -0,652;    0,773
1025,058; 2182,515;    0,439;   -0,045
1025,605; 2236,333;   -1,742;    3,136
1026,152; 2480,515;   -0,106;   -0,591
1026,699; 2216,061;    0,167;    1,318
1027,245; 2330,242;    2,439;    0,318
1027,792; 2479,424;    0,712;    1,409
1028,339; 2455,152;    4,076;   -0,045
1028,885; 2317,333;    3,621;   -0,227
1029,432; 2240,879;   -0,106;    0,227
1029,978; 2326,788;    1,348;   -1,591
1030,525; 2228,424;    1,621;    0,409
1031,071; 2388,970;    0,348;    1,136
1031,618; 2604,788;    1,258;    1,682
1032,164; 2352,697;    2,076;    3,045
1032,710; 2389,515;    0,076;   -1,500
1033,256; 2310,788;    0,712;   -0,136
1033,803; 2259,061;   -0,288;    1,500
1034,349; 2014,697;    1,803;    0,136
1034,895; 2141,879;    2,621;   -0,318
1035,441; 2132,606;    0,439;    0,318
1035,987; 2170,970;   -2,288;   -0,682
1036,533; 2208,333;   -0,197;   -0,955
1037,078; 2422,061;    4,712;    1,682
1037,624; 2245,788;    2,439;   -0,955
1038,170; 2192,970;    1,712;   -0,318
1038,716; 2165,697;    2,167;   -0,409
1039,261; 2054,424;    2,167;   -0,773
1039,807; 2031,152;   -0,015;    3,409
1040,352; 2115,879;   -1,288;   -0,318
1040,898; 2126,424;    0,167;   -0,682
1041,443; 2028,152;    0,803;   -2,591
1041,989; 2169,606;    3,621;    1,591
1042,534; 1997,697;    0,985;    2,591
1043,079; 2040,242;    1,985;    0,955
1043,625; 1919,152;    0,258;    0,500
1044,170; 1990,788;    2,439;    1,045
1044,715; 2251,515;    0,167;    0,955
1045,260; 2072,515;   -0,833;   -0,955
1045,805; 2061,242;    0,258;   -0,591
1046,350; 1977,424;    0,530;   -0,409
1046,895; 2034,788;    0,803;    1,591
1047,440; 2023,333;    1,530;    0,409
1047,985; 1893,515;   -1,197;   -0,955
1048,530; 1810,697;    1,348;    1,227
1049,074; 1894,333;    2,803;    0,318
1049,619; 1847,061;   -0,924;    1,955
1050,164; 1683,424;    1,076;    0,227
1050,708; 1739,970;    2,621;    0,045
1051,253; 2158,606;    3,258;   -2,227
1051,797; 1852,333;   -0,197;   -1,318
1052,342; 1789,788;    1,348;    1,045
1052,886; 1824,697;    1,803;   -1,409
1053,430; 1687,788;    2,167;    0,136
1053,975; 1706,788;    0,894;   -0,318
1054,519; 1714,788;    1,803;    3,227
1055,063; 1778,606;    3,621;    1,318
1055,607; 1698,333;    1,348;    0,227
1056,151; 1707,333;    0,530;    1,682
1056,695; 1598,152;   -1,833;   -1,136
1057,239; 1653,970;   -1,197;   -0,682
1057,783; 1685,061;    2,258;   -1,500
1058,327; 1689,606;    3,076;    1,409
1058,871; 1913,061;    3,985;    1,318
1059,415; 1645,879;   -0,561;   -0,045
1059,958; 1916,424;    2,985;    2,591
1060,502; 1626,697;    1,348;   -0,773
1061,046; 1504,424;    1,712;   -0,955
1061,589; 1473,788;    2,803;   -1,136
1062,133; 1385,879;    0,985;    1,864
1062,676; 1354,606;    1,439;    0,864
1063,220; 1378,606;    0,985;    0,500
1063,763; 1416,515;    2,985;    1,136
1064,306; 1479,879;    0,985;    1,864
1064,849; 1394,152;    2,076;    0,591
1065,393; 1390,606;    2,894;   -1,500
1065,936; 1460,788;    2,530;   -0,409
1066,479; 1352,424;    2,621;    1,318
1067,022; 1376,242;    1,894;   -0,227
1067,565; 1290,879;   -1,197;   -1,318
1068,108; 1303,152;    1,258;   -0,591
1068,651; 1269,515;   -2,470;    1,409
1069,194; 1215,879;   -1,106;   -1,682
1069,736; 1239,061;    3,803;    0,955
1070,279; 1195,333;   -1,652;   -0,500
1070,822; 1291,697;    1,530;   -0,318
1071,364; 1397,879;    0,530;    1,318
1071,907; 1213,424;    0,348;    3,227
1072,450; 1087,152;    0,258;   -0,045
1072,992; 1114,970;   -0,561;    3,136
1073,535; 1261,879;    0,167;    2,136
1074,077; 1059,606;    2,985;    2,045
1074,619; 1049,879;    0,985;    0,591
1075,161; 1089,242;   -0,561;    1,500
1075,704; 1267,788;    0,258;    1,227
1076,246; 1043,242;    1,530;    0,682
1076,788;  961,970;   -1,015;    1,773
1077,330; 1028,879;   -2,106;    2,136
1077,872; 1022,152;   -1,924;    0,955
1078,414; 1273,333;    3,712;    0,773
1078,956; 1013,333;    0,167;   -0,227
1079,498; 1262,879;    0,439;    0,318
1080,040;  990,788;    0,985;   -1,318
1080,581;  925,152;    0,621;   -0,318
1081,123;  850,333;   -0,106;   -0,773
1081,665;  887,697;    3,803;   -0,955
1082,206; 1191,515;    3,258;   -0,500
1082,748; 1062,879;    3,258;    2,045
1083,289;  933,152;    0,167;    1,318
1083,831;  862,697;    0,258;    0,227
1084,372;  919,606;    0,894;    0,591
1084,913;  921,515;    3,348;    0,864
1085,455;  853,697;    1,530;   -2,045
1085,996;  852,152;    0,530;    0,136
1086,537;  892,242;    0,985;    0,864
1087,078;  908,333;    0,439;   -2,136
1087,619;  967,788;   -1,652;    0,227
1088,160;  880,879;    1,439;    1,318
1088,701;  849,606;   -0,742;    0,682
1089,242;  811,970;   -0,561;   -2,227
1089,783;  907,697;   -0,561;    1,409
1090,324;  877,970;   -0,833;    0,682
1090,865;  752,697;   -1,924;   -0,409
1091,405;  715,242;   -0,561;    2,227
1091,946;  754,697;   -0,197;   -0,955
1092,487;  680,788;   -1,288;   -1,409
1093,027;  856,697;    1,803;   -1,500
1093,568;  718,242;    2,258;    1,227
1094,108;  820,424;    0,621;    1,773
1094,649;  756,697;   -0,470;    0,136
1095,189;  691,333;    1,167;   -0,682
1095,729;  653,152;    0,712;    0,955
1096,269;  654,061;    1,258;   -0,955
1096,810;  956,606;   -0,197;    0,500
1097,350;  801,061;   -0,561;   -0,773
1097,890;  701,788;    2,985;    1,227
1098,430;  958,606;    4,985;    2,864
1098,970;  831,515;    1,894;    1,682
1099,510;  687,424;   -0,833;   -2,318
1100,050;  633,697;    0,258;   -1,591
1100,589;  610,424;    0,076;   -0,318
1101,129;  738,424;    0,894;   -0,955
1101,669;  875,242;    2,803;    2,136
1102,209;  710,424;    1,530;    2,227
1102,748;  663,606;    3,439;    0,955
1103,288;  652,424;    0,712;   -1,227
1103,827;  673,515;    3,530;   -2,227
1104,367;  566,242;    1,712;   -2,409
1104,906;  540,152;   -1,015;   -1,136
1105,445;  616,606;    0,985;   -1,136
1105,985;  571,242;   -0,652;    1,500
1106,524;  608,788;    1,530;   -0,682
1107,063;  584,697;    1,167;    1,409
1107,602;  555,061;    1,894;   -1,500
1108,141;  488,606;    1,621;    1,500
1108,680;  591,061;    3,985;   -0,591
1109,219;  533,970;    0,167;   -0,500
1109,758;  527,788;    4,167;    0,682
1110,297;  508,970;   -1,106;   -0,682
1110,836;  456,333;    1,439;    0,955
1111,375;  600,970;    0,348;    0,409
1111,913;  627,061;    0,985;    0,773
1112,452;  569,061;    0,894;    0,136
1112,991;  452,879;    1,076;    1,955
1113,529;  421,879;    0,167;   -0,045
1114,068;  488,606;    0,439;    2,955
1114,606;  395,515;   -0,561;   -0,955
1115,144;  554,424;    1,530;    1,045
1115,683;  491,606;    1,985;    0,318
1116,221;  534,152;    2,076;   -0,864
1116,759;  449,970;    1,621;   -0,864
1117,297;  635,697;    1,621;    1,864
1117,836;  460,424;    1,985;   -1,227
1118,374;  471,061;    0,258;   -0,682
1118,912;  430,242;    0,439;    2,682
1119,450;  415,242;    0,985;    0,864
1119,988;  447,333;    3,348;    2,136
1120,525;  882,333;    7,258;    3,318
1121,063;  597,788;    0,530;    1,864
1121,601;  427,152;    1,076;   -1,227
1122,139;  380,970;    1,076;   -2,045
1122,676;  576,788;   -1,652;    2,773
1123,214;  498,879;    0,712;    4,409
1123,751;  343,061;    0,621;    2,227
1124,289;  455,697;    0,894;   -0,409
1124,826;  343,970;   -0,379;    0,227
1125,364;  271,606;    0,712;   -0,955
1125,901;  450,242;    6,258;    1,227
1126,438;  548,061;    3,530;    0,955
1126,975;  297,970;    2,985;   -0,773
1127,513;  355,242;    2,621;    2,136
1128,050;  275,061;   -0,561;   -0,682
1128,587;  371,697;    1,348;   -0,227
1129,124;  412,970;   -0,015;    1,318
1129,661;  282,333;   -1,924;    0,227
1130,198;  430,788;    2,439;    0,773
1130,734;  378,606;   -0,379;    1,409
1131,271;  250,879;   -1,197;    0,864
1131,808;  416,333;    1,621;    3,045
1132,345;  298,879;    4,530;    0,318
1132,881;  188,061;   -0,561;   -1,864
1133,418;  310,333;    0,348;   -1,136
1133,954;  247,788;    0,712;   -2,682
1134,491;  321,788;    1,712;   -0,773
1135,027;  234,424;    2,167;    0,864
1135,564;  314,515;    1,439;    2,955
1136,100;  308,697;   -0,742;    2,136
1136,636;  208,061;   -1,015;   -1,045
1137,172;  285,788;    0,894;   -1,045
1137,708;  212,424;   -1,561;   -1,045
1138,245;  214,606;    0,803;   -1,227
1138,781;  174,061;    1,803;   -3,318
1139,317;  230,970;    1,894;   -1,409
1139,852;  225,606;    3,076;    0,136
1140,388;  329,152;    2,076;   -0,409
1140,924;  225,515;    1,076;   -2,227
1141,460;  178,242;   -0,288;    0,136
1141,996;  118,515;   -0,652;    2,682
1142,531;  163,879;    1,076;    3,318
1143,067;  359,061;    1,167;    1,045
1143,602;  404,515;    3,439;   -0,318
1144,138;  269,061;    0,803;    1,045
1144,673;  155,879;    1,621;    1,409
1145,209;  210,697;    2,894;   -0,318
1145,744;  137,970;    0,803;    0,864
1146,279;  256,515;    1,530;   -0,136
1146,815;  179,606;    1,530;   -2,682
1147,350;  217,333;   -0,924;    0,045
1147,885;  143,333;   -1,924;   -1,318
1148,420;  143,424;    2,439;    0,773
1148,955;  129,788;   -1,470;    1,864
1149,490;  146,697;   -1,106;   -1,591
1150,025;  129,515;   -1,106;   -1,773
1150,560;  240,788;   -0,288;   -0,955
1151,094;  210,879;    0,258;   -0,591
1151,629;  210,333;   -3,742;    0,864
1152,164;  147,970;   -1,288;    1,318
1152,698;  119,424;    1,258;   -0,136
1153,233;   76,152;   -1,379;   -0,682
1153,767;  109,970;   -0,288;   -2,318
1154,302;  162,879;   -0,379;    1,773
1154,836;  164,152;    0,803;   -2,136
1155,371;  205,788;    2,258;    3,682
1155,905;  163,606;    1,985;    1,682
1156,439;  133,606;    0,530;   -0,500
1156,973;  164,515;    0,439;    0,318
1157,507;  107,606;   -1,742;    0,682
1158,042;  130,333;   -0,652;    1,045
1158,576;  174,424;   -0,561;    1,773
1159,110;  161,242;    0,076;    2,409
1159,643;  139,333;   -2,470;   -0,045
1160,177;   89,970;   -2,015;    1,500

