
Integration time [ms]:   0,050
Averaging Nr. [scans]: 11
Smoothing Nr. [pixels]: 0
Data measured with spectrometer [name]: 7318044SP
Wave   ;Sample   ;Dark     ;Reference
[nm]   ;[counts] ;[counts] ;[counts] 

186,757;  -27,396;   38,161;    1,318
187,357;   -8,234;   26,706;    0,955
187,958;  -16,141;   17,252;   -1,591
188,558;   12,041;   12,979;   -1,227
189,159;  -13,208;   10,070;   -4,500
189,759;  -30,522;    5,797;   -3,591
190,360;  -33,384;    6,797;   -2,136
190,960;   -8,867;    5,706;   -4,136
191,560;    4,769;    2,614;   -6,591
192,161;  171,663;    5,885;   -3,500
192,761;   44,539;    5,520;   -3,227
193,361;    2,134;    3,065;   -3,773
193,962;   39,851;    1,612;   -2,682
194,562;   -6,889;   -0,114;   -3,955
195,162;   -2,965;   -0,567;   -2,227
195,762;   98,308;    2,433;   -0,045
196,362;   56,958;    1,706;   -2,500
196,963;  -16,043;    1,706;   -0,864
197,563;   29,050;    1,252;   -0,955
198,163;  -15,249;   -0,111;   -0,682
198,763;   -1,909;   -0,020;   -0,500
199,363;   39,539;    3,616;   -0,500
199,963;   15,635;    2,162;    0,409
200,563;    8,600;    6,344;   -1,409
201,163;   -8,592;    5,435;   -0,227
201,763;   15,638;    1,435;    0,318
202,363;   -4,135;    0,980;    1,500
202,963;   25,525;    1,526;    1,045
203,563;   63,371;    0,344;    0,500
204,162;    4,042;    1,889;   -1,864
204,762;    0,689;    2,071;    0,591
205,362;  -12,037;    0,708;    1,955
205,962;    7,491;    3,435;    1,955
206,562;    1,736;    1,889;    2,318
207,161;   -2,066;    1,708;    0,318
207,761;   53,315;    4,435;    2,409
208,361;   -2,849;    1,889;    1,409
208,960;   15,213;    2,889;    1,500
209,560;    9,443;    0,435;    1,591
210,160;   18,957;    5,071;    1,864
210,759;    0,449;    0,708;    1,227
211,359;   -1,881;   -0,474;    1,045
211,958;   86,711;    3,526;    2,045
212,558;   87,840;    0,799;    1,864
213,157;   26,317;   -0,929;    1,500
213,757;  153,625;    5,617;   -0,227
214,356;   44,065;    1,708;   -0,409
214,956;  122,598;    3,526;    0,409
215,555;   29,032;    0,617;    2,136
216,154;    1,975;   -0,292;   -0,591
216,754;    1,957;    1,253;    0,773
217,353;   12,378;   -0,383;   -1,045
217,952;  -24,818;    2,072;    0,318
218,552;   26,554;    0,254;   -0,773
219,151;   -4,035;   -1,110;    0,955
219,750;   -9,622;    0,890;   -0,227
220,349;   -9,981;   -2,292;    1,045
220,948;   32,686;    1,163;    1,136
221,548;   -6,316;    0,617;    1,227
222,147;    3,128;   -1,292;   -0,409
222,746;   62,115;    1,254;   -0,955
223,345;   27,795;   -1,019;    0,500
223,944;   20,142;    1,163;    0,773
224,543;   20,392;    4,072;   -1,409
225,142;    3,481;    1,345;    0,136
225,741;   14,624;    1,163;    1,045
226,340;   12,428;    1,254;   -0,955
226,939;   54,020;    2,708;   -0,136
227,538;    3,722;    1,163;   -0,773
228,137;   65,917;    0,435;    0,864
228,735;   40,545;    0,435;    1,227
229,334;  -17,200;   -0,474;   -0,227
229,933;   66,157;    0,799;    0,591
230,532;   56,870;   -1,201;   -0,409
231,131;   92,289;    1,253;    0,318
231,729;   33,931;    1,163;   -2,318
232,328;    4,690;    0,435;   -1,500
232,927;    7,021;    4,526;   -0,500
233,525;    4,784;    0,981;    0,045
234,124;   18,474;    1,890;   -1,591
234,723;   -5,275;    1,617;   -1,045
235,321;  -14,533;    1,163;    0,136
235,920;   -7,878;    2,526;   -1,227
236,518;   55,228;    1,072;    0,318
237,117;   -2,704;    2,890;   -0,227
237,715;   15,503;    1,163;   -0,500
238,314;   16,896;    1,708;   -2,318
238,912;   56,839;    0,526;   -1,409
239,510;   24,895;    1,162;   -1,227
240,109;   68,167;   -0,474;    3,773
240,707;   50,450;   -0,474;    1,227
241,305;   -8,456;   -0,383;    0,136
241,904;   22,544;   -0,292;   -2,045
242,502;   79,206;    3,253;   -0,227
243,100;   31,849;    3,344;   -0,955
243,698;   -1,944;    2,799;    1,682
244,297;   10,809;   -0,656;    0,682
244,895;    5,541;   -0,474;   -2,318
245,493;   65,140;    2,981;   -0,591
246,091;   72,072;    5,163;   -1,318
246,689;   40,609;    2,163;    0,591
247,287;   32,840;   -0,019;   -1,136
247,885;   10,105;   -1,019;    1,227
248,483;   -7,566;   -0,201;   -0,500
249,081;   32,146;    0,981;    1,591
249,679;   31,962;   -1,019;    1,682
250,277;   -1,956;   -2,292;    0,864
250,875;   35,767;    0,617;   -1,045
251,473;    2,156;   -0,019;    0,500
252,071;   39,161;   -0,383;    1,045
252,669;   12,051;   -1,565;    0,318
253,267;   -1,563;    1,618;    0,773
253,864;   11,294;    0,617;    0,682
254,462;   42,169;    1,526;    1,591
255,060;   -6,238;    0,072;    1,318
255,658;   -6,949;   -3,292;   -0,136
256,255;    6,831;   -0,201;   -2,045
256,853;   15,923;    2,345;    1,409
257,451;    2,486;    1,981;    1,864
258,048;  152,443;    2,072;    1,864
258,646;   56,342;    0,436;   -1,045
259,243;   89,195;    2,981;    2,227
259,841;   39,208;    1,799;    0,318
260,438;    5,535;    0,254;    0,864
261,036;   33,942;    0,617;    1,409
261,633;    3,886;    1,526;    2,227
262,231;   -7,669;   -0,110;   -0,045
262,828;  -10,392;   -0,383;    1,136
263,425;   -3,847;   -1,928;   -0,591
264,023;   -3,783;    1,436;    0,045
264,620;   34,961;    1,526;   -0,318
265,217;   71,423;    2,890;    3,136
265,815;    4,947;    2,527;    2,136
266,412;   30,077;    0,072;    0,136
267,009;   16,932;    0,526;    0,773
267,606;   48,524;    0,345;   -0,955
268,203;    6,010;   -0,383;   -0,591
268,801;    7,984;   -0,474;    0,591
269,398;  -10,654;   -0,564;    2,500
269,995;   17,608;    0,890;    1,591
270,592;    5,470;    0,799;   -0,500
271,189;  -13,257;    1,981;    0,409
271,786;  -18,896;    2,072;    1,227
272,383;   34,959;   -0,383;    0,227
272,980;    7,007;    1,617;    0,318
273,577;  -10,635;    2,162;    1,227
274,174;  -11,021;    1,435;    2,591
274,771;   25,323;    1,890;   -0,773
275,367;  163,084;    3,253;    1,409
275,964;   70,982;   -0,565;   -0,500
276,561;    2,895;   -2,474;   -1,045
277,158;  -18,583;    1,799;   -1,773
277,755;   56,691;   -0,110;    0,409
278,351;   24,788;    0,436;   -1,500
278,948;   42,831;   -0,201;    0,045
279,545;   23,396;    0,527;    2,318
280,141;   60,906;    1,254;   -2,045
280,738;   70,488;    2,435;   -0,136
281,334;   11,891;   -0,383;    0,591
281,931;   -8,037;    2,890;   -1,318
282,528;   37,680;    4,072;   -0,500
283,124;   53,806;    3,345;   -0,500
283,721;   50,474;    0,709;    1,409
284,317;   20,584;    0,163;    2,500
284,913;   56,004;   -0,110;    0,591
285,510;  115,004;    2,890;   -0,318
286,106;   66,766;    2,345;   -0,955
286,703;   29,317;    0,072;    1,955
287,299;    7,026;    1,254;   -0,591
287,895;    9,086;    0,890;   -1,045
288,491;    6,982;    0,163;    2,136
289,088;   27,754;    0,163;    2,409
289,684;   35,960;    2,890;    1,500
290,280;   77,971;    1,890;    0,682
290,876;   64,283;    0,163;    5,500
291,472;   43,268;    2,163;    2,227
292,068;   50,784;    1,254;    0,227
292,665;   16,663;   -0,564;    0,773
293,261;   -6,149;   -1,292;    2,136
293,857;   39,590;    4,072;    2,136
294,453;   22,421;   -0,928;    0,955
295,049;   80,463;    0,253;    1,955
295,644;   36,764;   -1,292;    0,136
296,240;   -2,235;    0,162;   -0,136
296,836;   21,665;   -0,747;    0,318
297,432;   49,996;    2,980;   -0,500
298,028;   52,426;    0,435;    0,773
298,624;   16,782;    0,889;    1,864
299,220;   18,579;    0,435;    0,591
299,815;   13,023;    0,526;   -0,409
300,411;   45,281;    0,435;    1,773
301,007;   55,491;    1,889;    0,227
301,602;   10,376;    2,071;   -2,318
302,198;   61,676;    1,435;   -0,773
302,794;   19,611;    1,526;   -0,500
303,389;   -0,090;    1,071;    1,045
303,985;    0,175;    1,253;    1,409
304,580;   64,875;    0,889;    1,591
305,176;   27,157;    0,344;    0,136
305,771;  -30,368;   -0,929;   -1,227
306,367;  127,115;    3,071;    0,136
306,962;   43,467;    2,889;    1,500
307,558;   66,673;    2,435;    0,136
308,153;   43,439;   -0,383;   -1,136
308,748;    3,535;    0,162;    1,682
309,344;  120,511;    0,253;   -1,318
309,939;  104,284;    2,071;   -1,318
310,534;   18,716;   -2,020;   -1,682
311,130;    6,610;   -0,656;   -2,500
311,725;    3,589;    0,526;   -0,500
312,320;   12,815;    1,253;    0,045
312,915;   39,634;    2,890;   -1,045
313,510;  115,903;    0,526;   -0,500
314,105;   27,616;   -3,565;    1,409
314,700;   -7,314;   -1,656;   -1,045
315,295;    8,057;   -0,020;    0,045
315,890;   -4,550;   -0,292;    0,864
316,485;   26,515;    0,253;   -0,318
317,080;    2,303;   -0,929;    1,591
317,675;  111,460;    3,071;   -0,682
318,270;  205,084;    6,889;    3,318
318,865;  129,711;    2,435;    3,045
319,460;   69,070;   -1,565;    0,591
320,055;    9,963;   -2,565;   -1,227
320,650;    3,432;   -1,838;   -0,591
321,244;   10,916;    0,889;   -1,409
321,839;   14,258;    0,980;   -0,227
322,434;   25,542;   -0,111;   -1,591
323,029;    4,978;   -0,474;    1,591
323,623;    0,990;    0,798;    0,773
324,218;   76,008;    2,707;    1,409
324,812;   47,256;    0,889;    1,591
325,407;   34,888;   -0,929;    2,045
326,002;  107,418;    0,526;   -0,409
326,596;   65,751;   -0,656;    1,318
327,191;    7,465;   -0,383;   -1,045
327,785;   10,114;   -0,747;   -0,227
328,379;    6,044;   -0,383;    0,136
328,974;   15,077;    1,798;   -3,955
329,568;   36,207;    2,889;   -2,409
330,163;   70,665;    2,435;    1,045
330,757;   11,054;    0,253;    1,591
331,351;   -8,191;   -0,292;    0,682
331,945;  -11,852;   -0,383;    1,409
332,540;   31,091;    1,617;   -0,591
333,134;   18,492;    3,344;    0,773
333,728;   31,330;    2,799;    0,318
334,322;   -3,667;    0,889;   -0,864
334,916;    4,100;    0,344;    0,955
335,510;   58,825;   -0,111;   -0,136
336,105;   44,193;   -0,929;    1,591
336,699;    8,935;   -1,292;    0,591
337,293;   32,050;    1,071;    0,318
337,887;    5,212;    0,071;    1,955
338,481;   58,024;    2,980;    0,591
339,074;  111,273;    2,071;    2,682
339,668;  104,379;   -0,110;    1,227
340,262;  406,534;    7,708;    3,227
340,856;  195,245;    1,708;   -0,682
341,450;   53,563;    0,708;    1,864
342,044;   82,777;    1,799;    0,136
342,637;  151,530;    1,162;   -2,136
343,231;  118,007;   -1,474;    0,682
343,825;  101,472;   -0,747;   -0,591
344,419;  107,291;   -0,474;    0,500
345,012;  464,973;    2,889;    4,045
345,606;  329,160;   -0,656;    1,591
346,199;  143,899;   -0,111;   -0,227
346,793;  240,095;    2,525;    2,045
347,386;  128,669;    0,889;   -1,136
347,980;   80,932;   -0,838;   -0,045
348,573;  160,396;   -1,748;    0,409
349,167;  406,207;    6,161;    4,773
349,760;  298,894;    2,252;    2,682
350,354;  282,154;    1,616;    1,136
350,947;  325,097;    2,798;    1,682
351,540;  234,931;    0,616;   -1,409
352,134;  152,109;   -1,111;    1,136
352,727;  182,162;   -0,657;    1,136
353,320;  200,276;    2,343;    0,591
353,913;  148,453;   -1,929;    1,864
354,507;  321,223;    0,434;   -1,227
355,100;  220,444;    0,071;    0,864
355,693;  576,122;    4,798;    2,409
356,286;  370,554;    0,980;    2,773
356,879;  260,366;   -0,475;    1,227
357,472;  246,334;    0,980;    1,500
358,065;  277,980;    3,161;    2,500
358,658;  172,448;    0,798;    2,318
359,251;  144,192;    0,252;   -0,591
359,844;  291,408;    0,343;   -1,136
360,437;  357,064;    0,252;    0,045
361,030;  211,614;    0,525;   -0,682
361,623;  214,503;    0,434;    0,318
362,215;  408,169;    0,979;    2,045
362,808;  272,039;   -2,293;   -1,682
363,401;  201,855;    0,798;    0,136
363,994;  385,289;    3,252;   -1,500
364,586;  212,433;    0,888;   -1,500
365,179;  169,219;   -0,203;   -1,136
365,772;   56,868;   -0,930;    2,045
366,364;  171,612;    1,524;   -3,227
366,957;  213,939;    1,342;   -0,045
367,549;  164,777;   -0,203;   -0,864
368,142;  165,287;    0,978;   -1,500
368,734;  137,158;    2,523;   -2,136
369,327;   87,174;    2,341;   -0,500
369,919;  123,127;   -1,659;    0,409
370,512;  130,742;   -1,023;   -0,500
371,104;  347,324;    2,704;    1,591
371,696;  362,198;    1,703;   -0,955
372,289;  231,071;    0,157;    1,136
372,881;  180,418;    1,156;    1,318
373,473;   95,973;    4,064;    1,136
374,066;  172,550;    1,336;    0,500
374,658;  137,385;    0,879;    1,136
375,250;   69,497;   -1,668;   -1,409
375,842;  100,720;   -0,124;   -0,045
376,434;   53,454;   -2,762;   -0,409
377,026;   43,049;   -1,855;   -2,500
377,618;   83,682;    0,779;   -0,682
378,210;   13,386;    3,141;   -1,955
378,802;   -4,394;    3,412;   -0,591
379,394;  370,681;    3,411;    0,682
379,986;  140,341;    1,138;   -0,955
380,578;   42,700;    1,410;    0,773
381,170;  286,395;    0,320;    0,045
381,762;  193,245;   -0,224;    1,409
382,354;  155,374;   -0,223;   -1,318
382,945;   72,198;    0,870;    0,318
383,537;   44,891;    1,144;   -1,955
384,129;   53,391;    0,963;   -1,136
384,721;  163,581;    0,418;    0,955
385,312;   99,135;   -1,399;   -0,955
385,904;  170,023;   -0,945;    1,591
386,496;   88,091;    0,691;    1,045
387,087;  211,105;    0,418;    2,500
387,679;  148,853;   -0,401;    0,045
388,270;  122,835;   -2,401;    2,045
388,862;   92,280;   -0,401;   -0,318
389,453;   81,193;    1,054;    1,045
390,045;   89,069;    3,236;   -2,682
390,636;   -7,836;    0,144;   -0,591
391,227;   50,097;    2,054;   -0,045
391,819;   19,426;    0,781;    0,773
392,410;  265,875;    0,600;    0,045
393,001;   90,980;    1,600;   -1,591
393,593;  144,416;    0,600;   -0,045
394,184;  185,270;    0,873;   -0,409
394,775;   75,039;    1,146;    2,136
395,366;    9,057;    1,782;    0,773
395,957;  165,107;   -2,400;    0,136
396,548;   65,788;    1,054;    2,682
397,139;  176,258;    2,236;    0,591
397,730;   94,097;    0,873;    0,955
398,321;  101,760;    0,509;    0,955
398,912;   39,954;   -0,764;    0,136
399,503;   52,152;   -1,945;   -1,409
400,094;   95,778;   -1,582;    1,682
400,685;   78,031;    3,600;    0,045
401,276;   29,780;   -0,400;   -0,955
401,867;   13,491;   -1,127;    0,773
402,458;  -25,998;    1,509;   -2,318
403,048;  104,824;    0,146;    0,591
403,639;   56,191;    1,509;    0,864
404,230;  153,602;    0,691;    0,318
404,821;  201,606;   -0,127;    0,045
405,411;  117,705;   -0,763;   -2,591
406,002;   37,329;    3,237;   -1,136
406,592;  243,547;    2,691;    0,045
407,183;  118,776;    0,328;   -1,500
407,774;   82,903;    1,419;   -0,136
408,364;   38,791;    2,600;    0,409
408,954;  141,126;   -0,036;    1,227
409,545;  140,373;    1,873;    1,045
410,135;   98,980;   -1,581;    0,500
410,726;   49,176;    0,783;    0,318
411,316;  216,102;    2,237;    0,773
411,906;   67,599;    0,146;   -0,409
412,497;   68,765;   -0,490;   -0,045
413,087;   10,394;    0,783;   -0,227
413,677;  -38,791;   -2,490;    3,864
414,267;  -50,132;   -1,035;    1,409
414,857;  -66,807;    0,419;    4,227
415,448;  -69,256;   -0,763;    0,500
416,038;  -41,088;   -2,945;   -0,591
416,628;    5,819;    0,965;    0,409
417,218;   39,180;   -1,762;    3,318
417,808;  165,051;    0,965;   -0,409
418,398;   66,820;   -1,035;    2,682
418,988;  -34,351;   -2,217;    0,591
419,578;   45,137;    3,601;    1,409
420,168;  -13,292;    0,692;   -0,955
420,757;   98,413;    0,964;   -1,500
421,347;    4,931;    1,601;   -0,227
421,937;  -23,062;    3,329;    1,409
422,527;   89,778;    2,602;   -0,773
423,116;  214,481;    2,692;   -0,045
423,706;  -17,166;    2,965;    0,318
424,296;  -58,275;    1,601;    0,682
424,885;   51,998;    1,510;   -3,045
425,475;   16,219;    1,147;   -2,864
426,065;  -62,401;   -1,489;   -0,318
426,654;  -74,069;    0,329;   -0,318
427,244;  151,924;    1,147;    1,409
427,833;  110,590;    1,056;   -0,500
428,423;   11,257;    0,147;    1,136
429,012;    4,310;    2,420;   -1,136
429,601;  109,010;    2,057;    0,136
430,191;   21,726;    2,511;    4,318
430,780;  -60,486;   -1,671;   -0,409
431,369;   87,564;    1,329;   -0,045
431,959;    0,096;    1,693;    0,500
432,548;  -53,027;   -1,398;   -0,045
433,137;  -94,832;    0,329;   -1,318
433,726;  -20,001;    0,148;    0,500
434,315;  -12,319;    0,148;    2,409
434,905;   74,334;    0,693;    1,409
435,494;   57,830;    3,148;    0,955
436,083;  -43,809;    1,420;   -0,955
436,672;   33,568;    1,148;    0,500
437,261;   -7,273;    0,512;   -1,955
437,850;  183,970;   -1,125;    0,682
438,439;  231,986;    2,239;    1,955
439,027;  338,783;    3,421;    1,773
439,616;  259,445;    2,239;    1,227
440,205;   64,246;    0,057;   -2,136
440,794;   21,943;   -0,306;   -0,045
441,383;  -36,328;    1,603;   -0,591
441,971;  -51,544;   -0,306;    0,591
442,560;  -44,757;    0,603;   -1,773
443,149; -126,270;    3,060;   -1,318
443,737;  -79,062;    0,968;   -2,318
444,326;  -64,185;    0,331;    0,318
444,915;  -32,014;   -1,851;    0,864
445,503;  -17,746;    0,058;   -0,318
446,092;  214,506;    7,876;    2,136
446,680;  158,909;    1,876;    0,318
447,269;   63,681;   -1,487;   -0,318
447,857;   49,219;    2,240;   -1,773
448,445;   11,404;    2,149;    1,318
449,034;  -35,888;    0,876;   -1,136
449,622;  -27,061;    1,240;    3,500
450,210;  219,768;    3,149;    2,227
450,799;  141,374;    2,604;   -0,591
451,387;  106,477;    1,786;   -0,591
451,975;   79,926;   -1,305;    0,864
452,563;  143,464;    0,422;    2,318
453,151;    2,353;   -1,032;   -1,227
453,739;   52,949;   -1,577;    0,136
454,328;  134,257;    0,604;   -2,136
454,916;   73,339;    1,150;   -0,136
455,504;   87,787;    3,513;    1,227
456,092;   -7,930;    2,150;   -1,591
456,679;  -40,391;    0,604;    0,682
457,267;  345,510;    3,604;    1,045
457,855;   53,490;    3,241;    1,409
458,443;  -70,119;   -0,304;    1,682
459,031;   60,205;    1,332;    2,409
459,619;   25,422;   -3,577;    2,864
460,206;  -47,921;   -0,759;    2,045
460,794;  -51,766;   -0,668;   -0,227
461,382;  -15,835;    0,878;   -0,864
461,970;   -9,811;    0,605;    1,864
462,557;  -63,249;    0,878;   -0,682
463,145;   29,167;   -0,304;   -1,682
463,732;  243,809;    2,514;   -1,045
464,320;   38,051;    1,514;   -3,045
464,907;  161,031;    0,423;   -0,773
465,495;   88,597;    2,696;   -1,227
466,082;   13,695;    2,060;   -0,045
466,670;   31,366;    2,605;    1,227
467,257;  -57,093;    0,060;    2,045
467,844;   40,019;    1,514;    0,045
468,432;   21,814;   -0,031;    3,500
469,019;  -17,066;    1,606;   -1,773
469,606;   57,125;    0,969;    3,682
470,193;   77,768;    2,151;    0,227
470,780;   32,938;    0,333;    0,864
471,368;  -17,145;   -1,212;   -0,773
471,955;   71,504;    1,060;   -0,682
472,542;   38,581;   -0,303;   -1,136
473,129;  -60,296;   -0,485;    0,136
473,716;  -44,662;    0,060;    0,591
474,303;  -17,372;    1,333;   -0,864
474,890;  -19,294;    2,333;   -0,500
475,477;   72,877;   -0,576;    0,409
476,064;  -16,416;    0,697;   -1,591
476,650;   90,448;    2,152;    0,318
477,237;   10,267;    1,879;    0,955
477,824;   -1,012;    3,879;    0,864
478,411;  -68,319;    0,606;   -0,318
478,997;  -83,210;    0,606;   -0,773
479,584; -118,437;   -0,666;   -0,409
480,171;   30,641;    1,243;   -0,773
480,757;   79,909;   -0,848;    0,773
481,344;  -14,830;    0,334;    0,409
481,931;  -85,976;   -0,393;    1,045
482,517;   22,819;    0,425;    0,318
483,104;  100,985;    1,334;    2,864
483,690;  -18,353;    0,243;    0,045
484,276;  -41,765;    0,698;    0,227
484,863;  148,213;    2,152;    1,136
485,449;   17,574;    0,152;    0,318
486,035;  -34,540;   -0,666;   -0,136
486,622;   49,550;   -2,393;    0,045
487,208;  -17,270;    1,334;    1,500
487,794;  -88,436;    0,971;    0,318
488,380;  -86,730;    0,698;   -1,409
488,967;  -82,118;   -1,120;   -0,409
489,553;  -64,224;   -1,029;   -1,409
490,139;    0,033;    0,971;    0,773
490,725;  -54,014;    0,789;   -0,227
491,311;  -20,364;    1,516;    3,045
491,897;  -42,701;   -0,665;    1,500
492,483;  -24,053;    0,426;    1,227
493,069;  372,119;    5,426;    0,864
493,655;  107,590;    1,789;    0,682
494,241;   -5,941;    1,517;   -0,955
494,826;   -3,596;    0,335;   -1,045
495,412;   43,801;    0,335;   -0,682
495,998;  -23,119;    0,971;   -0,318
496,584;   23,437;    2,244;    1,045
497,169;   40,500;    2,335;   -0,682
497,755;  -12,493;    1,244;    1,227
498,341;   97,037;    2,153;    0,318
498,926;  210,506;    2,881;    1,955
499,512;  -13,228;   -0,028;    2,955
500,097;  -22,433;   -0,574;   -0,318
500,683;   -3,810;   -0,028;    2,136
501,268;  -52,214;    1,881;   -0,955
501,854;  -32,143;   -0,119;    1,227
502,439;  -30,172;   -0,573;   -1,773
503,024;  -22,106;    1,608;    0,500
503,610;    2,265;    1,335;   -0,682
504,195;  -36,516;    1,245;    1,955
504,780;   46,912;    2,335;    1,227
505,366;  112,042;    4,063;    2,864
505,951;   51,740;   -1,119;    1,045
506,536;  -11,643;    1,427;   -3,682
507,121;   27,104;    1,699;   -0,318
507,706;   -4,870;   -0,392;    1,045
508,291;  -44,342;   -2,937;    1,136
508,876;  -48,831;   -0,482;    2,591
509,461;  -17,832;    1,427;   -0,773
510,046;   20,076;   -0,391;    0,318
510,631;   24,383;   -0,119;   -0,773
511,216;  -33,620;   -0,664;   -0,500
511,801;    9,623;   -0,755;    2,591
512,386;   24,237;    0,972;    0,500
512,971;   40,299;    0,427;    0,955
513,555;   66,646;    1,154;   -1,500
514,140;   27,104;    1,336;   -3,136
514,725;  132,167;    1,791;   -1,136
515,309;   58,751;    1,064;    0,318
515,894;   -8,927;   -0,300;   -2,227
516,479;   19,978;    1,973;   -0,955
517,063;   26,536;    0,882;    1,227
517,648;   -3,065;    0,155;   -1,136
518,232;  -14,697;   -1,300;   -1,409
518,817;   93,560;    1,337;    1,682
519,401;  226,020;    0,700;    0,591
519,985;  232,951;    2,700;    1,136
520,570;  145,504;   -0,118;   -1,955
521,154;  307,047;    0,064;    0,591
521,738;  572,563;    1,064;    2,409
522,323;  466,268;   -0,390;    1,682
522,907;  551,504;    2,428;   -0,136
523,491;  562,712;    1,155;    0,955
524,075;  639,423;    0,428;    0,591
524,659; 1024,763;    0,973;    0,591
525,243; 1059,831;    0,883;    0,409
525,827; 1197,399;    0,883;   -0,045
526,411; 1564,127;    1,155;   -0,136
526,995; 2035,363;    0,337;    1,409
527,579; 2273,866;    1,974;   -1,045
528,163; 2632,493;    0,428;   -1,500
528,747; 3146,541;    1,065;   -0,773
529,331; 3591,439;    0,883;   -1,409
529,915; 3961,453;    2,338;    0,955
530,499; 4491,783;    0,247;    1,227
531,082; 4819,667;    1,065;    1,591
531,666; 5035,843;    0,520;    0,773
532,250; 5881,525;    0,428;    2,682
532,833; 6567,949;    0,610;    2,773
533,417; 6997,817;    1,247;    0,864
534,001; 7341,925;    0,429;   -0,318
534,584; 8402,595;    1,974;    0,500
535,168; 8740,578;    3,247;    1,409
535,751; 9237,158;    4,520;    0,045
536,334; 9158,236;    4,520;   -0,409
536,918;10150,244;    1,974;    1,591
537,501;10597,456;    1,520;    1,318
538,085;10973,063;    1,702;    1,045
538,668;11415,047;    0,883;    2,409
539,251;12109,031;    3,156;    3,773
539,834;12470,633;    0,156;    0,773
540,418;12715,182;    3,247;    4,318
541,001;13107,261;    2,702;    1,773
541,584;13359,728;    1,429;    2,227
542,167;13314,432;    0,702;    2,955
542,750;13658,816;    0,793;   -0,773
543,333;13486,525;    1,429;    2,136
543,916;14463,548;   -0,298;    2,500
544,499;15254,420;    2,520;    0,227
545,082;15416,777;    0,248;    3,591
545,665;15741,831;   -0,207;    1,500
546,248;16216,797;    0,520;   -0,318
546,830;16078,721;   -1,752;    1,955
547,413;16613,887;    0,157;   -0,773
547,996;17278,876;    0,157;    0,500
548,579;17223,355;   -0,843;    0,955
549,161;17089,257;    0,884;    2,682
549,744;17011,008;    0,612;    0,409
550,326;17629,298;    0,885;   -1,136
550,909;17465,659;    2,339;    0,591
551,492;17980,337;    0,521;    0,227
552,074;17842,217;   -0,024;   -1,318
552,657;18494,192;    2,430;    0,045
553,239;18305,963;   -3,024;   -0,773
553,821;18269,607;   -1,570;    1,045
554,404;17863,423;   -0,024;    1,136
554,986;18325,345;    2,248;    1,045
555,568;18991,116;    0,430;   -0,955
556,151;18184,555;    4,067;   -0,227
556,733;18471,029;   -1,388;   -0,864
557,315;19003,671;    4,703;    0,500
557,897;18858,058;    0,521;   -0,500
558,479;19054,018;    1,703;    1,318
559,061;19192,369;    1,067;   -0,864
559,643;19548,305;   -0,297;    0,045
560,225;19980,291;   -0,388;    2,864
560,807;20074,578;    0,340;    0,318
561,389;19590,688;   -1,206;    2,318
561,971;20304,655;   -0,660;    2,136
562,553;20141,502;    0,613;    1,591
563,135;20302,328;    1,249;    1,136
563,717;19934,558;    3,158;    1,136
564,298;20674,224;    3,976;   -0,045
564,880;20419,292;    0,340;   -1,409
565,462;20610,383;    1,977;    1,318
566,043;21854,493;   -0,933;    2,318
566,625;21389,484;    4,067;    1,227
567,207;21240,732;    0,704;    1,682
567,788;22418,411;   -0,114;    1,500
568,370;23321,141;   -1,841;   -0,500
568,951;23100,803;   -0,569;    0,227
569,533;24071,354;    0,977;   -0,500
570,114;24587,332;   -0,296;    0,682
570,695;25062,125;   -0,478;   -1,318
571,277;25623,957;   -0,205;   -1,682
571,858;26356,267;    2,704;   -1,136
572,439;27319,666;    0,795;   -1,045
573,021;27538,706;    0,432;   -2,773
573,602;28040,775;    1,795;    0,318
574,183;29017,491;   -0,114;    2,227
574,764;29211,886;    2,068;    0,409
575,345;29815,254;    0,250;   -0,136
575,926;30405,673;    2,704;    0,136
576,507;30469,584;    2,704;   -0,227
577,088;31557,460;    1,704;    1,682
577,669;31642,501;    1,704;    1,955
578,250;32418,673;   -0,750;   -1,045
578,831;32999,662;   -0,841;   -2,227
579,412;33377,122;   -1,205;    0,955
579,993;34403,751;    1,432;    0,227
580,573;34745,156;   -0,023;   -0,955
581,154;33665,179;    1,613;   -0,591
581,735;34579,732;    0,341;    0,773
582,315;34051,096;    0,523;    2,136
582,896;34464,704;   -1,750;    1,227
583,477;33890,822;    0,614;    1,227
584,057;34112,627;    1,159;    0,955
584,638;34405,933;   -2,750;    2,318
585,218;34406,337;    2,886;    2,682
585,799;34596,573;    1,977;   -0,227
586,379;34609,733;    1,250;    1,591
586,959;33369,103;    2,613;    0,318
587,540;32675,628;    0,432;    2,227
588,120;32208,359;   -1,113;   -0,045
588,700;31108,647;    2,977;    2,136
589,281;31511,999;    1,250;   -0,955
589,861;31459,812;   -0,296;   -1,682
590,441;31233,198;   -1,477;   -2,682
591,021;30185,469;    1,432;   -2,591
591,601;30425,523;    0,431;    0,500
592,181;30378,885;   -1,296;   -0,773
592,761;29650,889;    2,250;    1,409
593,341;29600,879;    1,522;    0,045
593,921;29588,427;   -0,569;    1,591
594,501;29496,863;    1,250;    1,318
595,081;29350,261;    0,522;   -0,318
595,661;29694,050;    1,068;    0,955
596,240;30237,284;   -1,023;    0,136
596,820;29823,606;    2,613;    1,955
597,400;30047,785;    1,977;    0,773
597,980;30263,156;   -0,750;    1,045
598,559;30291,213;    0,341;   -0,227
599,139;30056,447;   -0,750;   -1,227
599,718;29935,538;    0,795;   -0,409
600,298;30250,156;   -2,387;    0,682
600,877;30489,273;    4,795;    1,409
601,457;30757,323;    0,340;    1,136
602,036;30649,060;    1,795;    2,045
602,616;30896,057;    2,250;    1,682
603,195;31201,496;    0,431;    3,500
603,774;30723,333;   -0,296;    2,045
604,354;30619,499;    2,522;   -0,500
604,933;30079,952;    0,250;    1,864
605,512;30235,583;    2,340;    0,591
606,091;30298,038;    1,886;    3,773
606,671;31099,389;    0,249;    0,773
607,250;30157,680;    1,431;    3,136
607,829;30477,116;    1,158;    3,227
608,408;30307,897;    4,613;    2,591
608,987;29341,991;    2,704;    3,409
609,566;29676,605;    0,341;   -2,500
610,145;29731,538;    2,885;    0,682
610,723;30186,515;    1,613;    6,864
611,302;29406,276;    1,067;    1,682
611,881;28888,528;    5,158;   11,227
612,460;29758,884;    0,795;    3,955
613,039;30182,016;    1,703;    2,045
613,617;28882,820;    0,886;    4,773
614,196;29049,372;    1,613;    1,227
614,775;29399,875;    1,249;    2,409
615,353;29376,837;   -1,660;    0,864
615,932;29044,648;    0,249;    2,409
616,510;29708,866;    0,158;    0,591
617,089;29191,731;    8,794;   17,591
617,667;28894,384;    4,885;    6,136
618,246;28737,222;   -1,115;    1,318
618,824;28902,859;    1,612;   -0,955
619,402;28479,141;    0,431;   -1,773
619,981;29035,301;    1,067;   -1,045
620,559;28927,007;    0,794;    1,682
621,137;28440,572;    3,067;    1,864
621,715;28436,912;    3,703;   -0,682
622,293;28344,257;    1,885;   -0,773
622,871;28802,671;    0,340;    0,500
623,450;28311,017;    0,430;   -0,864
624,028;28247,759;   -0,388;   -0,955
624,606;27855,151;    2,339;    1,682
625,183;28250,360;   -0,661;   -1,136
625,761;27865,624;    1,885;    1,136
626,339;28195,798;    2,339;    2,591
626,917;28590,532;    0,339;   -0,045
627,495;28662,137;    2,794;    1,318
628,073;28099,948;    5,248;    2,864
628,650;27754,579;    3,067;    2,136
629,228;28187,560;    1,248;    4,409
629,806;27582,141;   -0,024;    1,136
630,383;27832,142;    0,066;   -0,318
630,961;27596,357;   -2,206;   -0,955
631,539;27350,001;   -2,479;    0,227
632,116;26565,629;   12,703;   15,409
632,694;27213,523;    4,885;    6,500
633,271;27511,824;    1,975;    2,682
633,848;27439,127;    1,430;    2,045
634,426;27490,067;    1,521;    1,773
635,003;26629,448;   -0,207;   -0,409
635,580;26958,504;    1,884;    3,682
636,158;27510,351;    3,793;    1,227
636,735;27477,220;    3,339;   -0,500
637,312;27620,956;    0,521;   -0,682
637,889;27789,808;    2,248;   -0,682
638,466;27237,088;    0,066;   -0,409
639,043;27215,687;    1,702;   -1,136
639,620;27496,373;    0,611;   -0,955
640,197;27894,271;    1,612;    1,682
640,774;28028,519;    1,430;    1,136
641,351;28435,586;    0,612;    1,136
641,928;27799,472;    2,794;    1,409
642,505;27380,993;    0,794;   -0,500
643,082;27542,151;    1,885;    1,227
643,658;26554,036;    1,157;    1,500
644,235;27348,194;   -2,479;    2,500
644,812;27617,079;    1,794;    0,773
645,388;27346,782;    1,612;    1,409
645,965;27468,122;    1,521;    1,682
646,542;27505,825;    3,430;   -0,227
647,118;27507,892;    3,703;   -0,955
647,695;27810,505;    0,339;    1,136
648,271;27710,572;   -2,115;    0,500
648,848;28073,366;    0,248;    2,227
649,424;27886,433;    0,976;    1,318
650,000;27633,954;   -0,388;   -1,045
650,577;27488,749;    0,158;   -0,955
651,153;27924,634;   -1,115;    0,955
651,729;28898,337;    0,521;    0,864
652,305;29117,040;    1,339;    2,773
652,881;33683,380;   -1,297;    1,136
653,458;40778,902;    0,249;    0,227
654,034;44877,332;    0,703;    1,591
654,610;46446,490;    0,339;    0,773
655,186;47804,739;    1,612;    3,045
655,762;47542,897;   -1,842;    0,409
656,338;47548,782;    0,703;    0,136
656,913;48665,576;   -0,297;    0,409
657,489;47983,097;    0,249;   -0,318
658,065;47890,528;    0,794;   -1,591
658,641;48471,777;    2,158;   -0,864
659,217;47895,026;    2,067;    0,409
659,792;47337,183;   -1,751;   -0,409
660,368;47620,978;   -0,388;   -0,682
660,944;47338,136;    1,794;    1,227
661,519;42622,021;    0,522;    0,409
662,095;36162,997;   -0,206;    0,591
662,670;31221,427;   -0,206;   -0,136
663,246;29975,403;   -0,660;   -0,409
663,821;29242,834;    0,431;    1,682
664,396;28704,901;    0,613;    1,864
664,972;28985,968;   -0,660;   -0,500
665,547;29291,126;    3,794;    0,136
666,122;29284,284;    1,340;    0,318
666,698;29644,260;    2,431;    0,318
667,273;28943,145;    0,885;    0,136
667,848;29838,212;    0,340;    1,500
668,423;29607,097;    1,795;    2,318
668,998;30217,073;    0,976;   -0,682
669,573;30748,231;    2,067;   -1,500
670,148;30502,843;    1,885;   -0,682
670,723;30412,819;   -0,024;    0,318
671,298;30876,886;   -1,296;    1,045
671,873;30965,680;   -0,296;   -0,136
672,448;30884,020;    1,704;    0,136
673,023;31239,542;    0,249;   -0,227
673,597;31580,518;    2,704;    2,318
674,172;31317,675;    2,431;    0,318
674,747;30797,379;   -0,205;   -1,045
675,321;30712,264;   -0,933;    3,318
675,896;30249,876;    2,158;    1,045
676,471;31272,852;    2,522;    1,591
677,045;31033,738;   -0,296;    0,682
677,620;31021,259;    2,158;    1,136
678,194;31345,962;    0,249;    1,136
678,769;30908,029;    0,886;   -0,318
679,343;31176,460;   -0,023;    1,773
679,917;30972,436;    0,340;    1,955
680,492;31087,776;    0,249;    3,227
681,066;31221,024;    0,613;    0,409
681,640;31213,909;    1,795;   -0,318
682,214;32077,249;    2,340;    0,500
682,788;31601,952;    0,613;   -0,773
683,363;31557,656;    1,977;    1,682
683,937;31204,814;    0,886;   -0,318
684,511;32037,517;   -1,023;   -0,591
685,085;31778,311;   -1,478;    0,318
685,659;31477,469;    1,431;    0,864
686,232;31699,718;    1,159;   -0,318
686,806;31431,603;    2,159;    0,409
687,380;32125,124;   -1,932;    0,591
687,954;32394,101;    2,432;    1,136
688,528;32010,622;    2,613;    1,955
689,101;32765,598;    0,432;    1,045
689,675;32353,938;    0,886;   -0,136
690,249;31701,187;    3,432;    0,409
690,822;32056,708;    1,159;    0,318
691,396;32121,139;    2,068;    1,227
691,969;31605,933;    2,523;    0,136
692,543;32048,909;   -0,568;   -1,955
693,116;31696,612;   -0,659;   -1,409
693,690;31541,134;   -0,296;    0,500
694,263;32127,655;    2,341;    2,955
694,836;32143,631;    2,795;    3,591
695,410;30727,607;    1,159;    1,773
695,983;31227,492;    1,614;    0,591
696,556;31168,378;   -0,750;   -1,045
697,129;31585,263;   -1,114;    1,409
697,703;31161,330;    1,341;    1,955
698,276;31189,578;    1,705;   -0,773
698,849;30938,100;   -1,023;    1,409
699,422;31336,167;    1,250;    0,591
699,995;31041,597;   -0,659;    0,136
700,568;31544,573;   -0,204;    3,045
701,140;31574,459;   -1,841;    1,682
701,713;31313,798;    0,341;    2,409
702,286;31081,593;    0,796;    0,864
702,859;30924,023;    0,614;   -0,591
703,432;30004,999;   -0,841;    0,682
704,004;30580,157;    1,978;    0,318
704,577;30471,678;    1,068;    0,136
705,150;31030,200;    0,887;    2,500
705,722;30791,267;    1,523;   -3,227
706,295;30568,788;    1,432;   -0,591
706,867;30375,764;    0,250;    1,955
707,440;30611,104;   -0,113;   -0,409
708,012;30836,353;   -0,022;    0,591
708,584;30693,329;    2,705;    0,227
709,157;31064,669;    1,160;   -0,591
709,729;30733,554;    1,069;    2,045
710,301;31594,257;   -1,204;    0,045
710,874;31618,142;    0,341;   -0,227
711,446;30470,391;   -0,295;    0,864
712,018;30370,094;   -3,022;    0,500
712,590;30070,979;   -0,204;    1,682
713,162;30631,046;   -0,477;    1,318
713,734;30846,477;    1,796;   -2,045
714,306;30705,089;    0,342;   -0,409
714,878;29366,247;   -0,295;    0,864
715,450;30255,769;   -0,113;    0,864
716,022;30510,654;    2,433;    1,318
716,593;30656,994;    0,978;    0,591
717,165;30605,788;    1,796;   -1,227
717,737;30321,582;    0,796;    0,409
718,309;29962,104;    1,160;   -0,045
718,880;29886,898;   -1,295;   -1,409
719,452;30120,147;    0,887;   -1,591
720,024;29692,577;    1,705;   -0,591
720,595;30209,008;    2,978;    0,955
721,167;29758,984;    1,160;   -2,045
721,738;29204,505;    2,069;   -1,045
722,309;29153,754;    1,251;   -1,227
722,881;28973,366;    2,705;    0,773
723,452;29667,342;    1,251;    2,864
724,023;29848,682;    1,524;    2,682
724,595;29599,476;    2,342;    0,682
725,166;29289,543;    1,524;   -0,409
725,737;28931,610;    1,887;    0,227
726,308;29008,586;    0,797;    0,318
726,879;29472,562;    1,069;    1,227
727,450;29357,266;   -2,022;   -0,045
728,021;29288,605;    1,069;    0,682
728,592;29086,490;    1,160;    0,500
729,163;29434,103;    1,433;   -0,136
729,734;29411,806;    2,160;   -0,227
730,305;29727,782;    0,615;    0,136
730,876;30110,395;    0,888;    2,955
731,447;29833,462;    0,797;    2,682
732,017;29908,256;   -0,840;    1,864
732,588;29409,323;   -0,021;    1,227
733,159;29574,572;    3,615;   -1,045
733,729;29416,639;    1,251;    0,409
734,300;28630,524;    0,160;    0,864
734,870;29062,409;   -1,385;    0,591
735,441;29670,385;    0,888;   -0,591
736,011;29417,179;    1,070;   -1,591
736,582;29353,610;    1,251;    0,045
737,152;28820,677;    0,979;   -2,045
737,722;29238,471;    1,070;   -0,682
738,293;29013,629;   -2,021;    1,318
738,863;28865,059;    1,797;    2,318
739,433;28649,763;    4,524;    0,318
740,003;29298,648;    1,524;   -0,682
740,573;28699,715;    2,252;   -1,591
741,143;28654,327;    3,615;    0,318
741,713;29441,303;    0,252;   -0,500
742,283;29104,188;    1,706;    1,591
742,853;28853,982;    0,524;    1,591
743,423;28305,049;    0,161;    0,045
743,993;28447,844;    1,070;    1,500
744,563;27782,456;    2,524;   -0,864
745,133;27744,705;   -0,112;   -0,864
745,702;28428,317;    2,797;    1,773
746,272;27601,657;    0,434;    0,591
746,842;27371,451;   -0,748;   -0,591
747,411;27804,973;   -0,839;   -0,318
747,981;27983,494;   -0,930;    0,500
748,551;28078,016;   -0,021;   -1,045
749,120;27962,264;   -0,112;   -0,227
749,690;28357,240;    2,161;    2,409
750,259;28662,762;    0,979;    2,955
750,828;28519,465;    4,070;   -1,955
751,398;28782,441;   -0,112;   -0,045
751,967;28199,236;    2,888;    0,409
752,536;28438,393;    1,161;   -0,227
753,105;28884,006;   -1,384;    0,227
753,675;28673,436;   -0,112;    1,773
754,244;28614,322;    0,888;    3,591
754,813;28674,661;    0,979;    1,227
755,382;28293,637;    0,798;    0,955
755,951;28770,613;   -0,112;    3,682
756,520;28351,317;    2,525;    1,864
757,089;28947,747;    1,888;    0,500
757,658;29038,541;    2,434;    1,227
758,227;29015,517;   -1,111;    0,318
758,795;29380,584;   -1,021;    1,136
759,364;29684,106;    0,525;   -0,591
759,933;28614,264;    1,343;   -0,045
760,501;28140,240;    0,252;   -1,318
761,070;28639,398;   -0,293;   -1,409
761,639;29337,828;    1,434;    1,318
762,207;28610,259;    0,889;   -0,955
762,776;28574,871;    2,889;    0,864
763,344;28530,666;    0,071;    0,591
763,913;27674,278;    1,616;    1,409
764,481;28466,436;    1,980;   -0,136
765,049;28221,775;    0,616;    1,409
765,618;28025,297;    1,434;    0,318
766,186;28152,091;    2,434;    0,136
766,754;28309,522;    1,798;    1,864
767,322;27256,589;    1,162;    0,409
767,890;27309,292;    0,525;   -1,773
768,459;27675,541;    2,616;   -0,318
769,027;27865,880;    2,525;    3,409
769,595;26826,857;    2,616;    2,591
770,163;27286,196;    3,344;    2,955
770,730;27013,354;    2,525;   -0,136
771,298;26864,421;    1,162;   -1,409
771,866;26972,397;    0,253;    4,955
772,434;27223,737;    1,162;   -1,864
773,002;27421,713;    2,616;    0,682
773,569;27056,234;    1,071;    1,682
774,137;26812,483;    0,889;   -0,045
774,705;27668,277;   -0,747;   -0,136
775,272;27100,072;    0,253;    0,682
775,840;26943,229;   -0,111;    2,682
776,407;26420,569;   -0,293;    1,955
776,975;25976,181;    1,162;    0,318
777,542;27034,612;    2,162;   -0,045
778,110;26909,588;    0,707;   -0,045
778,677;26552,201;    1,071;   -0,864
779,244;26251,995;   -1,020;    1,045
779,812;26363,425;    0,980;    0,864
780,379;26214,856;    2,435;    1,136
780,946;26454,832;    2,617;   -0,773
781,513;26774,444;   -0,565;    0,318
782,080;26053,057;    1,253;    2,864
782,647;26858,578;    1,708;    3,045
783,214;26443,827;   -0,201;    3,864
783,781;26051,167;    1,708;   -0,682
784,348;25897,143;    0,253;    1,500
784,915;26408,301;   -1,474;    0,318
785,482;26134,458;    2,708;    2,591
786,049;26596,253;    1,071;   -0,591
786,615;26667,683;    1,708;   -0,955
787,182;26502,387;   -3,201;   -0,682
787,749;26131,908;   -2,201;    1,409
788,315;25461,611;    0,253;   -0,409
788,882;25778,951;    0,981;   -1,227
789,448;26464,654;    1,435;   -0,955
790,015;26436,812;    1,799;    3,227
790,581;25992,061;    0,708;    0,227
791,148;25896,764;    1,344;    1,045
791,714;26086,468;   -1,019;    3,136
792,280;25743,989;    3,708;    1,591
792,847;25314,965;   -0,928;    2,500
793,413;25913,032;   -0,110;   -0,318
793,979;25432,917;    1,526;   -1,318
794,545;25479,075;    2,981;    2,682
795,111;24860,051;    2,435;    1,318
795,678;25070,936;    3,526;   -1,682
796,244;24740,821;    2,799;    0,136
796,810;25288,798;    0,799;    0,773
797,375;24943,501;   -0,292;   -2,136
797,941;25022,204;   -1,110;    0,591
798,507;25149,453;    0,254;   -0,955
799,073;24714,338;    2,708;    0,591
799,639;24777,314;    1,435;    3,136
800,205;24808,927;   -1,565;    2,682
800,770;24298,993;    1,345;    1,773
801,336;24360,970;    2,981;   -0,955
801,901;23989,582;    6,072;    3,136
802,467;24624,740;    0,526;    2,045
803,033;23920,534;   -0,019;    0,864
803,598;24081,692;    1,072;   -1,045
804,163;24164,122;    0,708;   -0,318
804,729;24089,644;   -0,110;    1,136
805,294;24522,438;    1,072;    2,227
805,859;24330,687;    0,890;   -0,409
806,425;23818,572;    3,890;    2,682
806,990;23483,912;    1,890;    4,318
807,555;24017,433;   -0,110;    2,591
808,120;23877,137;   -1,292;   -0,409
808,685;23912,204;    1,072;   -2,500
809,250;23391,725;    2,072;   -0,500
809,815;23768,428;   -0,201;    0,682
810,380;24284,677;    0,981;    1,591
810,945;24785,926;    2,890;    2,045
811,510;23959,811;   -0,200;    1,591
812,075;23622,878;    2,800;   -1,409
812,640;23675,218;    3,709;    1,409
813,204;23741,285;    2,163;   -0,227
813,769;24225,079;    0,254;   -0,045
814,334;23613,873;    0,527;    0,864
814,898;23686,667;    1,981;    0,591
815,463;23539,643;    0,981;   -0,773
816,027;23513,619;    1,345;   -2,318
816,592;23579,686;    2,163;   -2,045
817,156;23071,208;   -2,200;    1,136
817,721;22840,911;    0,982;    2,318
818,285;22815,978;    0,618;    1,500
818,849;23505,772;   -0,018;    1,682
819,414;23428,476;    0,073;    2,955
819,978;23000,088;   -0,291;    1,773
820,542;23602,973;    2,891;    0,500
821,106;23323,040;    2,800;    0,682
821,670;23332,198;    2,709;    2,591
822,234;23050,538;    1,073;    1,409
822,798;22467,423;   -0,836;    0,500
823,362;22442,944;    1,527;    4,227
823,926;21717,557;   -0,018;    1,136
824,490;21915,078;    3,527;   -0,682
825,054;22386,054;    2,527;   -1,136
825,618;22002,667;   -1,200;   -1,500
826,181;21954,370;    0,982;   -1,318
826,745;21829,619;   -0,745;   -1,045
827,309;22182,868;    2,255;    1,318
827,872;21553,207;    0,527;    0,955
828,436;22579,638;    1,982;   -0,773
828,999;22641,523;    2,436;    1,227
829,563;21450,681;   -0,654;    1,136
830,126;21269,839;   -0,018;   -0,591
830,690;21248,087;    0,709;    2,864
831,253;20743,791;   -0,473;    2,227
831,816;20904,858;   -0,018;    0,500
832,380;20776,379;    1,164;    0,864
832,943;21011,992;    3,073;   -0,500
833,506;20507,422;    0,255;   -1,227
834,069;21363,853;    2,164;   -0,955
834,632;21412,647;   -2,200;    1,318
835,195;21281,714;    1,346;    0,955
835,758;20444,054;    0,709;    1,955
836,321;20294,302;    1,073;   -1,045
836,884;20396,460;   -1,291;   -0,955
837,447;20422,618;    0,528;    1,773
838,010;20673,685;    1,800;    3,227
838,573;21011,843;    0,528;    0,773
839,135;20966,001;   -0,109;   -0,955
839,698;20362,250;    2,528;    0,409
840,261;19921,680;    0,255;   -0,227
840,823;19759,747;   -0,927;    0,864
841,386;20006,450;   -0,018;   -2,409
841,948;19847,517;    0,255;    1,773
842,511;19627,948;    0,255;    1,682
843,073;19747,469;    2,982;    0,227
843,636;19570,809;    0,619;   -0,227
844,198;19483,331;    1,255;    0,591
844,760;19599,488;    0,619;    1,955
845,322;19226,101;    0,164;    1,136
845,885;19680,895;   -0,290;    0,591
846,447;20155,598;    0,710;    0,227
847,009;19649,393;    3,983;   -0,682
847,571;20015,460;    1,346;   -2,045
848,133;20103,981;   -0,199;   -1,864
848,695;19918,866;    2,346;    1,409
849,257;19508,933;    1,346;   -1,682
849,819;19673,091;    2,983;   -0,409
850,381;19703,522;    1,801;   -0,864
850,942;20084,589;    1,892;   -0,591
851,504;19938,383;    0,983;    0,227
852,066;19979,450;    1,619;   -1,591
852,628;19558,244;    0,165;    1,955
853,189;19102,947;    0,256;    2,682
853,751;19210,196;   -0,654;    1,409
854,312;19018,718;    1,256;   -1,682
854,874;19577,057;   -0,108;   -0,773
855,435;20061,306;    0,528;   -1,682
855,997;20208,009;    3,983;   -0,136
856,558;19458,076;    0,801;    1,773
857,119;19632,871;   -0,744;    2,864
857,681;19246,937;   -0,108;    0,318
858,242;19258,277;    1,347;   -2,136
858,803;19726,980;    1,074;   -0,773
859,364;20304,866;    0,892;   -4,773
859,925;19664,751;   -0,290;   -0,955
860,486;19585,090;    0,529;   -0,955
861,047;19265,976;    0,165;   -1,227
861,608;19048,497;    0,165;   -0,773
862,169;19239,837;   -0,562;   -0,045
862,730;18981,358;   -0,290;    1,409
863,291;19220,334;    0,438;   -0,500
863,852;19506,219;   -0,926;    1,955
864,412;19014,832;   -1,835;   -0,864
864,973;17542,990;    1,892;    0,500
865,534;17399,057;    2,074;    0,227
866,094;18940,760;    2,620;    0,227
866,655;18567,827;    4,711;    3,318
867,215;18868,530;    0,074;    0,136
867,776;18717,779;   -1,199;   -0,136
868,336;18864,755;    1,529;    0,136
868,897;18305,367;    3,438;    1,682
869,457;17993,707;    3,256;    0,318
870,017;18252,138;    2,438;   -1,227
870,578;18811,386;    1,893;    0,773
871,138;18447,908;    2,620;   -0,955
871,698;17930,611;   -0,562;   -1,318
872,258;17806,224;    0,711;   -2,864
872,818;18201,018;    2,347;    0,045
873,378;18156,903;   -2,198;    1,045
873,938;17717,425;    4,984;    0,500
874,498;18057,128;    1,256;   -1,955
875,058;17930,286;    4,347;    1,773
875,618;17760,535;    1,438;   -2,682
876,177;17746,874;   -0,471;    0,136
876,737;17318,668;   -0,289;    1,955
877,297;17277,463;    2,711;    1,955
877,856;17296,802;    2,529;    0,318
878,416;17212,687;    2,438;   -0,136
878,976;17427,391;    3,438;    0,409
879,535;17632,730;    4,529;    3,136
880,095;17374,434;    1,347;    0,045
880,654;17461,955;    0,347;    1,318
881,213;17575,931;    2,347;    1,500
881,773;17215,907;    1,984;    2,682
882,332;17553,883;    6,075;    5,136
882,891;17461,314;    0,711;    2,136
883,451;17889,926;   -2,016;    1,682
884,010;17350,812;   -1,107;   -0,409
884,569;17413,878;   -2,289;   -0,045
885,128;17552,673;   -0,743;   -1,864
885,687;17631,649;   -0,743;    0,682
886,246;17350,079;    2,620;    2,136
886,805;17045,419;    1,620;    2,045
887,364;17421,577;    1,166;   -0,500
887,922;17787,553;   -0,016;    0,045
888,481;17247,165;    1,530;    0,591
889,040;17574,596;    3,711;    2,136
889,599;18309,208;    2,166;    1,409
890,157;18366,003;    2,166;    2,409
890,716;17960,070;    2,166;    0,227
891,274;17785,046;    0,075;   -1,136
891,833;18174,840;    1,166;    0,864
892,391;18051,089;    1,802;    0,500
892,950;18163,428;    0,166;   -0,773
893,508;18496,677;    0,984;   -0,409
894,067;17882,835;   -0,379;    0,136
894,625;17834,811;   -1,016;   -1,500
895,183;18063,151;   -0,198;   -0,682
895,741;17921,854;    2,257;   -1,773
896,299;17743,375;    1,621;   -2,409
896,858;17940,533;    1,530;   -1,591
897,416;18008,237;    0,166;   -1,318
897,974;17789,758;   -2,197;    0,318
898,532;17916,643;    6,530;    2,682
899,089;17821,165;    0,621;   -0,682
899,647;17901,141;    0,530;    1,318
900,205;17616,935;    0,257;    1,045
900,763;17805,638;    2,166;    0,227
901,321;17804,887;    3,530;   -1,409
901,878;17217,318;    3,257;   -0,773
902,436;17096,385;    0,257;    1,318
902,994;17483,361;    6,712;    3,682
903,551;16941,428;    1,439;    0,409
904,109;17331,313;    1,530;   -1,409
904,666;16890,562;    1,439;    1,045
905,224;16693,356;    3,894;   -0,409
905,781;16437,695;   -0,470;   -0,318
906,338;16528,671;    0,167;    1,045
906,895;16429,375;    1,894;    2,045
907,453;16328,442;    2,348;    1,136
908,010;16325,509;    3,348;    0,409
908,567;15966,303;   -0,561;    0,591
909,124;15502,733;    2,439;   -1,500
909,681;15551,800;   -1,288;    0,682
910,238;15697,686;   -0,106;   -1,318
910,795;16055,025;   -1,561;   -1,136
911,352;15698,934;   -0,379;   -2,682
911,909;15067,662;    2,803;   -0,864
912,466;15556,753;    1,985;    1,500
913,022;15112,298;   -0,924;    0,500
913,579;15472,934;   -0,470;    2,045
914,136;15195,753;   -2,561;    0,955
914,692;15550,662;    1,530;   -1,227
915,249;15088,571;    0,530;    0,409
915,806;15313,480;    1,803;    1,955
916,362;15015,480;    0,894;    1,864
916,918;14531,571;    2,439;    1,045
917,475;14569,934;    1,621;    0,955
918,031;14661,662;    0,076;   -0,045
918,587;14127,843;    0,621;   -0,318
919,144;14321,298;   -0,379;    0,227
919,700;14651,480;    0,167;    0,773
920,256;14197,843;    0,439;    0,045
920,812;13809,116;    1,439;   -1,045
921,368;13810,025;    1,348;   -1,045
921,924;13478,207;    0,439;   -0,136
922,480;12989,480;    0,076;    1,227
923,036;13628,116;   -0,652;    1,955
923,592;13583,934;    0,621;    0,318
924,148;13469,389;    1,894;   -0,955
924,704;12801,116;    0,258;   -0,409
925,259;13090,662;   -0,561;    0,591
925,815;12801,571;    3,803;    0,500
926,371;12319,389;    3,530;    1,409
926,926;12175,662;    1,621;    0,591
927,482;11829,298;    1,621;    0,773
928,037;11713,025;   -0,833;    2,045
928,593;12005,934;    0,258;    1,045
929,148;11806,934;    1,167;   -1,500
929,704;11321,116;    2,439;   -0,500
930,259;11484,571;    0,894;   -0,136
930,814;10550,753;    1,803;    1,955
931,369;10268,207;    0,258;   -0,773
931,925;10143,116;   -1,924;    0,136
932,480; 9993,207;    3,076;   -2,591
933,035; 9891,753;    3,985;   -0,318
933,590; 9615,934;   -1,742;   -1,773
934,145; 9262,298;   -1,288;   -0,318
934,700; 9631,934;    0,348;   -0,591
935,255; 9427,389;    4,803;    0,045
935,809; 8692,662;    6,258;    0,864
936,364; 7795,571;    2,167;   -0,136
936,919; 7745,389;    2,348;   -1,773
937,474; 7643,843;    1,348;    0,136
938,028; 7411,389;    3,076;    1,136
938,583; 6814,753;    6,348;    4,682
939,138; 7140,389;    0,167;    2,136
939,692; 6595,207;   -1,015;   -1,136
940,247; 6222,571;    1,167;   -1,045
940,801; 5762,571;    0,621;    0,227
941,355; 5684,298;    0,439;    2,591
941,910; 5347,934;    0,712;   -2,136
942,464; 5439,025;    2,712;   -0,318
943,018; 5190,480;    3,258;   -0,227
943,572; 5132,662;    2,803;   -0,682
944,126; 4523,662;   -0,924;   -0,409
944,681; 4398,843;    0,712;    0,227
945,235; 4394,025;    2,167;   -0,591
945,789; 4347,298;    1,258;   -1,864
946,342; 4422,662;   -0,561;   -0,591
946,896; 4254,207;    0,348;    0,955
947,450; 4014,662;   -0,561;   -0,227
948,004; 4164,025;    1,076;   -0,045
948,558; 4205,843;    1,258;   -0,864
949,111; 4105,843;   -1,197;   -0,318
949,665; 4125,389;   -0,106;   -0,682
950,219; 3993,207;    0,621;   -1,045
950,772; 4083,662;    0,258;    1,864
951,326; 4003,571;   -1,106;   -0,955
951,879; 4112,025;    1,076;   -2,318
952,433; 4130,480;    1,348;    2,227
952,986; 3959,571;    0,348;    0,682
953,539; 3870,207;    1,530;    0,591
954,093; 3818,571;    0,985;   -1,318
954,646; 3962,025;   -0,288;    1,318
955,199; 3780,389;    1,258;   -0,500
955,752; 3644,934;    1,985;    1,773
956,305; 3599,571;    0,894;    2,955
956,858; 3783,025;    0,621;   -0,318
957,411; 3971,207;    3,621;    2,136
957,964; 3767,207;    2,076;    2,136
958,517; 3774,480;    0,985;    3,136
959,070; 3617,298;   -1,197;    1,955
959,623; 3673,571;    1,076;    1,500
960,176; 3438,025;    0,712;    2,045
960,728; 3403,753;    1,712;    0,773
961,281; 3474,934;    2,258;    0,500
961,834; 3506,207;   -0,833;    0,864
962,386; 3437,207;    1,258;    1,045
962,939; 3356,389;    3,439;   -0,318
963,491; 3518,934;    2,621;    1,136
964,043; 3379,753;    0,076;    2,409
964,596; 3490,025;    1,712;    2,227
965,148; 3331,571;   -0,379;    1,773
965,700; 3248,662;   -0,015;   -0,227
966,253; 3416,298;   -0,833;    0,318
966,805; 3220,389;    1,894;    0,773
967,357; 3300,753;    0,439;   -1,500
967,909; 3221,116;    1,167;   -1,227
968,461; 3362,298;    0,894;    3,136
969,013; 3280,662;   -1,561;   -0,864
969,565; 3332,116;    1,803;   -1,136
970,117; 3405,753;    3,803;    1,045
970,669; 3253,298;    3,258;   -0,136
971,220; 3128,753;    2,167;   -1,500
971,772; 3040,753;    1,348;   -0,318
972,324; 3166,753;   -1,197;   -0,500
972,876; 3101,753;    0,167;   -0,045
973,427; 3230,116;   -1,197;   -1,045
973,979; 3213,753;    0,076;   -2,500
974,530; 3237,207;    0,803;    1,318
975,082; 3258,116;    2,167;    1,682
975,633; 3142,662;    2,894;    1,682
976,184; 3296,571;    2,076;    0,773
976,736; 3080,389;    0,348;    0,227
977,287; 2858,298;    0,258;   -0,500
977,838; 3049,207;   -0,924;   -0,318
978,389; 3107,389;    0,803;   -0,500
978,940; 2994,934;    1,258;   -0,409
979,491; 3018,753;    2,258;   -0,500
980,042; 2957,116;   -0,652;    3,045
980,593; 3028,025;    1,894;    0,227
981,144; 3078,571;    3,530;   -0,500
981,695; 3033,207;   -0,470;    1,500
982,246; 3000,934;   -1,833;    1,045
982,797; 3162,207;   -0,561;    0,682
983,347; 3287,934;    2,167;    0,591
983,898; 3434,207;    4,167;    0,409
984,449; 3245,389;    2,530;    0,773
984,999; 3165,207;    1,894;   -1,136
985,550; 2928,934;    3,167;   -0,318
986,100; 2983,753;    0,712;   -0,318
986,651; 3024,934;    0,258;    0,045
987,201; 2995,571;    0,894;   -0,591
987,751; 3088,389;   -0,288;    2,864
988,302; 3067,843;   -0,379;    1,500
988,852; 3102,480;    1,985;   -1,136
989,402; 3124,571;    0,985;    0,682
989,952; 3037,662;    1,621;    0,864
990,502; 3144,843;    1,076;    0,682
991,052; 3113,116;   -0,106;    0,045
991,602; 2964,480;    1,167;    1,318
992,152; 2955,116;    2,803;    0,682
992,702; 2948,389;    1,167;   -0,045
993,252; 2861,389;    0,076;   -0,500
993,802; 2940,116;    1,167;    1,318
994,352; 3209,207;   -0,742;    1,136
994,901; 3301,116;    1,076;    3,227
995,451; 3197,662;   -1,197;    0,318
996,000; 3308,389;    1,076;    0,318
996,550; 3008,843;    2,894;    0,227
997,100; 3012,298;   -0,561;   -0,045
997,649; 3295,207;   -0,197;    0,955
998,198; 2913,025;   -0,288;   -1,500
998,748; 3101,207;    0,348;   -2,318
999,297; 3015,571;    0,985;   -0,409
999,846; 3087,662;    1,894;   -0,773
1000,395; 3130,662;    1,530;    0,500
1000,945; 3069,389;    1,076;   -0,773
1001,494; 3154,025;    0,167;    0,682
1002,043; 3138,116;    0,712;    0,864
1002,592; 2977,298;    3,439;    1,955
1003,141; 3134,025;    2,439;   -0,682
1003,690; 2962,025;    1,258;    0,500
1004,238; 3042,843;   -0,106;   -0,045
1004,787; 2667,207;   -1,288;    1,227
1005,336; 2921,116;    1,621;    0,682
1005,885; 3075,480;   -0,197;   -2,773
1006,433; 3220,116;   -0,470;    0,955
1006,982; 3266,753;    2,167;    1,682
1007,531; 3189,298;    2,712;   -0,227
1008,079; 3161,571;    0,258;    0,500
1008,627; 3314,571;    1,621;    0,409
1009,176; 3042,571;    0,076;   -1,955
1009,724; 3085,480;   -2,742;    0,864
1010,273; 3120,116;    1,076;    0,500
1010,821; 3236,753;    1,076;    1,409
1011,369; 2961,843;    0,076;    1,318
1011,917; 2969,934;   -0,833;   -0,591
1012,465; 3254,753;    2,530;   -1,591
1013,013; 3363,298;    0,439;   -1,682
1013,561; 3227,753;   -1,288;   -0,773
1014,109; 3273,025;   -0,833;    1,682
1014,657; 3132,662;    1,348;    0,591
1015,205; 3291,934;    0,894;   -0,955
1015,753; 3326,389;    0,258;   -1,409
1016,301; 3366,389;    2,621;    3,045
1016,848; 3371,389;    2,167;    0,409
1017,396; 3399,753;    1,621;    0,045
1017,944; 3518,207;    2,621;    1,864
1018,491; 3294,571;   -0,197;    1,409
1019,039; 3421,571;   -0,652;    0,591
1019,586; 3336,843;    0,076;    1,682
1020,134; 3472,207;    0,712;    1,500
1020,681; 3468,662;    2,894;   -1,136
1021,228; 3484,934;   -0,561;   -2,227
1021,776; 3316,843;   -0,833;   -1,136
1022,323; 3497,934;    0,803;    0,773
1022,870; 3450,025;   -0,470;   -0,045
1023,417; 3334,934;    2,076;    1,864
1023,964; 3519,116;    0,621;    1,227
1024,511; 3345,389;   -0,652;    0,773
1025,058; 3125,207;    0,439;   -0,045
1025,605; 3178,025;   -1,742;    3,136
1026,152; 3373,025;   -0,106;   -0,591
1026,699; 3109,298;    0,167;    1,318
1027,245; 3296,662;    2,439;    0,318
1027,792; 3533,025;    0,712;    1,409
1028,339; 3374,207;    4,076;   -0,045
1028,885; 3244,934;    3,621;   -0,227
1029,432; 3183,753;   -0,106;    0,227
1029,978; 3222,025;    1,348;   -1,591
1030,525; 3102,298;    1,621;    0,409
1031,071; 3385,389;    0,348;    1,136
1031,618; 3485,480;    1,258;    1,682
1032,164; 3279,662;    2,076;    3,045
1032,710; 3318,662;    0,076;   -1,500
1033,256; 3220,843;    0,712;   -0,136
1033,803; 3240,571;   -0,288;    1,500
1034,349; 2979,934;    1,803;    0,136
1034,895; 3135,934;    2,621;   -0,318
1035,441; 3079,207;    0,439;    0,318
1035,987; 3089,389;   -2,288;   -0,682
1036,533; 3095,571;   -0,197;   -0,955
1037,078; 3294,480;    4,712;    1,682
1037,624; 3108,480;    2,439;   -0,955
1038,170; 3154,662;    1,712;   -0,318
1038,716; 3029,207;    2,167;   -0,409
1039,261; 2946,025;    2,167;   -0,773
1039,807; 2886,480;   -0,015;    3,409
1040,352; 2945,934;   -1,288;   -0,318
1040,898; 3003,753;    0,167;   -0,682
1041,443; 2924,025;    0,803;   -2,591
1041,989; 2923,843;    3,621;    1,591
1042,534; 2809,298;    0,985;    2,591
1043,079; 2935,116;    1,985;    0,955
1043,625; 2701,843;    0,258;    0,500
1044,170; 2732,934;    2,439;    1,045
1044,715; 2990,571;    0,167;    0,955
1045,260; 2800,389;   -0,833;   -0,955
1045,805; 2884,662;    0,258;   -0,591
1046,350; 2835,843;    0,530;   -0,409
1046,895; 2781,843;    0,803;    1,591
1047,440; 2704,843;    1,530;    0,409
1047,985; 2617,298;   -1,197;   -0,955
1048,530; 2534,025;    1,348;    1,227
1049,074; 2600,116;    2,803;    0,318
1049,619; 2568,480;   -0,924;    1,955
1050,164; 2359,753;    1,076;    0,227
1050,708; 2423,298;    2,621;    0,045
1051,253; 2770,753;    3,258;   -2,227
1051,797; 2498,116;   -0,197;   -1,318
1052,342; 2515,207;    1,348;    1,045
1052,886; 2501,934;    1,803;   -1,409
1053,430; 2395,480;    2,167;    0,136
1053,975; 2408,025;    0,894;   -0,318
1054,519; 2373,116;    1,803;    3,227
1055,063; 2378,571;    3,621;    1,318
1055,607; 2268,298;    1,348;    0,227
1056,151; 2293,571;    0,530;    1,682
1056,695; 2223,843;   -1,833;   -1,136
1057,239; 2274,207;   -1,197;   -0,682
1057,783; 2289,116;    2,258;   -1,500
1058,327; 2229,662;    3,076;    1,409
1058,871; 2447,843;    3,985;    1,318
1059,415; 2156,116;   -0,561;   -0,045
1059,958; 2401,207;    2,985;    2,591
1060,502; 2129,480;    1,348;   -0,773
1061,046; 2038,753;    1,712;   -0,955
1061,589; 2016,480;    2,803;   -1,136
1062,133; 1916,116;    0,985;    1,864
1062,676; 1842,934;    1,439;    0,864
1063,220; 1844,753;    0,985;    0,500
1063,763; 1852,116;    2,985;    1,136
1064,306; 1917,753;    0,985;    1,864
1064,849; 1824,843;    2,076;    0,591
1065,393; 1835,389;    2,894;   -1,500
1065,936; 1954,298;    2,530;   -0,409
1066,479; 1836,207;    2,621;    1,318
1067,022; 1864,389;    1,894;   -0,227
1067,565; 1753,571;   -1,197;   -1,318
1068,108; 1794,934;    1,258;   -0,591
1068,651; 1764,298;   -2,470;    1,409
1069,194; 1688,480;   -1,106;   -1,682
1069,736; 1674,571;    3,803;    0,955
1070,279; 1669,389;   -1,652;   -0,500
1070,822; 1708,843;    1,530;   -0,318
1071,364; 1758,662;    0,530;    1,318
1071,907; 1603,298;    0,348;    3,227
1072,450; 1546,025;    0,258;   -0,045
1072,992; 1534,025;   -0,561;    3,136
1073,535; 1638,207;    0,167;    2,136
1074,077; 1441,571;    2,985;    2,045
1074,619; 1406,662;    0,985;    0,591
1075,161; 1428,934;   -0,561;    1,500
1075,704; 1614,753;    0,258;    1,227
1076,246; 1419,025;    1,530;    0,682
1076,788; 1349,207;   -1,015;    1,773
1077,330; 1445,389;   -2,106;    2,136
1077,872; 1387,662;   -1,924;    0,955
1078,414; 1611,025;    3,712;    0,773
1078,956; 1341,843;    0,167;   -0,227
1079,498; 1585,389;    0,439;    0,318
1080,040; 1293,025;    0,985;   -1,318
1080,581; 1241,571;    0,621;   -0,318
1081,123; 1185,843;   -0,106;   -0,773
1081,665; 1231,298;    3,803;   -0,955
1082,206; 1499,571;    3,258;   -0,500
1082,748; 1367,025;    3,258;    2,045
1083,289; 1250,753;    0,167;    1,318
1083,831; 1165,116;    0,258;    0,227
1084,372; 1195,571;    0,894;    0,591
1084,913; 1188,389;    3,348;    0,864
1085,455; 1176,571;    1,530;   -2,045
1085,996; 1132,480;    0,530;    0,136
1086,537; 1159,480;    0,985;    0,864
1087,078; 1179,207;    0,439;   -2,136
1087,619; 1230,662;   -1,652;    0,227
1088,160; 1142,389;    1,439;    1,318
1088,701; 1131,753;   -0,742;    0,682
1089,242; 1066,662;   -0,561;   -2,227
1089,783; 1155,571;   -0,561;    1,409
1090,324; 1119,843;   -0,833;    0,682
1090,865; 1014,025;   -1,924;   -0,409
1091,405;  990,480;   -0,561;    2,227
1091,946; 1020,662;   -0,197;   -0,955
1092,487;  960,207;   -1,288;   -1,409
1093,027; 1110,753;    1,803;   -1,500
1093,568;  956,480;    2,258;    1,227
1094,108; 1030,662;    0,621;    1,773
1094,649;  990,934;   -0,470;    0,136
1095,189;  917,571;    1,167;   -0,682
1095,729;  870,480;    0,712;    0,955
1096,269;  893,207;    1,258;   -0,955
1096,810; 1180,298;   -0,197;    0,500
1097,350; 1014,389;   -0,561;   -0,773
1097,890;  922,389;    2,985;    1,227
1098,430; 1162,662;    4,985;    2,864
1098,970; 1028,025;    1,894;    1,682
1099,510;  905,843;   -0,833;   -2,318
1100,050;  833,662;    0,258;   -1,591
1100,589;  803,571;    0,076;   -0,318
1101,129;  915,934;    0,894;   -0,955
1101,669; 1048,571;    2,803;    2,136
1102,209;  896,298;    1,530;    2,227
1102,748;  839,662;    3,439;    0,955
1103,288;  826,116;    0,712;   -1,227
1103,827;  857,116;    3,530;   -2,227
1104,367;  743,571;    1,712;   -2,409
1104,906;  711,480;   -1,015;   -1,136
1105,445;  781,571;    0,985;   -1,136
1105,985;  717,662;   -0,652;    1,500
1106,524;  754,753;    1,530;   -0,682
1107,063;  734,571;    1,167;    1,409
1107,602;  713,753;    1,894;   -1,500
1108,141;  638,843;    1,621;    1,500
1108,680;  725,207;    3,985;   -0,591
1109,219;  670,025;    0,167;   -0,500
1109,758;  670,480;    4,167;    0,682
1110,297;  638,843;   -1,106;   -0,682
1110,836;  596,480;    1,439;    0,955
1111,375;  749,116;    0,348;    0,409
1111,913;  759,389;    0,985;    0,773
1112,452;  701,116;    0,894;    0,136
1112,991;  600,480;    1,076;    1,955
1113,529;  553,843;    0,167;   -0,045
1114,068;  614,662;    0,439;    2,955
1114,606;  513,753;   -0,561;   -0,955
1115,144;  671,116;    1,530;    1,045
1115,683;  610,116;    1,985;    0,318
1116,221;  665,753;    2,076;   -0,864
1116,759;  576,298;    1,621;   -0,864
1117,297;  749,571;    1,621;    1,864
1117,836;  571,207;    1,985;   -1,227
1118,374;  574,843;    0,258;   -0,682
1118,912;  527,753;    0,439;    2,682
1119,450;  509,298;    0,985;    0,864
1119,988;  544,480;    3,348;    2,136
1120,525; 1000,389;    7,258;    3,318
1121,063;  702,207;    0,530;    1,864
1121,601;  518,843;    1,076;   -1,227
1122,139;  476,843;    1,076;   -2,045
1122,676;  654,025;   -1,652;    2,773
1123,214;  607,298;    0,712;    4,409
1123,751;  424,298;    0,621;    2,227
1124,289;  542,116;    0,894;   -0,409
1124,826;  419,298;   -0,379;    0,227
1125,364;  354,571;    0,712;   -0,955
1125,901;  532,116;    6,258;    1,227
1126,438;  626,571;    3,530;    0,955
1126,975;  366,389;    2,985;   -0,773
1127,513;  434,480;    2,621;    2,136
1128,050;  356,934;   -0,561;   -0,682
1128,587;  445,753;    1,348;   -0,227
1129,124;  474,843;   -0,015;    1,318
1129,661;  356,662;   -1,924;    0,227
1130,198;  513,571;    2,439;    0,773
1130,734;  459,480;   -0,379;    1,409
1131,271;  324,298;   -1,197;    0,864
1131,808;  489,662;    1,621;    3,045
1132,345;  359,116;    4,530;    0,318
1132,881;  251,753;   -0,561;   -1,864
1133,418;  375,116;    0,348;   -1,136
1133,954;  319,934;    0,712;   -2,682
1134,491;  390,571;    1,712;   -0,773
1135,027;  297,662;    2,167;    0,864
1135,564;  374,934;    1,439;    2,955
1136,100;  363,207;   -0,742;    2,136
1136,636;  263,571;   -1,015;   -1,045
1137,172;  337,753;    0,894;   -1,045
1137,708;  264,934;   -1,561;   -1,045
1138,245;  276,662;    0,803;   -1,227
1138,781;  232,207;    1,803;   -3,318
1139,317;  293,571;    1,894;   -1,409
1139,852;  280,389;    3,076;    0,136
1140,388;  385,843;    2,076;   -0,409
1140,924;  279,116;    1,076;   -2,227
1141,460;  222,843;   -0,288;    0,136
1141,996;  163,389;   -0,652;    2,682
1142,531;  212,843;    1,076;    3,318
1143,067;  411,934;    1,167;    1,045
1143,602;  459,207;    3,439;   -0,318
1144,138;  308,934;    0,803;    1,045
1144,673;  189,480;    1,621;    1,409
1145,209;  251,116;    2,894;   -0,318
1145,744;  170,843;    0,803;    0,864
1146,279;  296,934;    1,530;   -0,136
1146,815;  218,298;    1,530;   -2,682
1147,350;  264,298;   -0,924;    0,045
1147,885;  179,207;   -1,924;   -1,318
1148,420;  177,207;    2,439;    0,773
1148,955;  163,025;   -1,470;    1,864
1149,490;  188,389;   -1,106;   -1,591
1150,025;  166,025;   -1,106;   -1,773
1150,560;  268,025;   -0,288;   -0,955
1151,094;  239,753;    0,258;   -0,591
1151,629;  236,298;   -3,742;    0,864
1152,164;  175,934;   -1,288;    1,318
1152,698;  144,025;    1,258;   -0,136
1153,233;  100,662;   -1,379;   -0,682
1153,767;  143,116;   -0,288;   -2,318
1154,302;  187,843;   -0,379;    1,773
1154,836;  191,753;    0,803;   -2,136
1155,371;  241,753;    2,258;    3,682
1155,905;  194,480;    1,985;    1,682
1156,439;  164,571;    0,530;   -0,500
1156,973;  193,934;    0,439;    0,318
1157,507;  132,025;   -1,742;    0,682
1158,042;  147,934;   -0,652;    1,045
1158,576;  189,662;   -0,561;    1,773
1159,110;  186,753;    0,076;    2,409
1159,643;  165,116;   -2,470;   -0,045
1160,177;  105,116;   -2,015;    1,500

