
Integration time [ms]:   0,050
Averaging Nr. [scans]: 11
Smoothing Nr. [pixels]: 0
Data measured with spectrometer [name]: 7318044SP
Wave   ;Sample   ;Dark     ;Reference
[nm]   ;[counts] ;[counts] ;[counts] 

186,757;  -29,980;   38,161;    1,318
187,357;   -2,794;   26,706;    0,955
187,958;  -16,250;   17,252;   -1,591
188,558;   14,459;   12,979;   -1,227
189,159;   -8,225;   10,070;   -4,500
189,759;  -26,175;    5,797;   -3,591
190,360;  -34,452;    6,797;   -2,136
190,960;   -5,439;    5,706;   -4,136
191,560;   -5,079;    2,614;   -6,591
192,161;  178,002;    5,885;   -3,500
192,761;   60,688;    5,520;   -3,227
193,361;    2,118;    3,065;   -3,773
193,962;   44,462;    1,612;   -2,682
194,562;   -5,692;   -0,114;   -3,955
195,162;    5,297;   -0,567;   -2,227
195,762;  108,426;    2,433;   -0,045
196,362;   59,337;    1,706;   -2,500
196,963;  -19,679;    1,706;   -0,864
197,563;   23,830;    1,252;   -0,955
198,163;  -17,137;   -0,111;   -0,682
198,763;   -5,419;   -0,020;   -0,500
199,363;   38,936;    3,616;   -0,500
199,963;   15,821;    2,162;    0,409
200,563;    1,774;    6,344;   -1,409
201,163;  -13,796;    5,435;   -0,227
201,763;   17,801;    1,435;    0,318
202,363;   -4,980;    0,980;    1,500
202,963;   19,302;    1,526;    1,045
203,563;   58,431;    0,344;    0,500
204,162;    4,462;    1,889;   -1,864
204,762;    0,251;    2,071;    0,591
205,362;  -12,732;    0,708;    1,955
205,962;    1,287;    3,435;    1,955
206,562;   -2,224;    1,889;    2,318
207,161;  -11,605;    1,708;    0,318
207,761;   58,536;    4,435;    2,409
208,361;   -2,341;    1,889;    1,409
208,960;   13,348;    2,889;    1,500
209,560;   12,638;    0,435;    1,591
210,160;   22,166;    5,071;    1,864
210,759;    1,121;    0,708;    1,227
211,359;   -2,518;   -0,474;    1,045
211,958;   88,916;    3,526;    2,045
212,558;   84,688;    0,799;    1,864
213,157;   29,243;   -0,929;    1,500
213,757;  155,166;    5,617;   -0,227
214,356;   51,074;    1,708;   -0,409
214,956;  127,179;    3,526;    0,409
215,555;   31,295;    0,617;    2,136
216,154;    4,965;   -0,292;   -0,591
216,754;   -0,505;    1,253;    0,773
217,353;   11,753;   -0,383;   -1,045
217,952;  -24,210;    2,072;    0,318
218,552;   31,434;    0,254;   -0,773
219,151;   -2,440;   -1,110;    0,955
219,750;   -6,044;    0,890;   -0,227
220,349;  -13,833;   -2,292;    1,045
220,948;   41,549;    1,163;    1,136
221,548;   -3,886;    0,617;    1,227
222,147;    5,472;   -1,292;   -0,409
222,746;   64,435;    1,254;   -0,955
223,345;   21,019;   -1,019;    0,500
223,944;   20,293;    1,163;    0,773
224,543;   25,010;    4,072;   -1,409
225,142;   12,687;    1,345;    0,136
225,741;   18,951;    1,163;    1,045
226,340;    8,477;    1,254;   -0,955
226,939;   45,365;    2,708;   -0,136
227,538;    8,233;    1,163;   -0,773
228,137;   59,725;    0,435;    0,864
228,735;   30,081;    0,435;    1,227
229,334;  -16,844;   -0,474;   -0,227
229,933;   69,419;    0,799;    0,591
230,532;   55,962;   -1,201;   -0,409
231,131;   92,660;    1,253;    0,318
231,729;   31,471;    1,163;   -2,318
232,328;   -1,131;    0,435;   -1,500
232,927;    4,944;    4,526;   -0,500
233,525;    7,031;    0,981;    0,045
234,124;   15,111;    1,890;   -1,591
234,723;   -1,554;    1,617;   -1,045
235,321;   -9,917;    1,163;    0,136
235,920;   -3,157;    2,526;   -1,227
236,518;   56,843;    1,072;    0,318
237,117;   -2,547;    2,890;   -0,227
237,715;   15,040;    1,163;   -0,500
238,314;   14,076;    1,708;   -2,318
238,912;   58,564;    0,526;   -1,409
239,510;   20,805;    1,162;   -1,227
240,109;   66,460;   -0,474;    3,773
240,707;   55,193;   -0,474;    1,227
241,305;   -3,719;   -0,383;    0,136
241,904;   19,553;   -0,292;   -2,045
242,502;   84,577;    3,253;   -0,227
243,100;   38,297;    3,344;   -0,955
243,698;    1,884;    2,799;    1,682
244,297;   19,800;   -0,656;    0,682
244,895;   14,249;   -0,474;   -2,318
245,493;   70,385;    2,981;   -0,591
246,091;   80,594;    5,163;   -1,318
246,689;   38,950;    2,163;    0,591
247,287;   29,364;   -0,019;   -1,136
247,885;   11,610;   -1,019;    1,227
248,483;   -2,313;   -0,201;   -0,500
249,081;   31,453;    0,981;    1,591
249,679;   37,636;   -1,019;    1,682
250,277;   -4,990;   -2,292;    0,864
250,875;   34,214;    0,617;   -1,045
251,473;    9,948;   -0,019;    0,500
252,071;   52,414;   -0,383;    1,045
252,669;   12,475;   -1,565;    0,318
253,267;    2,012;    1,618;    0,773
253,864;   11,273;    0,617;    0,682
254,462;   50,314;    1,526;    1,591
255,060;   -8,270;    0,072;    1,318
255,658;   -9,525;   -3,292;   -0,136
256,255;    9,356;   -0,201;   -2,045
256,853;   28,883;    2,345;    1,409
257,451;    5,188;    1,981;    1,864
258,048;  156,876;    2,072;    1,864
258,646;   62,397;    0,436;   -1,045
259,243;   92,883;    2,981;    2,227
259,841;   40,995;    1,799;    0,318
260,438;   -7,415;    0,254;    0,864
261,036;   36,204;    0,617;    1,409
261,633;   -0,601;    1,526;    2,227
262,231;  -11,880;   -0,110;   -0,045
262,828;  -16,123;   -0,383;    1,136
263,425;    3,861;   -1,928;   -0,591
264,023;    1,457;    1,436;    0,045
264,620;   47,018;    1,526;   -0,318
265,217;   82,210;    2,890;    3,136
265,815;   22,074;    2,527;    2,136
266,412;   35,589;    0,072;    0,136
267,009;   27,817;    0,526;    0,773
267,606;   60,670;    0,345;   -0,955
268,203;    7,632;   -0,383;   -0,591
268,801;    5,318;   -0,474;    0,591
269,398;  -10,151;   -0,564;    2,500
269,995;   32,695;    0,890;    1,591
270,592;   14,734;    0,799;   -0,500
271,189;   -7,937;    1,981;    0,409
271,786;  -12,826;    2,072;    1,227
272,383;   35,402;   -0,383;    0,227
272,980;    9,254;    1,617;    0,318
273,577;  -11,905;    2,162;    1,227
274,174;   -7,659;    1,435;    2,591
274,771;   25,111;    1,890;   -0,773
275,367;  165,997;    3,253;    1,409
275,964;   68,792;   -0,565;   -0,500
276,561;   11,862;   -2,474;   -1,045
277,158;  -12,273;    1,799;   -1,773
277,755;   63,089;   -0,110;    0,409
278,351;   28,844;    0,436;   -1,500
278,948;   38,321;   -0,201;    0,045
279,545;   30,352;    0,527;    2,318
280,141;   71,975;    1,254;   -2,045
280,738;   81,004;    2,435;   -0,136
281,334;   11,758;   -0,383;    0,591
281,931;   -5,109;    2,890;   -1,318
282,528;   43,885;    4,072;   -0,500
283,124;   64,678;    3,345;   -0,500
283,721;   57,587;    0,709;    1,409
284,317;   18,328;    0,163;    2,500
284,913;   62,661;   -0,110;    0,591
285,510;  115,388;    2,890;   -0,318
286,106;   74,072;    2,345;   -0,955
286,703;   29,538;    0,072;    1,955
287,299;   14,359;    1,254;   -0,591
287,895;   11,051;    0,890;   -1,045
288,491;    4,121;    0,163;    2,136
289,088;   26,977;    0,163;    2,409
289,684;   32,020;    2,890;    1,500
290,280;   89,952;    1,890;    0,682
290,876;   63,341;    0,163;    5,500
291,472;   46,397;    2,163;    2,227
292,068;   57,360;    1,254;    0,227
292,665;   22,359;   -0,564;    0,773
293,261;   -2,012;   -1,292;    2,136
293,857;   52,845;    4,072;    2,136
294,453;   21,957;   -0,928;    0,955
295,049;   95,958;    0,253;    1,955
295,644;   47,689;   -1,292;    0,136
296,240;    3,614;    0,162;   -0,136
296,836;   30,443;   -0,747;    0,318
297,432;   67,972;    2,980;   -0,500
298,028;   74,765;    0,435;    0,773
298,624;   46,739;    0,889;    1,864
299,220;   48,999;    0,435;    0,591
299,815;   40,431;    0,526;   -0,409
300,411;   82,140;    0,435;    1,773
301,007;  100,923;    1,889;    0,227
301,602;   44,698;    2,071;   -2,318
302,198;  113,118;    1,435;   -0,773
302,794;   60,125;    1,526;   -0,500
303,389;   29,694;    1,071;    1,045
303,985;   49,412;    1,253;    1,409
304,580;  121,754;    0,889;    1,591
305,176;   74,561;    0,344;    0,136
305,771;    1,664;   -0,929;   -1,227
306,367;  214,686;    3,071;    0,136
306,962;  101,153;    2,889;    1,500
307,558;  131,087;    2,435;    0,136
308,153;  129,751;   -0,383;   -1,136
308,748;   45,580;    0,162;    1,682
309,344;  210,355;    0,253;   -1,318
309,939;  198,500;    2,071;   -1,318
310,534;   75,473;   -2,020;   -1,682
311,130;   60,109;   -0,656;   -2,500
311,725;   42,353;    0,526;   -0,500
312,320;   56,863;    1,253;    0,045
312,915;  101,572;    2,890;   -1,045
313,510;  204,848;    0,526;   -0,500
314,105;   76,227;   -3,565;    1,409
314,700;   21,108;   -1,656;   -1,045
315,295;   46,935;   -0,020;    0,045
315,890;   25,137;   -0,292;    0,864
316,485;   64,368;    0,253;   -0,318
317,080;   24,986;   -0,929;    1,591
317,675;  164,507;    3,071;   -0,682
318,270;  275,975;    6,889;    3,318
318,865;  181,695;    2,435;    3,045
319,460;  108,665;   -1,565;    0,591
320,055;   33,501;   -2,565;   -1,227
320,650;   22,520;   -1,838;   -0,591
321,244;   27,449;    0,889;   -1,409
321,839;   28,040;    0,980;   -0,227
322,434;   47,863;   -0,111;   -1,591
323,029;   19,593;   -0,474;    1,591
323,623;   15,126;    0,798;    0,773
324,218;   98,447;    2,707;    1,409
324,812;   66,406;    0,889;    1,591
325,407;   53,574;   -0,929;    2,045
326,002;  140,739;    0,526;   -0,409
326,596;   99,902;   -0,656;    1,318
327,191;   30,245;   -0,383;   -1,045
327,785;   39,993;   -0,747;   -0,227
328,379;   27,187;   -0,383;    0,136
328,974;   47,220;    1,798;   -3,955
329,568;   64,628;    2,889;   -2,409
330,163;  111,550;    2,435;    1,045
330,757;   43,995;    0,253;    1,591
331,351;   19,124;   -0,292;    0,682
331,945;   15,844;   -0,383;    1,409
332,540;   82,405;    1,617;   -0,591
333,134;   83,796;    3,344;    0,773
333,728;   94,554;    2,799;    0,318
334,322;   43,023;    0,889;   -0,864
334,916;   53,667;    0,344;    0,955
335,510;  152,687;   -0,111;   -0,136
336,105;  142,427;   -0,929;    1,591
336,699;   87,428;   -1,292;    0,591
337,293;  126,891;    1,071;    0,318
337,887;  105,896;    0,071;    1,955
338,481;  212,793;    2,980;    0,591
339,074;  301,750;    2,071;    2,682
339,668;  301,133;   -0,110;    1,227
340,262;  785,746;    7,708;    3,227
340,856;  479,712;    1,708;   -0,682
341,450;  247,476;    0,708;    1,864
342,044;  321,164;    1,799;    0,136
342,637;  464,551;    1,162;   -2,136
343,231;  469,254;   -1,474;    0,682
343,825;  392,420;   -0,747;   -0,591
344,419;  397,073;   -0,474;    0,500
345,012;  958,581;    2,889;    4,045
345,606;  789,956;   -0,656;    1,591
346,199;  513,524;   -0,111;   -0,227
346,793;  662,543;    2,525;    2,045
347,386;  508,365;    0,889;   -1,136
347,980;  422,483;   -0,838;   -0,045
348,573;  568,052;   -1,748;    0,409
349,167;  895,697;    6,161;    4,773
349,760;  821,382;    2,252;    2,682
350,354;  783,140;    1,616;    1,136
350,947;  859,155;    2,798;    1,682
351,540;  710,445;    0,616;   -1,409
352,134;  576,052;   -1,111;    1,136
352,727;  641,171;   -0,657;    1,136
353,320;  683,123;    2,343;    0,591
353,913;  595,385;   -1,929;    1,864
354,507;  847,878;    0,434;   -1,227
355,100;  739,468;    0,071;    0,864
355,693; 1155,089;    4,798;    2,409
356,286;  898,407;    0,980;    2,773
356,879;  755,125;   -0,475;    1,227
357,472;  714,545;    0,980;    1,500
358,065;  777,569;    3,161;    2,500
358,658;  626,481;    0,798;    2,318
359,251;  551,951;    0,252;   -0,591
359,844;  747,910;    0,343;   -1,136
360,437;  844,451;    0,252;    0,045
361,030;  684,464;    0,525;   -0,682
361,623;  643,286;    0,434;    0,318
362,215;  888,579;    0,979;    2,045
362,808;  718,535;   -2,293;   -1,682
363,401;  629,100;    0,798;    0,136
363,994;  858,361;    3,252;   -1,500
364,586;  607,168;    0,888;   -1,500
365,179;  543,060;   -0,203;   -1,136
365,772;  375,921;   -0,930;    2,045
366,364;  530,262;    1,524;   -3,227
366,957;  611,995;    1,342;   -0,045
367,549;  530,480;   -0,203;   -0,864
368,142;  517,467;    0,978;   -1,500
368,734;  473,383;    2,523;   -2,136
369,327;  386,689;    2,341;   -0,500
369,919;  429,127;   -1,659;    0,409
370,512;  454,422;   -1,023;   -0,500
371,104;  708,083;    2,704;    1,591
371,696;  740,958;    1,703;   -0,955
372,289;  583,798;    0,157;    1,136
372,881;  508,703;    1,156;    1,318
373,473;  374,705;    4,064;    1,136
374,066;  476,168;    1,336;    0,500
374,658;  426,119;    0,879;    1,136
375,250;  357,156;   -1,668;   -1,409
375,842;  399,785;   -0,124;   -0,045
376,434;  337,241;   -2,762;   -0,409
377,026;  353,987;   -1,855;   -2,500
377,618;  366,943;    0,779;   -0,682
378,210;  270,488;    3,141;   -1,955
378,802;  232,671;    3,412;   -0,591
379,394;  691,865;    3,411;    0,682
379,986;  431,069;    1,138;   -0,955
380,578;  319,091;    1,410;    0,773
381,170;  573,698;    0,320;    0,045
381,762;  463,612;   -0,224;    1,409
382,354;  430,393;   -0,223;   -1,318
382,945;  340,049;    0,870;    0,318
383,537;  298,827;    1,144;   -1,955
384,129;  311,089;    0,963;   -1,136
384,721;  438,864;    0,418;    0,955
385,312;  348,292;   -1,399;   -0,955
385,904;  454,662;   -0,945;    1,591
386,496;  337,578;    0,691;    1,045
387,087;  486,649;    0,418;    2,500
387,679;  417,150;   -0,401;    0,045
388,270;  401,062;   -2,401;    2,045
388,862;  351,219;   -0,401;   -0,318
389,453;  315,869;    1,054;    1,045
390,045;  349,563;    3,236;   -2,682
390,636;  236,956;    0,144;   -0,591
391,227;  285,767;    2,054;   -0,045
391,819;  286,899;    0,781;    0,773
392,410;  563,326;    0,600;    0,045
393,001;  353,003;    1,600;   -1,591
393,593;  435,152;    0,600;   -0,045
394,184;  483,655;    0,873;   -0,409
394,775;  325,514;    1,146;    2,136
395,366;  269,109;    1,782;    0,773
395,957;  469,192;   -2,400;    0,136
396,548;  341,577;    1,054;    2,682
397,139;  487,447;    2,236;    0,591
397,730;  377,697;    0,873;    0,955
398,321;  387,884;    0,509;    0,955
398,912;  306,252;   -0,764;    0,136
399,503;  315,633;   -1,945;   -1,409
400,094;  366,154;   -1,582;    1,682
400,685;  345,977;    3,600;    0,045
401,276;  268,733;   -0,400;   -0,955
401,867;  254,062;   -1,127;    0,773
402,458;  204,684;    1,509;   -2,318
403,048;  400,753;    0,146;    0,591
403,639;  292,694;    1,509;    0,864
404,230;  435,347;    0,691;    0,318
404,821;  495,633;   -0,127;    0,045
405,411;  379,352;   -0,763;   -2,591
406,002;  264,984;    3,237;   -1,136
406,592;  518,360;    2,691;    0,045
407,183;  349,923;    0,328;   -1,500
407,774;  298,698;    1,419;   -0,136
408,364;  261,413;    2,600;    0,409
408,954;  376,829;   -0,036;    1,227
409,545;  369,988;    1,873;    1,045
410,135;  292,751;   -1,581;    0,500
410,726;  249,265;    0,783;    0,318
411,316;  429,224;    2,237;    0,773
411,906;  234,519;    0,146;   -0,409
412,497;  235,719;   -0,490;   -0,045
413,087;  167,618;    0,783;   -0,227
413,677;   95,479;   -2,490;    3,864
414,267;   76,052;   -1,035;    1,409
414,857;   52,008;    0,419;    4,227
415,448;   46,963;   -0,763;    0,500
416,038;   74,489;   -2,945;   -0,591
416,628;  101,456;    0,965;    0,409
417,218;  152,260;   -1,762;    3,318
417,808;  297,306;    0,965;   -0,409
418,398;  162,529;   -1,035;    2,682
418,988;   34,353;   -2,217;    0,591
419,578;  113,948;    3,601;    1,409
420,168;   59,444;    0,692;   -0,955
420,757;  183,268;    0,964;   -1,500
421,347;   71,706;    1,601;   -0,227
421,937;   41,261;    3,329;    1,409
422,527;  149,999;    2,602;   -0,773
423,116;  274,099;    2,692;   -0,045
423,706;   22,622;    2,965;    0,318
424,296;  -22,666;    1,601;    0,682
424,885;   87,879;    1,510;   -3,045
425,475;   51,633;    1,147;   -2,864
426,065;  -37,259;   -1,489;   -0,318
426,654;  -48,510;    0,329;   -0,318
427,244;  178,969;    1,147;    1,409
427,833;  136,006;    1,056;   -0,500
428,423;   13,189;    0,147;    1,136
429,012;   16,127;    2,420;   -1,136
429,601;  127,451;    2,057;    0,136
430,191;   38,645;    2,511;    4,318
430,780;  -54,828;   -1,671;   -0,409
431,369;  105,913;    1,329;   -0,045
431,959;   15,985;    1,693;    0,500
432,548;  -34,050;   -1,398;   -0,045
433,137;  -82,956;    0,329;   -1,318
433,726;  -26,663;    0,148;    0,500
434,315;  -13,171;    0,148;    2,409
434,905;   86,355;    0,693;    1,409
435,494;   77,960;    3,148;    0,955
436,083;  -39,293;    1,420;   -0,955
436,672;   47,164;    1,148;    0,500
437,261;   10,393;    0,512;   -1,955
437,850;  200,192;   -1,125;    0,682
438,439;  235,356;    2,239;    1,955
439,027;  347,237;    3,421;    1,773
439,616;  264,062;    2,239;    1,227
440,205;   71,335;    0,057;   -2,136
440,794;   34,191;   -0,306;   -0,045
441,383;  -23,283;    1,603;   -0,591
441,971;  -58,860;   -0,306;    0,591
442,560;  -38,640;    0,603;   -1,773
443,149; -110,137;    3,060;   -1,318
443,737;  -82,288;    0,968;   -2,318
444,326;  -68,253;    0,331;    0,318
444,915;  -17,441;   -1,851;    0,864
445,503;   -8,981;    0,058;   -0,318
446,092;  221,991;    7,876;    2,136
446,680;  154,198;    1,876;    0,318
447,269;   73,054;   -1,487;   -0,318
447,857;   55,300;    2,240;   -1,773
448,445;   17,751;    2,149;    1,318
449,034;  -27,626;    0,876;   -1,136
449,622;  -19,255;    1,240;    3,500
450,210;  219,353;    3,149;    2,227
450,799;  144,044;    2,604;   -0,591
451,387;  105,048;    1,786;   -0,591
451,975;   83,235;   -1,305;    0,864
452,563;  153,699;    0,422;    2,318
453,151;    6,561;   -1,032;   -1,227
453,739;   41,938;   -1,577;    0,136
454,328;  134,440;    0,604;   -2,136
454,916;   74,689;    1,150;   -0,136
455,504;   84,696;    3,513;    1,227
456,092;   -8,009;    2,150;   -1,591
456,679;  -33,291;    0,604;    0,682
457,267;  347,137;    3,604;    1,045
457,855;   55,652;    3,241;    1,409
458,443;  -66,524;   -0,304;    1,682
459,031;   51,268;    1,332;    2,409
459,619;   20,316;   -3,577;    2,864
460,206;  -57,672;   -0,759;    2,045
460,794;  -52,167;   -0,668;   -0,227
461,382;   -8,627;    0,878;   -0,864
461,970;  -10,693;    0,605;    1,864
462,557;  -68,403;    0,878;   -0,682
463,145;   27,751;   -0,304;   -1,682
463,732;  240,909;    2,514;   -1,045
464,320;   51,311;    1,514;   -3,045
464,907;  159,481;    0,423;   -0,773
465,495;   80,822;    2,696;   -1,227
466,082;   17,866;    2,060;   -0,045
466,670;   41,897;    2,605;    1,227
467,257;  -42,479;    0,060;    2,045
467,844;   45,442;    1,514;    0,045
468,432;   20,324;   -0,031;    3,500
469,019;  -14,127;    1,606;   -1,773
469,606;   58,897;    0,969;    3,682
470,193;   80,872;    2,151;    0,227
470,780;   31,522;    0,333;    0,864
471,368;  -16,941;   -1,212;   -0,773
471,955;   65,443;    1,060;   -0,682
472,542;   39,133;   -0,303;   -1,136
473,129;  -50,179;   -0,485;    0,136
473,716;  -48,903;    0,060;    0,591
474,303;  -21,978;    1,333;   -0,864
474,890;  -10,034;    2,333;   -0,500
475,477;   65,398;   -0,576;    0,409
476,064;  -13,194;    0,697;   -1,591
476,650;  101,331;    2,152;    0,318
477,237;   13,331;    1,879;    0,955
477,824;   -2,590;    3,879;    0,864
478,411;  -69,984;    0,606;   -0,318
478,997;  -75,805;    0,606;   -0,773
479,584; -118,241;   -0,666;   -0,409
480,171;   25,302;    1,243;   -0,773
480,757;   73,818;   -0,848;    0,773
481,344;   -9,261;    0,334;    0,409
481,931;  -86,663;   -0,393;    1,045
482,517;   15,800;    0,425;    0,318
483,104;   94,999;    1,334;    2,864
483,690;  -19,705;    0,243;    0,045
484,276;  -38,319;    0,698;    0,227
484,863;  151,125;    2,152;    1,136
485,449;   10,094;    0,152;    0,318
486,035;  -29,205;   -0,666;   -0,136
486,622;   41,904;   -2,393;    0,045
487,208;  -14,929;    1,334;    1,500
487,794;  -83,112;    0,971;    0,318
488,380;  -77,777;    0,698;   -1,409
488,967;  -82,655;   -1,120;   -0,409
489,553;  -70,747;   -1,029;   -1,409
490,139;   -1,946;    0,971;    0,773
490,725;  -62,907;    0,789;   -0,227
491,311;  -19,979;    1,516;    3,045
491,897;  -42,137;   -0,665;    1,500
492,483;  -28,042;    0,426;    1,227
493,069;  375,952;    5,426;    0,864
493,655;  112,406;    1,789;    0,682
494,241;   -6,848;    1,517;   -0,955
494,826;   -7,209;    0,335;   -1,045
495,412;   53,369;    0,335;   -0,682
495,998;  -20,870;    0,971;   -0,318
496,584;   24,880;    2,244;    1,045
497,169;   34,206;    2,335;   -0,682
497,755;  -14,092;    1,244;    1,227
498,341;   89,561;    2,153;    0,318
498,926;  209,017;    2,881;    1,955
499,512;  -23,426;   -0,028;    2,955
500,097;  -25,145;   -0,574;   -0,318
500,683;   -2,511;   -0,028;    2,136
501,268;  -41,554;    1,881;   -0,955
501,854;  -14,311;   -0,119;    1,227
502,439;  -24,184;   -0,573;   -1,773
503,024;  -11,282;    1,608;    0,500
503,610;   13,546;    1,335;   -0,682
504,195;  -34,972;    1,245;    1,955
504,780;   46,023;    2,335;    1,227
505,366;  125,794;    4,063;    2,864
505,951;   63,069;   -1,119;    1,045
506,536;   -4,945;    1,427;   -3,682
507,121;   38,994;    1,699;   -0,318
507,706;    3,381;   -0,392;    1,045
508,291;  -39,833;   -2,937;    1,136
508,876;  -47,553;   -0,482;    2,591
509,461;   -9,808;    1,427;   -0,773
510,046;   27,376;   -0,391;    0,318
510,631;   34,698;   -0,119;   -0,773
511,216;  -29,862;   -0,664;   -0,500
511,801;   28,954;   -0,755;    2,591
512,386;   45,455;    0,972;    0,500
512,971;   54,218;    0,427;    0,955
513,555;   92,219;    1,154;   -1,500
514,140;   73,488;    1,336;   -3,136
514,725;  193,159;    1,791;   -1,136
515,309;  124,749;    1,064;    0,318
515,894;   55,617;   -0,300;   -2,227
516,479;  124,968;    1,973;   -0,955
517,063;  155,898;    0,882;    1,227
517,648;  145,384;    0,155;   -1,136
518,232;  170,616;   -1,300;   -1,409
518,817;  335,144;    1,337;    1,682
519,401;  574,792;    0,700;    0,591
519,985;  585,821;    2,700;    1,136
520,570;  514,812;   -0,118;   -1,955
521,154;  821,252;    0,064;    0,591
521,738; 1244,561;    1,064;    2,409
522,323; 1291,296;   -0,390;    1,682
522,907; 1416,686;    2,428;   -0,136
523,491; 1560,073;    1,155;    0,955
524,075; 1808,783;    0,428;    0,591
524,659; 2246,684;    0,973;    0,591
525,243; 2410,930;    0,883;    0,409
525,827; 2801,395;    0,883;   -0,045
526,411; 3531,866;    1,155;   -0,136
526,995; 4181,638;    0,337;    1,409
527,579; 4445,290;    1,974;   -1,045
528,163; 5078,993;    0,428;   -1,500
528,747; 5629,408;    1,065;   -0,773
529,331; 6280,402;    0,883;   -1,409
529,915; 6845,768;    2,338;    0,955
530,499; 7380,008;    0,247;    1,227
531,082; 7650,820;    1,065;    1,591
531,666; 7776,683;    0,520;    0,773
532,250; 8766,846;    0,428;    2,682
532,833; 9469,702;    0,610;    2,773
533,417; 9838,296;    1,247;    0,864
534,001;10155,113;    0,429;   -0,318
534,584;11194,400;    1,974;    0,500
535,168;11417,112;    3,247;    1,409
535,751;11835,723;    4,520;    0,045
536,334;11644,430;    4,520;   -0,409
536,918;12600,167;    1,974;    1,591
537,501;12985,912;    1,520;    1,318
538,085;13237,421;    1,702;    1,045
538,668;13642,767;    0,883;    2,409
539,251;14213,296;    3,156;    3,773
539,834;14466,810;    0,156;    0,773
540,418;14587,879;    3,247;    4,318
541,001;14902,420;    2,702;    1,773
541,584;15109,299;    1,429;    2,227
542,167;14952,852;    0,702;    2,955
542,750;15277,864;    0,793;   -0,773
543,333;14980,543;    1,429;    2,136
543,916;15918,405;   -0,298;    2,500
544,499;16648,722;    2,520;    0,227
545,082;16778,804;    0,248;    3,591
545,665;17038,865;   -0,207;    1,500
546,248;17459,725;    0,520;   -0,318
546,830;17204,562;   -1,752;    1,955
547,413;17716,345;    0,157;   -0,773
547,996;18379,322;    0,157;    0,500
548,579;18203,149;   -0,843;    0,955
549,161;18128,594;    0,884;    2,682
549,744;17985,512;    0,612;    0,409
550,326;18559,618;    0,885;   -1,136
550,909;18326,694;    2,339;    0,591
551,492;18792,662;    0,521;    0,227
552,074;18653,517;   -0,024;   -1,318
552,657;19297,037;    2,430;    0,045
553,239;19066,985;   -3,024;   -0,773
553,821;19016,648;   -1,570;    1,045
554,404;18572,087;   -0,024;    1,136
554,986;19017,090;    2,248;    1,045
555,568;19645,220;    0,430;   -0,955
556,151;18850,839;    4,067;   -0,227
556,733;19074,687;   -1,388;   -0,864
557,315;19573,118;    4,703;    0,500
557,897;19427,054;    0,521;   -0,500
558,479;19584,467;    1,703;    1,318
559,061;19746,155;    1,067;   -0,864
559,643;20073,649;   -0,297;    0,045
560,225;20442,301;   -0,388;    2,864
560,807;20545,558;    0,340;    0,318
561,389;20050,663;   -1,206;    2,318
561,971;20766,050;   -0,660;    2,136
562,553;20607,105;    0,613;    1,591
563,135;20779,387;    1,249;    1,136
563,717;20402,619;    3,158;    1,136
564,298;21123,548;    3,976;   -0,045
564,880;20892,304;    0,340;   -1,409
565,462;21122,214;    1,977;    1,318
566,043;22326,080;   -0,933;    2,318
566,625;21822,709;    4,067;    1,227
567,207;21667,122;    0,704;    1,682
567,788;22834,070;   -0,114;    1,500
568,370;23705,777;   -1,841;   -0,500
568,951;23517,819;   -0,569;    0,227
569,533;24422,250;    0,977;   -0,500
570,114;24930,547;   -0,296;    0,682
570,695;25478,033;   -0,478;   -1,318
571,277;26091,671;   -0,205;   -1,682
571,858;26819,536;    2,704;   -1,136
572,439;27797,856;    0,795;   -1,045
573,021;27968,393;    0,432;   -2,773
573,602;28527,382;    1,795;    0,318
574,183;29456,632;   -0,114;    2,227
574,764;29674,940;    2,068;    0,409
575,345;30233,571;    0,250;   -0,136
575,926;30888,285;    2,704;    0,136
576,507;30933,374;    2,704;   -0,227
577,088;31989,523;    1,704;    1,682
577,669;32077,184;    1,704;    1,955
578,250;32849,451;   -0,750;   -1,045
578,831;33516,046;   -0,841;   -2,227
579,412;33814,803;   -1,205;    0,955
579,993;34798,703;    1,432;    0,227
580,573;35171,289;   -0,023;   -0,955
581,154;34100,861;    1,613;   -0,591
581,735;34963,052;    0,341;    0,773
582,315;34469,416;    0,523;    2,136
582,896;34821,667;   -1,750;    1,227
583,477;34263,581;    0,614;    1,227
584,057;34469,124;    1,159;    0,955
584,638;34782,612;   -2,750;    2,318
585,218;34792,472;    2,886;    2,682
585,799;34959,261;    1,977;   -0,227
586,379;34937,251;    1,250;    1,591
586,959;33684,698;    2,613;    0,318
587,540;32991,015;    0,432;    2,227
588,120;32482,993;   -1,113;   -0,045
588,700;31411,574;    2,977;    2,136
589,281;31741,223;    1,250;   -0,955
589,861;31637,393;   -0,296;   -1,682
590,441;31445,602;   -1,477;   -2,682
591,021;30384,877;    1,432;   -2,591
591,601;30686,774;    0,431;    0,500
592,181;30674,958;   -1,296;   -0,773
592,761;29936,538;    2,250;    1,409
593,341;29808,930;    1,522;    0,045
593,921;29809,400;   -0,569;    1,591
594,501;29661,186;    1,250;    1,318
595,081;29512,508;    0,522;   -0,318
595,661;29878,379;    1,068;    0,955
596,240;30425,080;   -1,023;    0,136
596,820;30068,965;    2,613;    1,955
597,400;30242,843;    1,977;    0,773
597,980;30420,323;   -0,750;    1,045
598,559;30524,183;    0,341;   -0,227
599,139;30219,048;   -0,750;   -1,227
599,718;30121,048;    0,795;   -0,409
600,298;30347,943;   -2,387;    0,682
600,877;30578,529;    4,795;    1,409
601,457;30847,595;    0,340;    1,136
602,036;30794,403;    1,795;    2,045
602,616;31063,952;    2,250;    1,682
603,195;31350,678;    0,431;    3,500
603,774;30826,874;   -0,296;    2,045
604,354;30746,311;    2,522;   -0,500
604,933;30230,660;    0,250;    1,864
605,512;30386,847;    2,340;    0,591
606,091;30438,046;    1,886;    3,773
606,671;31219,297;    0,249;    0,773
607,250;30257,495;    1,431;    3,136
607,829;30552,316;    1,158;    3,227
608,408;30399,815;    4,613;    2,591
608,987;29394,301;    2,704;    3,409
609,566;29721,750;    0,341;   -2,500
610,145;29793,754;    2,885;    0,682
610,723;30262,182;    1,613;    6,864
611,302;29461,322;    1,067;    1,682
611,881;28896,384;    5,158;   11,227
612,460;29753,738;    0,795;    3,955
613,039;30224,434;    1,703;    2,045
613,617;28909,834;    0,886;    4,773
614,196;29147,953;    1,613;    1,227
614,775;29485,658;    1,249;    2,409
615,353;29409,903;   -1,660;    0,864
615,932;29069,984;    0,249;    2,409
616,510;29686,923;    0,158;    0,591
617,089;29205,338;    8,794;   17,591
617,667;28973,083;    4,885;    6,136
618,246;28763,477;   -1,115;    1,318
618,824;28916,293;    1,612;   -0,955
619,402;28525,028;    0,431;   -1,773
619,981;29028,291;    1,067;   -1,045
620,559;28940,006;    0,794;    1,682
621,137;28441,020;    3,067;    1,864
621,715;28397,538;    3,703;   -0,682
622,293;28285,252;    1,885;   -0,773
622,871;28804,937;    0,340;    0,500
623,450;28348,848;    0,430;   -0,864
624,028;28243,213;   -0,388;   -0,955
624,606;27856,524;    2,339;    1,682
625,183;28222,654;   -0,661;   -1,136
625,761;27809,738;    1,885;    1,136
626,339;28137,257;    2,339;    2,591
626,917;28627,938;    0,339;   -0,045
627,495;28648,085;    2,794;    1,318
628,073;27993,092;    5,248;    2,864
628,650;27678,337;    3,067;    2,136
629,228;28153,214;    1,248;    4,409
629,806;27514,534;   -0,024;    1,136
630,383;27784,823;    0,066;   -0,318
630,961;27592,113;   -2,206;   -0,955
631,539;27303,320;   -2,479;    0,227
632,116;26489,749;   12,703;   15,409
632,694;27163,384;    4,885;    6,500
633,271;27436,804;    1,975;    2,682
633,848;27365,641;    1,430;    2,045
634,426;27468,057;    1,521;    1,773
635,003;26577,744;   -0,207;   -0,409
635,580;26865,531;    1,884;    3,682
636,158;27402,262;    3,793;    1,227
636,735;27373,655;    3,339;   -0,500
637,312;27525,010;    0,521;   -0,682
637,889;27660,167;    2,248;   -0,682
638,466;27144,302;    0,066;   -0,409
639,043;27148,564;    1,702;   -1,136
639,620;27460,978;    0,611;   -0,955
640,197;27749,062;    1,612;    1,682
640,774;27907,581;    1,430;    1,136
641,351;28316,736;    0,612;    1,136
641,928;27717,074;    2,794;    1,409
642,505;27338,502;    0,794;   -0,500
643,082;27519,294;    1,885;    1,227
643,658;26486,995;    1,157;    1,500
644,235;27207,969;   -2,479;    2,500
644,812;27506,670;    1,794;    0,773
645,388;27302,189;    1,612;    1,409
645,965;27321,527;    1,521;    1,682
646,542;27416,591;    3,430;   -0,227
647,118;27466,838;    3,703;   -0,955
647,695;27762,266;    0,339;    1,136
648,271;27611,331;   -2,115;    0,500
648,848;27967,668;    0,248;    2,227
649,424;27800,915;    0,976;    1,318
650,000;27464,616;   -0,388;   -1,045
650,577;27332,408;    0,158;   -0,955
651,153;27822,654;   -1,115;    0,955
651,729;28782,355;    0,521;    0,864
652,305;28954,238;    1,339;    2,773
652,881;33565,485;   -1,297;    1,136
653,458;40712,913;    0,249;    0,227
654,034;44755,068;    0,703;    1,591
654,610;46361,042;    0,339;    0,773
655,186;47749,380;    1,612;    3,045
655,762;47448,262;   -1,842;    0,409
656,338;47523,418;    0,703;    0,136
656,913;48575,210;   -0,297;    0,409
657,489;47884,366;    0,249;   -0,318
658,065;47850,976;    0,794;   -1,591
658,641;48410,950;    2,158;   -0,864
659,217;47756,287;    2,067;    0,409
659,792;47209,988;   -1,751;   -0,409
660,368;47532,144;   -0,388;   -0,682
660,944;47159,117;    1,794;    1,227
661,519;42479,273;    0,522;    0,409
662,095;36002,701;   -0,206;    0,591
662,670;31048,039;   -0,206;   -0,136
663,246;29826,831;   -0,660;   -0,409
663,821;29113,168;    0,431;    1,682
664,396;28617,324;    0,613;    1,864
664,972;28881,752;   -0,660;   -0,500
665,547;29211,908;    3,794;    0,136
666,122;29209,790;    1,340;    0,318
666,698;29545,673;    2,431;    0,318
667,273;28863,102;    0,885;    0,136
667,848;29695,348;    0,340;    1,500
668,423;29427,231;    1,795;    2,318
668,998;30070,568;    0,976;   -0,682
669,573;30628,633;    2,067;   -1,500
670,148;30415,061;    1,885;   -0,682
670,723;30152,853;   -0,024;    0,318
671,298;30677,554;   -1,296;    1,045
671,873;30781,437;   -0,296;   -0,136
672,448;30707,411;    1,704;    0,136
673,023;31060,748;    0,249;   -0,227
673,597;31410,540;    2,704;    2,318
674,172;31146,878;    2,431;    0,318
674,747;30640,670;   -0,205;   -1,045
675,321;30525,280;   -0,933;    3,318
675,896;30037,708;    2,158;    1,045
676,471;31033,046;    2,522;    1,591
677,045;30830,565;   -0,296;    0,682
677,620;30888,811;    2,158;    1,136
678,194;31185,058;    0,249;    1,136
678,769;30681,759;    0,886;   -0,318
679,343;30926,551;   -0,023;    1,773
679,917;30792,434;    0,340;    1,955
680,492;30869,771;    0,249;    3,227
681,066;31076,381;    0,613;    0,409
681,640;31091,355;    1,795;   -0,318
682,214;31883,147;    2,340;    0,500
682,788;31357,121;    0,613;   -0,773
683,363;31315,640;    1,977;    1,682
683,937;31029,068;    0,886;   -0,318
684,511;31841,678;   -1,023;   -0,591
685,085;31544,561;   -1,478;    0,318
685,659;31339,990;    1,431;    0,864
686,232;31470,691;    1,159;   -0,318
686,806;31215,483;    2,159;    0,409
687,380;31891,002;   -1,932;    0,591
687,954;32145,157;    2,432;    1,136
688,528;31831,677;    2,613;    1,955
689,101;32636,923;    0,432;    1,045
689,675;32201,442;    0,886;   -0,136
690,249;31542,871;    3,432;    0,409
690,822;31839,663;    1,159;    0,318
691,396;31929,818;    2,068;    1,227
691,969;31385,792;    2,523;    0,136
692,543;31907,584;   -0,568;   -1,955
693,116;31512,830;   -0,659;   -1,409
693,690;31309,622;   -0,296;    0,500
694,263;31875,505;    2,341;    2,955
694,836;31952,843;    2,795;    3,591
695,410;30546,998;    1,159;    1,773
695,983;30925,426;    1,614;    0,591
696,556;30946,400;   -0,750;   -1,045
697,129;31392,919;   -1,114;    1,409
697,703;30992,257;    1,341;    1,955
698,276;31027,322;    1,705;   -0,773
698,849;30752,841;   -1,023;    1,409
699,422;31137,905;    1,250;    0,591
699,995;30818,697;   -0,659;    0,136
700,568;31342,489;   -0,204;    3,045
701,140;31346,372;   -1,841;    1,682
701,713;31113,891;    0,341;    2,409
702,286;30884,138;    0,796;    0,864
702,859;30743,748;    0,614;   -0,591
703,432;29872,813;   -0,841;    0,682
704,004;30375,423;    1,978;    0,318
704,577;30260,669;    1,068;    0,136
705,150;30805,370;    0,887;    2,500
705,722;30578,708;    1,523;   -3,227
706,295;30389,409;    1,432;   -0,591
706,867;30240,110;    0,250;    1,955
707,440;30456,629;   -0,113;   -0,409
708,012;30683,239;   -0,022;    0,591
708,584;30540,577;    2,705;    0,227
709,157;30832,550;    1,160;   -0,591
709,729;30502,070;    1,069;    2,045
710,301;31398,225;   -1,204;    0,045
710,874;31393,017;    0,341;   -0,227
711,446;30269,991;   -0,295;    0,864
712,018;30169,601;   -3,022;    0,500
712,590;29845,848;   -0,204;    1,682
713,162;30423,185;   -0,477;    1,318
713,734;30638,250;    1,796;   -2,045
714,306;30541,405;    0,342;   -0,409
714,878;29170,652;   -0,295;    0,864
715,450;29989,807;   -0,113;    0,864
716,022;30218,508;    2,433;    1,318
716,593;30413,210;    0,978;    0,591
717,165;30350,729;    1,796;   -1,227
717,737;30018,339;    0,796;    0,409
718,309;29724,131;    1,160;   -0,045
718,880;29631,377;   -1,295;   -1,409
719,452;29935,260;    0,887;   -1,591
720,024;29468,689;    1,705;   -0,591
720,595;30028,299;    2,978;    0,955
721,167;29508,909;    1,160;   -2,045
721,738;29041,792;    2,069;   -1,045
722,309;28954,765;    1,251;   -1,227
722,881;28703,194;    2,705;    0,773
723,452;29384,986;    1,251;    2,864
724,023;29562,687;    1,524;    2,682
724,595;29376,751;    2,342;    0,682
725,166;29139,634;    1,524;   -0,409
725,737;28701,517;    1,887;    0,227
726,308;28800,218;    0,797;    0,318
726,879;29242,919;    1,069;    1,227
727,450;29077,348;   -2,022;   -0,045
728,021;29059,958;    1,069;    0,682
728,592;28892,295;    1,160;    0,500
729,163;29197,996;    1,433;   -0,136
729,734;29183,697;    2,160;   -0,227
730,305;29549,307;    0,615;    0,136
730,876;29874,554;    0,888;    2,955
731,447;29594,800;    0,797;    2,682
732,017;29702,410;   -0,840;    1,864
732,588;29200,566;   -0,021;    1,227
733,159;29397,267;    3,615;   -1,045
733,729;29157,604;    1,251;    0,409
734,300;28448,669;    0,160;    0,864
734,870;28881,643;   -1,385;    0,591
735,441;29468,708;    0,888;   -0,591
736,011;29162,681;    1,070;   -1,591
736,582;29155,655;    1,251;    0,045
737,152;28574,811;    0,979;   -2,045
737,722;29038,694;    1,070;   -0,682
738,293;28768,758;   -2,021;    1,318
738,863;28623,914;    1,797;    2,318
739,433;28425,706;    4,524;    0,318
740,003;29114,680;    1,524;   -0,682
740,573;28481,926;    2,252;   -1,591
741,143;28491,264;    3,615;    0,318
741,713;29228,783;    0,252;   -0,500
742,283;28893,029;    1,706;    1,591
742,853;28650,639;    0,524;    1,591
743,423;28136,977;    0,161;    0,045
743,993;28223,041;    1,070;    1,500
744,563;27523,379;    2,524;   -0,864
745,133;27477,444;   -0,112;   -0,864
745,702;28252,235;    2,797;    1,773
746,272;27399,937;    0,434;    0,591
746,842;27133,274;   -0,748;   -0,591
747,411;27582,248;   -0,839;   -0,318
747,981;27815,767;   -0,930;    0,500
748,551;27899,286;   -0,021;   -1,045
749,120;27712,805;   -0,112;   -0,227
749,690;28132,234;    2,161;    2,409
750,259;28468,117;    0,979;    2,955
750,828;28311,999;    4,070;   -1,955
751,398;28520,882;   -0,112;   -0,045
751,967;28027,311;    2,888;    0,409
752,536;28205,739;    1,161;   -0,227
753,105;28688,895;   -1,384;    0,227
753,675;28510,414;   -0,112;    1,773
754,244;28410,388;    0,888;    3,591
754,813;28446,179;    0,979;    1,227
755,382;28072,244;    0,798;    0,955
755,951;28594,582;   -0,112;    3,682
756,520;28146,192;    2,525;    1,864
757,089;28714,438;    1,888;    0,500
757,658;28862,957;    2,434;    1,227
758,227;28888,022;   -1,111;    0,318
758,795;29172,905;   -1,021;    1,136
759,364;29410,697;    0,525;   -0,591
759,933;28384,398;    1,343;   -0,045
760,501;27934,917;    0,252;   -1,318
761,070;28378,527;   -0,293;   -1,409
761,639;29131,592;    1,434;    1,318
762,207;28347,384;    0,889;   -0,955
762,776;28315,812;    2,889;    0,864
763,344;28314,513;    0,071;    0,591
763,913;27391,214;    1,616;    1,409
764,481;28184,643;    1,980;   -0,136
765,049;27897,344;    0,616;    1,409
765,618;27818,772;    1,434;    0,318
766,186;27906,564;    2,434;    0,136
766,754;28123,174;    1,798;    1,864
767,322;27041,693;    1,162;    0,409
767,890;27032,758;    0,525;   -1,773
768,459;27407,005;    2,616;   -0,318
769,027;27592,796;    2,525;    3,409
769,595;26596,952;    2,616;    2,591
770,163;27057,017;    3,344;    2,955
770,730;26746,627;    2,525;   -0,136
771,298;26628,055;    1,162;   -1,409
771,866;26749,484;    0,253;    4,955
772,434;27050,275;    1,162;   -1,864
773,002;27178,158;    2,616;    0,682
773,569;26793,768;    1,071;    1,682
774,137;26601,106;    0,889;   -0,045
774,705;27392,716;   -0,747;   -0,136
775,272;26888,963;    0,253;    0,682
775,840;26668,573;   -0,111;    2,682
776,407;26126,546;   -0,293;    1,955
776,975;25743,793;    1,162;    0,318
777,542;26760,949;    2,162;   -0,045
778,110;26644,922;    0,707;   -0,045
778,677;26279,169;    1,071;   -0,864
779,244;26023,961;   -1,020;    1,045
779,812;26196,844;    0,980;    0,864
780,379;26008,726;    2,435;    1,136
780,946;26245,337;    2,617;   -0,773
781,513;26590,038;   -0,565;    0,318
782,080;25910,193;    1,253;    2,864
782,647;26632,622;    1,708;    3,045
783,214;26248,413;   -0,201;    3,864
783,781;25843,842;    1,708;   -0,682
784,348;25696,088;    0,253;    1,500
784,915;26171,880;   -1,474;    0,318
785,482;25909,854;    2,708;    2,591
786,049;26376,373;    1,071;   -0,591
786,615;26474,711;    1,708;   -0,955
787,182;26315,048;   -3,201;   -0,682
787,749;25964,749;   -2,201;    1,409
788,315;25214,814;    0,253;   -0,409
788,882;25558,788;    0,981;   -1,227
789,448;26243,125;    1,435;   -0,955
790,015;26219,826;    1,799;    3,227
790,581;25810,709;    0,708;    0,227
791,148;25680,864;    1,344;    1,045
791,714;25891,202;   -1,019;    3,136
792,280;25573,630;    3,708;    1,591
792,847;25112,240;   -0,928;    2,500
793,413;25681,941;   -0,110;   -0,318
793,979;25188,370;    1,526;   -1,318
794,545;25215,889;    2,981;    2,682
795,111;24654,226;    2,435;    1,318
795,678;24841,655;    3,526;   -1,682
796,244;24490,719;    2,799;    0,136
796,810;25061,511;    0,799;    0,773
797,375;24812,121;   -0,292;   -2,136
797,941;24810,368;   -1,110;    0,591
798,507;24936,705;    0,254;   -0,955
799,073;24481,679;    2,708;    0,591
799,639;24535,562;    1,435;    3,136
800,205;24585,627;   -1,565;    2,682
800,770;24042,782;    1,345;    1,773
801,336;24070,665;    2,981;   -0,955
801,901;23793,184;    6,072;    3,136
802,467;24360,976;    0,526;    2,045
803,033;23717,950;   -0,019;    0,864
803,598;23900,197;    1,072;   -1,045
804,163;23936,443;    0,708;   -0,318
804,729;23899,326;   -0,110;    1,136
805,294;24329,391;    1,072;    2,227
805,859;24148,546;    0,890;   -0,409
806,425;23616,611;    3,890;    2,682
806,990;23265,039;    1,890;    4,318
807,555;23742,104;   -0,110;    2,591
808,120;23653,532;   -1,292;   -0,409
808,685;23674,051;    1,072;   -2,500
809,250;23151,752;    2,072;   -0,500
809,815;23483,090;   -0,201;    0,682
810,380;24045,700;    0,981;    1,591
810,945;24509,856;    2,890;    2,045
811,510;23770,648;   -0,200;    1,591
812,075;23416,076;    2,800;   -1,409
812,640;23463,050;    3,709;    1,409
813,204;23543,932;    2,163;   -0,227
813,769;24008,906;    0,254;   -0,045
814,334;23419,880;    0,527;    0,864
814,898;23450,854;    1,981;    0,591
815,463;23296,100;    0,981;   -0,773
816,027;23207,801;    1,345;   -2,318
816,592;23341,411;    2,163;   -2,045
817,156;22832,658;   -2,200;    1,136
817,721;22637,541;    0,982;    2,318
818,285;22663,606;    0,618;    1,500
818,849;23314,397;   -0,018;    1,682
819,414;23155,462;    0,073;    2,955
819,978;22737,709;   -0,291;    1,773
820,542;23337,046;    2,891;    0,500
821,106;23082,474;    2,800;    0,682
821,670;23151,084;    2,709;    2,591
822,234;22878,786;    1,073;    1,409
822,798;22235,759;   -0,836;    0,500
823,362;22208,006;    1,527;    4,227
823,926;21479,252;   -0,018;    1,136
824,490;21695,499;    3,527;   -0,682
825,054;22152,018;    2,527;   -1,136
825,618;21787,083;   -1,200;   -1,500
826,181;21687,511;    0,982;   -1,318
826,745;21590,212;   -0,745;   -1,045
827,309;21937,822;    2,255;    1,318
827,872;21319,978;    0,527;    0,955
828,436;22327,952;    1,982;   -0,773
828,999;22460,562;    2,436;    1,227
829,563;21200,172;   -0,654;    1,136
830,126;21000,600;   -0,018;   -0,591
830,690;21026,938;    0,709;    2,864
831,253;20554,366;   -0,473;    2,227
831,816;20693,521;   -0,018;    0,500
832,380;20570,223;    1,164;    0,864
832,943;20813,560;    3,073;   -0,500
833,506;20302,170;    0,255;   -1,227
834,069;21110,417;    2,164;   -0,955
834,632;21160,936;   -2,200;    1,318
835,195;21082,455;    1,346;    0,955
835,758;20250,974;    0,709;    1,955
836,321;20055,130;    1,073;   -1,045
836,884;20146,195;   -1,291;   -0,955
837,447;20219,441;    0,528;    1,773
838,010;20451,506;    1,800;    3,227
838,573;20774,298;    0,528;    0,773
839,135;20749,999;   -0,109;   -0,955
839,698;20166,063;    2,528;    0,409
840,261;19708,219;    0,255;   -0,227
840,823;19571,647;   -0,927;    0,864
841,386;19815,803;   -0,018;   -2,409
841,948;19690,413;    0,255;    1,773
842,511;19429,478;    0,255;    1,682
843,073;19577,815;    2,982;    0,227
843,636;19373,607;    0,619;   -0,227
844,198;19282,854;    1,255;    0,591
844,760;19404,464;    0,619;    1,955
845,322;19039,619;    0,164;    1,136
845,885;19476,684;   -0,290;    0,591
846,447;19901,658;    0,710;    0,227
847,009;19468,450;    3,983;   -0,682
847,571;19804,423;    1,346;   -2,045
848,133;19842,488;   -0,199;   -1,864
848,695;19749,644;    2,346;    1,409
849,257;19275,072;    1,346;   -1,682
849,819;19421,409;    2,983;   -0,409
850,381;19485,020;    1,801;   -0,864
850,942;19862,812;    1,892;   -0,591
851,504;19785,967;    0,983;    0,227
852,066;19829,577;    1,619;   -1,591
852,628;19370,733;    0,165;    1,955
853,189;18902,616;    0,256;    2,682
853,751;19066,589;   -0,654;    1,409
854,312;18843,472;    1,256;   -1,682
854,874;19325,719;   -0,108;   -0,773
855,435;19842,056;    0,528;   -1,682
855,997;19998,121;    3,983;   -0,136
856,558;19236,095;    0,801;    1,773
857,119;19364,705;   -0,744;    2,864
857,681;19066,497;   -0,108;    0,318
858,242;19127,016;    1,347;   -2,136
858,803;19594,081;    1,074;   -0,773
859,364;20123,327;    0,892;   -4,773
859,925;19457,937;   -0,290;   -0,955
860,486;19352,638;    0,529;   -0,955
861,047;19075,885;    0,165;   -1,227
861,608;18833,768;    0,165;   -0,773
862,169;19041,832;   -0,562;   -0,045
862,730;18804,897;   -0,290;    1,409
863,291;19021,598;    0,438;   -0,500
863,852;19362,754;   -0,926;    1,955
864,412;18809,909;   -1,835;   -0,864
864,973;17342,519;    1,892;    0,500
865,534;17187,857;    2,074;    0,227
866,094;18727,012;    2,620;    0,227
866,655;18405,168;    4,711;    3,318
867,215;18726,687;    0,074;    0,136
867,776;18549,479;   -1,199;   -0,136
868,336;18639,998;    1,529;    0,136
868,897;18044,609;    3,438;    1,682
869,457;17845,764;    3,256;    0,318
870,017;18071,829;    2,438;   -1,227
870,578;18656,075;    1,893;    0,773
871,138;18227,776;    2,620;   -0,955
871,698;17740,477;   -0,562;   -1,318
872,258;17592,360;    0,711;   -2,864
872,818;17985,243;    2,347;    0,045
873,378;17973,853;   -2,198;    1,045
873,938;17529,191;    4,984;    0,500
874,498;17873,892;    1,256;   -1,955
875,058;17724,866;    4,347;    1,773
875,618;17566,839;    1,438;   -2,682
876,177;17522,177;   -0,471;    0,136
876,737;17062,423;   -0,289;    1,955
877,297;17059,579;    2,711;    1,955
877,856;17064,189;    2,529;    0,318
878,416;17005,981;    2,438;   -0,136
878,976;17285,864;    3,438;    0,409
879,535;17494,110;    4,529;    3,136
880,095;17199,357;    1,347;    0,045
880,654;17311,694;    0,347;    1,318
881,213;17369,941;    2,347;    1,500
881,773;17054,460;    1,984;    2,682
882,332;17335,797;    6,075;    5,136
882,891;17259,407;    0,711;    2,136
883,451;17695,836;   -2,016;    1,682
884,010;17146,082;   -1,107;   -0,409
884,569;17253,965;   -2,289;   -0,045
885,128;17379,121;   -0,743;   -1,864
885,687;17466,549;   -0,743;    0,682
886,246;17128,341;    2,620;    2,136
886,805;16892,951;    1,620;    2,045
887,364;17222,198;    1,166;   -0,500
887,922;17581,080;   -0,016;    0,045
888,481;17066,963;    1,530;    0,591
889,040;17388,119;    3,711;    2,136
889,599;18066,729;    2,166;    1,409
890,157;18132,612;    2,166;    2,409
890,716;17801,222;    2,166;    0,227
891,274;17609,832;    0,075;   -1,136
891,833;18048,715;    1,166;    0,864
892,391;17878,598;    1,802;    0,500
892,950;17969,117;    0,166;   -0,773
893,508;18339,455;    0,984;   -0,409
894,067;17700,610;   -0,379;    0,136
894,625;17602,675;   -1,016;   -1,500
895,183;17826,012;   -0,198;   -0,682
895,741;17743,622;    2,257;   -1,773
896,299;17558,142;    1,621;   -2,409
896,858;17747,752;    1,530;   -1,591
897,416;17791,816;    0,166;   -1,318
897,974;17579,608;   -2,197;    0,318
898,532;17696,855;    6,530;    2,682
899,089;17619,829;    0,621;   -0,682
899,647;17652,439;    0,530;    1,318
900,205;17400,685;    0,257;    1,045
900,763;17606,477;    2,166;    0,227
901,321;17594,087;    3,530;   -1,409
901,878;17055,516;    3,257;   -0,773
902,436;16895,944;    0,257;    1,318
902,994;17305,009;    6,712;    3,682
903,551;16699,437;    1,439;    0,409
904,109;17097,320;    1,530;   -1,409
904,666;16701,021;    1,439;    1,045
905,224;16497,449;    3,894;   -0,409
905,781;16230,423;   -0,470;   -0,318
906,338;16327,033;    0,167;    1,045
906,895;16275,552;    1,894;    2,045
907,453;16146,344;    2,348;    1,136
908,010;16157,318;    3,348;    0,409
908,567;15801,655;   -0,561;    0,591
909,124;15350,447;    2,439;   -1,500
909,681;15431,239;   -1,288;    0,682
910,238;15547,668;   -0,106;   -1,318
910,795;15846,369;   -1,561;   -1,136
911,352;15493,369;   -0,379;   -2,682
911,909;14927,187;    2,803;   -0,864
912,466;15451,641;    1,985;    1,500
913,022;14940,369;   -0,924;    0,500
913,579;15255,369;   -0,470;    2,045
914,136;14970,278;   -2,561;    0,955
914,692;15350,914;    1,530;   -1,227
915,249;14894,369;    0,530;    0,409
915,806;15122,823;    1,803;    1,955
916,362;14810,914;    0,894;    1,864
916,918;14382,914;    2,439;    1,045
917,475;14362,823;    1,621;    0,955
918,031;14511,278;    0,076;   -0,045
918,587;13970,369;    0,621;   -0,318
919,144;14163,823;   -0,379;    0,227
919,700;14490,096;    0,167;    0,773
920,256;14056,641;    0,439;    0,045
920,812;13668,460;    1,439;   -1,045
921,368;13650,278;    1,348;   -1,045
921,924;13303,096;    0,439;   -0,136
922,480;12840,096;    0,076;    1,227
923,036;13468,096;   -0,652;    1,955
923,592;13447,005;    0,621;    0,318
924,148;13348,551;    1,894;   -0,955
924,704;12670,551;    0,258;   -0,409
925,259;12958,914;   -0,561;    0,591
925,815;12664,096;    3,803;    0,500
926,371;12200,551;    3,530;    1,409
926,926;12064,641;    1,621;    0,591
927,482;11665,551;    1,621;    0,773
928,037;11529,278;   -0,833;    2,045
928,593;11839,187;    0,258;    1,045
929,148;11660,551;    1,167;   -1,500
929,704;11197,460;    2,439;   -0,500
930,259;11367,914;    0,894;   -0,136
930,814;10416,641;    1,803;    1,955
931,369;10128,823;    0,258;   -0,773
931,925;10047,278;   -1,924;    0,136
932,480; 9873,187;    3,076;   -2,591
933,035; 9755,460;    3,985;   -0,318
933,590; 9509,187;   -1,742;   -1,773
934,145; 9149,096;   -1,288;   -0,318
934,700; 9528,460;    0,348;   -0,591
935,255; 9331,369;    4,803;    0,045
935,809; 8571,005;    6,258;    0,864
936,364; 7702,641;    2,167;   -0,136
936,919; 7664,641;    2,348;   -1,773
937,474; 7553,823;    1,348;    0,136
938,028; 7305,096;    3,076;    1,136
938,583; 6753,551;    6,348;    4,682
939,138; 7057,641;    0,167;    2,136
939,692; 6509,732;   -1,015;   -1,136
940,247; 6169,732;    1,167;   -1,045
940,801; 5693,369;    0,621;    0,227
941,355; 5595,369;    0,439;    2,591
941,910; 5282,823;    0,712;   -2,136
942,464; 5372,096;    2,712;   -0,318
943,018; 5153,278;    3,258;   -0,227
943,572; 5096,460;    2,803;   -0,682
944,126; 4485,005;   -0,924;   -0,409
944,681; 4358,096;    0,712;    0,227
945,235; 4338,005;    2,167;   -0,591
945,789; 4290,278;    1,258;   -1,864
946,342; 4374,732;   -0,561;   -0,591
946,896; 4172,005;    0,348;    0,955
947,450; 3954,278;   -0,561;   -0,227
948,004; 4136,823;    1,076;   -0,045
948,558; 4158,823;    1,258;   -0,864
949,111; 4060,096;   -1,197;   -0,318
949,665; 4076,369;   -0,106;   -0,682
950,219; 3966,005;    0,621;   -1,045
950,772; 4041,460;    0,258;    1,864
951,326; 3952,914;   -1,106;   -0,955
951,879; 4064,551;    1,076;   -2,318
952,433; 4083,823;    1,348;    2,227
952,986; 3940,551;    0,348;    0,682
953,539; 3837,914;    1,530;    0,591
954,093; 3789,278;    0,985;   -1,318
954,646; 3910,005;   -0,288;    1,318
955,199; 3729,914;    1,258;   -0,500
955,752; 3612,551;    1,985;    1,773
956,305; 3571,823;    0,894;    2,955
956,858; 3729,460;    0,621;   -0,318
957,411; 3956,460;    3,621;    2,136
957,964; 3736,823;    2,076;    2,136
958,517; 3735,005;    0,985;    3,136
959,070; 3565,278;   -1,197;    1,955
959,623; 3630,460;    1,076;    1,500
960,176; 3405,460;    0,712;    2,045
960,728; 3375,187;    1,712;    0,773
961,281; 3430,278;    2,258;    0,500
961,834; 3484,732;   -0,833;    0,864
962,386; 3400,096;    1,258;    1,045
962,939; 3276,823;    3,439;   -0,318
963,491; 3448,369;    2,621;    1,136
964,043; 3320,732;    0,076;    2,409
964,596; 3441,823;    1,712;    2,227
965,148; 3276,914;   -0,379;    1,773
965,700; 3211,641;   -0,015;   -0,227
966,253; 3377,187;   -0,833;    0,318
966,805; 3203,914;    1,894;    0,773
967,357; 3265,914;    0,439;   -1,500
967,909; 3186,551;    1,167;   -1,227
968,461; 3303,732;    0,894;    3,136
969,013; 3220,278;   -1,561;   -0,864
969,565; 3308,823;    1,803;   -1,136
970,117; 3368,369;    3,803;    1,045
970,669; 3208,823;    3,258;   -0,136
971,220; 3087,005;    2,167;   -1,500
971,772; 3013,551;    1,348;   -0,318
972,324; 3108,096;   -1,197;   -0,500
972,876; 3067,369;    0,167;   -0,045
973,427; 3189,551;   -1,197;   -1,045
973,979; 3178,551;    0,076;   -2,500
974,530; 3225,641;    0,803;    1,318
975,082; 3207,551;    2,167;    1,682
975,633; 3100,732;    2,894;    1,682
976,184; 3267,823;    2,076;    0,773
976,736; 3050,732;    0,348;    0,227
977,287; 2830,914;    0,258;   -0,500
977,838; 3021,732;   -0,924;   -0,318
978,389; 3069,823;    0,803;   -0,500
978,940; 2964,278;    1,258;   -0,409
979,491; 2976,641;    2,258;   -0,500
980,042; 2911,914;   -0,652;    3,045
980,593; 2992,914;    1,894;    0,227
981,144; 3061,823;    3,530;   -0,500
981,695; 3000,823;   -0,470;    1,500
982,246; 2970,641;   -1,833;    1,045
982,797; 3134,096;   -0,561;    0,682
983,347; 3234,914;    2,167;    0,591
983,898; 3385,187;    4,167;    0,409
984,449; 3228,369;    2,530;    0,773
984,999; 3148,732;    1,894;   -1,136
985,550; 2880,914;    3,167;   -0,318
986,100; 2945,369;    0,712;   -0,318
986,651; 2975,369;    0,258;    0,045
987,201; 2950,732;    0,894;   -0,591
987,751; 3061,641;   -0,288;    2,864
988,302; 3020,641;   -0,379;    1,500
988,852; 3045,460;    1,985;   -1,136
989,402; 3075,732;    0,985;    0,682
989,952; 2989,551;    1,621;    0,864
990,502; 3093,823;    1,076;    0,682
991,052; 3069,551;   -0,106;    0,045
991,602; 2925,641;    1,167;    1,318
992,152; 2917,551;    2,803;    0,682
992,702; 2910,551;    1,167;   -0,045
993,252; 2824,369;    0,076;   -0,500
993,802; 2915,278;    1,167;    1,318
994,352; 3170,823;   -0,742;    1,136
994,901; 3264,005;    1,076;    3,227
995,451; 3182,914;   -1,197;    0,318
996,000; 3246,005;    1,076;    0,318
996,550; 2949,187;    2,894;    0,227
997,100; 2974,732;   -0,561;   -0,045
997,649; 3262,369;   -0,197;    0,955
998,198; 2879,278;   -0,288;   -1,500
998,748; 3066,551;    0,348;   -2,318
999,297; 2989,096;    0,985;   -0,409
999,846; 3069,641;    1,894;   -0,773
1000,395; 3110,460;    1,530;    0,500
1000,945; 3044,914;    1,076;   -0,773
1001,494; 3097,369;    0,167;    0,682
1002,043; 3104,460;    0,712;    0,864
1002,592; 2957,369;    3,439;    1,955
1003,141; 3108,096;    2,439;   -0,682
1003,690; 2944,551;    1,258;    0,500
1004,238; 3026,278;   -0,106;   -0,045
1004,787; 2639,005;   -1,288;    1,227
1005,336; 2886,732;    1,621;    0,682
1005,885; 3024,732;   -0,197;   -2,773
1006,433; 3185,369;   -0,470;    0,955
1006,982; 3242,278;    2,167;    1,682
1007,531; 3166,641;    2,712;   -0,227
1008,079; 3113,823;    0,258;    0,500
1008,627; 3287,005;    1,621;    0,409
1009,176; 2991,460;    0,076;   -1,955
1009,724; 3049,641;   -2,742;    0,864
1010,273; 3092,369;    1,076;    0,500
1010,821; 3211,369;    1,076;    1,409
1011,369; 2939,641;    0,076;    1,318
1011,917; 2921,096;   -0,833;   -0,591
1012,465; 3219,914;    2,530;   -1,591
1013,013; 3341,096;    0,439;   -1,682
1013,561; 3187,096;   -1,288;   -0,773
1014,109; 3229,278;   -0,833;    1,682
1014,657; 3116,005;    1,348;    0,591
1015,205; 3231,369;    0,894;   -0,955
1015,753; 3290,641;    0,258;   -1,409
1016,301; 3323,914;    2,621;    3,045
1016,848; 3328,551;    2,167;    0,409
1017,396; 3353,914;    1,621;    0,045
1017,944; 3477,460;    2,621;    1,864
1018,491; 3236,732;   -0,197;    1,409
1019,039; 3384,732;   -0,652;    0,591
1019,586; 3304,641;    0,076;    1,682
1020,134; 3401,914;    0,712;    1,500
1020,681; 3394,823;    2,894;   -1,136
1021,228; 3425,732;   -0,561;   -2,227
1021,776; 3276,823;   -0,833;   -1,136
1022,323; 3475,187;    0,803;    0,773
1022,870; 3424,096;   -0,470;   -0,045
1023,417; 3314,641;    2,076;    1,864
1023,964; 3469,187;    0,621;    1,227
1024,511; 3301,732;   -0,652;    0,773
1025,058; 3066,641;    0,439;   -0,045
1025,605; 3137,551;   -1,742;    3,136
1026,152; 3343,732;   -0,106;   -0,591
1026,699; 3068,551;    0,167;    1,318
1027,245; 3244,096;    2,439;    0,318
1027,792; 3514,187;    0,712;    1,409
1028,339; 3343,914;    4,076;   -0,045
1028,885; 3197,187;    3,621;   -0,227
1029,432; 3133,096;   -0,106;    0,227
1029,978; 3185,551;    1,348;   -1,591
1030,525; 3090,551;    1,621;    0,409
1031,071; 3354,096;    0,348;    1,136
1031,618; 3455,641;    1,258;    1,682
1032,164; 3244,641;    2,076;    3,045
1032,710; 3284,641;    0,076;   -1,500
1033,256; 3217,551;    0,712;   -0,136
1033,803; 3190,005;   -0,288;    1,500
1034,349; 2909,096;    1,803;    0,136
1034,895; 3074,187;    2,621;   -0,318
1035,441; 3055,096;    0,439;    0,318
1035,987; 3065,732;   -2,288;   -0,682
1036,533; 3060,369;   -0,197;   -0,955
1037,078; 3263,278;    4,712;    1,682
1037,624; 3089,823;    2,439;   -0,955
1038,170; 3111,551;    1,712;   -0,318
1038,716; 2992,278;    2,167;   -0,409
1039,261; 2911,278;    2,167;   -0,773
1039,807; 2844,823;   -0,015;    3,409
1040,352; 2903,732;   -1,288;   -0,318
1040,898; 2963,823;    0,167;   -0,682
1041,443; 2887,641;    0,803;   -2,591
1041,989; 2891,005;    3,621;    1,591
1042,534; 2754,278;    0,985;    2,591
1043,079; 2906,460;    1,985;    0,955
1043,625; 2666,551;    0,258;    0,500
1044,170; 2714,187;    2,439;    1,045
1044,715; 2965,096;    0,167;    0,955
1045,260; 2783,732;   -0,833;   -0,955
1045,805; 2849,914;    0,258;   -0,591
1046,350; 2793,187;    0,530;   -0,409
1046,895; 2743,732;    0,803;    1,591
1047,440; 2673,187;    1,530;    0,409
1047,985; 2586,914;   -1,197;   -0,955
1048,530; 2515,369;    1,348;    1,227
1049,074; 2563,732;    2,803;    0,318
1049,619; 2542,551;   -0,924;    1,955
1050,164; 2330,460;    1,076;    0,227
1050,708; 2388,914;    2,621;    0,045
1051,253; 2743,732;    3,258;   -2,227
1051,797; 2462,914;   -0,197;   -1,318
1052,342; 2494,096;    1,348;    1,045
1052,886; 2467,460;    1,803;   -1,409
1053,430; 2357,096;    2,167;    0,136
1053,975; 2375,005;    0,894;   -0,318
1054,519; 2343,005;    1,803;    3,227
1055,063; 2353,187;    3,621;    1,318
1055,607; 2238,096;    1,348;    0,227
1056,151; 2263,551;    0,530;    1,682
1056,695; 2190,641;   -1,833;   -1,136
1057,239; 2255,823;   -1,197;   -0,682
1057,783; 2253,278;    2,258;   -1,500
1058,327; 2203,005;    3,076;    1,409
1058,871; 2425,187;    3,985;    1,318
1059,415; 2133,551;   -0,561;   -0,045
1059,958; 2368,096;    2,985;    2,591
1060,502; 2114,460;    1,348;   -0,773
1061,046; 2030,732;    1,712;   -0,955
1061,589; 1998,551;    2,803;   -1,136
1062,133; 1878,732;    0,985;    1,864
1062,676; 1816,641;    1,439;    0,864
1063,220; 1824,369;    0,985;    0,500
1063,763; 1846,460;    2,985;    1,136
1064,306; 1905,914;    0,985;    1,864
1064,849; 1807,641;    2,076;    0,591
1065,393; 1809,187;    2,894;   -1,500
1065,936; 1926,732;    2,530;   -0,409
1066,479; 1815,096;    2,621;    1,318
1067,022; 1848,460;    1,894;   -0,227
1067,565; 1736,005;   -1,197;   -1,318
1068,108; 1760,551;    1,258;   -0,591
1068,651; 1742,551;   -2,470;    1,409
1069,194; 1664,460;   -1,106;   -1,682
1069,736; 1659,641;    3,803;    0,955
1070,279; 1659,096;   -1,652;   -0,500
1070,822; 1696,096;    1,530;   -0,318
1071,364; 1758,551;    0,530;    1,318
1071,907; 1577,187;    0,348;    3,227
1072,450; 1513,823;    0,258;   -0,045
1072,992; 1504,914;   -0,561;    3,136
1073,535; 1622,551;    0,167;    2,136
1074,077; 1428,005;    2,985;    2,045
1074,619; 1388,096;    0,985;    0,591
1075,161; 1417,278;   -0,561;    1,500
1075,704; 1611,641;    0,258;    1,227
1076,246; 1416,732;    1,530;    0,682
1076,788; 1338,460;   -1,015;    1,773
1077,330; 1417,823;   -2,106;    2,136
1077,872; 1373,914;   -1,924;    0,955
1078,414; 1595,096;    3,712;    0,773
1078,956; 1315,551;    0,167;   -0,227
1079,498; 1564,551;    0,439;    0,318
1080,040; 1260,460;    0,985;   -1,318
1080,581; 1230,823;    0,621;   -0,318
1081,123; 1157,369;   -0,106;   -0,773
1081,665; 1208,460;    3,803;   -0,955
1082,206; 1491,187;    3,258;   -0,500
1082,748; 1361,278;    3,258;    2,045
1083,289; 1251,369;    0,167;    1,318
1083,831; 1150,278;    0,258;    0,227
1084,372; 1182,460;    0,894;    0,591
1084,913; 1180,278;    3,348;    0,864
1085,455; 1149,096;    1,530;   -2,045
1085,996; 1132,187;    0,530;    0,136
1086,537; 1142,641;    0,985;    0,864
1087,078; 1169,460;    0,439;   -2,136
1087,619; 1205,187;   -1,652;    0,227
1088,160; 1123,914;    1,439;    1,318
1088,701; 1119,278;   -0,742;    0,682
1089,242; 1057,914;   -0,561;   -2,227
1089,783; 1142,732;   -0,561;    1,409
1090,324; 1113,369;   -0,833;    0,682
1090,865;  992,732;   -1,924;   -0,409
1091,405;  990,005;   -0,561;    2,227
1091,946; 1017,005;   -0,197;   -0,955
1092,487;  940,732;   -1,288;   -1,409
1093,027; 1091,460;    1,803;   -1,500
1093,568;  948,005;    2,258;    1,227
1094,108; 1023,005;    0,621;    1,773
1094,649;  973,278;   -0,470;    0,136
1095,189;  915,823;    1,167;   -0,682
1095,729;  860,096;    0,712;    0,955
1096,269;  882,823;    1,258;   -0,955
1096,810; 1186,369;   -0,197;    0,500
1097,350; 1000,278;   -0,561;   -0,773
1097,890;  914,823;    2,985;    1,227
1098,430; 1155,187;    4,985;    2,864
1098,970; 1033,732;    1,894;    1,682
1099,510;  899,278;   -0,833;   -2,318
1100,050;  825,369;    0,258;   -1,591
1100,589;  795,732;    0,076;   -0,318
1101,129;  912,641;    0,894;   -0,955
1101,669; 1042,460;    2,803;    2,136
1102,209;  878,641;    1,530;    2,227
1102,748;  835,823;    3,439;    0,955
1103,288;  823,278;    0,712;   -1,227
1103,827;  852,187;    3,530;   -2,227
1104,367;  736,460;    1,712;   -2,409
1104,906;  703,096;   -1,015;   -1,136
1105,445;  772,460;    0,985;   -1,136
1105,985;  704,732;   -0,652;    1,500
1106,524;  753,823;    1,530;   -0,682
1107,063;  729,551;    1,167;    1,409
1107,602;  713,369;    1,894;   -1,500
1108,141;  631,732;    1,621;    1,500
1108,680;  720,278;    3,985;   -0,591
1109,219;  671,914;    0,167;   -0,500
1109,758;  676,914;    4,167;    0,682
1110,297;  653,551;   -1,106;   -0,682
1110,836;  587,641;    1,439;    0,955
1111,375;  744,096;    0,348;    0,409
1111,913;  755,641;    0,985;    0,773
1112,452;  699,551;    0,894;    0,136
1112,991;  583,187;    1,076;    1,955
1113,529;  544,732;    0,167;   -0,045
1114,068;  608,187;    0,439;    2,955
1114,606;  509,551;   -0,561;   -0,955
1115,144;  666,096;    1,530;    1,045
1115,683;  609,551;    1,985;    0,318
1116,221;  656,096;    2,076;   -0,864
1116,759;  577,278;    1,621;   -0,864
1117,297;  757,005;    1,621;    1,864
1117,836;  570,732;    1,985;   -1,227
1118,374;  559,096;    0,258;   -0,682
1118,912;  519,187;    0,439;    2,682
1119,450;  505,914;    0,985;    0,864
1119,988;  556,369;    3,348;    2,136
1120,525; 1001,369;    7,258;    3,318
1121,063;  704,005;    0,530;    1,864
1121,601;  514,641;    1,076;   -1,227
1122,139;  476,460;    1,076;   -2,045
1122,676;  663,460;   -1,652;    2,773
1123,214;  600,460;    0,712;    4,409
1123,751;  417,187;    0,621;    2,227
1124,289;  540,823;    0,894;   -0,409
1124,826;  416,187;   -0,379;    0,227
1125,364;  348,187;    0,712;   -0,955
1125,901;  524,278;    6,258;    1,227
1126,438;  618,096;    3,530;    0,955
1126,975;  357,096;    2,985;   -0,773
1127,513;  422,369;    2,621;    2,136
1128,050;  347,005;   -0,561;   -0,682
1128,587;  436,460;    1,348;   -0,227
1129,124;  472,641;   -0,015;    1,318
1129,661;  358,460;   -1,924;    0,227
1130,198;  507,641;    2,439;    0,773
1130,734;  443,823;   -0,379;    1,409
1131,271;  316,187;   -1,197;    0,864
1131,808;  481,914;    1,621;    3,045
1132,345;  357,096;    4,530;    0,318
1132,881;  248,732;   -0,561;   -1,864
1133,418;  378,641;    0,348;   -1,136
1133,954;  329,096;    0,712;   -2,682
1134,491;  386,551;    1,712;   -0,773
1135,027;  293,369;    2,167;    0,864
1135,564;  363,732;    1,439;    2,955
1136,100;  346,460;   -0,742;    2,136
1136,636;  248,096;   -1,015;   -1,045
1137,172;  332,369;    0,894;   -1,045
1137,708;  268,005;   -1,561;   -1,045
1138,245;  273,005;    0,803;   -1,227
1138,781;  235,096;    1,803;   -3,318
1139,317;  281,914;    1,894;   -1,409
1139,852;  267,187;    3,076;    0,136
1140,388;  387,823;    2,076;   -0,409
1140,924;  279,732;    1,076;   -2,227
1141,460;  214,641;   -0,288;    0,136
1141,996;  158,914;   -0,652;    2,682
1142,531;  197,914;    1,076;    3,318
1143,067;  403,278;    1,167;    1,045
1143,602;  455,096;    3,439;   -0,318
1144,138;  307,278;    0,803;    1,045
1144,673;  186,005;    1,621;    1,409
1145,209;  245,005;    2,894;   -0,318
1145,744;  174,369;    0,803;    0,864
1146,279;  296,369;    1,530;   -0,136
1146,815;  218,641;    1,530;   -2,682
1147,350;  256,732;   -0,924;    0,045
1147,885;  171,914;   -1,924;   -1,318
1148,420;  178,551;    2,439;    0,773
1148,955;  162,732;   -1,470;    1,864
1149,490;  179,278;   -1,106;   -1,591
1150,025;  161,278;   -1,106;   -1,773
1150,560;  264,460;   -0,288;   -0,955
1151,094;  231,914;    0,258;   -0,591
1151,629;  229,641;   -3,742;    0,864
1152,164;  177,551;   -1,288;    1,318
1152,698;  139,369;    1,258;   -0,136
1153,233;   98,278;   -1,379;   -0,682
1153,767;  139,551;   -0,288;   -2,318
1154,302;  183,460;   -0,379;    1,773
1154,836;  183,551;    0,803;   -2,136
1155,371;  238,460;    2,258;    3,682
1155,905;  185,823;    1,985;    1,682
1156,439;  154,460;    0,530;   -0,500
1156,973;  194,005;    0,439;    0,318
1157,507;  132,641;   -1,742;    0,682
1158,042;  157,641;   -0,652;    1,045
1158,576;  200,187;   -0,561;    1,773
1159,110;  190,278;    0,076;    2,409
1159,643;  163,732;   -2,470;   -0,045
1160,177;  108,278;   -2,015;    1,500

