
Integration time [ms]:   0,040
Averaging Nr. [scans]: 11
Smoothing Nr. [pixels]: 0
Data measured with spectrometer [name]: 7318044SP
Wave   ;Sample   ;Dark     ;Reference
[nm]   ;[counts] ;[counts] ;[counts] 

186,757;   34,402;   38,161;    1,318
187,357;   54,993;   26,706;    0,955
187,958;   30,613;   17,252;   -1,591
188,558;   79,626;   12,979;   -1,227
189,159;   43,476;   10,070;   -4,500
189,759;   18,655;    5,797;   -3,591
190,360;   22,628;    6,797;   -2,136
190,960;   54,849;    5,706;   -4,136
191,560;   67,572;    2,614;   -6,591
192,161;  288,982;    5,885;   -3,500
192,761;  145,753;    5,520;   -3,227
193,361;  101,267;    3,065;   -3,773
193,962;  150,792;    1,612;   -2,682
194,562;   77,152;   -0,114;   -3,955
195,162;  110,023;   -0,567;   -2,227
195,762;  254,713;    2,433;   -0,045
196,362;  201,460;    1,706;   -2,500
196,963;   79,762;    1,706;   -0,864
197,563;  153,514;    1,252;   -0,955
198,163;   99,618;   -0,111;   -0,682
198,763;  116,454;   -0,020;   -0,500
199,363;  212,367;    3,616;   -0,500
199,963;  181,603;    2,162;    0,409
200,563;  154,534;    6,344;   -1,409
201,163;  132,493;    5,435;   -0,227
201,763;  214,780;    1,435;    0,318
202,363;  154,385;    0,980;    1,500
202,963;  257,913;    1,526;    1,045
203,563;  367,259;    0,344;    0,500
204,162;  219,538;    1,889;   -1,864
204,762;  204,633;    2,071;    0,591
205,362;  173,422;    0,708;    1,955
205,962;  273,332;    3,435;    1,955
206,562;  266,999;    1,889;    2,318
207,161;  243,833;    1,708;    0,318
207,761;  398,931;    4,435;    2,409
208,361;  257,678;    1,889;    1,409
208,960;  352,514;    2,889;    1,500
209,560;  426,479;    0,435;    1,591
210,160;  406,956;    5,071;    1,864
210,759;  371,917;    0,708;    1,227
211,359;  367,618;   -0,474;    1,045
211,958;  627,983;    3,526;    2,045
212,558;  703,473;    0,799;    1,864
213,157;  541,836;   -0,929;    1,500
213,757;  961,128;    5,617;   -0,227
214,356;  664,851;    1,708;   -0,409
214,956;  983,348;    3,526;    0,409
215,555;  636,840;    0,617;    2,136
216,154;  570,955;   -0,292;   -0,591
216,754;  566,179;    1,253;    0,773
217,353;  686,143;   -0,383;   -1,045
217,952;  559,375;    2,072;    0,318
218,552;  788,536;    0,254;   -0,773
219,151;  671,124;   -1,110;    0,955
219,750;  672,044;    0,890;   -0,227
220,349;  751,043;   -2,292;    1,045
220,948;  853,021;    1,163;    1,136
221,548;  835,298;    0,617;    1,227
222,147;  945,427;   -1,292;   -0,409
222,746; 1225,357;    1,254;   -0,955
223,345; 1102,525;   -1,019;    0,500
223,944; 1099,083;    1,163;    0,773
224,543; 1234,084;    4,072;   -1,409
225,142; 1352,262;    1,345;    0,136
225,741; 1254,731;    1,163;    1,045
226,340; 1272,376;    1,254;   -0,955
226,939; 1689,742;    2,708;   -0,136
227,538; 1604,454;    1,163;   -0,773
228,137; 1779,705;    0,435;    0,864
228,735; 1867,544;    0,435;    1,227
229,334; 1637,587;   -0,474;   -0,227
229,933; 2023,046;    0,799;    0,591
230,532; 2126,844;   -1,201;   -0,409
231,131; 2187,035;    1,253;    0,318
231,729; 2271,424;    1,163;   -2,318
232,328; 2354,827;    0,435;   -1,500
232,927; 2409,684;    4,526;   -0,500
233,525; 2510,459;    0,981;    0,045
234,124; 2697,366;    1,890;   -1,591
234,723; 2723,379;    1,617;   -1,045
235,321; 2852,564;    1,163;    0,136
235,920; 3023,857;    2,526;   -1,227
236,518; 3300,042;    1,072;    0,318
237,117; 3447,618;    2,890;   -0,227
237,715; 3583,088;    1,163;   -0,500
238,314; 3609,690;    1,708;   -2,318
238,912; 3728,531;    0,526;   -1,409
239,510; 3746,888;    1,162;   -1,227
240,109; 3921,239;   -0,474;    3,773
240,707; 3935,656;   -0,474;    1,227
241,305; 4261,259;   -0,383;    0,136
241,904; 4414,987;   -0,292;   -2,045
242,502; 4382,923;    3,253;   -0,227
243,100; 4357,403;    3,344;   -0,955
243,698; 4593,600;    2,799;    1,682
244,297; 4730,293;   -0,656;    0,682
244,895; 4605,425;   -0,474;   -2,318
245,493; 4894,918;    2,981;   -0,591
246,091; 4914,343;    5,163;   -1,318
246,689; 4859,000;    2,163;    0,591
247,287; 5023,271;   -0,019;   -1,136
247,885; 5271,213;   -1,019;    1,227
248,483; 5354,723;   -0,201;   -0,500
249,081; 5449,335;    0,981;    1,591
249,679; 5598,625;   -1,019;    1,682
250,277; 5850,088;   -2,292;    0,864
250,875; 5821,836;    0,617;   -1,045
251,473; 5839,529;   -0,019;    0,500
252,071; 6038,723;   -0,383;    1,045
252,669; 6164,811;   -1,565;    0,318
253,267; 6406,913;    1,618;    0,773
253,864; 6367,180;    0,617;    0,682
254,462; 6249,004;    1,526;    1,591
255,060; 6184,291;    0,072;    1,318
255,658; 6467,720;   -3,292;   -0,136
256,255; 6863,292;   -0,201;   -2,045
256,853; 6697,577;    2,345;    1,409
257,451; 6714,778;    1,981;    1,864
258,048; 6984,429;    2,072;    1,864
258,646; 6749,206;    0,436;   -1,045
259,243; 6939,213;    2,981;    2,227
259,841; 6979,766;    1,799;    0,318
260,438; 6862,442;    0,254;    0,864
261,036; 7501,931;    0,617;    1,409
261,633; 7459,950;    1,526;    2,227
262,231; 7171,443;   -0,110;   -0,045
262,828; 7286,351;   -0,383;    1,136
263,425; 7308,835;   -1,928;   -0,591
264,023; 7571,745;    1,436;    0,045
264,620; 7107,521;    1,526;   -0,318
265,217; 7458,699;    2,890;    3,136
265,815; 7598,014;    2,527;    2,136
266,412; 7387,747;    0,072;    0,136
267,009; 7418,800;    0,526;    0,773
267,606; 7335,388;    0,345;   -0,955
268,203; 7313,143;   -0,383;   -0,591
268,801; 7562,219;   -0,474;    0,591
269,398; 7827,537;   -0,564;    2,500
269,995; 7798,988;    0,890;    1,591
270,592; 7602,883;    0,799;   -0,500
271,189; 7813,833;    1,981;    0,409
271,786; 7916,019;    2,072;    1,227
272,383; 7777,253;   -0,383;    0,227
272,980; 7923,370;    1,617;    0,318
273,577; 8346,408;    2,162;    1,227
274,174; 7936,074;    1,435;    2,591
274,771; 7919,265;    1,890;   -0,773
275,367; 8072,065;    3,253;    1,409
275,964; 8035,132;   -0,565;   -0,500
276,561; 8133,657;   -2,474;   -1,045
277,158; 8324,170;    1,799;   -1,773
277,755; 8447,972;   -0,110;    0,409
278,351; 7876,137;    0,436;   -1,500
278,948; 8145,515;   -0,201;    0,045
279,545; 8144,518;    0,527;    2,318
280,141; 8735,135;    1,254;   -2,045
280,738; 8580,489;    2,435;   -0,136
281,334; 8804,537;   -0,383;    0,591
281,931; 8240,910;    2,890;   -1,318
282,528; 8335,584;    4,072;   -0,500
283,124; 9023,185;    3,345;   -0,500
283,721; 8890,176;    0,709;    1,409
284,317; 8712,844;    0,163;    2,500
284,913; 9234,928;   -0,110;    0,591
285,510; 9407,292;    2,890;   -0,318
286,106; 9410,452;    2,345;   -0,955
286,703; 8992,827;    0,072;    1,955
287,299; 9209,130;    1,254;   -0,591
287,895; 9416,908;    0,890;   -1,045
288,491; 9948,810;    0,163;    2,136
289,088; 9700,415;    0,163;    2,409
289,684; 9759,720;    2,890;    1,500
290,280; 9741,562;    1,890;    0,682
290,876; 9853,792;    0,163;    5,500
291,472; 9742,011;    2,163;    2,227
292,068; 9833,773;    1,254;    0,227
292,665; 9575,948;   -0,564;    0,773
293,261; 9228,973;   -1,292;    2,136
293,857; 9605,695;    4,072;    2,136
294,453; 9518,430;   -0,928;    0,955
295,049; 9384,908;    0,253;    1,955
295,644; 9423,749;   -1,292;    0,136
296,240; 9329,902;    0,162;   -0,136
296,836; 9374,275;   -0,747;    0,318
297,432; 9619,586;    2,980;   -0,500
298,028; 9673,814;    0,435;    0,773
298,624;10053,302;    0,889;    1,864
299,220;10256,560;    0,435;    0,591
299,815; 9969,717;    0,526;   -0,409
300,411; 9720,908;    0,435;    1,773
301,007; 9750,150;    1,889;    0,227
301,602; 9788,391;    2,071;   -2,318
302,198; 9944,088;    1,435;   -0,773
302,794;10243,327;    1,526;   -0,500
303,389;10357,809;    1,071;    1,045
303,985;10438,723;    1,253;    1,409
304,580;10410,166;    0,889;    1,591
305,176;10379,339;    0,344;    0,136
305,771;10306,718;   -0,929;   -1,227
306,367;10190,366;    3,071;    0,136
306,962;10482,937;    2,889;    1,500
307,558;10213,890;    2,435;    0,136
308,153;10140,136;   -0,383;   -1,136
308,748;10369,330;    0,162;    1,682
309,344;10341,571;    0,253;   -1,318
309,939;10461,693;    2,071;   -1,318
310,534;10716,632;   -2,020;   -1,682
311,130;10649,901;   -0,656;   -2,500
311,725;10367,278;    0,526;   -0,500
312,320;10671,962;    1,253;    0,045
312,915;10576,974;    2,890;   -1,045
313,510;10651,826;    0,526;   -0,500
314,105;11121,793;   -3,565;    1,409
314,700;10514,807;   -1,656;   -1,045
315,295;10180,711;   -0,020;    0,045
315,890; 9796,070;   -0,292;    0,864
316,485;10104,327;    0,253;   -0,318
317,080;10218,349;   -0,929;    1,591
317,675;10713,305;    3,071;   -0,682
318,270;10172,710;    6,889;    3,318
318,865;10178,277;    2,435;    3,045
319,460;10015,459;   -1,565;    0,591
320,055;10212,716;   -2,565;   -1,227
320,650; 9915,070;   -1,838;   -0,591
321,244; 9972,701;    0,889;   -1,409
321,839;10843,380;    0,980;   -0,227
322,434;10732,144;   -0,111;   -1,591
323,029;10398,628;   -0,474;    1,591
323,623;10262,330;    0,798;    0,773
324,218;10049,867;    2,707;    1,409
324,812; 9988,669;    0,889;    1,591
325,407; 9820,550;   -0,929;    2,045
326,002; 9741,939;    0,526;   -0,409
326,596;10050,688;   -0,656;    1,318
327,191;10214,044;   -0,383;   -1,045
327,785; 9857,779;   -0,747;   -0,227
328,379;10068,067;   -0,383;    0,136
328,974; 9856,272;    1,798;   -3,955
329,568;10096,672;    2,889;   -2,409
330,163; 9926,882;    2,435;    1,045
330,757;10249,604;    0,253;    1,591
331,351; 9623,223;   -0,292;    0,682
331,945; 9917,439;   -0,383;    1,409
332,540; 9527,838;    1,617;   -0,591
333,134; 9689,539;    3,344;    0,773
333,728; 9908,360;    2,799;    0,318
334,322;10200,678;    0,889;   -0,864
334,916; 9543,375;    0,344;    0,955
335,510; 9872,288;   -0,111;   -0,136
336,105;10074,499;   -0,929;    1,591
336,699; 9770,411;   -1,292;    0,591
337,293; 9700,212;    1,071;    0,318
337,887; 9825,985;    0,071;    1,955
338,481; 9924,700;    2,980;    0,591
339,074;10046,941;    2,071;    2,682
339,668; 9911,660;   -0,110;    1,227
340,262;10140,814;    7,708;    3,227
340,856; 9655,686;    1,708;   -0,682
341,450; 9070,110;    0,708;    1,864
342,044; 9897,575;    1,799;    0,136
342,637; 9674,694;    1,162;   -2,136
343,231; 9500,643;   -1,474;    0,682
343,825; 9447,796;   -0,747;   -0,591
344,419; 9433,403;   -0,474;    0,500
345,012; 9282,071;    2,889;    4,045
345,606; 9286,628;   -0,656;    1,591
346,199; 9154,016;   -0,111;   -0,227
346,793; 8742,189;    2,525;    2,045
347,386; 8923,213;    0,889;   -1,136
347,980; 8897,920;   -0,838;   -0,045
348,573; 8705,506;   -1,748;    0,409
349,167; 8423,862;    6,161;    4,773
349,760; 8762,661;    2,252;    2,682
350,354; 8725,129;    1,616;    1,136
350,947; 8530,528;    2,798;    1,682
351,540; 8251,411;    0,616;   -1,409
352,134; 8191,412;   -1,111;    1,136
352,727; 8249,116;   -0,657;    1,136
353,320; 8069,239;    2,343;    0,591
353,913; 7942,136;   -1,929;    1,864
354,507; 8081,212;    0,434;   -1,227
355,100; 8149,429;    0,071;    0,864
355,693; 7442,118;    4,798;    2,409
356,286; 7467,524;    0,980;    2,773
356,879; 7801,801;   -0,475;    1,227
357,472; 7447,125;    0,980;    1,500
358,065; 7678,620;    3,161;    2,500
358,658; 7572,185;    0,798;    2,318
359,251; 7238,689;    0,252;   -0,591
359,844; 6816,501;    0,343;   -1,136
360,437; 6976,819;    0,252;    0,045
361,030; 7220,029;    0,525;   -0,682
361,623; 6852,167;    0,434;    0,318
362,215; 6870,979;    0,979;    2,045
362,808; 6738,398;   -2,293;   -1,682
363,401; 6923,312;    0,798;    0,136
363,994; 6726,296;    3,252;   -1,500
364,586; 6661,657;    0,888;   -1,500
365,179; 6794,151;   -0,203;   -1,136
365,772; 6348,514;   -0,930;    2,045
366,364; 6602,145;    1,524;   -3,227
366,957; 6812,659;    1,342;   -0,045
367,549; 6817,663;   -0,203;   -0,864
368,142; 6495,553;    0,978;   -1,500
368,734; 6683,447;    2,523;   -2,136
369,327; 6639,393;    2,341;   -0,500
369,919; 6558,428;   -1,659;    0,409
370,512; 6412,098;   -1,023;   -0,500
371,104; 6170,522;    2,704;    1,591
371,696; 6340,148;    1,703;   -0,955
372,289; 6400,361;    0,157;    1,136
372,881; 6541,899;    1,156;    1,318
373,473; 6448,676;    4,064;    1,136
374,066; 6257,612;    1,336;    0,500
374,658; 6150,777;    0,879;    1,136
375,250; 6449,893;   -1,668;   -1,409
375,842; 6306,164;   -0,124;   -0,045
376,434; 6192,044;   -2,762;   -0,409
377,026; 6710,828;   -1,855;   -2,500
377,618; 6619,221;    0,779;   -0,682
378,210; 6459,822;    3,141;   -1,955
378,802; 6328,692;    3,412;   -0,591
379,394; 6312,565;    3,411;    0,682
379,986; 6838,151;    1,138;   -0,955
380,578; 6920,717;    1,410;    0,773
381,170; 6320,607;    0,320;    0,045
381,762; 6266,345;   -0,224;    1,409
382,354; 6456,967;   -0,223;   -1,318
382,945; 6544,731;    0,870;    0,318
383,537; 6699,050;    1,144;   -1,955
384,129; 6706,184;    0,963;   -1,136
384,721; 6872,233;    0,418;    0,955
385,312; 6801,526;   -1,399;   -0,955
385,904; 6915,407;   -0,945;    1,591
386,496; 6287,032;    0,691;    1,045
387,087; 6418,680;    0,418;    2,500
387,679; 6456,473;   -0,401;    0,045
388,270; 6581,503;   -2,401;    2,045
388,862; 6696,280;   -0,401;   -0,318
389,453; 6574,127;    1,054;    1,045
390,045; 6811,649;    3,236;   -2,682
390,636; 6758,376;    0,144;   -0,591
391,227; 6613,842;    2,054;   -0,045
391,819; 6722,666;    0,781;    0,773
392,410; 6801,046;    0,600;    0,045
393,001; 6714,029;    1,600;   -1,591
393,593; 6987,645;    0,600;   -0,045
394,184; 6852,441;    0,873;   -0,409
394,775; 6750,716;    1,146;    2,136
395,366; 6960,178;    1,782;    0,773
395,957; 6905,391;   -2,400;    0,136
396,548; 7167,571;    1,054;    2,682
397,139; 7460,959;    2,236;    0,591
397,730; 7212,834;    0,873;    0,955
398,321; 7280,965;    0,509;    0,955
398,912; 7301,728;   -0,764;    0,136
399,503; 7364,794;   -1,945;   -1,409
400,094; 6876,844;   -1,582;    1,682
400,685; 6748,799;    3,600;    0,045
401,276; 6801,241;   -0,400;   -0,955
401,867; 7077,113;   -1,127;    0,773
402,458; 7165,896;    1,509;   -2,318
403,048; 7183,329;    0,146;    0,591
403,639; 6787,709;    1,509;    0,864
404,230; 7049,129;    0,691;    0,318
404,821; 6975,703;   -0,127;    0,045
405,411; 7065,256;   -0,763;   -2,591
406,002; 6694,129;    3,237;   -1,136
406,592; 6589,148;    2,691;    0,045
407,183; 6848,203;    0,328;   -1,500
407,774; 6750,363;    1,419;   -0,136
408,364; 7038,347;    2,600;    0,409
408,954; 6732,638;   -0,036;    1,227
409,545; 6780,610;    1,873;    1,045
410,135; 6337,020;   -1,581;    0,500
410,726; 6468,809;    0,783;    0,318
411,316; 6826,635;    2,237;    0,773
411,906; 6517,740;    0,146;   -0,409
412,497; 6092,361;   -0,490;   -0,045
413,087; 6617,638;    0,783;   -0,227
413,677; 6970,014;   -2,490;    3,864
414,267; 6837,075;   -1,035;    1,409
414,857; 6823,221;    0,419;    4,227
415,448; 7063,738;   -0,763;    0,500
416,038; 6789,747;   -2,945;   -0,591
416,628; 6773,441;    0,965;    0,409
417,218; 6312,577;   -1,762;    3,318
417,808; 6527,178;    0,965;   -0,409
418,398; 6941,453;   -1,035;    2,682
418,988; 6932,325;   -2,217;    0,591
419,578; 7133,592;    3,601;    1,409
420,168; 7458,062;    0,692;   -0,955
420,757; 7089,216;    0,964;   -1,500
421,347; 6784,680;    1,601;   -0,227
421,937; 6930,130;    3,329;    1,409
422,527; 6880,310;    2,602;   -0,773
423,116; 6733,225;    2,692;   -0,045
423,706; 7027,928;    2,965;    0,318
424,296; 7008,970;    1,601;    0,682
424,885; 7395,424;    1,510;   -3,045
425,475; 7617,018;    1,147;   -2,864
426,065; 7543,083;   -1,489;   -0,318
426,654; 7193,357;    0,329;   -0,318
427,244; 7324,048;    1,147;    1,409
427,833; 6809,013;    1,056;   -0,500
428,423; 7232,202;    0,147;    1,136
429,012; 7886,997;    2,420;   -1,136
429,601; 7423,816;    2,057;    0,136
430,191; 7669,114;    2,511;    4,318
430,780; 7325,136;   -1,671;   -0,409
431,369; 7266,613;    1,329;   -0,045
431,959; 7857,986;    1,693;    0,500
432,548; 7608,128;   -1,398;   -0,045
433,137; 7706,875;    0,329;   -1,318
433,726; 8181,883;    0,148;    0,500
434,315; 7642,306;    0,148;    2,409
434,905; 7732,487;    0,693;    1,409
435,494; 7663,023;    3,148;    0,955
436,083; 8066,482;    1,420;   -0,955
436,672; 7941,502;    1,148;    0,500
437,261; 7575,651;    0,512;   -1,955
437,850; 7675,839;   -1,125;    0,682
438,439; 7648,854;    2,239;    1,955
439,027; 7523,231;    3,421;    1,773
439,616; 7831,015;    2,239;    1,227
440,205; 7703,847;    0,057;   -2,136
440,794; 7697,637;   -0,306;   -0,045
441,383; 7948,178;    1,603;   -0,591
441,971; 7824,081;   -0,306;    0,591
442,560; 7683,326;    0,603;   -1,773
443,149; 7429,229;    3,060;   -1,318
443,737; 7583,113;    0,968;   -2,318
444,326; 7834,627;    0,331;    0,318
444,915; 7870,664;   -1,851;    0,864
445,503; 8195,441;    0,058;   -0,318
446,092; 7561,364;    7,876;    2,136
446,680; 8044,048;    1,876;    0,318
447,269; 8210,108;   -1,487;   -0,318
447,857; 7997,596;    2,240;   -1,773
448,445; 8092,017;    2,149;    1,318
449,034; 8306,167;    0,876;   -1,136
449,622; 8424,418;    1,240;    3,500
450,210; 7732,422;    3,149;    2,227
450,799; 8250,002;    2,604;   -0,591
451,387; 8174,129;    1,786;   -0,591
451,975; 7861,088;   -1,305;    0,864
452,563; 7937,808;    0,422;    2,318
453,151; 7960,742;   -1,032;   -1,227
453,739; 7917,947;   -1,577;    0,136
454,328; 7783,743;    0,604;   -2,136
454,916; 7520,247;    1,150;   -0,136
455,504; 7698,677;    3,513;    1,227
456,092; 7851,974;    2,150;   -1,591
456,679; 7808,342;    0,604;    0,682
457,267; 7774,103;    3,604;    1,045
457,855; 7904,191;    3,241;    1,409
458,443; 7678,594;   -0,304;    1,682
459,031; 7819,274;    1,332;    2,409
459,619; 8207,070;   -3,577;    2,864
460,206; 8301,540;   -0,759;    2,045
460,794; 8364,541;   -0,668;   -0,227
461,382; 8579,569;    0,878;   -0,864
461,970; 8206,613;    0,605;    1,864
462,557; 8211,588;    0,878;   -0,682
463,145; 8365,523;   -0,304;   -1,682
463,732; 8490,940;    2,514;   -1,045
464,320; 8469,549;    1,514;   -3,045
464,907; 8163,534;    0,423;   -0,773
465,495; 8029,681;    2,696;   -1,227
466,082; 8185,999;    2,060;   -0,045
466,670; 8069,006;    2,605;    1,227
467,257; 8459,250;    0,060;    2,045
467,844; 8641,811;    1,514;    0,045
468,432; 8625,659;   -0,031;    3,500
469,019; 8194,228;    1,606;   -1,773
469,606; 8631,542;    0,969;    3,682
470,193; 8469,124;    2,151;    0,227
470,780; 8073,620;    0,333;    0,864
471,368; 8394,628;   -1,212;   -0,773
471,955; 8213,090;    1,060;   -0,682
472,542; 7863,021;   -0,303;   -1,136
473,129; 8084,305;   -0,485;    0,136
473,716; 7850,156;    0,060;    0,591
474,303; 8017,750;    1,333;   -0,864
474,890; 8269,238;    2,333;   -0,500
475,477; 8293,759;   -0,576;    0,409
476,064; 8196,512;    0,697;   -1,591
476,650; 8103,878;    2,152;    0,318
477,237; 7969,423;    1,879;    0,955
477,824; 8134,775;    3,879;    0,864
478,411; 8145,586;    0,606;   -0,318
478,997; 8296,648;    0,606;   -0,773
479,584; 8346,720;   -0,666;   -0,409
480,171; 9009,609;    1,243;   -0,773
480,757; 8683,245;   -0,848;    0,773
481,344; 8929,362;    0,334;    0,409
481,931; 8441,814;   -0,393;    1,045
482,517; 9322,621;    0,425;    0,318
483,104; 9747,151;    1,334;    2,864
483,690; 9994,815;    0,243;    0,045
484,276;10310,739;    0,698;    0,227
484,863;10077,103;    2,152;    1,136
485,449;10587,723;    0,152;    0,318
486,035;10566,571;   -0,666;   -0,136
486,622;11002,741;   -2,393;    0,045
487,208;10915,150;    1,334;    1,500
487,794;10785,319;    0,971;    0,318
488,380;10886,423;    0,698;   -1,409
488,967;10939,238;   -1,120;   -0,409
489,553;11021,871;   -1,029;   -1,409
490,139;11183,987;    0,971;    0,773
490,725;10675,155;    0,789;   -0,227
491,311;10345,782;    1,516;    3,045
491,897; 9738,628;   -0,665;    1,500
492,483; 9622,847;    0,426;    1,227
493,069; 9474,157;    5,426;    0,864
493,655; 9423,689;    1,789;    0,682
494,241; 9344,953;    1,517;   -0,955
494,826; 9678,983;    0,335;   -1,045
495,412; 9149,552;    0,335;   -0,682
495,998; 9323,296;    0,971;   -0,318
496,584; 9418,866;    2,244;    1,045
497,169; 9372,793;    2,335;   -0,682
497,755; 9371,920;    1,244;    1,227
498,341; 9881,632;    2,153;    0,318
498,926; 9459,181;    2,881;    1,955
499,512; 9616,813;   -0,028;    2,955
500,097; 9701,529;   -0,574;   -0,318
500,683; 9648,691;   -0,028;    2,136
501,268; 9996,399;    1,881;   -0,955
501,854; 9763,032;   -0,119;    1,227
502,439; 9662,806;   -0,573;   -1,773
503,024; 9850,386;    1,608;    0,500
503,610; 9911,836;    1,335;   -0,682
504,195; 9896,810;    1,245;    1,955
504,780;10008,042;    2,335;    1,227
505,366; 9876,623;    4,063;    2,864
505,951; 9610,439;   -1,119;    1,045
506,536; 9659,406;    1,427;   -3,682
507,121; 9628,501;    1,699;   -0,318
507,706;10093,528;   -0,392;    1,045
508,291;10424,145;   -2,937;    1,136
508,876; 9931,283;   -0,482;    2,591
509,461; 9461,452;    1,427;   -0,773
510,046; 9819,196;   -0,391;    0,318
510,631;10021,827;   -0,119;   -0,773
511,216; 9732,145;   -0,664;   -0,500
511,801;10092,138;   -0,755;    2,591
512,386;10299,453;    0,972;    0,500
512,971;10244,863;    0,427;    0,955
513,555; 9853,058;    1,154;   -1,500
514,140;10547,389;    1,336;   -3,136
514,725;10513,510;    1,791;   -1,136
515,309;10653,091;    1,064;    0,318
515,894;10147,361;   -0,300;   -2,227
516,479;10547,423;    1,973;   -0,955
517,063;10396,886;    0,882;    1,227
517,648;10537,074;    0,155;   -1,136
518,232;10143,156;   -1,300;   -1,409
518,817;10478,546;    1,337;    1,682
519,401;10699,103;    0,700;    0,591
519,985;10220,908;    2,700;    1,136
520,570;10078,916;   -0,118;   -1,955
521,154;10370,416;    0,064;    0,591
521,738;10508,190;    1,064;    2,409
522,323;11051,997;   -0,390;    1,682
522,907;10776,139;    2,428;   -0,136
523,491;10554,076;    1,155;    0,955
524,075;10508,283;    0,428;    0,591
524,659;10614,664;    0,973;    0,591
525,243;10163,240;    0,883;    0,409
525,827;10368,148;    0,883;   -0,045
526,411;11092,119;    1,155;   -0,136
526,995;11234,703;    0,337;    1,409
527,579;10881,560;    1,974;   -1,045
528,163;11175,065;    0,428;   -1,500
528,747;11078,079;    1,065;   -0,773
529,331;11338,844;    0,883;   -1,409
529,915;11520,955;    2,338;    0,955
530,499;11476,205;    0,247;    1,227
531,082;11196,784;    1,065;    1,591
531,666;10700,086;    0,520;    0,773
532,250;11288,378;    0,428;    2,682
532,833;11563,441;    0,610;    2,773
533,417;11427,695;    1,247;    0,864
534,001;11405,227;    0,429;   -0,318
534,584;12030,899;    1,974;    0,500
535,168;11861,214;    3,247;    1,409
535,751;11891,725;    4,520;    0,045
536,334;11382,899;    4,520;   -0,409
536,918;11955,713;    1,974;    1,591
537,501;12017,145;    1,520;    1,318
538,085;11994,634;    1,702;    1,045
538,668;12107,114;    0,883;    2,409
539,251;12419,503;    3,156;    3,773
539,834;12424,133;    0,156;    0,773
540,418;12302,385;    3,247;    4,318
541,001;12385,712;    2,702;    1,773
541,584;12379,608;    1,429;    2,227
542,167;12077,233;    0,702;    2,955
542,750;12205,794;    0,793;   -0,773
543,333;11811,894;    1,429;    2,136
543,916;12539,471;   -0,298;    2,500
544,499;13038,783;    2,520;    0,227
545,082;13046,333;    0,248;    3,591
545,665;13160,161;   -0,207;    1,500
546,248;13420,985;    0,520;   -0,318
546,830;13114,249;   -1,752;    1,955
547,413;13479,741;    0,157;   -0,773
547,996;13979,171;    0,157;    0,500
548,579;13766,335;   -0,843;    0,955
549,161;13580,522;    0,884;    2,682
549,744;13343,231;    0,612;    0,409
550,326;13832,098;    0,885;   -1,136
550,909;13652,689;    2,339;    0,591
551,492;13984,770;    0,521;    0,227
552,074;13756,271;   -0,024;   -1,318
552,657;14259,409;    2,430;    0,045
553,239;14056,304;   -3,024;   -0,773
553,821;13975,997;   -1,570;    1,045
554,404;13498,225;   -0,024;    1,136
554,986;13845,063;    2,248;    1,045
555,568;14342,321;    0,430;   -0,955
556,151;13655,347;    4,067;   -0,227
556,733;13859,986;   -1,388;   -0,864
557,315;14260,949;    4,703;    0,500
557,897;14031,101;    0,521;   -0,500
558,479;14144,627;    1,703;    1,318
559,061;14245,087;    1,067;   -0,864
559,643;14536,631;   -0,297;    0,045
560,225;14847,599;   -0,388;    2,864
560,807;14857,722;    0,340;    0,318
561,389;14434,299;   -1,206;    2,318
561,971;15046,499;   -0,660;    2,136
562,553;14886,725;    0,613;    1,591
563,135;15011,175;    1,249;    1,136
563,717;14653,173;    3,158;    1,136
564,298;15216,258;    3,976;   -0,045
564,880;14972,239;    0,340;   -1,409
565,462;15098,784;    1,977;    1,318
566,043;16106,139;   -0,933;    2,318
566,625;15662,705;    4,067;    1,227
567,207;15487,326;    0,704;    1,682
567,788;16389,130;   -0,114;    1,500
568,370;17125,217;   -1,841;   -0,500
568,951;16881,868;   -0,569;    0,227
569,533;17617,104;    0,977;   -0,500
570,114;18019,882;   -0,296;    0,682
570,695;18428,788;   -0,478;   -1,318
571,277;18769,808;   -0,205;   -1,682
571,858;19376,678;    2,704;   -1,136
572,439;20134,110;    0,795;   -1,045
573,021;20243,472;    0,432;   -2,773
573,602;20629,473;    1,795;    0,318
574,183;21406,176;   -0,114;    2,227
574,764;21441,489;    2,068;    0,409
575,345;21831,802;    0,250;   -0,136
575,926;22373,602;    2,704;    0,136
576,507;22357,039;    2,704;   -0,227
577,088;23299,653;    1,704;    1,682
577,669;23284,411;    1,704;    1,955
578,250;23916,085;   -0,750;   -1,045
578,831;24409,528;   -0,841;   -2,227
579,412;24549,436;   -1,205;    0,955
579,993;25414,441;    1,432;    0,227
580,573;25714,989;   -0,023;   -0,955
581,154;24671,504;    1,613;   -0,591
581,735;25484,227;    0,341;    0,773
582,315;24989,136;    0,523;    2,136
582,896;25284,670;   -1,750;    1,227
583,477;24861,165;    0,614;    1,227
584,057;25005,327;    1,159;    0,955
584,638;25253,805;   -2,750;    2,318
585,218;25241,278;    2,886;    2,682
585,799;25395,106;    1,977;   -0,227
586,379;25416,653;    1,250;    1,591
586,959;24377,495;    2,613;    0,318
587,540;23844,248;    0,432;    2,227
588,120;23427,318;   -1,113;   -0,045
588,700;22573,099;    2,977;    2,136
589,281;22932,851;    1,250;   -0,955
589,861;22806,294;   -0,296;   -1,682
590,441;22632,627;   -1,477;   -2,682
591,021;21724,371;    1,432;   -2,591
591,601;21971,914;    0,431;    0,500
592,181;22038,567;   -1,296;   -0,773
592,761;21420,587;    2,250;    1,409
593,341;21398,402;    1,522;    0,045
593,921;21397,629;   -0,569;    1,591
594,501;21276,882;    1,250;    1,318
595,081;21127,240;    0,522;   -0,318
595,661;21433,622;    1,068;    0,955
596,240;21916,937;   -1,023;    0,136
596,820;21562,634;    2,613;    1,955
597,400;21633,344;    1,977;    0,773
597,980;21831,675;   -0,750;    1,045
598,559;21881,862;    0,341;   -0,227
599,139;21655,281;   -0,750;   -1,227
599,718;21501,190;    0,795;   -0,409
600,298;21797,613;   -2,387;    0,682
600,877;22025,157;    4,795;    1,409
601,457;22249,217;    0,340;    1,136
602,036;22151,572;    1,795;    2,045
602,616;22316,878;    2,250;    1,682
603,195;22585,874;    0,431;    3,500
603,774;22150,906;   -0,296;    2,045
604,354;22046,750;    2,522;   -0,500
604,933;21631,796;    0,250;    1,864
605,512;21722,209;    2,340;    0,591
606,091;21796,453;    1,886;    3,773
606,671;22538,627;    0,249;    0,773
607,250;21731,039;    1,431;    3,136
607,829;21955,796;    1,158;    3,227
608,408;21795,472;    4,613;    2,591
608,987;20956,761;    2,704;    3,409
609,566;21186,964;    0,341;   -2,500
610,145;21324,835;    2,885;    0,682
610,723;21732,956;    1,613;    6,864
611,302;21000,314;    1,067;    1,682
611,881;20582,327;    5,158;   11,227
612,460;21335,059;    0,795;    3,955
613,039;21761,594;    1,703;    2,045
613,617;20577,008;    0,886;    4,773
614,196;20735,082;    1,613;    1,227
614,775;21060,613;    1,249;    2,409
615,353;20981,912;   -1,660;    0,864
615,932;20747,644;    0,249;    2,409
616,510;21321,725;    0,158;    0,591
617,089;20894,830;    8,794;   17,591
617,667;20730,623;    4,885;    6,136
618,246;20511,536;   -1,115;    1,318
618,824;20674,973;    1,612;   -0,955
619,402;20292,498;    0,431;   -1,773
619,981;20719,681;    1,067;   -1,045
620,559;20626,665;    0,794;    1,682
621,137;20196,515;    3,067;    1,864
621,715;20178,273;    3,703;   -0,682
622,293;20094,422;    1,885;   -0,773
622,871;20584,040;    0,340;    0,500
623,450;20216,615;    0,430;   -0,864
624,028;20117,255;   -0,388;   -0,955
624,606;19732,783;    2,339;    1,682
625,183;20065,418;   -0,661;   -1,136
625,761;19784,712;    1,885;    1,136
626,339;20075,927;    2,339;    2,591
626,917;20407,881;    0,339;   -0,045
627,495;20440,205;    2,794;    1,318
628,073;19921,271;    5,248;    2,864
628,650;19643,197;    3,067;    2,136
629,228;20058,359;    1,248;    4,409
629,806;19527,428;   -0,024;    1,136
630,383;19704,762;    0,066;   -0,318
630,961;19580,360;   -2,206;   -0,955
631,539;19327,963;   -2,479;    0,227
632,116;18745,360;   12,703;   15,409
632,694;19285,629;    4,885;    6,500
633,271;19519,054;    1,975;    2,682
633,848;19478,395;    1,430;    2,045
634,426;19460,787;    1,521;    1,773
635,003;18698,703;   -0,207;   -0,409
635,580;18941,969;    1,884;    3,682
636,158;19442,175;    3,793;    1,227
636,735;19451,986;    3,339;   -0,500
637,312;19541,539;    0,521;   -0,682
637,889;19634,869;    2,248;   -0,682
638,466;19211,641;    0,066;   -0,409
639,043;19225,457;    1,702;   -1,136
639,620;19488,818;    0,611;   -0,955
640,197;19765,686;    1,612;    1,682
640,774;19923,770;    1,430;    1,136
641,351;20243,308;    0,612;    1,136
641,928;19729,755;    2,794;    1,409
642,505;19398,566;    0,794;   -0,500
643,082;19530,649;    1,885;    1,227
643,658;18669,006;    1,157;    1,500
644,235;19288,816;   -2,479;    2,500
644,812;19482,991;    1,794;    0,773
645,388;19274,893;    1,612;    1,409
645,965;19350,522;    1,521;    1,682
646,542;19431,332;    3,430;   -0,227
647,118;19430,052;    3,703;   -0,955
647,695;19661,318;    0,339;    1,136
648,271;19579,401;   -2,115;    0,500
648,848;19857,848;    0,248;    2,227
649,424;19740,750;    0,976;    1,318
650,000;19518,288;   -0,388;   -1,045
650,577;19297,281;    0,158;   -0,955
651,153;19656,183;   -1,115;    0,955
651,729;20537,539;    0,521;    0,864
652,305;20653,168;    1,339;    2,773
652,881;23974,706;   -1,297;    1,136
653,458;29386,062;    0,249;    0,227
654,034;32342,600;    0,703;    1,591
654,610;33522,775;    0,339;    0,773
655,186;34703,676;    1,612;    3,045
655,762;34385,760;   -1,842;    0,409
656,338;34436,298;    0,703;    0,136
656,913;35374,200;   -0,297;    0,409
657,489;34749,920;    0,249;   -0,318
658,065;34739,821;    0,794;   -1,591
658,641;35289,814;    2,158;   -0,864
659,217;34622,079;    2,067;    0,409
659,792;34122,981;   -1,751;   -0,409
660,368;34456,883;   -0,388;   -0,682
660,944;34418,966;    1,794;    1,227
661,519;30859,050;    0,522;    0,409
662,095;25989,861;   -0,206;    0,591
662,670;22236,853;   -0,206;   -0,136
663,246;21307,573;   -0,660;   -0,409
663,821;20725,839;    0,431;    1,682
664,396;20251,831;    0,613;    1,864
664,972;20476,460;   -0,660;   -0,500
665,547;20768,271;    3,794;    0,136
666,122;20821,991;    1,340;    0,318
666,698;20985,711;    2,431;    0,318
667,273;20405,249;    0,885;    0,136
667,848;21123,605;    0,340;    1,500
668,423;20895,961;    1,795;    2,318
668,998;21329,136;    0,976;   -0,682
669,573;21802,947;    2,067;   -1,500
670,148;21675,030;    1,885;   -0,682
670,723;21436,387;   -0,024;    0,318
671,298;21804,016;   -1,296;    1,045
671,873;21846,826;   -0,296;   -0,136
672,448;21822,728;    1,704;    0,136
673,023;22151,721;    0,249;   -0,227
673,597;22443,259;    2,704;    2,318
674,172;22255,524;    2,431;    0,318
674,747;21753,790;   -0,205;   -1,045
675,321;21574,419;   -0,933;    3,318
675,896;21223,684;    2,158;    1,045
676,471;22039,404;    2,522;    1,591
677,045;21836,306;   -0,296;    0,682
677,620;21853,116;    2,158;    1,136
678,194;22217,382;    0,249;    1,136
678,769;21827,102;    0,886;   -0,318
679,343;22046,822;   -0,023;    1,773
679,917;21909,905;    0,340;    1,955
680,492;21908,534;    0,249;    3,227
681,066;22064,072;    0,613;    0,409
681,640;22047,974;    1,795;   -0,318
682,214;22803,330;    2,340;    0,500
682,788;22358,414;    0,613;   -0,773
683,363;22255,043;    1,977;    1,682
683,937;21964,581;    0,886;   -0,318
684,511;22679,937;   -1,023;   -0,591
685,085;22415,293;   -1,478;    0,318
685,659;22187,559;    1,431;    0,864
686,232;22426,279;    1,159;   -0,318
686,806;22129,453;    2,159;    0,409
687,380;22710,900;   -1,932;    0,591
687,954;22932,620;    2,432;    1,136
688,528;22642,158;    2,613;    1,955
689,101;23384,605;    0,432;    1,045
689,675;22943,053;    0,886;   -0,136
690,249;22345,682;    3,432;    0,409
690,822;22689,947;    1,159;    0,318
691,396;22794,849;    2,068;    1,227
691,969;22309,659;    2,523;    0,136
692,543;22784,561;   -0,568;   -1,955
693,116;22452,281;   -0,659;   -1,409
693,690;22328,274;   -0,296;    0,500
694,263;22792,084;    2,341;    2,955
694,836;22800,077;    2,795;    3,591
695,410;21572,979;    1,159;    1,773
695,983;21968,062;    1,614;    0,591
696,556;21984,419;   -0,750;   -1,045
697,129;22289,866;   -1,114;    1,409
697,703;21973,404;    1,341;    1,955
698,276;21996,124;    1,705;   -0,773
698,849;21881,026;   -1,023;    1,409
699,422;22226,291;    1,250;    0,591
699,995;21967,920;   -0,659;    0,136
700,568;22347,549;   -0,204;    3,045
701,140;22339,269;   -1,841;    1,682
701,713;22135,534;    0,341;    2,409
702,286;21922,981;    0,796;    0,864
702,859;21767,065;    0,614;   -0,591
703,432;21067,148;   -0,841;    0,682
704,004;21475,414;    1,978;    0,318
704,577;21342,225;    1,068;    0,136
705,150;21884,854;    0,887;    2,500
705,722;21711,573;    1,523;   -3,227
706,295;21501,657;    1,432;   -0,591
706,867;21353,104;    0,250;    1,955
707,440;21581,824;   -0,113;   -0,409
708,012;21814,908;   -0,022;    0,591
708,584;21698,991;    2,705;    0,227
709,157;21952,166;    1,160;   -0,591
709,729;21632,976;    1,069;    2,045
710,301;22449,969;   -1,204;    0,045
710,874;22420,689;    0,341;   -0,227
711,446;21421,500;   -0,295;    0,864
712,018;21308,220;   -3,022;    0,500
712,590;21072,212;   -0,204;    1,682
713,162;21540,023;   -0,477;    1,318
713,734;21777,561;    1,796;   -2,045
714,306;21688,099;    0,342;   -0,409
714,878;20501,637;   -0,295;    0,864
715,450;21254,721;   -0,113;    0,864
716,022;21522,077;    2,433;    1,318
716,593;21665,706;    0,978;    0,591
717,165;21578,517;    1,796;   -1,227
717,737;21359,146;    0,796;    0,409
718,309;21041,048;    1,160;   -0,045
718,880;21031,949;   -1,295;   -1,409
719,452;21250,488;    0,887;   -1,591
720,024;20935,117;    1,705;   -0,591
720,595;21403,473;    2,978;    0,955
721,167;21007,284;    1,160;   -2,045
721,738;20515,276;    2,069;   -1,045
722,309;20542,814;    1,251;   -1,227
722,881;20349,716;    2,705;    0,773
723,452;20951,618;    1,251;    2,864
724,023;21111,247;    1,524;    2,682
724,595;20906,876;    2,342;    0,682
725,166;20642,232;    1,524;   -0,409
725,737;20328,407;    1,887;    0,227
726,308;20417,399;    0,797;    0,318
726,879;20776,665;    1,069;    1,227
727,450;20643,203;   -2,022;   -0,045
728,021;20642,195;    1,069;    0,682
728,592;20469,097;    1,160;    0,500
729,163;20764,999;    1,433;   -0,136
729,734;20770,264;    2,160;   -0,227
730,305;21064,984;    0,615;    0,136
730,876;21398,977;    0,888;    2,955
731,447;21108,424;    0,797;    2,682
732,017;21230,235;   -0,840;    1,864
732,588;20797,682;   -0,021;    1,227
733,159;20922,765;    3,615;   -1,045
733,729;20747,122;    1,251;    0,409
734,300;20081,569;    0,160;    0,864
734,870;20464,289;   -1,385;    0,591
735,441;20980,372;    0,888;   -0,591
736,011;20762,001;    1,070;   -1,591
736,582;20738,994;    1,251;    0,045
737,152;20192,077;    0,979;   -2,045
737,722;20625,888;    1,070;   -0,682
738,293;20358,335;   -2,021;    1,318
738,863;20285,964;    1,797;    2,318
739,433;20130,412;    4,524;    0,318
740,003;20737,131;    1,524;   -0,682
740,573;20170,851;    2,252;   -1,591
741,143;20202,389;    3,615;    0,318
741,713;20879,655;    0,252;   -0,500
742,283;20606,920;    1,706;    1,591
742,853;20384,276;    0,524;    1,591
743,423;19943,905;    0,161;    0,045
743,993;20021,989;    1,070;    1,500
744,563;19447,163;    2,524;   -0,864
745,133;19424,701;   -0,112;   -0,864
745,702;20080,149;    2,797;    1,773
746,272;19329,323;    0,434;    0,591
746,842;19123,861;   -0,748;   -0,591
747,411;19529,308;   -0,839;   -0,318
747,981;19687,665;   -0,930;    0,500
748,551;19709,112;   -0,021;   -1,045
749,120;19590,923;   -0,112;   -0,227
749,690;19952,006;    2,161;    2,409
750,259;20250,635;    0,979;    2,955
750,828;20121,628;    4,070;   -1,955
751,398;20369,530;   -0,112;   -0,045
751,967;19927,068;    2,888;    0,409
752,536;20150,242;    1,161;   -0,227
753,105;20532,144;   -1,384;    0,227
753,675;20287,136;   -0,112;    1,773
754,244;20233,220;    0,888;    3,591
754,813;20271,485;    0,979;    1,227
755,382;19850,660;    0,798;    0,955
755,951;20282,834;   -0,112;    3,682
756,520;19961,009;    2,525;    1,864
757,089;20434,638;    1,888;    0,500
757,658;20543,085;    2,434;    1,227
758,227;20564,532;   -1,111;    0,318
758,795;20813,161;   -1,021;    1,136
759,364;21035,608;    0,525;   -0,591
759,933;20108,237;    1,343;   -0,045
760,501;19725,048;    0,252;   -1,318
761,070;20141,041;   -0,293;   -1,409
761,639;20820,851;    1,434;    1,318
762,207;20164,753;    0,889;   -0,955
762,776;20083,928;    2,889;    0,864
763,344;20081,102;    0,071;    0,591
763,913;19235,913;    1,616;    1,409
764,481;19957,178;    1,980;   -0,136
765,049;19849,807;    0,616;    1,409
765,618;19700,527;    1,434;    0,318
766,186;19800,520;    2,434;    0,136
766,754;19965,876;    1,798;    1,864
767,322;19056,141;    1,162;    0,409
767,890;19051,407;    0,525;   -1,773
768,459;19411,308;    2,616;   -0,318
769,027;19572,210;    2,525;    3,409
769,595;18678,294;    2,616;    2,591
770,163;19087,014;    3,344;    2,955
770,730;18910,370;    2,525;   -0,136
771,298;18799,181;    1,162;   -1,409
771,866;18874,992;    0,253;    4,955
772,434;19158,166;    1,162;   -1,864
773,002;19325,522;    2,616;    0,682
773,569;19030,333;    1,071;    1,682
774,137;18851,235;    0,889;   -0,045
774,705;19552,046;   -0,747;   -0,136
775,272;19156,584;    0,253;    0,682
775,840;18939,940;   -0,111;    2,682
776,407;18486,114;   -0,293;    1,955
776,975;18127,562;    1,162;    0,318
777,542;19066,918;    2,162;   -0,045
778,110;18940,092;    0,707;   -0,045
778,677;18609,994;    1,071;   -0,864
779,244;18373,169;   -1,020;    1,045
779,812;18475,343;    0,980;    0,864
780,379;18348,063;    2,435;    1,136
780,946;18567,874;    2,617;   -0,773
781,513;18881,048;   -0,565;    0,318
782,080;18293,132;    1,253;    2,864
782,647;18953,852;    1,708;    3,045
783,214;18594,753;   -0,201;    3,864
783,781;18246,928;    1,708;   -0,682
784,348;18128,466;    0,253;    1,500
784,915;18575,186;   -1,474;    0,318
785,482;18371,451;    2,708;    2,591
786,049;18780,807;    1,071;   -0,591
786,615;18885,891;    1,708;   -0,955
787,182;18677,702;   -3,201;   -0,682
787,749;18358,331;   -2,201;    1,409
788,315;17750,142;    0,253;   -0,409
788,882;18040,043;    0,981;   -1,227
789,448;18678,945;    1,435;   -0,955
790,015;18675,392;    1,799;    3,227
790,581;18250,021;    0,708;    0,227
791,148;18137,832;    1,344;    1,045
791,714;18372,370;   -1,019;    3,136
792,280;18105,090;    3,708;    1,591
792,847;17725,173;   -0,928;    2,500
793,413;18199,893;   -0,110;   -0,318
793,979;17845,795;    1,526;   -1,318
794,545;17910,697;    2,981;    2,682
795,111;17414,053;    2,435;    1,318
795,678;17587,500;    3,526;   -1,682
796,244;17249,311;    2,799;    0,136
796,810;17746,031;    0,799;    0,773
797,375;17470,569;   -0,292;   -2,136
797,941;17503,925;   -1,110;    0,591
798,507;17595,645;    0,254;   -0,955
799,073;17231,274;    2,708;    0,591
799,639;17351,085;    1,435;    3,136
800,205;17371,896;   -1,565;    2,682
800,770;16977,798;    1,345;    1,773
801,336;17013,063;    2,981;   -0,955
801,901;16768,601;    6,072;    3,136
802,467;17271,685;    0,526;    2,045
803,033;16676,495;   -0,019;    0,864
803,598;16846,215;    1,072;   -1,045
804,163;16907,844;    0,708;   -0,318
804,729;16857,019;   -0,110;    1,136
805,294;17174,739;    1,072;    2,227
805,859;16992,095;    0,890;   -0,409
806,425;16595,088;    3,890;    2,682
806,990;16291,898;    1,890;    4,318
807,555;16685,982;   -0,110;    2,591
808,120;16618,338;   -1,292;   -0,409
808,685;16642,694;    1,072;   -2,500
809,250;16283,233;    2,072;   -0,500
809,815;16516,771;   -0,201;    0,682
810,380;16929,763;    0,981;    1,591
810,945;17375,665;    2,890;    2,045
811,510;16721,385;   -0,200;    1,591
812,075;16428,196;    2,800;   -1,409
812,640;16501,825;    3,709;    1,409
813,204;16551,363;    2,163;   -0,227
813,769;17008,265;    0,254;   -0,045
814,334;16508,075;    0,527;    0,864
814,898;16586,704;    1,981;    0,591
815,463;16367,515;    0,981;   -0,773
816,027;16388,871;    1,345;   -2,318
816,592;16493,500;    2,163;   -2,045
817,156;16072,584;   -2,200;    1,136
817,721;15938,304;    0,982;    2,318
818,285;15932,024;    0,618;    1,500
818,849;16520,835;   -0,018;    1,682
819,414;16401,282;    0,073;    2,955
819,978;16050,638;   -0,291;    1,773
820,542;16541,631;    2,891;    0,500
821,106;16365,714;    2,800;    0,682
821,670;16417,434;    2,709;    2,591
822,234;16163,245;    1,073;    1,409
822,798;15655,328;   -0,836;    0,500
823,362;15650,867;    1,527;    4,227
823,926;15092,677;   -0,018;    1,136
824,490;15251,488;    3,527;   -0,682
825,054;15634,572;    2,527;   -1,136
825,618;15382,292;   -1,200;   -1,500
826,181;15343,921;    0,982;   -1,318
826,745;15212,368;   -0,745;   -1,045
827,309;15497,360;    2,255;    1,318
827,872;15062,080;    0,527;    0,955
828,436;15900,528;    1,982;   -0,773
828,999;15995,157;    2,436;    1,227
829,563;14984,604;   -0,654;    1,136
830,126;14795,324;   -0,018;   -0,591
830,690;14833,225;    0,709;    2,864
831,253;14383,945;   -0,473;    2,227
831,816;14510,574;   -0,018;    0,500
832,380;14461,930;    1,164;    0,864
832,943;14682,287;    3,073;   -0,500
833,506;14226,643;    0,255;   -1,227
834,069;14916,908;    2,164;   -0,955
834,632;14979,810;   -2,200;    1,318
835,195;14882,621;    1,346;    0,955
835,758;14198,977;    0,709;    1,955
836,321;14085,243;    1,073;   -1,045
836,884;14195,508;   -1,291;   -0,955
837,447;14218,682;    0,528;    1,773
838,010;14460,220;    1,800;    3,227
838,573;14746,940;    0,528;    0,773
839,135;14715,206;   -0,109;   -0,955
839,698;14218,289;    2,528;    0,409
840,261;13785,736;    0,255;   -0,227
840,823;13680,184;   -0,927;    0,864
841,386;13924,631;   -0,018;   -2,409
841,948;13879,805;    0,255;    1,773
842,511;13636,161;    0,255;    1,682
843,073;13714,518;    2,982;    0,227
843,636;13545,783;    0,619;   -0,227
844,198;13467,867;    1,255;    0,591
844,760;13591,405;    0,619;    1,955
845,322;13290,306;    0,164;    1,136
845,885;13661,935;   -0,290;    0,591
846,447;14094,019;    0,710;    0,227
847,009;13737,557;    3,983;   -0,682
847,571;13975,004;    1,346;   -2,045
848,133;14067,633;   -0,199;   -1,864
848,695;13889,444;    2,346;    1,409
849,257;13505,073;    1,346;   -1,682
849,819;13694,066;    2,983;   -0,409
850,381;13720,331;    1,801;   -0,864
850,942;14011,506;    1,892;   -0,591
851,504;13930,044;    0,983;    0,227
852,066;13941,309;    1,619;   -1,591
852,628;13597,756;    0,165;    1,955
853,189;13184,567;    0,256;    2,682
853,751;13299,923;   -0,654;    1,409
854,312;13119,007;    1,256;   -1,682
854,874;13573,545;   -0,108;   -0,773
855,435;13980,537;    0,528;   -1,682
855,997;14152,076;    3,983;   -0,136
856,558;13512,614;    0,801;    1,773
857,119;13587,697;   -0,744;    2,864
857,681;13345,053;   -0,108;    0,318
858,242;13373,410;    1,347;   -2,136
858,803;13779,584;    1,074;   -0,773
859,364;14284,940;    0,892;   -4,773
859,925;13732,388;   -0,290;   -0,955
860,486;13611,289;    0,529;   -0,955
861,047;13371,918;    0,165;   -1,227
861,608;13248,002;    0,165;   -0,773
862,169;13421,358;   -0,562;   -0,045
862,730;13161,896;   -0,290;    1,409
863,291;13375,343;    0,438;   -0,500
863,852;13695,245;   -0,926;    1,955
864,412;13229,238;   -1,835;   -0,864
864,973;11950,776;    1,892;    0,500
865,534;11889,041;    2,074;    0,227
866,094;13188,307;    2,620;    0,227
866,655;12896,117;    4,711;    3,318
867,215;13161,292;    0,074;    0,136
867,776;13031,557;   -1,199;   -0,136
868,336;13138,277;    1,529;    0,136
868,897;12723,361;    3,438;    1,682
869,457;12465,171;    3,256;    0,318
870,017;12707,164;    2,438;   -1,227
870,578;13134,066;    1,893;    0,773
871,138;12810,422;    2,620;   -0,955
871,698;12401,960;   -0,562;   -1,318
872,258;12285,316;    0,711;   -2,864
872,818;12658,855;    2,347;    0,045
873,378;12633,029;   -2,198;    1,045
873,938;12239,203;    4,984;    0,500
874,498;12503,832;    1,256;   -1,955
875,058;12412,007;    4,347;    1,773
875,618;12283,000;    1,438;   -2,682
876,177;12231,719;   -0,471;    0,136
876,737;11862,258;   -0,289;    1,955
877,297;11923,887;    2,711;    1,955
877,856;11932,516;    2,529;    0,318
878,416;11924,145;    2,438;   -0,136
878,976;12096,228;    3,438;    0,409
879,535;12275,493;    4,529;    3,136
880,095;12078,668;    1,347;    0,045
880,654;12156,206;    0,347;    1,318
881,213;12260,199;    2,347;    1,500
881,773;11928,646;    1,984;    2,682
882,332;12271,184;    6,075;    5,136
882,891;12098,995;    0,711;    2,136
883,451;12480,442;   -2,016;    1,682
884,010;12003,162;   -1,107;   -0,409
884,569;12083,700;   -2,289;   -0,045
885,128;12222,329;   -0,743;   -1,864
885,687;12279,776;   -0,743;    0,682
886,246;12034,860;    2,620;    2,136
886,805;11808,852;    1,620;    2,045
887,364;12034,118;    1,166;   -0,500
887,922;12360,201;   -0,016;    0,045
888,481;11856,921;    1,530;    0,591
889,040;12180,277;    3,711;    2,136
889,599;12718,543;    2,166;    1,409
890,157;12797,172;    2,166;    2,409
890,716;12427,346;    2,166;    0,227
891,274;12240,066;    0,075;   -1,136
891,833;12607,786;    1,166;    0,864
892,391;12482,415;    1,802;    0,500
892,950;12594,771;    0,166;   -0,773
893,508;12902,127;    0,984;   -0,409
894,067;12291,120;   -0,379;    0,136
894,625;12236,294;   -1,016;   -1,500
895,183;12417,742;   -0,198;   -0,682
895,741;12381,462;    2,257;   -1,773
896,299;12209,909;    1,621;   -2,409
896,858;12376,447;    1,530;   -1,591
897,416;12523,167;    0,166;   -1,318
897,974;12307,159;   -2,197;    0,318
898,532;12464,970;    6,530;    2,682
899,089;12324,236;    0,621;   -0,682
899,647;12409,410;    0,530;    1,318
900,205;12202,766;    0,257;    1,045
900,763;12378,032;    2,166;    0,227
901,321;12401,842;    3,530;   -1,409
901,878;11913,653;    3,257;   -0,773
902,436;11788,464;    0,257;    1,318
902,994;12189,729;    6,712;    3,682
903,551;11721,086;    1,439;    0,409
904,109;12063,260;    1,530;   -1,409
904,666;11719,616;    1,439;    1,045
905,224;11595,700;    3,894;   -0,409
905,781;11381,511;   -0,470;   -0,318
906,338;11394,140;    0,167;    1,045
906,895;11381,041;    1,894;    2,045
907,453;11318,307;    2,348;    1,136
908,010;11350,663;    3,348;    0,409
908,567;11049,747;   -0,561;    0,591
909,124;10613,194;    2,439;   -1,500
909,681;10658,005;   -1,288;    0,682
910,238;10875,634;   -0,106;   -1,318
910,795;11177,263;   -1,561;   -1,136
911,352;10793,990;   -0,379;   -2,682
911,909;10334,444;    2,803;   -0,864
912,466;10789,626;    1,985;    1,500
913,022;10374,990;   -0,924;    0,500
913,579;10723,081;   -0,470;    2,045
914,136;10508,354;   -2,561;    0,955
914,692;10783,717;    1,530;   -1,227
915,249;10430,535;    0,530;    0,409
915,806;10612,081;    1,803;    1,955
916,362;10459,081;    0,894;    1,864
916,918;10069,717;    2,439;    1,045
917,475;10082,626;    1,621;    0,955
918,031;10125,626;    0,076;   -0,045
918,587; 9681,808;    0,621;   -0,318
919,144; 9927,354;   -0,379;    0,227
919,700;10118,808;    0,167;    0,773
920,256; 9767,626;    0,439;    0,045
920,812; 9494,899;    1,439;   -1,045
921,368; 9552,354;    1,348;   -1,045
921,924; 9251,354;    0,439;   -0,136
922,480; 8851,444;    0,076;    1,227
923,036; 9428,444;   -0,652;    1,955
923,592; 9406,172;    0,621;    0,318
924,148; 9325,172;    1,894;   -0,955
924,704; 8788,444;    0,258;   -0,409
925,259; 9081,899;   -0,561;    0,591
925,815; 8865,081;    3,803;    0,500
926,371; 8471,535;    3,530;    1,409
926,926; 8380,444;    1,621;    0,591
927,482; 8078,535;    1,621;    0,773
928,037; 7996,354;   -0,833;    2,045
928,593; 8290,444;    0,258;    1,045
929,148; 8153,263;    1,167;   -1,500
929,704; 7733,626;    2,439;   -0,500
930,259; 7928,172;    0,894;   -0,136
930,814; 7221,535;    1,803;    1,955
931,369; 6974,354;    0,258;   -0,773
931,925; 6875,444;   -1,924;    0,136
932,480; 6823,172;    3,076;   -2,591
933,035; 6803,172;    3,985;   -0,318
933,590; 6599,444;   -1,742;   -1,773
934,145; 6336,899;   -1,288;   -0,318
934,700; 6635,899;    0,348;   -0,591
935,255; 6487,081;    4,803;    0,045
935,809; 5985,081;    6,258;    0,864
936,364; 5265,535;    2,167;   -0,136
936,919; 5296,535;    2,348;   -1,773
937,474; 5227,808;    1,348;    0,136
938,028; 5062,717;    3,076;    1,136
938,583; 4698,990;    6,348;    4,682
939,138; 4918,717;    0,167;    2,136
939,692; 4478,990;   -1,015;   -1,136
940,247; 4264,717;    1,167;   -1,045
940,801; 3982,172;    0,621;    0,227
941,355; 3886,717;    0,439;    2,591
941,910; 3603,717;    0,712;   -2,136
942,464; 3717,717;    2,712;   -0,318
943,018; 3642,444;    3,258;   -0,227
943,572; 3571,808;    2,803;   -0,682
944,126; 3152,899;   -0,924;   -0,409
944,681; 3044,172;    0,712;    0,227
945,235; 3011,172;    2,167;   -0,591
945,789; 2961,535;    1,258;   -1,864
946,342; 3140,626;   -0,561;   -0,591
946,896; 2916,444;    0,348;    0,955
947,450; 2702,444;   -0,561;   -0,227
948,004; 2950,354;    1,076;   -0,045
948,558; 2906,354;    1,258;   -0,864
949,111; 2825,990;   -1,197;   -0,318
949,665; 2952,626;   -0,106;   -0,682
950,219; 2840,899;    0,621;   -1,045
950,772; 2873,354;    0,258;    1,864
951,326; 2812,354;   -1,106;   -0,955
951,879; 2840,354;    1,076;   -2,318
952,433; 2891,990;    1,348;    2,227
952,986; 2702,626;    0,348;    0,682
953,539; 2654,263;    1,530;    0,591
954,093; 2636,172;    0,985;   -1,318
954,646; 2780,626;   -0,288;    1,318
955,199; 2587,354;    1,258;   -0,500
955,752; 2581,808;    1,985;    1,773
956,305; 2489,808;    0,894;    2,955
956,858; 2636,172;    0,621;   -0,318
957,411; 2780,535;    3,621;    2,136
957,964; 2615,808;    2,076;    2,136
958,517; 2581,626;    0,985;    3,136
959,070; 2447,444;   -1,197;    1,955
959,623; 2634,535;    1,076;    1,500
960,176; 2425,535;    0,712;    2,045
960,728; 2396,081;    1,712;    0,773
961,281; 2453,081;    2,258;    0,500
961,834; 2455,444;   -0,833;    0,864
962,386; 2387,626;    1,258;    1,045
962,939; 2314,535;    3,439;   -0,318
963,491; 2439,626;    2,621;    1,136
964,043; 2332,717;    0,076;    2,409
964,596; 2478,808;    1,712;    2,227
965,148; 2318,444;   -0,379;    1,773
965,700; 2250,444;   -0,015;   -0,227
966,253; 2391,717;   -0,833;    0,318
966,805; 2272,172;    1,894;    0,773
967,357; 2287,263;    0,439;   -1,500
967,909; 2285,354;    1,167;   -1,227
968,461; 2322,535;    0,894;    3,136
969,013; 2262,172;   -1,561;   -0,864
969,565; 2355,535;    1,803;   -1,136
970,117; 2554,444;    3,803;    1,045
970,669; 2307,626;    3,258;   -0,136
971,220; 2130,354;    2,167;   -1,500
971,772; 2090,354;    1,348;   -0,318
972,324; 2225,444;   -1,197;   -0,500
972,876; 2156,172;    0,167;   -0,045
973,427; 2306,535;   -1,197;   -1,045
973,979; 2290,263;    0,076;   -2,500
974,530; 2250,172;    0,803;    1,318
975,082; 2253,444;    2,167;    1,682
975,633; 2192,717;    2,894;    1,682
976,184; 2315,444;    2,076;    0,773
976,736; 2178,808;    0,348;    0,227
977,287; 2038,172;    0,258;   -0,500
977,838; 2172,990;   -0,924;   -0,318
978,389; 2200,717;    0,803;   -0,500
978,940; 2056,444;    1,258;   -0,409
979,491; 2081,354;    2,258;   -0,500
980,042; 2080,081;   -0,652;    3,045
980,593; 2111,990;    1,894;    0,227
981,144; 2215,263;    3,530;   -0,500
981,695; 2226,626;   -0,470;    1,500
982,246; 2158,444;   -1,833;    1,045
982,797; 2206,535;   -0,561;    0,682
983,347; 2336,444;    2,167;    0,591
983,898; 2520,354;    4,167;    0,409
984,449; 2387,899;    2,530;    0,773
984,999; 2217,354;    1,894;   -1,136
985,550; 2089,899;    3,167;   -0,318
986,100; 2054,354;    0,712;   -0,318
986,651; 2077,081;    0,258;    0,045
987,201; 2083,444;    0,894;   -0,591
987,751; 2131,990;   -0,288;    2,864
988,302; 2142,172;   -0,379;    1,500
988,852; 2159,626;    1,985;   -1,136
989,402; 2236,626;    0,985;    0,682
989,952; 2193,354;    1,621;    0,864
990,502; 2204,263;    1,076;    0,682
991,052; 2128,172;   -0,106;    0,045
991,602; 2052,808;    1,167;    1,318
992,152; 2080,444;    2,803;    0,682
992,702; 2054,354;    1,167;   -0,045
993,252; 1996,444;    0,076;   -0,500
993,802; 2109,899;    1,167;    1,318
994,352; 2249,626;   -0,742;    1,136
994,901; 2280,899;    1,076;    3,227
995,451; 2232,717;   -1,197;    0,318
996,000; 2288,899;    1,076;    0,318
996,550; 2080,263;    2,894;    0,227
997,100; 2103,263;   -0,561;   -0,045
997,649; 2361,535;   -0,197;    0,955
998,198; 2048,990;   -0,288;   -1,500
998,748; 2240,535;    0,348;   -2,318
999,297; 2122,081;    0,985;   -0,409
999,846; 2216,444;    1,894;   -0,773
1000,395; 2215,081;    1,530;    0,500
1000,945; 2240,535;    1,076;   -0,773
1001,494; 2298,263;    0,167;    0,682
1002,043; 2262,626;    0,712;    0,864
1002,592; 2085,808;    3,439;    1,955
1003,141; 2212,172;    2,439;   -0,682
1003,690; 2150,444;    1,258;    0,500
1004,238; 2141,081;   -0,106;   -0,045
1004,787; 1859,717;   -1,288;    1,227
1005,336; 2132,172;    1,621;    0,682
1005,885; 2197,990;   -0,197;   -2,773
1006,433; 2268,354;   -0,470;    0,955
1006,982; 2423,899;    2,167;    1,682
1007,531; 2282,172;    2,712;   -0,227
1008,079; 2212,172;    0,258;    0,500
1008,627; 2297,626;    1,621;    0,409
1009,176; 2118,263;    0,076;   -1,955
1009,724; 2137,444;   -2,742;    0,864
1010,273; 2237,263;    1,076;    0,500
1010,821; 2271,081;    1,076;    1,409
1011,369; 2063,626;    0,076;    1,318
1011,917; 2052,444;   -0,833;   -0,591
1012,465; 2294,990;    2,530;   -1,591
1013,013; 2363,354;    0,439;   -1,682
1013,561; 2327,081;   -1,288;   -0,773
1014,109; 2399,990;   -0,833;    1,682
1014,657; 2265,717;    1,348;    0,591
1015,205; 2321,808;    0,894;   -0,955
1015,753; 2297,535;    0,258;   -1,409
1016,301; 2352,717;    2,621;    3,045
1016,848; 2371,717;    2,167;    0,409
1017,396; 2404,354;    1,621;    0,045
1017,944; 2499,263;    2,621;    1,864
1018,491; 2267,081;   -0,197;    1,409
1019,039; 2543,899;   -0,652;    0,591
1019,586; 2367,808;    0,076;    1,682
1020,134; 2425,808;    0,712;    1,500
1020,681; 2463,535;    2,894;   -1,136
1021,228; 2428,899;   -0,561;   -2,227
1021,776; 2302,990;   -0,833;   -1,136
1022,323; 2545,535;    0,803;    0,773
1022,870; 2472,990;   -0,470;   -0,045
1023,417; 2428,990;    2,076;    1,864
1023,964; 2471,172;    0,621;    1,227
1024,511; 2364,899;   -0,652;    0,773
1025,058; 2179,081;    0,439;   -0,045
1025,605; 2215,081;   -1,742;    3,136
1026,152; 2480,535;   -0,106;   -0,591
1026,699; 2221,990;    0,167;    1,318
1027,245; 2336,444;    2,439;    0,318
1027,792; 2476,990;    0,712;    1,409
1028,339; 2466,535;    4,076;   -0,045
1028,885; 2304,263;    3,621;   -0,227
1029,432; 2233,808;   -0,106;    0,227
1029,978; 2335,808;    1,348;   -1,591
1030,525; 2250,172;    1,621;    0,409
1031,071; 2393,444;    0,348;    1,136
1031,618; 2603,081;    1,258;    1,682
1032,164; 2366,172;    2,076;    3,045
1032,710; 2404,717;    0,076;   -1,500
1033,256; 2310,626;    0,712;   -0,136
1033,803; 2234,899;   -0,288;    1,500
1034,349; 2021,444;    1,803;    0,136
1034,895; 2158,899;    2,621;   -0,318
1035,441; 2151,717;    0,439;    0,318
1035,987; 2175,081;   -2,288;   -0,682
1036,533; 2231,172;   -0,197;   -0,955
1037,078; 2435,535;    4,712;    1,682
1037,624; 2253,444;    2,439;   -0,955
1038,170; 2221,899;    1,712;   -0,318
1038,716; 2190,172;    2,167;   -0,409
1039,261; 2061,354;    2,167;   -0,773
1039,807; 2042,081;   -0,015;    3,409
1040,352; 2111,808;   -1,288;   -0,318
1040,898; 2127,172;    0,167;   -0,682
1041,443; 2054,899;    0,803;   -2,591
1041,989; 2178,626;    3,621;    1,591
1042,534; 2000,990;    0,985;    2,591
1043,079; 2051,444;    1,985;    0,955
1043,625; 1938,172;    0,258;    0,500
1044,170; 1994,808;    2,439;    1,045
1044,715; 2240,990;    0,167;    0,955
1045,260; 2073,717;   -0,833;   -0,955
1045,805; 2065,444;    0,258;   -0,591
1046,350; 1993,444;    0,530;   -0,409
1046,895; 2057,354;    0,803;    1,591
1047,440; 2032,444;    1,530;    0,409
1047,985; 1885,990;   -1,197;   -0,955
1048,530; 1810,899;    1,348;    1,227
1049,074; 1892,172;    2,803;    0,318
1049,619; 1843,990;   -0,924;    1,955
1050,164; 1699,354;    1,076;    0,227
1050,708; 1753,535;    2,621;    0,045
1051,253; 2144,808;    3,258;   -2,227
1051,797; 1854,081;   -0,197;   -1,318
1052,342; 1785,354;    1,348;    1,045
1052,886; 1807,535;    1,803;   -1,409
1053,430; 1671,535;    2,167;    0,136
1053,975; 1719,535;    0,894;   -0,318
1054,519; 1723,626;    1,803;    3,227
1055,063; 1790,899;    3,621;    1,318
1055,607; 1707,626;    1,348;    0,227
1056,151; 1719,717;    0,530;    1,682
1056,695; 1589,263;   -1,833;   -1,136
1057,239; 1654,081;   -1,197;   -0,682
1057,783; 1693,535;    2,258;   -1,500
1058,327; 1678,172;    3,076;    1,409
1058,871; 1904,172;    3,985;    1,318
1059,415; 1647,990;   -0,561;   -0,045
1059,958; 1927,354;    2,985;    2,591
1060,502; 1617,626;    1,348;   -0,773
1061,046; 1506,172;    1,712;   -0,955
1061,589; 1476,081;    2,803;   -1,136
1062,133; 1376,808;    0,985;    1,864
1062,676; 1343,990;    1,439;    0,864
1063,220; 1375,444;    0,985;    0,500
1063,763; 1419,717;    2,985;    1,136
1064,306; 1481,808;    0,985;    1,864
1064,849; 1393,626;    2,076;    0,591
1065,393; 1400,444;    2,894;   -1,500
1065,936; 1479,899;    2,530;   -0,409
1066,479; 1336,990;    2,621;    1,318
1067,022; 1364,899;    1,894;   -0,227
1067,565; 1278,354;   -1,197;   -1,318
1068,108; 1294,899;    1,258;   -0,591
1068,651; 1272,444;   -2,470;    1,409
1069,194; 1217,172;   -1,106;   -1,682
1069,736; 1241,899;    3,803;    0,955
1070,279; 1207,172;   -1,652;   -0,500
1070,822; 1294,535;    1,530;   -0,318
1071,364; 1412,172;    0,530;    1,318
1071,907; 1218,899;    0,348;    3,227
1072,450; 1086,444;    0,258;   -0,045
1072,992; 1119,899;   -0,561;    3,136
1073,535; 1276,535;    0,167;    2,136
1074,077; 1070,263;    2,985;    2,045
1074,619; 1054,444;    0,985;    0,591
1075,161; 1092,444;   -0,561;    1,500
1075,704; 1264,172;    0,258;    1,227
1076,246; 1046,899;    1,530;    0,682
1076,788;  971,717;   -1,015;    1,773
1077,330; 1026,626;   -2,106;    2,136
1077,872; 1031,172;   -1,924;    0,955
1078,414; 1278,172;    3,712;    0,773
1078,956; 1021,172;    0,167;   -0,227
1079,498; 1280,263;    0,439;    0,318
1080,040; 1004,354;    0,985;   -1,318
1080,581;  942,263;    0,621;   -0,318
1081,123;  854,808;   -0,106;   -0,773
1081,665;  892,354;    3,803;   -0,955
1082,206; 1204,717;    3,258;   -0,500
1082,748; 1051,444;    3,258;    2,045
1083,289;  927,717;    0,167;    1,318
1083,831;  864,263;    0,258;    0,227
1084,372;  912,263;    0,894;    0,591
1084,913;  912,263;    3,348;    0,864
1085,455;  864,808;    1,530;   -2,045
1085,996;  844,990;    0,530;    0,136
1086,537;  893,990;    0,985;    0,864
1087,078;  911,990;    0,439;   -2,136
1087,619;  969,081;   -1,652;    0,227
1088,160;  877,990;    1,439;    1,318
1088,701;  856,081;   -0,742;    0,682
1089,242;  816,717;   -0,561;   -2,227
1089,783;  907,899;   -0,561;    1,409
1090,324;  872,626;   -0,833;    0,682
1090,865;  749,535;   -1,924;   -0,409
1091,405;  714,263;   -0,561;    2,227
1091,946;  752,172;   -0,197;   -0,955
1092,487;  677,717;   -1,288;   -1,409
1093,027;  859,263;    1,803;   -1,500
1093,568;  731,535;    2,258;    1,227
1094,108;  820,535;    0,621;    1,773
1094,649;  752,990;   -0,470;    0,136
1095,189;  697,081;    1,167;   -0,682
1095,729;  659,263;    0,712;    0,955
1096,269;  647,444;    1,258;   -0,955
1096,810;  958,263;   -0,197;    0,500
1097,350;  796,717;   -0,561;   -0,773
1097,890;  709,990;    2,985;    1,227
1098,430;  952,172;    4,985;    2,864
1098,970;  834,263;    1,894;    1,682
1099,510;  689,990;   -0,833;   -2,318
1100,050;  627,535;    0,258;   -1,591
1100,589;  606,626;    0,076;   -0,318
1101,129;  729,444;    0,894;   -0,955
1101,669;  876,717;    2,803;    2,136
1102,209;  710,354;    1,530;    2,227
1102,748;  665,354;    3,439;    0,955
1103,288;  663,899;    0,712;   -1,227
1103,827;  682,354;    3,530;   -2,227
1104,367;  560,626;    1,712;   -2,409
1104,906;  535,626;   -1,015;   -1,136
1105,445;  623,626;    0,985;   -1,136
1105,985;  566,626;   -0,652;    1,500
1106,524;  610,717;    1,530;   -0,682
1107,063;  587,444;    1,167;    1,409
1107,602;  562,808;    1,894;   -1,500
1108,141;  493,626;    1,621;    1,500
1108,680;  594,081;    3,985;   -0,591
1109,219;  528,626;    0,167;   -0,500
1109,758;  529,172;    4,167;    0,682
1110,297;  513,263;   -1,106;   -0,682
1110,836;  463,808;    1,439;    0,955
1111,375;  602,354;    0,348;    0,409
1111,913;  627,717;    0,985;    0,773
1112,452;  554,172;    0,894;    0,136
1112,991;  453,172;    1,076;    1,955
1113,529;  414,990;    0,167;   -0,045
1114,068;  489,535;    0,439;    2,955
1114,606;  395,990;   -0,561;   -0,955
1115,144;  544,263;    1,530;    1,045
1115,683;  486,808;    1,985;    0,318
1116,221;  540,626;    2,076;   -0,864
1116,759;  456,990;    1,621;   -0,864
1117,297;  642,535;    1,621;    1,864
1117,836;  466,263;    1,985;   -1,227
1118,374;  471,535;    0,258;   -0,682
1118,912;  426,444;    0,439;    2,682
1119,450;  415,535;    0,985;    0,864
1119,988;  460,808;    3,348;    2,136
1120,525;  885,444;    7,258;    3,318
1121,063;  603,626;    0,530;    1,864
1121,601;  425,808;    1,076;   -1,227
1122,139;  381,717;    1,076;   -2,045
1122,676;  568,626;   -1,652;    2,773
1123,214;  508,899;    0,712;    4,409
1123,751;  336,717;    0,621;    2,227
1124,289;  442,354;    0,894;   -0,409
1124,826;  337,899;   -0,379;    0,227
1125,364;  275,808;    0,712;   -0,955
1125,901;  454,535;    6,258;    1,227
1126,438;  540,717;    3,530;    0,955
1126,975;  296,172;    2,985;   -0,773
1127,513;  353,990;    2,621;    2,136
1128,050;  278,263;   -0,561;   -0,682
1128,587;  366,899;    1,348;   -0,227
1129,124;  401,899;   -0,015;    1,318
1129,661;  280,717;   -1,924;    0,227
1130,198;  435,354;    2,439;    0,773
1130,734;  385,990;   -0,379;    1,409
1131,271;  263,354;   -1,197;    0,864
1131,808;  417,808;    1,621;    3,045
1132,345;  298,081;    4,530;    0,318
1132,881;  185,717;   -0,561;   -1,864
1133,418;  316,535;    0,348;   -1,136
1133,954;  257,354;    0,712;   -2,682
1134,491;  318,626;    1,712;   -0,773
1135,027;  232,172;    2,167;    0,864
1135,564;  308,263;    1,439;    2,955
1136,100;  293,626;   -0,742;    2,136
1136,636;  206,626;   -1,015;   -1,045
1137,172;  286,081;    0,894;   -1,045
1137,708;  221,081;   -1,561;   -1,045
1138,245;  222,990;    0,803;   -1,227
1138,781;  180,626;    1,803;   -3,318
1139,317;  244,535;    1,894;   -1,409
1139,852;  237,899;    3,076;    0,136
1140,388;  331,172;    2,076;   -0,409
1140,924;  228,717;    1,076;   -2,227
1141,460;  177,808;   -0,288;    0,136
1141,996;  123,808;   -0,652;    2,682
1142,531;  157,990;    1,076;    3,318
1143,067;  359,444;    1,167;    1,045
1143,602;  412,808;    3,439;   -0,318
1144,138;  270,535;    0,803;    1,045
1144,673;  154,535;    1,621;    1,409
1145,209;  211,354;    2,894;   -0,318
1145,744;  141,354;    0,803;    0,864
1146,279;  260,717;    1,530;   -0,136
1146,815;  187,444;    1,530;   -2,682
1147,350;  233,808;   -0,924;    0,045
1147,885;  152,354;   -1,924;   -1,318
1148,420;  147,354;    2,439;    0,773
1148,955;  130,899;   -1,470;    1,864
1149,490;  145,081;   -1,106;   -1,591
1150,025;  129,626;   -1,106;   -1,773
1150,560;  232,899;   -0,288;   -0,955
1151,094;  202,808;    0,258;   -0,591
1151,629;  207,172;   -3,742;    0,864
1152,164;  149,263;   -1,288;    1,318
1152,698;  114,354;    1,258;   -0,136
1153,233;   70,626;   -1,379;   -0,682
1153,767;  117,444;   -0,288;   -2,318
1154,302;  155,717;   -0,379;    1,773
1154,836;  160,535;    0,803;   -2,136
1155,371;  208,263;    2,258;    3,682
1155,905;  165,626;    1,985;    1,682
1156,439;  140,081;    0,530;   -0,500
1156,973;  163,990;    0,439;    0,318
1157,507;  105,899;   -1,742;    0,682
1158,042;  133,717;   -0,652;    1,045
1158,576;  171,535;   -0,561;    1,773
1159,110;  162,717;    0,076;    2,409
1159,643;  133,990;   -2,470;   -0,045
1160,177;   87,535;   -2,015;    1,500

