
Integration time [ms]:   0,050
Averaging Nr. [scans]: 11
Smoothing Nr. [pixels]: 0
Data measured with spectrometer [name]: 7318044SP
Wave   ;Sample   ;Dark     ;Reference
[nm]   ;[counts] ;[counts] ;[counts] 

186,757;  -30,446;   38,161;    1,318
187,357;   -3,073;   26,706;    0,955
187,958;  -13,348;   17,252;   -1,591
188,558;   18,266;   12,979;   -1,227
189,159;   -5,505;   10,070;   -4,500
189,759;  -29,545;    5,797;   -3,591
190,360;  -33,178;    6,797;   -2,136
190,960;   -1,611;    5,706;   -4,136
191,560;    3,587;    2,614;   -6,591
192,161;  179,979;    5,885;   -3,500
192,761;   57,883;    5,520;   -3,227
193,361;   10,590;    3,065;   -3,773
193,962;   42,550;    1,612;   -2,682
194,562;  -14,018;   -0,114;   -3,955
195,162;   -7,689;   -0,567;   -2,227
195,762;  102,065;    2,433;   -0,045
196,362;   57,338;    1,706;   -2,500
196,963;  -13,864;    1,706;   -0,864
197,563;   27,001;    1,252;   -0,955
198,163;   -9,155;   -0,111;   -0,682
198,763;   -7,070;   -0,020;   -0,500
199,363;   31,920;    3,616;   -0,500
199,963;    9,254;    2,162;    0,409
200,563;    2,840;    6,344;   -1,409
201,163;   -9,187;    5,435;   -0,227
201,763;   17,684;    1,435;    0,318
202,363;   -5,917;    0,980;    1,500
202,963;   18,907;    1,526;    1,045
203,563;   65,765;    0,344;    0,500
204,162;    6,068;    1,889;   -1,864
204,762;    1,395;    2,071;    0,591
205,362;  -15,312;    0,708;    1,955
205,962;    5,533;    3,435;    1,955
206,562;   10,016;    1,889;    2,318
207,161;   -6,009;    1,708;    0,318
207,761;   55,958;    4,435;    2,409
208,361;    3,538;    1,889;    1,409
208,960;   16,680;    2,889;    1,500
209,560;   10,418;    0,435;    1,591
210,160;   23,039;    5,071;    1,864
210,759;    5,087;    0,708;    1,227
211,359;   -6,377;   -0,474;    1,045
211,958;   86,425;    3,526;    2,045
212,558;   90,289;    0,799;    1,864
213,157;   28,569;   -0,929;    1,500
213,757;  151,668;    5,617;   -0,227
214,356;   49,034;    1,708;   -0,409
214,956;  129,690;    3,526;    0,409
215,555;   28,615;    0,617;    2,136
216,154;    3,103;   -0,292;   -0,591
216,754;    2,360;    1,253;    0,773
217,353;   12,713;   -0,383;   -1,045
217,952;  -23,894;    2,072;    0,318
218,552;   35,386;    0,254;   -0,773
219,151;    6,147;   -1,110;    0,955
219,750;   -6,098;    0,890;   -0,227
220,349;  -12,245;   -2,292;    1,045
220,948;   37,407;    1,163;    1,136
221,548;   -2,932;    0,617;    1,227
222,147;    7,245;   -1,292;   -0,409
222,746;   66,657;    1,254;   -0,955
223,345;   25,695;   -1,019;    0,500
223,944;   19,608;    1,163;    0,773
224,543;   23,328;    4,072;   -1,409
225,142;    7,450;    1,345;    0,136
225,741;   15,356;    1,163;    1,045
226,340;   14,245;    1,254;   -0,955
226,939;   49,957;    2,708;   -0,136
227,538;   -1,088;    1,163;   -0,773
228,137;   55,045;    0,435;    0,864
228,735;   33,492;    0,435;    1,227
229,334;  -17,523;   -0,474;   -0,227
229,933;   63,103;    0,799;    0,591
230,532;   59,193;   -1,201;   -0,409
231,131;   91,620;    1,253;    0,318
231,729;   38,338;    1,163;   -2,318
232,328;    9,736;    0,435;   -1,500
232,927;   14,087;    4,526;   -0,500
233,525;    9,530;    0,981;    0,045
234,124;   23,615;    1,890;   -1,591
234,723;   -4,506;    1,617;   -1,045
235,321;  -11,235;    1,163;    0,136
235,920;   -2,655;    2,526;   -1,227
236,518;   67,070;    1,072;    0,318
237,117;    3,315;    2,890;   -0,227
237,715;    9,815;    1,163;   -0,500
238,314;   13,671;    1,708;   -2,318
238,912;   66,431;    0,526;   -1,409
239,510;   35,491;    1,162;   -1,227
240,109;   76,877;   -0,474;    3,773
240,707;   51,519;   -0,474;    1,227
241,305;   -3,759;   -0,383;    0,136
241,904;   21,059;   -0,292;   -2,045
242,502;   80,082;    3,253;   -0,227
243,100;   31,982;    3,344;   -0,955
243,698;   -2,973;    2,799;    1,682
244,297;   10,211;   -0,656;    0,682
244,895;    3,931;   -0,474;   -2,318
245,493;   71,156;    2,981;   -0,591
246,091;   84,275;    5,163;   -1,318
246,689;   35,449;    2,163;    0,591
247,287;   33,045;   -0,019;   -1,136
247,885;   18,106;   -1,019;    1,227
248,483;   -1,177;   -0,201;   -0,500
249,081;   39,672;    0,981;    1,591
249,679;   44,675;   -1,019;    1,682
250,277;    7,871;   -2,292;    0,864
250,875;   39,262;    0,617;   -1,045
251,473;    6,628;   -0,019;    0,500
252,071;   41,823;   -0,383;    1,045
252,669;   12,063;   -1,565;    0,318
253,267;    3,867;    1,618;    0,773
253,864;   18,227;    0,617;    0,682
254,462;   50,629;    1,526;    1,591
255,060;   -2,500;    0,072;    1,318
255,658;   -1,119;   -3,292;   -0,136
256,255;    3,765;   -0,201;   -2,045
256,853;   20,470;    2,345;    1,409
257,451;   10,596;    1,981;    1,864
258,048;  163,103;    2,072;    1,864
258,646;   55,712;    0,436;   -1,045
259,243;   85,561;    2,981;    2,227
259,841;   38,401;    1,799;    0,318
260,438;   -3,283;    0,254;    0,864
261,036;   41,161;    0,617;    1,409
261,633;    4,624;    1,526;    2,227
262,231;  -12,018;   -0,110;   -0,045
262,828;  -16,256;   -0,383;    1,136
263,425;    3,088;   -1,928;   -0,591
264,023;    9,863;    1,436;    0,045
264,620;   46,515;    1,526;   -0,318
265,217;   77,343;    2,890;    3,136
265,815;    6,657;    2,527;    2,136
266,412;   29,813;    0,072;    0,136
267,009;   24,770;    0,526;    0,773
267,606;   54,167;    0,345;   -0,955
268,203;    8,951;   -0,383;   -0,591
268,801;   12,815;   -0,474;    0,591
269,398;   -1,929;   -0,564;    2,500
269,995;   34,380;    0,890;    1,591
270,592;   14,055;    0,799;   -0,500
271,189;   -3,715;    1,981;    0,409
271,786;  -13,872;    2,072;    1,227
272,383;   39,812;   -0,383;    0,227
272,980;    9,025;    1,617;    0,318
273,577;   -0,673;    2,162;    1,227
274,174;  -11,973;    1,435;    2,591
274,771;   33,427;    1,890;   -0,773
275,367;  183,047;    3,253;    1,409
275,964;   79,386;   -0,565;   -0,500
276,561;   15,631;   -2,474;   -1,045
277,158;  -18,689;    1,799;   -1,773
277,755;   63,490;   -0,110;    0,409
278,351;   29,886;    0,436;   -1,500
278,948;   51,086;   -0,201;    0,045
279,545;   27,301;    0,527;    2,318
280,141;   68,838;    1,254;   -2,045
280,738;   73,139;    2,435;   -0,136
281,334;   15,253;   -0,383;    0,591
281,931;    0,925;    2,890;   -1,318
282,528;   53,829;    4,072;   -0,500
283,124;   73,174;    3,345;   -0,500
283,721;   62,349;    0,709;    1,409
284,317;   26,635;    0,163;    2,500
284,913;   71,786;   -0,110;    0,591
285,510;  128,423;    2,890;   -0,318
286,106;   87,745;    2,345;   -0,955
286,703;   37,122;    0,072;    1,955
287,299;   17,129;    1,254;   -0,591
287,895;   14,730;    0,890;   -1,045
288,491;   10,707;    0,163;    2,136
289,088;   35,379;    0,163;    2,409
289,684;   40,790;    2,890;    1,500
290,280;   94,452;    1,890;    0,682
290,876;   77,929;    0,163;    5,500
291,472;   58,344;    2,163;    2,227
292,068;   61,033;    1,254;    0,227
292,665;   31,038;   -0,564;    0,773
293,261;    5,482;   -1,292;    2,136
293,857;   62,618;    4,072;    2,136
294,453;   40,913;   -0,928;    0,955
295,049;  123,107;    0,253;    1,955
295,644;   64,377;   -1,292;    0,136
296,240;   17,215;    0,162;   -0,136
296,836;   60,685;   -0,747;    0,318
297,432;  102,944;    2,980;   -0,500
298,028;  119,919;    0,435;    0,773
298,624;   80,980;    0,889;    1,864
299,220;   82,697;    0,435;    0,591
299,815;   79,763;    0,526;   -0,409
300,411;  133,652;    0,435;    1,773
301,007;  172,442;    1,889;    0,227
301,602;  100,212;    2,071;   -2,318
302,198;  187,457;    1,435;   -0,773
302,794;  108,369;    1,526;   -0,500
303,389;   73,301;    1,071;    1,045
303,985;   96,382;    1,253;    1,409
304,580;  189,270;    0,889;    1,591
305,176;  130,347;    0,344;    0,136
305,771;   55,084;   -0,929;   -1,227
306,367;  316,559;    3,071;    0,136
306,962;  174,212;    2,889;    1,500
307,558;  207,965;    2,435;    0,136
308,153;  210,354;   -0,383;   -1,136
308,748;   97,912;    0,162;    1,682
309,344;  317,865;    0,253;   -1,318
309,939;  306,829;    2,071;   -1,318
310,534;  133,438;   -2,020;   -1,682
311,130;  120,804;   -0,656;   -2,500
311,725;   96,046;    0,526;   -0,500
312,320;  116,195;    1,253;    0,045
312,915;  169,627;    2,890;   -1,045
313,510;  290,268;    0,526;   -0,500
314,105;  132,109;   -3,565;    1,409
314,700;   55,715;   -1,656;   -1,045
315,295;   85,088;   -0,020;    0,045
315,890;   57,106;   -0,292;    0,864
316,485;  115,061;    0,253;   -0,318
317,080;   58,410;   -0,929;    1,591
317,675;  218,748;    3,071;   -0,682
318,270;  353,858;    6,889;    3,318
318,865;  248,305;    2,435;    3,045
319,460;  158,361;   -1,565;    0,591
320,055;   74,750;   -2,565;   -1,227
320,650;   59,042;   -1,838;   -0,591
321,244;   60,969;    0,889;   -1,409
321,839;   65,192;    0,980;   -0,227
322,434;   86,558;   -0,111;   -1,591
323,029;   49,202;   -0,474;    1,591
323,623;   48,003;    0,798;    0,773
324,218;  150,058;    2,707;    1,409
324,812;  104,831;    0,889;    1,591
325,407;   96,089;   -0,929;    2,045
326,002;  172,617;    0,526;   -0,409
326,596;  142,965;   -0,656;    1,318
327,191;   66,669;   -0,383;   -1,045
327,785;   67,237;   -0,747;   -0,227
328,379;   68,430;   -0,383;    0,136
328,974;   92,735;    1,798;   -3,955
329,568;  102,599;    2,889;   -2,409
330,163;  160,704;    2,435;    1,045
330,757;   81,960;    0,253;    1,591
331,351;   57,182;   -0,292;    0,682
331,945;   56,998;   -0,383;    1,409
332,540;  140,735;    1,617;   -0,591
333,134;  140,397;    3,344;    0,773
333,728;  163,884;    2,799;    0,318
334,322;   99,629;    0,889;   -0,864
334,916;  114,903;    0,344;    0,955
335,510;  244,291;   -0,111;   -0,136
336,105;  244,215;   -0,929;    1,591
336,699;  179,667;   -1,292;    0,591
337,293;  229,855;    1,071;    0,318
337,887;  196,137;    0,071;    1,955
338,481;  332,852;    2,980;    0,591
339,074;  452,622;    2,071;    2,682
339,668;  455,370;   -0,110;    1,227
340,262; 1006,074;    7,708;    3,227
340,856;  666,218;    1,708;   -0,682
341,450;  387,345;    0,708;    1,864
342,044;  479,582;    1,799;    0,136
342,637;  648,696;    1,162;   -2,136
343,231;  684,752;   -1,474;    0,682
343,825;  591,660;   -0,747;   -0,591
344,419;  603,952;   -0,474;    0,500
345,012; 1207,189;    2,889;    4,045
345,606; 1034,929;   -0,656;    1,591
346,199;  730,500;   -0,111;   -0,227
346,793;  905,974;    2,525;    2,045
347,386;  755,427;    0,889;   -1,136
347,980;  662,552;   -0,838;   -0,045
348,573;  829,398;   -1,748;    0,409
349,167; 1138,410;    6,161;    4,773
349,760; 1116,549;    2,252;    2,682
350,354; 1062,134;    1,616;    1,136
350,947; 1135,417;    2,798;    1,682
351,540;  958,707;    0,616;   -1,409
352,134;  834,127;   -1,111;    1,136
352,727;  919,332;   -0,657;    1,136
353,320;  969,289;    2,343;    0,591
353,913;  869,913;   -1,929;    1,864
354,507; 1118,042;    0,434;   -1,227
355,100; 1044,814;    0,071;    0,864
355,693; 1426,170;    4,798;    2,409
356,286; 1148,938;    0,980;    2,773
356,879; 1024,655;   -0,475;    1,227
357,472;  953,347;    0,980;    1,500
358,065; 1048,465;    3,161;    2,500
358,658;  897,375;    0,798;    2,318
359,251;  804,845;    0,252;   -0,591
359,844;  972,988;    0,343;   -1,136
360,437; 1089,797;    0,252;    0,045
361,030;  924,175;    0,525;   -0,682
361,623;  870,912;    0,434;    0,318
362,215; 1111,203;    0,979;    2,045
362,808;  938,976;   -2,293;   -1,682
363,401;  854,909;    0,798;    0,136
363,994; 1102,717;    3,252;   -1,500
364,586;  839,621;    0,888;   -1,500
365,179;  775,699;   -0,203;   -1,136
365,772;  582,182;   -0,930;    2,045
366,364;  727,989;    1,524;   -3,227
366,957;  829,821;    1,342;   -0,045
367,549;  732,672;   -0,203;   -0,864
368,142;  711,664;    0,978;   -1,500
368,734;  667,408;    2,523;   -2,136
369,327;  571,173;    2,341;   -0,500
369,919;  620,980;   -1,659;    0,409
370,512;  642,375;   -1,023;   -0,500
371,104;  888,144;    2,704;    1,591
371,696;  945,674;    1,703;   -0,955
372,289;  769,799;    0,157;    1,136
372,881;  695,544;    1,156;    1,318
373,473;  558,928;    4,064;    1,136
374,066;  655,333;    1,336;    0,500
374,658;  594,510;    0,879;    1,136
375,250;  529,225;   -1,668;   -1,409
375,842;  574,628;   -0,124;   -0,045
376,434;  502,576;   -2,762;   -0,409
377,026;  541,737;   -1,855;   -2,500
377,618;  560,832;    0,779;   -0,682
378,210;  457,329;    3,141;   -1,955
378,802;  395,907;    3,412;   -0,591
379,394;  866,490;    3,411;    0,682
379,986;  614,530;    1,138;   -0,955
380,578;  504,467;    1,410;    0,773
381,170;  759,509;    0,320;    0,045
381,762;  635,853;   -0,224;    1,409
382,354;  589,418;   -0,223;   -1,318
382,945;  502,038;    0,870;    0,318
383,537;  473,596;    1,144;   -1,955
384,129;  490,736;    0,963;   -1,136
384,721;  612,954;    0,418;    0,955
385,312;  510,374;   -1,399;   -0,955
385,904;  641,113;   -0,945;    1,591
386,496;  484,037;    0,691;    1,045
387,087;  643,664;    0,418;    2,500
387,679;  560,808;   -0,401;    0,045
388,270;  562,087;   -2,401;    2,045
388,862;  520,424;   -0,401;   -0,318
389,453;  460,620;    1,054;    1,045
390,045;  501,951;    3,236;   -2,682
390,636;  401,077;    0,144;   -0,591
391,227;  452,881;    2,054;   -0,045
391,819;  451,373;    0,781;    0,773
392,410;  731,796;    0,600;    0,045
393,001;  531,822;    1,600;   -1,591
393,593;  631,151;    0,600;   -0,045
394,184;  674,292;    0,873;   -0,409
394,775;  489,242;    1,146;    2,136
395,366;  447,026;    1,782;    0,773
395,957;  667,025;   -2,400;    0,136
396,548;  533,405;    1,054;    2,682
397,139;  687,283;    2,236;    0,591
397,730;  561,706;    0,873;    0,955
398,321;  564,070;    0,509;    0,955
398,912;  497,709;   -0,764;    0,136
399,503;  525,636;   -1,945;   -1,409
400,094;  528,426;   -1,582;    1,682
400,685;  513,254;    3,600;    0,045
401,276;  429,830;   -0,400;   -0,955
401,867;  428,610;   -1,127;    0,773
402,458;  388,054;    1,509;   -2,318
403,048;  562,845;    0,146;    0,591
403,639;  452,519;    1,509;    0,864
404,230;  624,802;    0,691;    0,318
404,821;  676,999;   -0,127;    0,045
405,411;  542,532;   -0,763;   -2,591
406,002;  418,802;    3,237;   -1,136
406,592;  683,720;    2,691;    0,045
407,183;  502,549;    0,328;   -1,500
407,774;  447,508;    1,419;   -0,136
408,364;  409,770;    2,600;    0,409
408,954;  523,457;   -0,036;    1,227
409,545;  520,435;    1,873;    1,045
410,135;  426,466;   -1,581;    0,500
410,726;  366,969;    0,783;    0,318
411,316;  576,845;    2,237;    0,773
411,906;  364,954;    0,146;   -0,409
412,497;  343,069;   -0,490;   -0,045
413,087;  283,241;    0,783;   -0,227
413,677;  217,366;   -2,490;    3,864
414,267;  182,212;   -1,035;    1,409
414,857;  144,803;    0,419;    4,227
415,448;  138,584;   -0,763;    0,500
416,038;  155,292;   -2,945;   -0,591
416,628;  190,798;    0,965;    0,409
417,218;  247,598;   -1,762;    3,318
417,808;  395,280;    0,965;   -0,409
418,398;  245,412;   -1,035;    2,682
418,988;  113,599;   -2,217;    0,591
419,578;  196,469;    3,601;    1,409
420,168;  124,514;    0,692;   -0,955
420,757;  249,072;    0,964;   -1,500
421,347;  135,402;    1,601;   -0,227
421,937;   88,412;    3,329;    1,409
422,527;  216,147;    2,602;   -0,773
423,116;  338,528;    2,692;   -0,045
423,706;   70,412;    2,965;    0,318
424,296;   11,760;    1,601;    0,682
424,885;  141,669;    1,510;   -3,045
425,475;  100,147;    1,147;   -2,864
426,065;  -10,563;   -1,489;   -0,318
426,654;  -29,640;    0,329;   -0,318
427,244;  217,756;    1,147;    1,409
427,833;  177,521;    1,056;   -0,500
428,423;   48,971;    0,147;    1,136
429,012;   50,267;    2,420;   -1,136
429,601;  163,133;    2,057;    0,136
430,191;   56,514;    2,511;    4,318
430,780;  -41,047;   -1,671;   -0,409
431,369;  136,505;    1,329;   -0,045
431,959;   34,939;    1,693;    0,500
432,548;  -14,551;   -1,398;   -0,045
433,137;  -77,732;    0,329;   -1,318
433,726;  -15,982;    0,148;    0,500
434,315;    6,417;    0,148;    2,409
434,905;   96,208;    0,693;    1,409
435,494;   87,453;    3,148;    0,955
436,083;  -26,068;    1,420;   -0,955
436,672;   57,114;    1,148;    0,500
437,261;   11,794;    0,512;   -1,955
437,850;  208,685;   -1,125;    0,682
438,439;  246,933;    2,239;    1,955
439,027;  363,721;    3,421;    1,773
439,616;  269,906;    2,239;    1,227
440,205;   66,729;    0,057;   -2,136
440,794;   32,308;   -0,306;   -0,045
441,383;  -30,808;    1,603;   -0,591
441,971;  -47,384;   -0,306;    0,591
442,560;  -33,260;    0,603;   -1,773
443,149; -123,175;    3,060;   -1,318
443,737;  -82,740;    0,968;   -2,318
444,326;  -62,237;    0,331;    0,318
444,915;  -17,787;   -1,851;    0,864
445,503;   -4,689;    0,058;   -0,318
446,092;  221,826;    7,876;    2,136
446,680;  150,758;    1,876;    0,318
447,269;   67,158;   -1,487;   -0,318
447,857;   56,400;    2,240;   -1,773
448,445;   15,668;    2,149;    1,318
449,034;  -34,617;    0,876;   -1,136
449,622;  -22,519;    1,240;    3,500
450,210;  221,081;    3,149;    2,227
450,799;  142,770;    2,604;   -0,591
451,387;  104,046;    1,786;   -0,591
451,975;   90,417;   -1,305;    0,864
452,563;  162,429;    0,422;    2,318
453,151;   14,649;   -1,032;   -1,227
453,739;   43,837;   -1,577;    0,136
454,328;  136,160;    0,604;   -2,136
454,916;   77,860;    1,150;   -0,136
455,504;   94,415;    3,513;    1,227
456,092;   -0,651;    2,150;   -1,591
456,679;  -41,752;    0,604;    0,682
457,267;  351,946;    3,604;    1,045
457,855;   61,368;    3,241;    1,409
458,443;  -73,905;   -0,304;    1,682
459,031;   61,072;    1,332;    2,409
459,619;   21,486;   -3,577;    2,864
460,206;  -49,867;   -0,759;    2,045
460,794;  -53,364;   -0,668;   -0,227
461,382;  -12,558;    0,878;   -0,864
461,970;   -7,896;    0,605;    1,864
462,557;  -69,061;    0,878;   -0,682
463,145;   33,732;   -0,304;   -1,682
463,732;  250,702;    2,514;   -1,045
464,320;   46,372;    1,514;   -3,045
464,907;  159,362;    0,423;   -0,773
465,495;   79,421;    2,696;   -1,227
466,082;    7,473;    2,060;   -0,045
466,670;   36,049;    2,605;    1,227
467,257;  -47,330;    0,060;    2,045
467,844;   50,408;    1,514;    0,045
468,432;   20,562;   -0,031;    3,500
469,019;  -11,076;    1,606;   -1,773
469,606;   66,769;    0,969;    3,682
470,193;   84,192;    2,151;    0,227
470,780;   41,848;    0,333;    0,864
471,368;  -21,255;   -1,212;   -0,773
471,955;   71,858;    1,060;   -0,682
472,542;   36,270;   -0,303;   -1,136
473,129;  -54,947;   -0,485;    0,136
473,716;  -44,488;    0,060;    0,591
474,303;  -22,018;    1,333;   -0,864
474,890;  -20,628;    2,333;   -0,500
475,477;   71,983;   -0,576;    0,409
476,064;  -12,705;    0,697;   -1,591
476,650;  101,552;    2,152;    0,318
477,237;   22,824;    1,879;    0,955
477,824;   -2,825;    3,879;    0,864
478,411;  -68,309;    0,606;   -0,318
478,997;  -78,862;    0,606;   -0,773
479,584; -116,121;   -0,666;   -0,409
480,171;   31,878;    1,243;   -0,773
480,757;   75,753;   -0,848;    0,773
481,344;  -11,867;    0,334;    0,409
481,931;  -87,193;   -0,393;    1,045
482,517;   24,458;    0,425;    0,318
483,104;  100,391;    1,334;    2,864
483,690;  -23,950;    0,243;    0,045
484,276;  -39,477;    0,698;    0,227
484,863;  154,970;    2,152;    1,136
485,449;   24,660;    0,152;    0,318
486,035;  -20,186;   -0,666;   -0,136
486,622;   44,927;   -2,393;    0,045
487,208;  -24,090;    1,334;    1,500
487,794;  -86,095;    0,971;    0,318
488,380;  -73,761;    0,698;   -1,409
488,967;  -72,101;   -1,120;   -0,409
489,553;  -60,099;   -1,029;   -1,409
490,139;    1,610;    0,971;    0,773
490,725;  -54,897;    0,789;   -0,227
491,311;  -20,422;    1,516;    3,045
491,897;  -36,945;   -0,665;    1,500
492,483;  -23,579;    0,426;    1,227
493,069;  380,234;    5,426;    0,864
493,655;  113,230;    1,789;    0,682
494,241;   -7,114;    1,517;   -0,955
494,826;   -0,107;    0,335;   -1,045
495,412;   53,562;    0,335;   -0,682
495,998;  -15,505;    0,971;   -0,318
496,584;   29,066;    2,244;    1,045
497,169;   49,026;    2,335;   -0,682
497,755;  -11,825;    1,244;    1,227
498,341;   99,654;    2,153;    0,318
498,926;  215,834;    2,881;    1,955
499,512;  -18,169;   -0,028;    2,955
500,097;  -19,973;   -0,574;   -0,318
500,683;    8,027;   -0,028;    2,136
501,268;  -36,653;    1,881;   -0,955
501,854;  -10,140;   -0,119;    1,227
502,439;  -28,745;   -0,573;   -1,773
503,024;  -15,657;    1,608;    0,500
503,610;   11,262;    1,335;   -0,682
504,195;  -27,531;    1,245;    1,955
504,780;   40,832;    2,335;    1,227
505,366;  118,060;    4,063;    2,864
505,951;   56,594;   -1,119;    1,045
506,536;   -3,964;    1,427;   -3,682
507,121;   33,886;    1,699;   -0,318
507,706;    5,727;   -0,392;    1,045
508,291;  -37,126;   -2,937;    1,136
508,876;  -36,948;   -0,482;    2,591
509,461;   -2,835;    1,427;   -0,773
510,046;   36,804;   -0,391;    0,318
510,631;   49,130;   -0,119;   -0,773
511,216;  -10,433;   -0,664;   -0,500
511,801;   34,389;   -0,755;    2,591
512,386;   61,612;    0,972;    0,500
512,971;   84,734;    0,427;    0,955
513,555;  130,829;    1,154;   -1,500
514,140;  103,643;    1,336;   -3,136
514,725;  248,398;    1,791;   -1,136
515,309;  189,535;    1,064;    0,318
515,894;  112,949;   -0,300;   -2,227
516,479;  195,843;    1,973;   -0,955
517,063;  253,775;    0,882;    1,227
517,648;  268,441;    0,155;   -1,136
518,232;  294,301;   -1,300;   -1,409
518,817;  498,193;    1,337;    1,682
519,401;  776,841;    0,700;    0,591
519,985;  774,690;    2,700;    1,136
520,570;  752,587;   -0,118;   -1,955
521,154; 1098,569;    0,064;    0,591
521,738; 1561,236;    1,064;    2,409
522,323; 1712,069;   -0,390;    1,682
522,907; 1873,817;    2,428;   -0,136
523,491; 2063,385;    1,155;    0,955
524,075; 2370,004;    0,428;    0,591
524,659; 2831,999;    0,973;    0,591
525,243; 3011,062;    0,883;    0,409
525,827; 3482,979;    0,883;   -0,045
526,411; 4312,453;    1,155;   -0,136
526,995; 4978,587;    0,337;    1,409
527,579; 5231,050;    1,974;   -1,045
528,163; 5910,750;    0,428;   -1,500
528,747; 6470,258;    1,065;   -0,773
529,331; 7166,798;    0,883;   -1,409
529,915; 7699,344;    2,338;    0,955
530,499; 8200,402;    0,247;    1,227
531,082; 8464,671;    1,065;    1,591
531,666; 8541,708;    0,520;    0,773
532,250; 9516,604;    0,428;    2,682
532,833;10205,182;    0,610;    2,773
533,417;10550,230;    1,247;    0,864
534,001;10857,862;    0,429;   -0,318
534,584;11859,691;    1,974;    0,500
535,168;12062,585;    3,247;    1,409
535,751;12441,112;    4,520;    0,045
536,334;12246,089;    4,520;   -0,409
536,918;13135,463;    1,974;    1,591
537,501;13459,842;    1,520;    1,318
538,085;13693,077;    1,702;    1,045
538,668;14058,514;    0,883;    2,409
539,251;14588,496;    3,156;    3,773
539,834;14832,648;    0,156;    0,773
540,418;14959,621;    3,247;    4,318
541,001;15257,345;    2,702;    1,773
541,584;15461,942;    1,429;    2,227
542,167;15306,593;    0,702;    2,955
542,750;15572,876;    0,793;   -0,773
543,333;15286,185;    1,429;    2,136
543,916;16170,778;   -0,298;    2,500
544,499;16879,821;    2,520;    0,227
545,082;16987,629;    0,248;    3,591
545,665;17264,056;   -0,207;    1,500
546,248;17699,276;    0,520;   -0,318
546,830;17460,387;   -1,752;    1,955
547,413;17941,801;    0,157;   -0,773
547,996;18557,686;    0,157;    0,500
548,579;18415,782;   -0,843;    0,955
549,161;18295,681;    0,884;    2,682
549,744;18133,686;    0,612;    0,409
550,326;18704,247;    0,885;   -1,136
550,909;18458,048;    2,339;    0,591
551,492;18952,201;    0,521;    0,227
552,074;18815,505;   -0,024;   -1,318
552,657;19429,480;    2,430;    0,045
553,239;19180,972;   -3,024;   -0,773
553,821;19149,002;   -1,570;    1,045
554,404;18636,530;   -0,024;    1,136
554,986;19097,894;    2,248;    1,045
555,568;19717,660;    0,430;   -0,955
556,151;18935,642;    4,067;   -0,227
556,733;19160,674;   -1,388;   -0,864
557,315;19683,736;    4,703;    0,500
557,897;19512,309;    0,521;   -0,500
558,479;19672,630;    1,703;    1,318
559,061;19774,858;    1,067;   -0,864
559,643;20152,537;   -0,297;    0,045
560,225;20553,559;   -0,388;    2,864
560,807;20595,537;    0,340;    0,318
561,389;20122,368;   -1,206;    2,318
561,971;20867,384;   -0,660;    2,136
562,553;20684,716;    0,613;    1,591
563,135;20841,817;    1,249;    1,136
563,717;20443,868;    3,158;    1,136
564,298;21214,976;    3,976;   -0,045
564,880;20896,907;    0,340;   -1,409
565,462;21138,452;    1,977;    1,318
566,043;22328,780;   -0,933;    2,318
566,625;21866,045;    4,067;    1,227
567,207;21698,454;    0,704;    1,682
567,788;22889,674;   -0,114;    1,500
568,370;23758,740;   -1,841;   -0,500
568,951;23578,876;   -0,569;    0,227
569,533;24452,483;    0,977;   -0,500
570,114;25007,154;   -0,296;    0,682
570,695;25523,086;   -0,478;   -1,318
571,277;26083,723;   -0,205;   -1,682
571,858;26856,953;    2,704;   -1,136
572,439;27834,185;    0,795;   -1,045
573,021;28009,347;    0,432;   -2,773
573,602;28559,067;    1,795;    0,318
574,183;29562,496;   -0,114;    2,227
574,764;29760,350;    2,068;    0,409
575,345;30337,888;    0,250;   -0,136
575,926;30926,516;    2,704;    0,136
576,507;30980,423;    2,704;   -0,227
577,088;32045,481;    1,704;    1,682
577,669;32074,865;    1,704;    1,955
578,250;32808,951;   -0,750;   -1,045
578,831;33554,904;   -0,841;   -2,227
579,412;33813,211;   -1,205;    0,955
579,993;34823,383;    1,432;    0,227
580,573;35177,151;   -0,023;   -0,955
581,154;34096,178;    1,613;   -0,591
581,735;34995,916;    0,341;    0,773
582,315;34436,734;    0,523;    2,136
582,896;34792,804;   -1,750;    1,227
583,477;34284,714;    0,614;    1,227
584,057;34481,077;    1,159;    0,955
584,638;34737,019;   -2,750;    2,318
585,218;34783,244;    2,886;    2,682
585,799;34939,762;    1,977;   -0,227
586,379;34949,208;    1,250;    1,591
586,959;33719,471;    2,613;    0,318
587,540;32957,237;    0,432;    2,227
588,120;32484,755;   -1,113;   -0,045
588,700;31463,522;    2,977;    2,136
589,281;31760,721;    1,250;   -0,955
589,861;31654,163;   -0,296;   -1,682
590,441;31453,464;   -1,477;   -2,682
591,021;30375,830;    1,432;   -2,591
591,601;30635,642;    0,431;    0,500
592,181;30634,827;   -1,296;   -0,773
592,761;29916,939;    2,250;    1,409
593,341;29828,976;    1,522;    0,045
593,921;29842,812;   -0,569;    1,591
594,501;29658,686;    1,250;    1,318
595,081;29539,375;    0,522;   -0,318
595,661;29908,971;    1,068;    0,955
596,240;30404,766;   -1,023;    0,136
596,820;29998,200;    2,613;    1,955
597,400;30228,617;    1,977;    0,773
597,980;30459,284;   -0,750;    1,045
598,559;30498,322;    0,341;   -0,227
599,139;30179,822;   -0,750;   -1,227
599,718;30056,822;    0,795;   -0,409
600,298;30356,446;   -2,387;    0,682
600,877;30543,488;    4,795;    1,409
601,457;30872,740;    0,340;    1,136
602,036;30767,362;    1,795;    2,045
602,616;30993,458;    2,250;    1,682
603,195;31349,187;    0,431;    3,500
603,774;30843,291;   -0,296;    2,045
604,354;30766,364;    2,522;   -0,500
604,933;30202,983;    0,250;    1,864
605,512;30359,172;    2,340;    0,591
606,091;30373,738;    1,886;    3,773
606,671;31192,261;    0,249;    0,773
607,250;30210,276;    1,431;    3,136
607,829;30499,010;    1,158;    3,227
608,408;30406,690;    4,613;    2,591
608,987;29407,363;    2,704;    3,409
609,566;29678,251;    0,341;   -2,500
610,145;29797,815;    2,885;    0,682
610,723;30240,515;    1,613;    6,864
611,302;29451,113;    1,067;    1,682
611,881;28912,356;    5,158;   11,227
612,460;29783,527;    0,795;    3,955
613,039;30198,863;    1,703;    2,045
613,617;28852,619;    0,886;    4,773
614,196;29062,651;    1,613;    1,227
614,775;29472,815;    1,249;    2,409
615,353;29320,880;   -1,660;    0,864
615,932;29017,870;    0,249;    2,409
616,510;29666,807;    0,158;    0,591
617,089;29201,315;    8,794;   17,591
617,667;28881,605;    4,885;    6,136
618,246;28740,365;   -1,115;    1,318
618,824;28957,271;    1,612;   -0,955
619,402;28486,552;    0,431;   -1,773
619,981;29010,180;    1,067;   -1,045
620,559;28851,170;    0,794;    1,682
621,137;28358,001;    3,067;    1,864
621,715;28357,428;    3,703;   -0,682
622,293;28259,960;    1,885;   -0,773
622,871;28767,190;    0,340;    0,500
623,450;28281,106;    0,430;   -0,864
624,028;28196,286;   -0,388;   -0,955
624,606;27795,235;    2,339;    1,682
625,183;28220,551;   -0,661;   -1,136
625,761;27782,270;    1,885;    1,136
626,339;28138,331;    2,339;    2,591
626,917;28519,565;    0,339;   -0,045
627,495;28592,712;    2,794;    1,318
628,073;28003,903;    5,248;    2,864
628,650;27693,871;    3,067;    2,136
629,228;28137,109;    1,248;    4,409
629,806;27480,705;   -0,024;    1,136
630,383;27770,724;    0,066;   -0,318
630,961;27543,192;   -2,206;   -0,955
631,539;27260,313;   -2,479;    0,227
632,116;26484,010;   12,703;   15,409
632,694;27124,012;    4,885;    6,500
633,271;27461,529;    1,975;    2,682
633,848;27346,090;    1,430;    2,045
634,426;27382,966;    1,521;    1,773
635,003;26501,841;   -0,207;   -0,409
635,580;26822,811;    1,884;    3,682
636,158;27430,900;    3,793;    1,227
636,735;27368,289;    3,339;   -0,500
637,312;27486,277;    0,521;   -0,682
637,889;27589,622;    2,248;   -0,682
638,466;27097,402;    0,066;   -0,409
639,043;27140,396;    1,702;   -1,136
639,620;27421,356;    0,611;   -0,955
640,197;27698,876;    1,612;    1,682
640,774;27883,485;    1,430;    1,136
641,351;28292,913;    0,612;    1,136
641,928;27660,068;    2,794;    1,409
642,505;27333,587;    0,794;   -0,500
643,082;27447,015;    1,885;    1,227
643,658;26437,534;    1,157;    1,500
644,235;27187,507;   -2,479;    2,500
644,812;27432,753;    1,794;    0,773
645,388;27207,090;    1,612;    1,409
645,965;27286,245;    1,521;    1,682
646,542;27352,127;    3,430;   -0,227
647,118;27398,010;    3,703;   -0,955
647,695;27723,710;    0,339;    1,136
648,271;27545,684;   -2,115;    0,500
648,848;27893,839;    0,248;    2,227
649,424;27754,812;    0,976;    1,318
650,000;27466,785;   -0,388;   -1,045
650,577;27301,304;    0,158;   -0,955
651,153;27788,459;   -1,115;    0,955
651,729;28802,887;    0,521;    0,864
652,305;28940,133;    1,339;    2,773
652,881;33495,470;   -1,297;    1,136
653,458;40622,989;    0,249;    0,227
654,034;44661,235;    0,703;    1,591
654,610;46246,117;    0,339;    0,773
655,186;47637,545;    1,612;    3,045
655,762;47419,064;   -1,842;    0,409
656,338;47489,310;    0,703;    0,136
656,913;48443,374;   -0,297;    0,409
657,489;47775,256;    0,249;   -0,318
658,065;47736,229;    0,794;   -1,591
658,641;48341,839;    2,158;   -0,864
659,217;47641,085;    2,067;    0,409
659,792;47077,331;   -1,751;   -0,409
660,368;47418,486;   -0,388;   -0,682
660,944;47166,278;    1,794;    1,227
661,519;42455,342;    0,522;    0,409
662,095;35997,133;   -0,206;    0,591
662,670;31048,743;   -0,206;   -0,136
663,246;29812,353;   -0,660;   -0,409
663,821;29027,508;    0,431;    1,682
664,396;28544,936;    0,613;    1,864
664,972;28824,545;   -0,660;   -0,500
665,547;29158,155;    3,794;    0,136
666,122;29185,765;    1,340;    0,318
666,698;29462,465;    2,431;    0,318
667,273;28752,257;    0,885;    0,136
667,848;29617,321;    0,340;    1,500
668,423;29385,840;    1,795;    2,318
668,998;30003,631;    0,976;   -0,682
669,573;30514,877;    2,067;   -1,500
670,148;30332,123;    1,885;   -0,682
670,723;30129,642;   -0,024;    0,318
671,298;30598,343;   -1,296;    1,045
671,873;30754,770;   -0,296;   -0,136
672,448;30666,107;    1,704;    0,136
673,023;31071,444;    0,249;   -0,227
673,597;31401,872;    2,704;    2,318
674,172;31101,391;    2,431;    0,318
674,747;30553,091;   -0,205;   -1,045
675,321;30504,792;   -0,933;    3,318
675,896;30024,947;    2,158;    1,045
676,471;31004,739;    2,522;    1,591
677,045;30738,166;   -0,296;    0,682
677,620;30772,867;    2,158;    1,136
678,194;31112,204;    0,249;    1,136
678,769;30701,450;    0,886;   -0,318
679,343;30916,332;   -0,023;    1,773
679,917;30748,942;    0,340;    1,955
680,492;30823,552;    0,249;    3,227
681,066;30936,434;    0,613;    0,409
681,640;31018,407;    1,795;   -0,318
682,214;31840,290;    2,340;    0,500
682,788;31306,808;    0,613;   -0,773
683,363;31295,418;    1,977;    1,682
683,937;30976,482;    0,886;   -0,318
684,511;31810,456;   -1,023;   -0,591
685,085;31494,792;   -1,478;    0,318
685,659;31290,311;    1,431;    0,864
686,232;31445,012;    1,159;   -0,318
686,806;31182,349;    2,159;    0,409
687,380;31835,140;   -1,932;    0,591
687,954;32110,568;    2,432;    1,136
688,528;31723,996;    2,613;    1,955
689,101;32509,515;    0,432;    1,045
689,675;32091,397;    0,886;   -0,136
690,249;31480,188;    3,432;    0,409
690,822;31777,253;    1,159;    0,318
691,396;31887,408;    2,068;    1,227
691,969;31325,745;    2,523;    0,136
692,543;31835,991;   -0,568;   -1,955
693,116;31448,509;   -0,659;   -1,409
693,690;31307,483;   -0,296;    0,500
694,263;31858,365;    2,341;    2,955
694,836;31907,248;    2,795;    3,591
695,410;30418,857;    1,159;    1,773
695,983;30926,467;    1,614;    0,591
696,556;30897,622;   -0,750;   -1,045
697,129;31342,959;   -1,114;    1,409
697,703;30913,478;    1,341;    1,955
698,276;30945,451;    1,705;   -0,773
698,849;30687,879;   -1,023;    1,409
699,422;31098,670;    1,250;    0,591
699,995;30770,007;   -0,659;    0,136
700,568;31282,980;   -0,204;    3,045
701,140;31318,045;   -1,841;    1,682
701,713;31037,927;    0,341;    2,409
702,286;30800,809;    0,796;    0,864
702,859;30664,419;    0,614;   -0,591
703,432;29759,847;   -0,841;    0,682
704,004;30304,638;    1,978;    0,318
704,577;30226,612;    1,068;    0,136
705,150;30709,767;    0,887;    2,500
705,722;30457,558;    1,523;   -3,227
706,295;30286,532;    1,432;   -0,591
706,867;30074,414;    0,250;    1,955
707,440;30330,478;   -0,113;   -0,409
708,012;30578,815;   -0,022;    0,591
708,584;30480,152;    2,705;    0,227
709,157;30854,307;    1,160;   -0,591
709,729;30481,826;    1,069;    2,045
710,301;31357,981;   -1,204;    0,045
710,874;31352,409;    0,341;   -0,227
711,446;30196,018;   -0,295;    0,864
712,018;30067,355;   -3,022;    0,500
712,590;29784,601;   -0,204;    1,682
713,162;30348,666;   -0,477;    1,318
713,734;30565,912;    1,796;   -2,045
714,306;30453,794;    0,342;   -0,409
714,878;29107,222;   -0,295;    0,864
715,450;29939,013;   -0,113;    0,864
716,022;30202,896;    2,433;    1,318
716,593;30355,142;    0,978;    0,591
717,165;30273,842;    1,796;   -1,227
717,737;29996,634;    0,796;    0,409
718,309;29636,516;    1,160;   -0,045
718,880;29587,853;   -1,295;   -1,409
719,452;29835,826;    0,887;   -1,591
720,024;29353,254;    1,705;   -0,591
720,595;29962,682;    2,978;    0,955
721,167;29452,201;    1,160;   -2,045
721,738;28957,265;    2,069;   -1,045
722,309;28888,875;    1,251;   -1,227
722,881;28651,303;    2,705;    0,773
723,452;29301,639;    1,251;    2,864
724,023;29551,249;    1,524;    2,682
724,595;29333,495;    2,342;    0,682
725,166;29053,287;    1,524;   -0,409
725,737;28648,624;    1,887;    0,227
726,308;28738,779;    0,797;    0,318
726,879;29146,479;    1,069;    1,227
727,450;29022,362;   -2,022;   -0,045
728,021;29006,789;    1,069;    0,682
728,592;28860,581;    1,160;    0,500
729,163;29169,281;    1,433;   -0,136
729,734;29128,346;    2,160;   -0,227
730,305;29465,410;    0,615;    0,136
730,876;29852,474;    0,888;    2,955
731,447;29547,266;    0,797;    2,682
732,017;29631,602;   -0,840;    1,864
732,588;29121,758;   -0,021;    1,227
733,159;29324,185;    3,615;   -1,045
733,729;29133,250;    1,251;    0,409
734,300;28379,223;    0,160;    0,864
734,870;28863,196;   -1,385;    0,591
735,441;29413,351;    0,888;   -0,591
736,011;29083,052;    1,070;   -1,591
736,582;29057,207;    1,251;    0,045
737,152;28513,726;    0,979;   -2,045
737,722;28997,517;    1,070;   -0,682
738,293;28722,491;   -2,021;    1,318
738,863;28599,464;    1,797;    2,318
739,433;28407,983;    4,524;    0,318
740,003;29075,592;    1,524;   -0,682
740,573;28394,929;    2,252;   -1,591
741,143;28398,448;    3,615;    0,318
741,713;29209,512;    0,252;   -0,500
742,283;28860,485;    1,706;    1,591
742,853;28600,459;    0,524;    1,591
743,423;28045,068;    0,161;    0,045
743,993;28171,314;    1,070;    1,500
744,563;27506,560;    2,524;   -0,864
745,133;27461,897;   -0,112;   -0,864
745,702;28252,871;    2,797;    1,773
746,272;27417,662;    0,434;    0,591
746,842;27111,544;   -0,748;   -0,591
747,411;27549,063;   -0,839;   -0,318
747,981;27733,309;   -0,930;    0,500
748,551;27832,555;   -0,021;   -1,045
749,120;27637,710;   -0,112;   -0,227
749,690;28036,229;    2,161;    2,409
750,259;28350,475;    0,979;    2,955
750,828;28241,267;    4,070;   -1,955
751,398;28517,876;   -0,112;   -0,045
751,967;27982,940;    2,888;    0,409
752,536;28237,914;    1,161;   -0,227
753,105;28652,342;   -1,384;    0,227
753,675;28378,951;   -0,112;    1,773
754,244;28321,743;    0,888;    3,591
754,813;28409,352;    0,979;    1,227
755,382;27998,507;    0,798;    0,955
755,951;28515,844;   -0,112;    3,682
756,520;28023,363;    2,525;    1,864
757,089;28620,427;    1,888;    0,500
757,658;28763,673;    2,434;    1,227
758,227;28737,556;   -1,111;    0,318
758,795;29045,984;   -1,021;    1,136
759,364;29315,957;    0,525;   -0,591
759,933;28318,294;    1,343;   -0,045
760,501;27805,631;    0,252;   -1,318
761,070;28328,877;   -0,293;   -1,409
761,639;29005,486;    1,434;    1,318
762,207;28224,278;    0,889;   -0,955
762,776;28273,524;    2,889;    0,864
763,344;28216,861;    0,071;    0,591
763,913;27334,743;    1,616;    1,409
764,481;28120,535;    1,980;   -0,136
765,049;27895,690;    0,616;    1,409
765,618;27806,209;    1,434;    0,318
766,186;27857,818;    2,434;    0,136
766,754;28010,792;    1,798;    1,864
767,322;26958,674;    1,162;    0,409
767,890;26960,556;    0,525;   -1,773
768,459;27339,257;    2,616;   -0,318
769,027;27531,139;    2,525;    3,409
769,595;26534,749;    2,616;    2,591
770,163;26928,359;    3,344;    2,955
770,730;26761,968;    2,525;   -0,136
771,298;26576,123;    1,162;   -1,409
771,866;26619,915;    0,253;    4,955
772,434;26926,979;    1,162;   -1,864
773,002;27118,952;    2,616;    0,682
773,569;26735,744;    1,071;    1,682
774,137;26595,990;    0,889;   -0,045
774,705;27345,690;   -0,747;   -0,136
775,272;26861,300;    0,253;    0,682
775,840;26647,910;   -0,111;    2,682
776,407;26148,701;   -0,293;    1,955
776,975;25717,038;    1,162;    0,318
777,542;26754,920;    2,162;   -0,045
778,110;26633,439;    0,707;   -0,045
778,677;26283,140;    1,071;   -0,864
779,244;26009,477;   -1,020;    1,045
779,812;26152,995;    0,980;    0,864
780,379;25961,151;    2,435;    1,136
780,946;26189,215;    2,617;   -0,773
781,513;26513,552;   -0,565;    0,318
782,080;25832,161;    1,253;    2,864
782,647;26627,953;    1,708;    3,045
783,214;26219,290;   -0,201;    3,864
783,781;25787,809;    1,708;   -0,682
784,348;25635,145;    0,253;    1,500
784,915;26126,301;   -1,474;    0,318
785,482;25861,728;    2,708;    2,591
786,049;26306,247;    1,071;   -0,591
786,615;26437,948;    1,708;   -0,955
787,182;26240,648;   -3,201;   -0,682
787,749;25915,803;   -2,201;    1,409
788,315;25176,868;    0,253;   -0,409
788,882;25493,114;    0,981;   -1,227
789,448;26132,996;    1,435;   -0,955
790,015;26172,515;    1,799;    3,227
790,581;25714,670;    0,708;    0,227
791,148;25556,552;    1,344;    1,045
791,714;25835,435;   -1,019;    3,136
792,280;25531,044;    3,708;    1,591
792,847;25037,472;   -0,928;    2,500
793,413;25621,354;   -0,110;   -0,318
793,979;25109,691;    1,526;   -1,318
794,545;25189,847;    2,981;    2,682
795,111;24651,183;    2,435;    1,318
795,678;24812,429;    3,526;   -1,682
796,244;24459,312;    2,799;    0,136
796,810;25035,922;    0,799;    0,773
797,375;24739,713;   -0,292;   -2,136
797,941;24741,504;   -1,110;    0,591
798,507;24907,296;    0,254;   -0,955
799,073;24437,451;    2,708;    0,591
799,639;24536,243;    1,435;    3,136
800,205;24552,670;   -1,565;    2,682
800,770;24037,189;    1,345;    1,773
801,336;24057,708;    2,981;   -0,955
801,901;23768,227;    6,072;    3,136
802,467;24330,018;    0,526;    2,045
803,033;23643,628;   -0,019;    0,864
803,598;23829,146;    1,072;   -1,045
804,163;23926,029;    0,708;   -0,318
804,729;23856,002;   -0,110;    1,136
805,294;24288,430;    1,072;    2,227
805,859;24088,676;    0,890;   -0,409
806,425;23519,922;    3,890;    2,682
806,990;23186,350;    1,890;    4,318
807,555;23717,050;   -0,110;    2,591
808,120;23593,206;   -1,292;   -0,409
808,685;23671,724;    1,072;   -2,500
809,250;23112,698;    2,072;   -0,500
809,815;23389,125;   -0,201;    0,682
810,380;23973,735;    0,981;    1,591
810,945;24483,436;    2,890;    2,045
811,510;23694,409;   -0,200;    1,591
812,075;23411,837;    2,800;   -1,409
812,640;23388,446;    3,709;    1,409
813,204;23457,602;    2,163;   -0,227
813,769;23964,575;    0,254;   -0,045
814,334;23329,730;    0,527;    0,864
814,898;23390,794;    1,981;    0,591
815,463;23240,949;    0,981;   -0,773
816,027;23219,650;    1,345;   -2,318
816,592;23354,259;    2,163;   -2,045
817,156;22790,506;   -2,200;    1,136
817,721;22596,024;    0,982;    2,318
818,285;22583,452;    0,618;    1,500
818,849;23228,244;   -0,018;    1,682
819,414;23136,308;    0,073;    2,955
819,978;22719,554;   -0,291;    1,773
820,542;23297,345;    2,891;    0,500
821,106;23039,409;    2,800;    0,682
821,670;23084,746;    2,709;    2,591
822,234;22796,720;    1,073;    1,409
822,798;22206,602;   -0,836;    0,500
823,362;22135,939;    1,527;    4,227
823,926;21444,003;   -0,018;    1,136
824,490;21645,704;    3,527;   -0,682
825,054;22141,495;    2,527;   -1,136
825,618;21767,923;   -1,200;   -1,500
826,181;21652,533;    0,982;   -1,318
826,745;21549,506;   -0,745;   -1,045
827,309;21939,388;    2,255;    1,318
827,872;21319,634;    0,527;    0,955
828,436;22314,062;    1,982;   -0,773
828,999;22380,126;    2,436;    1,227
829,563;21188,009;   -0,654;    1,136
830,126;21004,619;   -0,018;   -0,591
830,690;20976,683;    0,709;    2,864
831,253;20500,838;   -0,473;    2,227
831,816;20616,993;   -0,018;    0,500
832,380;20549,603;    1,164;    0,864
832,943;20757,940;    3,073;   -0,500
833,506;20271,822;    0,255;   -1,227
834,069;21074,613;    2,164;   -0,955
834,632;21136,314;   -2,200;    1,318
835,195;21008,105;    1,346;    0,955
835,758;20215,806;    0,709;    1,955
836,321;20036,052;    1,073;   -1,045
836,884;20119,662;   -1,291;   -0,955
837,447;20178,999;    0,528;    1,773
838,010;20425,790;    1,800;    3,227
838,573;20768,127;    0,528;    0,773
839,135;20729,464;   -0,109;   -0,955
839,698;20145,165;    2,528;    0,409
840,261;19658,956;    0,255;   -0,227
840,823;19498,111;   -0,927;    0,864
841,386;19745,812;   -0,018;   -2,409
841,948;19654,421;    0,255;    1,773
842,511;19393,758;    0,255;    1,682
843,073;19569,186;    2,982;    0,227
843,636;19336,250;    0,619;   -0,227
844,198;19266,224;    1,255;    0,591
844,760;19407,379;    0,619;    1,955
845,322;19042,716;    0,164;    1,136
845,885;19456,234;   -0,290;    0,591
846,447;19882,117;    0,710;    0,227
847,009;19418,636;    3,983;   -0,682
847,571;19768,882;    1,346;   -2,045
848,133;19880,946;   -0,199;   -1,864
848,695;19701,828;    2,346;    1,409
849,257;19201,892;    1,346;   -1,682
849,819;19395,593;    2,983;   -0,409
850,381;19440,839;    1,801;   -0,864
850,942;19811,994;    1,892;   -0,591
851,504;19707,058;    0,983;    0,227
852,066;19744,032;    1,619;   -1,591
852,628;19298,368;    0,165;    1,955
853,189;18870,524;    0,256;    2,682
853,751;18977,860;   -0,654;    1,409
854,312;18791,743;    1,256;   -1,682
854,874;19337,171;   -0,108;   -0,773
855,435;19778,508;    0,528;   -1,682
855,997;19960,390;    3,983;   -0,136
856,558;19204,091;    0,801;    1,773
857,119;19344,428;   -0,744;    2,864
857,681;18996,037;   -0,108;    0,318
858,242;19030,010;    1,347;   -2,136
858,803;19519,984;    1,074;   -0,773
859,364;20030,412;    0,892;   -4,773
859,925;19399,021;   -0,290;   -0,955
860,486;19359,904;    0,529;   -0,955
861,047;19001,786;    0,165;   -1,227
861,608;18803,214;    0,165;   -0,773
862,169;18988,187;   -0,562;   -0,045
862,730;18757,615;   -0,290;    1,409
863,291;18987,316;    0,438;   -0,500
863,852;19345,471;   -0,926;    1,955
864,412;18795,808;   -1,835;   -0,864
864,973;17330,963;    1,892;    0,500
865,534;17172,663;    2,074;    0,227
866,094;18677,364;    2,620;    0,227
866,655;18344,064;    4,711;    3,318
867,215;18644,310;    0,074;    0,136
867,776;18481,011;   -1,199;   -0,136
868,336;18564,075;    1,529;    0,136
868,897;18005,048;    3,438;    1,682
869,457;17812,204;    3,256;    0,318
870,017;18080,541;    2,438;   -1,227
870,578;18563,968;    1,893;    0,773
871,138;18194,033;    2,620;   -0,955
871,698;17724,551;   -0,562;   -1,318
872,258;17550,070;    0,711;   -2,864
872,818;17934,771;    2,347;    0,045
873,378;17893,653;   -2,198;    1,045
873,938;17469,263;    4,984;    0,500
874,498;17775,963;    1,256;   -1,955
875,058;17694,482;    4,347;    1,773
875,618;17577,910;    1,438;   -2,682
876,177;17517,792;   -0,471;    0,136
876,737;17084,584;   -0,289;    1,955
877,297;17043,648;    2,711;    1,955
877,856;17121,985;    2,529;    0,318
878,416;17007,140;    2,438;   -0,136
878,976;17238,931;    3,438;    0,409
879,535;17436,996;    4,529;    3,136
880,095;17129,605;    1,347;    0,045
880,654;17248,942;    0,347;    1,318
881,213;17346,825;    2,347;    1,500
881,773;17010,161;    1,984;    2,682
882,332;17377,680;    6,075;    5,136
882,891;17228,654;    0,711;    2,136
883,451;17641,354;   -2,016;    1,682
884,010;17149,418;   -1,107;   -0,409
884,569;17168,846;   -2,289;   -0,045
885,128;17305,092;   -0,743;   -1,864
885,687;17404,793;   -0,743;    0,682
886,246;17129,221;    2,620;    2,136
886,805;16880,557;    1,620;    2,045
887,364;17197,804;    1,166;   -0,500
887,922;17507,595;   -0,016;    0,045
888,481;16996,296;    1,530;    0,591
889,040;17365,360;    3,711;    2,136
889,599;18041,060;    2,166;    1,409
890,157;18096,306;    2,166;    2,409
890,716;17755,734;    2,166;    0,227
891,274;17579,253;    0,075;   -1,136
891,833;17953,135;    1,166;    0,864
892,391;17864,290;    1,802;    0,500
892,950;17963,173;    0,166;   -0,773
893,508;18310,328;    0,984;   -0,409
894,067;17654,756;   -0,379;    0,136
894,625;17579,456;   -1,016;   -1,500
895,183;17772,611;   -0,198;   -0,682
895,741;17672,676;    2,257;   -1,773
896,299;17496,649;    1,621;   -2,409
896,858;17703,259;    1,530;   -1,591
897,416;17797,141;    0,166;   -1,318
897,974;17574,296;   -2,197;    0,318
898,532;17699,724;    6,530;    2,682
899,089;17563,424;    0,621;   -0,682
899,647;17647,398;    0,530;    1,318
900,205;17401,917;    0,257;    1,045
900,763;17585,253;    2,166;    0,227
901,321;17636,681;    3,530;   -1,409
901,878;17040,109;    3,257;   -0,773
902,436;16856,082;    0,257;    1,318
902,994;17258,692;    6,712;    3,682
903,551;16723,302;    1,439;    0,409
904,109;17118,457;    1,530;   -1,409
904,666;16668,794;    1,439;    1,045
905,224;16461,494;    3,894;   -0,409
905,781;16179,377;   -0,470;   -0,318
906,338;16284,805;    0,167;    1,045
906,895;16247,414;    1,894;    2,045
907,453;16161,388;    2,348;    1,136
908,010;16147,179;    3,348;    0,409
908,567;15767,334;   -0,561;    0,591
909,124;15303,126;    2,439;   -1,500
909,681;15390,553;   -1,288;    0,682
910,238;15495,981;   -0,106;   -1,318
910,795;15846,591;   -1,561;   -1,136
911,352;15467,591;   -0,379;   -2,682
911,909;14887,955;    2,803;   -0,864
912,466;15334,500;    1,985;    1,500
913,022;14898,773;   -0,924;    0,500
913,579;15275,136;   -0,470;    2,045
914,136;14960,773;   -2,561;    0,955
914,692;15347,409;    1,530;   -1,227
915,249;14907,500;    0,530;    0,409
915,806;15078,045;    1,803;    1,955
916,362;14821,045;    0,894;    1,864
916,918;14407,500;    2,439;    1,045
917,475;14379,227;    1,621;    0,955
918,031;14502,864;    0,076;   -0,045
918,587;13907,500;    0,621;   -0,318
919,144;14132,227;   -0,379;    0,227
919,700;14473,773;    0,167;    0,773
920,256;14033,955;    0,439;    0,045
920,812;13636,773;    1,439;   -1,045
921,368;13643,318;    1,348;   -1,045
921,924;13277,045;    0,439;   -0,136
922,480;12837,682;    0,076;    1,227
923,036;13437,045;   -0,652;    1,955
923,592;13413,318;    0,621;    0,318
924,148;13325,955;    1,894;   -0,955
924,704;12618,682;    0,258;   -0,409
925,259;12896,500;   -0,561;    0,591
925,815;12651,409;    3,803;    0,500
926,371;12177,682;    3,530;    1,409
926,926;12041,955;    1,621;    0,591
927,482;11662,227;    1,621;    0,773
928,037;11536,045;   -0,833;    2,045
928,593;11831,682;    0,258;    1,045
929,148;11645,500;    1,167;   -1,500
929,704;11155,591;    2,439;   -0,500
930,259;11331,136;    0,894;   -0,136
930,814;10408,864;    1,803;    1,955
931,369;10127,318;    0,258;   -0,773
931,925;10018,318;   -1,924;    0,136
932,480; 9869,045;    3,076;   -2,591
933,035; 9742,318;    3,985;   -0,318
933,590; 9502,591;   -1,742;   -1,773
934,145; 9158,955;   -1,288;   -0,318
934,700; 9553,318;    0,348;   -0,591
935,255; 9309,500;    4,803;    0,045
935,809; 8553,227;    6,258;    0,864
936,364; 7664,409;    2,167;   -0,136
936,919; 7634,045;    2,348;   -1,773
937,474; 7516,682;    1,348;    0,136
938,028; 7296,773;    3,076;    1,136
938,583; 6708,682;    6,348;    4,682
939,138; 7045,864;    0,167;    2,136
939,692; 6508,500;   -1,015;   -1,136
940,247; 6173,955;    1,167;   -1,045
940,801; 5695,500;    0,621;    0,227
941,355; 5603,864;    0,439;    2,591
941,910; 5286,045;    0,712;   -2,136
942,464; 5364,136;    2,712;   -0,318
943,018; 5144,682;    3,258;   -0,227
943,572; 5072,227;    2,803;   -0,682
944,126; 4469,318;   -0,924;   -0,409
944,681; 4353,318;    0,712;    0,227
945,235; 4344,682;    2,167;   -0,591
945,789; 4288,409;    1,258;   -1,864
946,342; 4367,318;   -0,561;   -0,591
946,896; 4179,591;    0,348;    0,955
947,450; 3930,318;   -0,561;   -0,227
948,004; 4111,864;    1,076;   -0,045
948,558; 4129,591;    1,258;   -0,864
949,111; 4059,682;   -1,197;   -0,318
949,665; 4087,136;   -0,106;   -0,682
950,219; 3964,773;    0,621;   -1,045
950,772; 4052,500;    0,258;    1,864
951,326; 3945,318;   -1,106;   -0,955
951,879; 4042,773;    1,076;   -2,318
952,433; 4063,318;    1,348;    2,227
952,986; 3889,500;    0,348;    0,682
953,539; 3827,500;    1,530;    0,591
954,093; 3776,500;    0,985;   -1,318
954,646; 3900,409;   -0,288;    1,318
955,199; 3736,227;    1,258;   -0,500
955,752; 3594,318;    1,985;    1,773
956,305; 3559,045;    0,894;    2,955
956,858; 3747,773;    0,621;   -0,318
957,411; 3910,682;    3,621;    2,136
957,964; 3725,591;    2,076;    2,136
958,517; 3749,773;    0,985;    3,136
959,070; 3573,409;   -1,197;    1,955
959,623; 3631,955;    1,076;    1,500
960,176; 3391,955;    0,712;    2,045
960,728; 3370,227;    1,712;    0,773
961,281; 3424,864;    2,258;    0,500
961,834; 3467,409;   -0,833;    0,864
962,386; 3377,136;    1,258;    1,045
962,939; 3301,773;    3,439;   -0,318
963,491; 3445,955;    2,621;    1,136
964,043; 3307,864;    0,076;    2,409
964,596; 3455,227;    1,712;    2,227
965,148; 3283,318;   -0,379;    1,773
965,700; 3214,864;   -0,015;   -0,227
966,253; 3376,409;   -0,833;    0,318
966,805; 3188,955;    1,894;    0,773
967,357; 3252,500;    0,439;   -1,500
967,909; 3178,773;    1,167;   -1,227
968,461; 3306,773;    0,894;    3,136
969,013; 3236,227;   -1,561;   -0,864
969,565; 3301,591;    1,803;   -1,136
970,117; 3362,136;    3,803;    1,045
970,669; 3212,136;    3,258;   -0,136
971,220; 3088,864;    2,167;   -1,500
971,772; 3014,045;    1,348;   -0,318
972,324; 3119,773;   -1,197;   -0,500
972,876; 3065,409;    0,167;   -0,045
973,427; 3195,864;   -1,197;   -1,045
973,979; 3176,500;    0,076;   -2,500
974,530; 3209,955;    0,803;    1,318
975,082; 3221,318;    2,167;    1,682
975,633; 3102,955;    2,894;    1,682
976,184; 3256,409;    2,076;    0,773
976,736; 3037,955;    0,348;    0,227
977,287; 2808,864;    0,258;   -0,500
977,838; 3017,773;   -0,924;   -0,318
978,389; 3054,318;    0,803;   -0,500
978,940; 2933,500;    1,258;   -0,409
979,491; 2962,591;    2,258;   -0,500
980,042; 2916,864;   -0,652;    3,045
980,593; 3006,227;    1,894;    0,227
981,144; 3051,773;    3,530;   -0,500
981,695; 2998,682;   -0,470;    1,500
982,246; 2948,682;   -1,833;    1,045
982,797; 3129,773;   -0,561;    0,682
983,347; 3241,773;    2,167;    0,591
983,898; 3391,045;    4,167;    0,409
984,449; 3202,409;    2,530;    0,773
984,999; 3125,227;    1,894;   -1,136
985,550; 2889,682;    3,167;   -0,318
986,100; 2934,773;    0,712;   -0,318
986,651; 2956,773;    0,258;    0,045
987,201; 2940,045;    0,894;   -0,591
987,751; 3051,591;   -0,288;    2,864
988,302; 3022,045;   -0,379;    1,500
988,852; 3031,682;    1,985;   -1,136
989,402; 3062,227;    0,985;    0,682
989,952; 2980,591;    1,621;    0,864
990,502; 3088,864;    1,076;    0,682
991,052; 3064,682;   -0,106;    0,045
991,602; 2928,409;    1,167;    1,318
992,152; 2929,864;    2,803;    0,682
992,702; 2909,136;    1,167;   -0,045
993,252; 2824,864;    0,076;   -0,500
993,802; 2907,136;    1,167;    1,318
994,352; 3165,409;   -0,742;    1,136
994,901; 3272,682;    1,076;    3,227
995,451; 3176,773;   -1,197;    0,318
996,000; 3255,591;    1,076;    0,318
996,550; 2938,500;    2,894;    0,227
997,100; 2962,773;   -0,561;   -0,045
997,649; 3256,864;   -0,197;    0,955
998,198; 2882,500;   -0,288;   -1,500
998,748; 3049,773;    0,348;   -2,318
999,297; 2983,591;    0,985;   -0,409
999,846; 3051,318;    1,894;   -0,773
1000,395; 3101,864;    1,530;    0,500
1000,945; 3046,955;    1,076;   -0,773
1001,494; 3128,136;    0,167;    0,682
1002,043; 3131,955;    0,712;    0,864
1002,592; 2968,409;    3,439;    1,955
1003,141; 3099,864;    2,439;   -0,682
1003,690; 2929,318;    1,258;    0,500
1004,238; 3018,500;   -0,106;   -0,045
1004,787; 2642,136;   -1,288;    1,227
1005,336; 2897,318;    1,621;    0,682
1005,885; 3036,682;   -0,197;   -2,773
1006,433; 3173,955;   -0,470;    0,955
1006,982; 3229,136;    2,167;    1,682
1007,531; 3149,409;    2,712;   -0,227
1008,079; 3126,591;    0,258;    0,500
1008,627; 3266,500;    1,621;    0,409
1009,176; 2990,773;    0,076;   -1,955
1009,724; 3030,591;   -2,742;    0,864
1010,273; 3081,136;    1,076;    0,500
1010,821; 3211,682;    1,076;    1,409
1011,369; 2929,045;    0,076;    1,318
1011,917; 2910,591;   -0,833;   -0,591
1012,465; 3204,773;    2,530;   -1,591
1013,013; 3323,955;    0,439;   -1,682
1013,561; 3179,955;   -1,288;   -0,773
1014,109; 3226,045;   -0,833;    1,682
1014,657; 3107,773;    1,348;    0,591
1015,205; 3236,136;    0,894;   -0,955
1015,753; 3260,409;    0,258;   -1,409
1016,301; 3305,591;    2,621;    3,045
1016,848; 3320,045;    2,167;    0,409
1017,396; 3339,500;    1,621;    0,045
1017,944; 3479,955;    2,621;    1,864
1018,491; 3236,500;   -0,197;    1,409
1019,039; 3375,955;   -0,652;    0,591
1019,586; 3300,227;    0,076;    1,682
1020,134; 3404,227;    0,712;    1,500
1020,681; 3410,773;    2,894;   -1,136
1021,228; 3434,227;   -0,561;   -2,227
1021,776; 3263,955;   -0,833;   -1,136
1022,323; 3459,318;    0,803;    0,773
1022,870; 3428,955;   -0,470;   -0,045
1023,417; 3298,955;    2,076;    1,864
1023,964; 3461,045;    0,621;    1,227
1024,511; 3289,955;   -0,652;    0,773
1025,058; 3073,045;    0,439;   -0,045
1025,605; 3136,955;   -1,742;    3,136
1026,152; 3334,682;   -0,106;   -0,591
1026,699; 3058,136;    0,167;    1,318
1027,245; 3237,955;    2,439;    0,318
1027,792; 3463,136;    0,712;    1,409
1028,339; 3353,318;    4,076;   -0,045
1028,885; 3186,591;    3,621;   -0,227
1029,432; 3134,773;   -0,106;    0,227
1029,978; 3200,409;    1,348;   -1,591
1030,525; 3106,682;    1,621;    0,409
1031,071; 3369,500;    0,348;    1,136
1031,618; 3436,773;    1,258;    1,682
1032,164; 3227,955;    2,076;    3,045
1032,710; 3256,773;    0,076;   -1,500
1033,256; 3209,227;    0,712;   -0,136
1033,803; 3202,773;   -0,288;    1,500
1034,349; 2929,500;    1,803;    0,136
1034,895; 3078,500;    2,621;   -0,318
1035,441; 3045,955;    0,439;    0,318
1035,987; 3055,955;   -2,288;   -0,682
1036,533; 3046,409;   -0,197;   -0,955
1037,078; 3249,136;    4,712;    1,682
1037,624; 3067,045;    2,439;   -0,955
1038,170; 3100,045;    1,712;   -0,318
1038,716; 2979,045;    2,167;   -0,409
1039,261; 2897,136;    2,167;   -0,773
1039,807; 2841,136;   -0,015;    3,409
1040,352; 2914,136;   -1,288;   -0,318
1040,898; 2956,227;    0,167;   -0,682
1041,443; 2861,682;    0,803;   -2,591
1041,989; 2903,682;    3,621;    1,591
1042,534; 2770,500;    0,985;    2,591
1043,079; 2923,136;    1,985;    0,955
1043,625; 2675,773;    0,258;    0,500
1044,170; 2717,318;    2,439;    1,045
1044,715; 2973,864;    0,167;    0,955
1045,260; 2785,136;   -0,833;   -0,955
1045,805; 2836,591;    0,258;   -0,591
1046,350; 2788,864;    0,530;   -0,409
1046,895; 2752,773;    0,803;    1,591
1047,440; 2681,045;    1,530;    0,409
1047,985; 2579,318;   -1,197;   -0,955
1048,530; 2494,318;    1,348;    1,227
1049,074; 2564,227;    2,803;    0,318
1049,619; 2530,045;   -0,924;    1,955
1050,164; 2334,591;    1,076;    0,227
1050,708; 2391,773;    2,621;    0,045
1051,253; 2767,591;    3,258;   -2,227
1051,797; 2474,318;   -0,197;   -1,318
1052,342; 2506,864;    1,348;    1,045
1052,886; 2483,227;    1,803;   -1,409
1053,430; 2360,136;    2,167;    0,136
1053,975; 2362,682;    0,894;   -0,318
1054,519; 2337,864;    1,803;    3,227
1055,063; 2354,318;    3,621;    1,318
1055,607; 2226,136;    1,348;    0,227
1056,151; 2262,773;    0,530;    1,682
1056,695; 2199,864;   -1,833;   -1,136
1057,239; 2249,318;   -1,197;   -0,682
1057,783; 2250,955;    2,258;   -1,500
1058,327; 2195,045;    3,076;    1,409
1058,871; 2429,500;    3,985;    1,318
1059,415; 2129,136;   -0,561;   -0,045
1059,958; 2372,318;    2,985;    2,591
1060,502; 2112,500;    1,348;   -0,773
1061,046; 2025,955;    1,712;   -0,955
1061,589; 2005,864;    2,803;   -1,136
1062,133; 1885,773;    0,985;    1,864
1062,676; 1837,318;    1,439;    0,864
1063,220; 1834,773;    0,985;    0,500
1063,763; 1844,591;    2,985;    1,136
1064,306; 1909,591;    0,985;    1,864
1064,849; 1798,318;    2,076;    0,591
1065,393; 1808,682;    2,894;   -1,500
1065,936; 1935,682;    2,530;   -0,409
1066,479; 1831,136;    2,621;    1,318
1067,022; 1841,136;    1,894;   -0,227
1067,565; 1736,409;   -1,197;   -1,318
1068,108; 1780,318;    1,258;   -0,591
1068,651; 1755,591;   -2,470;    1,409
1069,194; 1691,591;   -1,106;   -1,682
1069,736; 1670,136;    3,803;    0,955
1070,279; 1651,955;   -1,652;   -0,500
1070,822; 1700,318;    1,530;   -0,318
1071,364; 1761,682;    0,530;    1,318
1071,907; 1590,500;    0,348;    3,227
1072,450; 1523,136;    0,258;   -0,045
1072,992; 1515,409;   -0,561;    3,136
1073,535; 1633,409;    0,167;    2,136
1074,077; 1437,045;    2,985;    2,045
1074,619; 1392,136;    0,985;    0,591
1075,161; 1415,591;   -0,561;    1,500
1075,704; 1591,227;    0,258;    1,227
1076,246; 1402,682;    1,530;    0,682
1076,788; 1344,500;   -1,015;    1,773
1077,330; 1434,864;   -2,106;    2,136
1077,872; 1375,318;   -1,924;    0,955
1078,414; 1587,045;    3,712;    0,773
1078,956; 1320,318;    0,167;   -0,227
1079,498; 1559,136;    0,439;    0,318
1080,040; 1271,045;    0,985;   -1,318
1080,581; 1232,864;    0,621;   -0,318
1081,123; 1172,682;   -0,106;   -0,773
1081,665; 1225,864;    3,803;   -0,955
1082,206; 1496,500;    3,258;   -0,500
1082,748; 1365,318;    3,258;    2,045
1083,289; 1257,773;    0,167;    1,318
1083,831; 1155,045;    0,258;    0,227
1084,372; 1170,409;    0,894;    0,591
1084,913; 1157,500;    3,348;    0,864
1085,455; 1148,045;    1,530;   -2,045
1085,996; 1117,591;    0,530;    0,136
1086,537; 1142,955;    0,985;    0,864
1087,078; 1179,955;    0,439;   -2,136
1087,619; 1211,955;   -1,652;    0,227
1088,160; 1128,318;    1,439;    1,318
1088,701; 1120,227;   -0,742;    0,682
1089,242; 1068,682;   -0,561;   -2,227
1089,783; 1150,682;   -0,561;    1,409
1090,324; 1116,045;   -0,833;    0,682
1090,865;  994,864;   -1,924;   -0,409
1091,405;  977,500;   -0,561;    2,227
1091,946; 1001,500;   -0,197;   -0,955
1092,487;  930,045;   -1,288;   -1,409
1093,027; 1097,318;    1,803;   -1,500
1093,568;  952,409;    2,258;    1,227
1094,108; 1026,955;    0,621;    1,773
1094,649;  969,136;   -0,470;    0,136
1095,189;  917,773;    1,167;   -0,682
1095,729;  851,682;    0,712;    0,955
1096,269;  874,682;    1,258;   -0,955
1096,810; 1173,955;   -0,197;    0,500
1097,350;  998,045;   -0,561;   -0,773
1097,890;  900,500;    2,985;    1,227
1098,430; 1154,409;    4,985;    2,864
1098,970; 1025,591;    1,894;    1,682
1099,510;  901,136;   -0,833;   -2,318
1100,050;  830,500;    0,258;   -1,591
1100,589;  802,773;    0,076;   -0,318
1101,129;  914,773;    0,894;   -0,955
1101,669; 1045,773;    2,803;    2,136
1102,209;  880,318;    1,530;    2,227
1102,748;  835,136;    3,439;    0,955
1103,288;  818,682;    0,712;   -1,227
1103,827;  848,318;    3,530;   -2,227
1104,367;  734,045;    1,712;   -2,409
1104,906;  708,227;   -1,015;   -1,136
1105,445;  772,227;    0,985;   -1,136
1105,985;  703,682;   -0,652;    1,500
1106,524;  754,136;    1,530;   -0,682
1107,063;  728,955;    1,167;    1,409
1107,602;  705,864;    1,894;   -1,500
1108,141;  627,318;    1,621;    1,500
1108,680;  726,955;    3,985;   -0,591
1109,219;  665,773;    0,167;   -0,500
1109,758;  662,591;    4,167;    0,682
1110,297;  642,864;   -1,106;   -0,682
1110,836;  596,409;    1,439;    0,955
1111,375;  743,773;    0,348;    0,409
1111,913;  753,045;    0,985;    0,773
1112,452;  701,045;    0,894;    0,136
1112,991;  594,136;    1,076;    1,955
1113,529;  546,864;    0,167;   -0,045
1114,068;  607,409;    0,439;    2,955
1114,606;  517,136;   -0,561;   -0,955
1115,144;  661,318;    1,530;    1,045
1115,683;  605,318;    1,985;    0,318
1116,221;  661,045;    2,076;   -0,864
1116,759;  572,136;    1,621;   -0,864
1117,297;  741,136;    1,621;    1,864
1117,836;  561,591;    1,985;   -1,227
1118,374;  569,409;    0,258;   -0,682
1118,912;  521,318;    0,439;    2,682
1119,450;  501,045;    0,985;    0,864
1119,988;  545,591;    3,348;    2,136
1120,525;  990,864;    7,258;    3,318
1121,063;  702,409;    0,530;    1,864
1121,601;  515,773;    1,076;   -1,227
1122,139;  479,409;    1,076;   -2,045
1122,676;  660,773;   -1,652;    2,773
1123,214;  596,591;    0,712;    4,409
1123,751;  417,045;    0,621;    2,227
1124,289;  536,773;    0,894;   -0,409
1124,826;  418,045;   -0,379;    0,227
1125,364;  350,409;    0,712;   -0,955
1125,901;  530,864;    6,258;    1,227
1126,438;  621,318;    3,530;    0,955
1126,975;  368,136;    2,985;   -0,773
1127,513;  426,773;    2,621;    2,136
1128,050;  352,682;   -0,561;   -0,682
1128,587;  441,045;    1,348;   -0,227
1129,124;  470,045;   -0,015;    1,318
1129,661;  357,591;   -1,924;    0,227
1130,198;  505,864;    2,439;    0,773
1130,734;  454,500;   -0,379;    1,409
1131,271;  326,227;   -1,197;    0,864
1131,808;  488,773;    1,621;    3,045
1132,345;  366,773;    4,530;    0,318
1132,881;  257,409;   -0,561;   -1,864
1133,418;  376,318;    0,348;   -1,136
1133,954;  316,500;    0,712;   -2,682
1134,491;  382,682;    1,712;   -0,773
1135,027;  285,409;    2,167;    0,864
1135,564;  369,500;    1,439;    2,955
1136,100;  352,864;   -0,742;    2,136
1136,636;  253,864;   -1,015;   -1,045
1137,172;  329,955;    0,894;   -1,045
1137,708;  262,682;   -1,561;   -1,045
1138,245;  276,864;    0,803;   -1,227
1138,781;  240,227;    1,803;   -3,318
1139,317;  292,864;    1,894;   -1,409
1139,852;  284,136;    3,076;    0,136
1140,388;  389,227;    2,076;   -0,409
1140,924;  279,045;    1,076;   -2,227
1141,460;  221,864;   -0,288;    0,136
1141,996;  167,591;   -0,652;    2,682
1142,531;  201,682;    1,076;    3,318
1143,067;  403,682;    1,167;    1,045
1143,602;  459,500;    3,439;   -0,318
1144,138;  308,045;    0,803;    1,045
1144,673;  190,955;    1,621;    1,409
1145,209;  245,591;    2,894;   -0,318
1145,744;  166,591;    0,803;    0,864
1146,279;  293,773;    1,530;   -0,136
1146,815;  228,682;    1,530;   -2,682
1147,350;  253,500;   -0,924;    0,045
1147,885;  172,500;   -1,924;   -1,318
1148,420;  177,318;    2,439;    0,773
1148,955;  163,591;   -1,470;    1,864
1149,490;  187,045;   -1,106;   -1,591
1150,025;  162,773;   -1,106;   -1,773
1150,560;  267,409;   -0,288;   -0,955
1151,094;  236,500;    0,258;   -0,591
1151,629;  240,682;   -3,742;    0,864
1152,164;  174,864;   -1,288;    1,318
1152,698;  146,136;    1,258;   -0,136
1153,233;  104,227;   -1,379;   -0,682
1153,767;  148,682;   -0,288;   -2,318
1154,302;  178,318;   -0,379;    1,773
1154,836;  185,500;    0,803;   -2,136
1155,371;  239,409;    2,258;    3,682
1155,905;  193,864;    1,985;    1,682
1156,439;  162,682;    0,530;   -0,500
1156,973;  189,682;    0,439;    0,318
1157,507;  131,500;   -1,742;    0,682
1158,042;  148,227;   -0,652;    1,045
1158,576;  196,955;   -0,561;    1,773
1159,110;  193,409;    0,076;    2,409
1159,643;  165,136;   -2,470;   -0,045
1160,177;  114,955;   -2,015;    1,500

