
Integration time [ms]:   0,040
Averaging Nr. [scans]: 11
Smoothing Nr. [pixels]: 0
Data measured with spectrometer [name]: 7318044SP
Wave   ;Sample   ;Dark     ;Reference
[nm]   ;[counts] ;[counts] ;[counts] 

186,757;   30,565;   38,161;    1,318
187,357;   55,703;   26,706;    0,955
187,958;   39,414;   17,252;   -1,591
188,558;   74,971;   12,979;   -1,227
189,159;   55,276;   10,070;   -4,500
189,759;   22,911;    5,797;   -3,591
190,360;   13,340;    6,797;   -2,136
190,960;   49,108;    5,706;   -4,136
191,560;   58,471;    2,614;   -6,591
192,161;  274,162;    5,885;   -3,500
192,761;  140,304;    5,520;   -3,227
193,361;   91,819;    3,065;   -3,773
193,962;  149,249;    1,612;   -2,682
194,562;   74,416;   -0,114;   -3,955
195,162;  104,646;   -0,567;   -2,227
195,762;  255,061;    2,433;   -0,045
196,362;  201,535;    1,706;   -2,500
196,963;   83,836;    1,706;   -0,864
197,563;  157,313;    1,252;   -0,955
198,163;  102,235;   -0,111;   -0,682
198,763;  115,526;   -0,020;   -0,500
199,363;  217,803;    3,616;   -0,500
199,963;  178,673;    2,162;    0,409
200,563;  161,149;    6,344;   -1,409
201,163;  130,562;    5,435;   -0,227
201,763;  214,213;    1,435;    0,318
202,363;  154,545;    0,980;    1,500
202,963;  263,073;    1,526;    1,045
203,563;  360,237;    0,344;    0,500
204,162;  217,698;    1,889;   -1,864
204,762;  208,427;    2,071;    0,591
205,362;  179,854;    0,708;    1,955
205,962;  265,220;    3,435;    1,955
206,562;  263,339;    1,889;    2,318
207,161;  229,081;    1,708;    0,318
207,761;  381,999;    4,435;    2,409
208,361;  264,201;    1,889;    1,409
208,960;  352,582;    2,889;    1,500
209,560;  416,364;    0,435;    1,591
210,160;  403,114;    5,071;    1,864
210,759;  366,894;    0,708;    1,227
211,359;  366,229;   -0,474;    1,045
211,958;  623,687;    3,526;    2,045
212,558;  691,632;    0,799;    1,864
213,157;  537,267;   -0,929;    1,500
213,757;  941,830;    5,617;   -0,227
214,356;  663,191;    1,708;   -0,409
214,956;  986,325;    3,526;    0,409
215,555;  620,906;    0,617;    2,136
216,154;  562,839;   -0,292;   -0,591
216,754;  559,426;    1,253;    0,773
217,353;  689,846;   -0,383;   -1,045
217,952;  551,713;    2,072;    0,318
218,552;  785,055;    0,254;   -0,773
219,151;  666,462;   -1,110;    0,955
219,750;  673,744;    0,890;   -0,227
220,349;  753,836;   -2,292;    1,045
220,948;  839,995;    1,163;    1,136
221,548;  836,818;    0,617;    1,227
222,147;  945,038;   -1,292;   -0,409
222,746; 1225,694;    1,254;   -0,955
223,345; 1093,953;   -1,019;    0,500
223,944; 1086,966;    1,163;    0,773
224,543; 1238,877;    4,072;   -1,409
225,142; 1354,780;    1,345;    0,136
225,741; 1263,523;    1,163;    1,045
226,340; 1275,168;    1,254;   -0,955
226,939; 1702,898;    2,708;   -0,136
227,538; 1604,700;    1,163;   -0,773
228,137; 1765,862;    0,435;    0,864
228,735; 1863,065;    0,435;    1,227
229,334; 1633,834;   -0,474;   -0,227
229,933; 2002,930;    0,799;    0,591
230,532; 2110,365;   -1,201;   -0,409
231,131; 2164,375;    1,253;    0,318
231,729; 2260,944;    1,163;   -2,318
232,328; 2330,802;    0,435;   -1,500
232,927; 2390,933;    4,526;   -0,500
233,525; 2507,343;    0,981;    0,045
234,124; 2694,887;    1,890;   -1,591
234,723; 2708,809;    1,617;   -1,045
235,321; 2819,084;    1,163;    0,136
235,920; 3010,832;    2,526;   -1,227
236,518; 3269,471;    1,072;    0,318
237,117; 3401,228;    2,890;   -0,227
237,715; 3569,426;    1,163;   -0,500
238,314; 3596,938;    1,708;   -2,318
238,912; 3710,415;    0,526;   -1,409
239,510; 3727,591;    1,162;   -1,227
240,109; 3887,125;   -0,474;    3,773
240,707; 3890,541;   -0,474;    1,227
241,305; 4233,781;   -0,383;    0,136
241,904; 4424,235;   -0,292;   -2,045
242,502; 4401,445;    3,253;   -0,227
243,100; 4328,378;    3,344;   -0,955
243,698; 4554,757;    2,799;    1,682
244,297; 4719,177;   -0,656;    0,682
244,895; 4574,763;   -0,474;   -2,318
245,493; 4862,438;    2,981;   -0,591
246,091; 4894,135;    5,163;   -1,318
246,689; 4854,884;    2,163;    0,591
247,287; 4993,700;   -0,019;   -1,136
247,885; 5254,823;   -1,019;    1,227
248,483; 5350,152;   -0,201;   -0,500
249,081; 5470,581;    0,981;    1,591
249,679; 5590,507;   -1,019;    1,682
250,277; 5798,516;   -2,292;    0,864
250,875; 5798,629;    0,617;   -1,045
251,473; 5835,231;   -0,019;    0,500
252,071; 6005,152;   -0,383;    1,045
252,669; 6153,785;   -1,565;    0,318
253,267; 6396,522;    1,618;    0,773
253,864; 6321,972;    0,617;    0,682
254,462; 6191,523;    1,526;    1,591
255,060; 6156,901;    0,072;    1,318
255,658; 6464,421;   -3,292;   -0,136
256,255; 6835,721;   -0,201;   -2,045
256,853; 6711,187;    2,345;    1,409
257,451; 6690,480;    1,981;    1,864
258,048; 6970,767;    2,072;    1,864
258,646; 6737,453;    0,436;   -1,045
259,243; 6916,278;    2,981;    2,227
259,841; 6938,558;    1,799;    0,318
260,438; 6832,870;    0,254;    0,864
261,036; 7502,906;    0,617;    1,409
261,633; 7413,833;    1,526;    2,227
262,231; 7181,144;   -0,110;   -0,045
262,828; 7266,963;   -0,383;    1,136
263,425; 7296,628;   -1,928;   -0,591
264,023; 7545,992;    1,436;    0,045
264,620; 7113,950;    1,526;   -0,318
265,217; 7451,491;    2,890;    3,136
265,815; 7547,714;    2,527;    2,136
266,412; 7349,085;    0,072;    0,136
267,009; 7393,319;    0,526;    0,773
267,606; 7283,908;    0,345;   -0,955
268,203; 7272,754;   -0,383;   -0,591
268,801; 7555,738;   -0,474;    0,591
269,398; 7816,147;   -0,564;    2,500
269,995; 7788,872;    0,890;    1,591
270,592; 7561,767;    0,799;   -0,500
271,189; 7748,261;    1,981;    0,409
271,786; 7886,993;    2,072;    1,227
272,383; 7720,682;   -0,383;    0,227
272,980; 7914,072;    1,617;    0,318
273,577; 8355,656;    2,162;    1,227
274,174; 7923,050;    1,435;    2,591
274,771; 7907,876;    1,890;   -0,773
275,367; 8054,041;    3,253;    1,409
275,964; 7994,380;   -0,565;   -0,500
276,561; 8087,721;   -2,474;   -1,045
277,158; 8279,961;    1,799;   -1,773
277,755; 8399,217;   -0,110;    0,409
278,351; 7858,474;    0,436;   -1,500
278,948; 8130,579;   -0,201;    0,045
279,545; 8119,946;    0,527;    2,318
280,141; 8734,201;    1,254;   -2,045
280,738; 8563,736;    2,435;   -0,136
281,334; 8782,056;   -0,383;    0,591
281,931; 8193,700;    2,890;   -1,318
282,528; 8288,738;    4,072;   -0,500
283,124; 8943,250;    3,345;   -0,500
283,721; 8917,784;    0,709;    1,409
284,317; 8699,998;    0,163;    2,500
284,913; 9203,537;   -0,110;    0,591
285,510; 9374,992;    2,890;   -0,318
286,106; 9385,788;    2,345;   -0,955
286,703; 9013,073;    0,072;    1,955
287,299; 9212,740;    1,254;   -0,591
287,895; 9411,882;    0,890;   -1,045
288,491; 9940,147;    0,163;    2,136
289,088; 9685,297;    0,163;    2,409
289,684; 9741,057;    2,890;    1,500
290,280; 9739,991;    1,890;    0,682
290,876; 9831,948;    0,163;    5,500
291,472; 9692,348;    2,163;    2,227
292,068; 9818,655;    1,254;    0,227
292,665; 9532,377;   -0,564;    0,773
293,261; 9196,401;   -1,292;    2,136
293,857; 9544,579;    4,072;    2,136
294,453; 9516,587;   -0,928;    0,955
295,049; 9399,339;    0,253;    1,955
295,644; 9438,544;   -1,292;    0,136
296,240; 9339,697;    0,162;   -0,136
296,836; 9363,525;   -0,747;    0,318
297,432; 9614,019;    2,980;   -0,500
298,028; 9645,247;    0,435;    0,773
298,624;10037,734;    0,889;    1,864
299,220;10221,992;    0,435;    0,591
299,815; 9911,694;    0,526;   -0,409
300,411; 9735,339;    0,435;    1,773
301,007; 9749,947;    1,889;    0,227
301,602; 9759,641;    2,071;   -2,318
302,198; 9923,431;    1,435;   -0,773
302,794;10248,668;    1,526;   -0,500
303,389;10332,696;    1,071;    1,045
303,985;10389,155;    1,253;    1,409
304,580;10384,599;    0,889;    1,591
305,176;10348,953;    0,344;    0,136
305,771;10283,240;   -0,929;   -1,227
306,367;10161,888;    3,071;    0,136
306,962;10462,550;    2,889;    1,500
307,558;10167,413;    2,435;    0,136
308,153;10122,841;   -0,383;   -1,136
308,748;10360,762;    0,162;    1,682
309,344;10326,547;    0,253;   -1,318
309,939;10435,579;    2,071;   -1,318
310,534;10708,245;   -2,020;   -1,682
311,130;10640,242;   -0,656;   -2,500
311,725;10382,710;    0,526;   -0,500
312,320;10689,303;    1,253;    0,045
312,915;10559,769;    2,890;   -1,045
313,510;10617,348;    0,526;   -0,500
314,105;11075,681;   -3,565;    1,409
314,700;10467,785;   -1,656;   -1,045
315,295;10150,871;   -0,020;    0,045
315,890; 9731,411;   -0,292;    0,864
316,485;10082,667;    0,253;   -0,318
317,080;10175,781;   -0,929;    1,591
317,675;10676,737;    3,071;   -0,682
318,270;10141,780;    6,889;    3,318
318,865;10171,710;    2,435;    3,045
319,460; 9987,073;   -1,565;    0,591
320,055;10210,604;   -2,565;   -1,227
320,650; 9886,141;   -1,838;   -0,591
321,244; 9946,226;    0,889;   -1,409
321,839;10869,903;    0,980;   -0,227
322,434;10732,303;   -0,111;   -1,591
323,029;10363,788;   -0,474;    1,591
323,623;10237,762;    0,798;    0,773
324,218;10067,300;    2,707;    1,409
324,812; 9963,374;    0,889;    1,591
325,407; 9805,254;   -0,929;    2,045
326,002; 9745,280;    0,526;   -0,409
326,596;10045,484;   -0,656;    1,318
327,191;10213,658;   -0,383;   -1,045
327,785; 9839,848;   -0,747;   -0,227
328,379;10085,681;   -0,383;    0,136
328,974; 9848,159;    1,798;   -3,955
329,568;10081,195;    2,889;   -2,409
330,163; 9883,951;    2,435;    1,045
330,757;10244,944;    0,253;    1,591
331,351; 9604,382;   -0,292;    0,682
331,945; 9933,599;   -0,383;    1,409
332,540; 9528,542;    1,617;   -0,591
333,134; 9649,697;    3,344;    0,773
333,728; 9871,701;    2,799;    0,318
334,322;10202,110;    0,889;   -0,864
334,916; 9491,351;    0,344;    0,955
335,510; 9823,447;   -0,111;   -0,136
336,105;10069,022;   -0,929;    1,591
336,699; 9773,661;   -1,292;    0,591
337,293; 9692,279;    1,071;    0,318
337,887; 9821,145;    0,071;    1,955
338,481; 9906,496;    2,980;    0,591
339,074;10020,008;    2,071;    2,682
339,668; 9853,454;   -0,110;    1,227
340,262;10125,699;    7,708;    3,227
340,856; 9677,117;    1,708;   -0,682
341,450; 9051,813;    0,708;    1,864
342,044; 9857,370;    1,799;    0,136
342,637; 9628,670;    1,162;   -2,136
343,231; 9503,708;   -1,474;    0,682
343,825; 9447,137;   -0,747;   -0,591
344,419; 9422,381;   -0,474;    0,500
345,012; 9249,776;    2,889;    4,045
345,606; 9278,243;   -0,656;    1,591
346,199; 9148,540;   -0,111;   -0,227
346,793; 8722,441;    2,525;    2,045
347,386; 8897,827;    0,889;   -1,136
347,980; 8894,808;   -0,838;   -0,045
348,573; 8736,123;   -1,748;    0,409
349,167; 8453,115;    6,161;    4,773
349,760; 8768,642;    2,252;    2,682
350,354; 8725,657;    1,616;    1,136
350,947; 8507,601;    2,798;    1,682
351,540; 8219,393;    0,616;   -1,409
352,134; 8142,392;   -1,111;    1,136
352,727; 8214,277;   -0,657;    1,136
353,320; 8045,038;    2,343;    0,591
353,913; 7918,207;   -1,929;    1,864
354,507; 8068,920;    0,434;   -1,227
355,100; 8090,864;    0,071;    0,864
355,693; 7431,918;    4,798;    2,409
356,286; 7458,777;    0,980;    2,773
356,879; 7814,782;   -0,475;    1,227
357,472; 7437,742;    0,980;    1,500
358,065; 7633,238;    3,161;    2,500
358,658; 7583,621;    0,798;    2,318
359,251; 7232,670;    0,252;   -0,591
359,844; 6762,392;    0,343;   -1,136
360,437; 6967,617;    0,252;    0,045
361,030; 7244,192;    0,525;   -0,682
361,623; 6836,967;    0,434;    0,318
362,215; 6875,597;    0,979;    2,045
362,808; 6737,561;   -2,293;   -1,682
363,401; 6934,385;    0,798;    0,136
363,994; 6697,006;    3,252;   -1,500
364,586; 6614,277;    0,888;   -1,500
365,179; 6777,135;   -0,203;   -1,136
365,772; 6302,768;   -0,930;    2,045
366,364; 6616,947;    1,524;   -3,227
366,957; 6823,827;    1,342;   -0,045
367,549; 6800,649;   -0,203;   -0,864
368,142; 6470,449;    0,978;   -1,500
368,734; 6689,982;    2,523;   -2,136
369,327; 6634,655;    2,341;   -0,500
369,919; 6548,783;   -1,659;    0,409
370,512; 6382,819;   -1,023;   -0,500
371,104; 6154,246;    2,704;    1,591
371,696; 6311,422;    1,703;   -0,955
372,289; 6370,728;    0,157;    1,136
372,881; 6516,089;    1,156;    1,318
373,473; 6428,596;    4,064;    1,136
374,066; 6267,176;    1,336;    0,500
374,658; 6148,987;    0,879;    1,136
375,250; 6459,565;   -1,668;   -1,409
375,842; 6299,028;   -0,124;   -0,045
376,434; 6180,643;   -2,762;   -0,409
377,026; 6725,801;   -1,855;   -2,500
377,618; 6610,386;    0,779;   -0,682
378,210; 6443,360;    3,141;   -1,955
378,802; 6300,236;    3,412;   -0,591
379,394; 6285,115;    3,411;    0,682
379,986; 6808,523;    1,138;   -0,955
380,578; 6898,090;    1,410;    0,773
381,170; 6321,976;    0,320;    0,045
381,762; 6269,254;   -0,224;    1,409
382,354; 6431,778;   -0,223;   -1,318
382,945; 6523,080;    0,870;    0,318
383,537; 6662,573;    1,144;   -1,955
384,129; 6694,427;    0,963;   -1,136
384,721; 6863,929;    0,418;    0,955
385,312; 6777,766;   -1,399;   -0,955
385,904; 6887,284;   -0,945;    1,591
386,496; 6292,729;    0,691;    1,045
387,087; 6424,107;    0,418;    2,500
387,679; 6446,992;   -0,401;    0,045
388,270; 6560,022;   -2,401;    2,045
388,862; 6671,435;   -0,401;   -0,318
389,453; 6557,737;    1,054;    1,045
390,045; 6780,350;    3,236;   -2,682
390,636; 6742,260;    0,144;   -0,591
391,227; 6604,361;    2,054;   -0,045
391,819; 6708,821;    0,781;    0,773
392,410; 6754,927;    0,600;    0,045
393,001; 6707,453;    1,600;   -1,591
393,593; 6957,523;    0,600;   -0,045
394,184; 6836,138;    0,873;   -0,409
394,775; 6736,958;    1,146;    2,136
395,366; 6927,785;    1,782;    0,773
395,957; 6888,363;   -2,400;    0,136
396,548; 7170,723;    1,054;    2,682
397,139; 7435,840;    2,236;    0,591
397,730; 7186,986;    0,873;    0,955
398,321; 7245,298;    0,509;    0,955
398,912; 7256,970;   -0,764;    0,136
399,503; 7347,763;   -1,945;   -1,409
400,094; 6828,358;   -1,582;    1,682
400,685; 6703,860;    3,600;    0,045
401,276; 6791,483;   -0,400;   -0,955
401,867; 7083,719;   -1,127;    0,773
402,458; 7139,957;    1,509;   -2,318
403,048; 7125,026;    0,146;    0,591
403,639; 6766,316;    1,509;    0,864
404,230; 7023,098;    0,691;    0,318
404,821; 6951,581;   -0,127;    0,045
405,411; 7044,225;   -0,763;   -2,591
406,002; 6698,916;    3,237;   -1,136
406,592; 6594,843;    2,691;    0,045
407,183; 6848,897;    0,328;   -1,500
407,774; 6757,876;    1,419;   -0,136
408,364; 7045,224;    2,600;    0,409
408,954; 6690,969;   -0,036;    1,227
409,545; 6739,668;    1,873;    1,045
410,135; 6298,259;   -1,581;    0,500
410,726; 6452,773;    0,783;    0,318
411,316; 6805,509;    2,237;    0,773
411,906; 6509,341;    0,146;   -0,409
412,497; 6057,600;   -0,490;   -0,045
413,087; 6576,786;    0,783;   -0,227
413,677; 6939,978;   -2,490;    3,864
414,267; 6831,494;   -1,035;    1,409
414,857; 6813,731;    0,419;    4,227
415,448; 7057,976;   -0,763;    0,500
416,038; 6808,440;   -2,945;   -0,591
416,628; 6729,678;    0,965;    0,409
417,218; 6301,814;   -1,762;    3,318
417,808; 6527,142;    0,965;   -0,409
418,398; 6937,053;   -1,035;    2,682
418,988; 6899,470;   -2,217;    0,591
419,578; 7115,374;    3,601;    1,409
420,168; 7455,844;    0,692;   -0,955
420,757; 7061,181;    0,964;   -1,500
421,347; 6739,006;    1,601;   -0,227
421,937; 6897,819;    3,329;    1,409
422,527; 6893,000;    2,602;   -0,773
423,116; 6713,643;    2,692;   -0,045
423,706; 7018,618;    2,965;    0,318
424,296; 6947,206;    1,601;    0,682
424,885; 7339,660;    1,510;   -3,045
425,475; 7611,071;    1,147;   -2,864
426,065; 7524,500;   -1,489;   -0,318
426,654; 7175,500;    0,329;   -0,318
427,244; 7283,464;    1,147;    1,409
427,833; 6767,794;    1,056;   -0,500
428,423; 7184,799;    0,147;    1,136
429,012; 7883,866;    2,420;   -1,136
429,601; 7402,867;    2,057;    0,136
430,191; 7607,711;    2,511;    4,318
430,780; 7293,825;   -1,671;   -0,409
431,369; 7257,391;    1,329;   -0,045
431,959; 7793,036;    1,693;    0,500
432,548; 7584,542;   -1,398;   -0,045
433,137; 7686,743;    0,329;   -1,318
433,726; 8186,024;    0,148;    0,500
434,315; 7587,356;    0,148;    2,409
434,905; 7685,808;    0,693;    1,409
435,494; 7635,799;    3,148;    0,955
436,083; 8033,077;    1,420;   -0,955
436,672; 7908,642;    1,148;    0,500
437,261; 7538,700;    0,512;   -1,955
437,850; 7652,251;   -1,125;    0,682
438,439; 7626,629;    2,239;    1,955
439,027; 7478,733;    3,421;    1,773
439,616; 7762,698;    2,239;    1,227
440,205; 7646,439;    0,057;   -2,136
440,794; 7668,593;   -0,306;   -0,045
441,383; 7903,860;    1,603;   -0,591
441,971; 7768,853;   -0,306;    0,591
442,560; 7634,279;    0,603;   -1,773
443,149; 7392,898;    3,060;   -1,318
443,737; 7505,517;    0,968;   -2,318
444,326; 7754,580;    0,331;    0,318
444,915; 7809,345;   -1,851;    0,864
445,503; 8130,668;    0,058;   -0,318
446,092; 7513,954;    7,876;    2,136
446,680; 8003,092;    1,876;    0,318
447,269; 8154,424;   -1,487;   -0,318
447,857; 7951,729;    2,240;   -1,773
448,445; 8058,332;    2,149;    1,318
449,034; 8271,755;    0,876;   -1,136
449,622; 8359,461;    1,240;    3,500
450,210; 7664,463;    3,149;    2,227
450,799; 8162,042;    2,604;   -0,591
451,387; 8130,079;    1,786;   -0,591
451,975; 7782,493;   -1,305;    0,864
452,563; 7906,485;    0,422;    2,318
453,151; 7923,964;   -1,032;   -1,227
453,739; 7846,349;   -1,577;    0,136
454,328; 7687,418;    0,604;   -2,136
454,916; 7444,922;    1,150;   -0,136
455,504; 7618,262;    3,513;    1,227
456,092; 7801,287;    2,150;   -1,591
456,679; 7745,382;    0,604;    0,682
457,267; 7748,051;    3,604;    1,045
457,855; 7850,865;    3,241;    1,409
458,443; 7606,177;   -0,304;    1,682
459,031; 7732,948;    1,332;    2,409
459,619; 8108,381;   -3,577;    2,864
460,206; 8203,123;   -0,759;    2,045
460,794; 8314,579;   -0,668;   -0,227
461,382; 8495,787;    0,878;   -0,864
461,970; 8090,559;    0,605;    1,864
462,557; 8168,260;    0,878;   -0,682
463,145; 8312,106;   -0,304;   -1,682
463,732; 8438,976;    2,514;   -1,045
464,320; 8359,129;    1,514;   -3,045
464,907; 8093,205;    0,423;   -0,773
465,495; 7951,623;    2,696;   -1,227
466,082; 8084,943;    2,060;   -0,045
466,670; 7996,041;    2,605;    1,227
467,257; 8395,193;    0,060;    2,045
467,844; 8540,572;    1,514;    0,045
468,432; 8559,965;   -0,031;    3,500
469,019; 8113,897;    1,606;   -1,773
469,606; 8577,575;    0,969;    3,682
470,193; 8391,883;    2,151;    0,227
470,780; 8011,017;    0,333;    0,864
471,368; 8331,479;   -1,212;   -0,773
471,955; 8115,123;    1,060;   -0,682
472,542; 7803,325;   -0,303;   -1,136
473,129; 7994,246;   -0,485;    0,136
473,716; 7779,461;    0,060;    0,591
474,303; 7946,510;    1,333;   -0,864
474,890; 8188,905;    2,333;   -0,500
475,477; 8212,335;   -0,576;    0,409
476,064; 8113,905;    0,697;   -1,591
476,650; 8051,817;    2,152;    0,318
477,237; 7899,181;    1,879;    0,955
477,824; 8050,714;    3,879;    0,864
478,411; 8057,344;    0,606;   -0,318
478,997; 8214,040;    0,606;   -0,773
479,584; 8281,475;   -0,666;   -0,409
480,171; 8888,546;    1,243;   -0,773
480,757; 8615,636;   -0,848;    0,773
481,344; 8864,117;    0,334;    0,409
481,931; 8396,021;   -0,393;    1,045
482,517; 9251,466;    0,425;    0,318
483,104; 9690,633;    1,334;    2,864
483,690; 9927,661;    0,243;    0,045
484,276;10228,584;    0,698;    0,227
484,863; 9968,222;    2,152;    1,136
485,449;10510,840;    0,152;    0,318
486,035;10484,779;   -0,666;   -0,136
486,622;10872,313;   -2,393;    0,045
487,208;10825,358;    1,334;    1,500
487,794;10692,981;    0,971;    0,318
488,380;10765,994;    0,698;   -1,409
488,967;10818,989;   -1,120;   -0,409
489,553;10917,623;   -1,029;   -1,409
490,139;11073,921;    0,971;    0,773
490,725;10598,815;    0,789;   -0,227
491,311;10247,170;    1,516;    3,045
491,897; 9614,561;   -0,665;    1,500
492,483; 9498,143;    0,426;    1,227
493,069; 9397,272;    5,426;    0,864
493,655; 9336,258;    1,789;    0,682
494,241; 9258,704;    1,517;   -0,955
494,826; 9587,644;    0,335;   -1,045
495,412; 9083,031;    0,335;   -0,682
495,998; 9255,591;    0,971;   -0,318
496,584; 9335,979;    2,244;    1,045
497,169; 9320,269;    2,335;   -0,682
497,755; 9273,123;    1,244;    1,227
498,341; 9806,745;    2,153;    0,318
498,926; 9413,384;    2,881;    1,955
499,512; 9575,559;   -0,028;    2,955
500,097; 9636,549;   -0,574;   -0,318
500,683; 9602,711;   -0,028;    2,136
501,268; 9953,147;    1,881;   -0,955
501,854; 9681,052;   -0,119;    1,227
502,439; 9610,098;   -0,573;   -1,773
503,024; 9801,951;    1,608;    0,500
503,610; 9847,674;    1,335;   -0,682
504,195; 9850,647;    1,245;    1,955
504,780; 9983,699;    2,335;    1,227
505,366; 9813,462;    4,063;    2,864
505,951; 9583,274;   -1,119;    1,045
506,536; 9626,424;    1,427;   -3,682
507,121; 9588,610;    1,699;   -0,318
507,706;10050,183;   -0,392;    1,045
508,291;10389,344;   -2,937;    1,136
508,876; 9870,025;   -0,482;    2,591
509,461; 9370,105;    1,427;   -0,773
510,046; 9783,940;   -0,391;    0,318
510,631;10010,207;   -0,119;   -0,773
511,216; 9687,889;   -0,664;   -0,500
511,801;10035,610;   -0,755;    2,591
512,386;10282,924;    0,972;    0,500
512,971;10242,788;    0,427;    0,955
513,555; 9838,439;    1,154;   -1,500
514,140;10540,041;    1,336;   -3,136
514,725;10487,888;    1,791;   -1,136
515,309;10617,560;    1,064;    0,318
515,894;10132,286;   -0,300;   -2,227
516,479;10561,984;    1,973;   -0,955
517,063;10394,446;    0,882;    1,227
517,648;10507,907;    0,155;   -1,136
518,232;10157,260;   -1,300;   -1,409
518,817;10493,286;    1,337;    1,682
519,401;10678,571;    0,700;    0,591
519,985;10222,467;    2,700;    1,136
520,570;10072,201;   -0,118;   -1,955
521,154;10332,974;    0,064;    0,591
521,738;10486,474;    1,064;    2,409
522,323;11063,555;   -0,390;    1,682
522,907;10778,696;    2,428;   -0,136
523,491;10523,269;    1,155;    0,955
524,075;10502,931;    0,428;    0,591
524,659;10589,131;    0,973;    0,591
525,243;10125,342;    0,883;    0,409
525,827;10324,614;    0,883;   -0,045
526,411;11091,494;    1,155;   -0,136
526,995;11247,624;    0,337;    1,409
527,579;10886,207;    1,974;   -1,045
528,163;11164,256;    0,428;   -1,500
528,747;11093,452;    1,065;   -0,773
529,331;11365,945;    0,883;   -1,409
529,915;11515,692;    2,338;    0,955
530,499;11475,487;    0,247;    1,227
531,082;11191,067;    1,065;    1,591
531,666;10649,549;    0,520;    0,773
532,250;11264,751;    0,428;    2,682
532,833;11535,358;    0,610;    2,773
533,417;11434,521;    1,247;    0,864
534,001;11376,416;    0,429;   -0,318
534,584;12011,997;    1,974;    0,500
535,168;11830,857;    3,247;    1,409
535,751;11899,187;    4,520;    0,045
536,334;11395,634;    4,520;   -0,409
536,918;11941,539;    1,974;    1,591
537,501;12001,789;    1,520;    1,318
538,085;11991,277;    1,702;    1,045
538,668;12110,121;    0,883;    2,409
539,251;12407,237;    3,156;    3,773
539,834;12404,685;    0,156;    0,773
540,418;12349,300;    3,247;    4,318
541,001;12412,900;    2,702;    1,773
541,584;12382,885;    1,429;    2,227
542,167;12099,330;    0,702;    2,955
542,750;12202,799;    0,793;   -0,773
543,333;11821,898;    1,429;    2,136
543,916;12528,749;   -0,298;    2,500
544,499;13026,606;    2,520;    0,227
545,082;13005,337;    0,248;    3,591
545,665;13180,711;   -0,207;    1,500
546,248;13438,080;    0,520;   -0,318
546,830;13124,162;   -1,752;    1,955
547,413;13498,835;    0,157;   -0,773
547,996;13967,629;    0,157;    0,500
548,579;13727,610;   -0,843;    0,955
549,161;13556,887;    0,884;    2,682
549,744;13369,415;    0,612;    0,409
550,326;13805,645;    0,885;   -1,136
550,909;13583,326;    2,339;    0,591
551,492;13983,681;    0,521;    0,227
552,074;13772,636;   -0,024;   -1,318
552,657;14252,046;    2,430;    0,045
553,239;14032,486;   -3,024;   -0,773
553,821;13984,362;   -1,570;    1,045
554,404;13510,680;   -0,024;    1,136
554,986;13848,518;    2,248;    1,045
555,568;14337,321;    0,430;   -0,955
556,151;13698,256;    4,067;   -0,227
556,733;13864,441;   -1,388;   -0,864
557,315;14253,221;    4,703;    0,500
557,897;14037,464;    0,521;   -0,500
558,479;14168,263;    1,703;    1,318
559,061;14267,539;    1,067;   -0,864
559,643;14552,447;   -0,297;    0,045
560,225;14856,689;   -0,388;    2,864
560,807;14896,175;    0,340;    0,318
561,389;14446,843;   -1,206;    2,318
561,971;15052,587;   -0,660;    2,136
562,553;14910,996;    0,613;    1,591
563,135;15031,264;    1,249;    1,136
563,717;14635,807;    3,158;    1,136
564,298;15210,074;    3,976;   -0,045
564,880;14961,053;    0,340;   -1,409
565,462;15058,598;    1,977;    1,318
566,043;16071,409;   -0,933;    2,318
566,625;15679,521;    4,067;    1,227
567,207;15493,323;    0,704;    1,682
567,788;16410,399;   -0,114;    1,500
568,370;17087,485;   -1,841;   -0,500
568,951;16883,683;   -0,569;    0,227
569,533;17587,371;    0,977;   -0,500
570,114;17991,878;   -0,296;    0,682
570,695;18404,601;   -0,478;   -1,318
571,277;18769,621;   -0,205;   -1,682
571,858;19382,764;    2,704;   -1,136
572,439;20140,015;    0,795;   -1,045
573,021;20221,465;    0,432;   -2,773
573,602;20595,649;    1,795;    0,318
574,183;21374,988;   -0,114;    2,227
574,764;21403,664;    2,068;    0,409
575,345;21840,523;    0,250;   -0,136
575,926;22337,141;    2,704;    0,136
576,507;22287,943;    2,704;   -0,227
577,088;23303,647;    1,704;    1,682
577,669;23237,495;    1,704;    1,955
578,250;23888,169;   -0,750;   -1,045
578,831;24368,429;   -0,841;   -2,227
579,412;24514,066;   -1,205;    0,955
579,993;25380,434;    1,432;    0,227
580,573;25685,800;   -0,023;   -0,955
581,154;24665,043;    1,613;   -0,591
581,735;25472,220;    0,341;    0,773
582,315;25003,493;    0,523;    2,136
582,896;25275,482;   -1,750;    1,227
583,477;24789,067;    0,614;    1,227
584,057;25013,411;    1,159;    0,955
584,638;25261,980;   -2,750;    2,318
585,218;25235,998;    2,886;    2,682
585,799;25400,463;    1,977;   -0,227
586,379;25420,919;    1,250;    1,591
586,959;24382,125;    2,613;    0,318
587,540;23836,604;    0,432;    2,227
588,120;23451,946;   -1,113;   -0,045
588,700;22595,818;    2,977;    2,136
589,281;22874,935;    1,250;   -0,955
589,861;22846,650;   -0,296;   -1,682
590,441;22692,711;   -1,477;   -2,682
591,021;21761,546;    1,432;   -2,591
591,601;22034,727;    0,431;    0,500
592,181;22067,562;   -1,296;   -0,773
592,761;21403,125;    2,250;    1,409
593,341;21375,396;    1,522;    0,045
593,921;21347,260;   -0,569;    1,591
594,501;21251,876;    1,250;    1,318
595,081;21097,598;    0,522;   -0,318
595,661;21438,161;    1,068;    0,955
596,240;21916,477;   -1,023;    0,136
596,820;21472,356;    2,613;    1,955
597,400;21593,884;    1,977;    0,773
597,980;21833,942;   -0,750;    1,045
598,559;21899,492;    0,341;   -0,227
599,139;21680,366;   -0,750;   -1,227
599,718;21537,820;    0,795;   -0,409
600,298;21793,879;   -2,387;    0,682
600,877;21985,151;    4,795;    1,409
601,457;22215,303;    0,340;    1,136
602,036;22153,384;    1,795;    2,045
602,616;22282,690;    2,250;    1,682
603,195;22566,960;    0,431;    3,500
603,774;22127,629;   -0,296;    2,045
604,354;22042,018;    2,522;   -0,500
604,933;21636,426;    0,250;    1,864
605,512;21743,568;    2,340;    0,591
606,091;21791,085;    1,886;    3,773
606,671;22545,713;    0,249;    0,773
607,250;21763,307;    1,431;    3,136
607,829;21924,520;    1,158;    3,227
608,408;21806,376;    4,613;    2,591
608,987;20897,121;    2,704;    3,409
609,566;21156,140;    0,341;   -2,500
610,145;21269,377;    2,885;    0,682
610,723;21686,862;    1,613;    6,864
611,302;20993,129;    1,067;    1,682
611,881;20528,597;    5,158;   11,227
612,460;21303,783;    0,795;    3,955
613,039;21721,683;    1,703;    2,045
613,617;20534,731;    0,886;    4,773
614,196;20694,170;    1,613;    1,227
614,775;20996,247;    1,249;    2,409
615,353;20949,093;   -1,660;    0,864
615,932;20748,915;    0,249;    2,409
616,510;21302,905;    0,158;    0,591
617,089;20879,374;    8,794;   17,591
617,667;20670,985;    4,885;    6,136
618,246;20580,261;   -1,115;    1,318
618,824;20681,790;    1,612;   -0,955
619,402;20288,496;    0,431;   -1,773
619,981;20729,316;    1,067;   -1,045
620,559;20591,755;    0,794;    1,682
621,137;20191,333;    3,067;    1,864
621,715;20182,544;    3,703;   -0,682
622,293;20108,421;    1,885;   -0,773
622,871;20545,948;    0,340;    0,500
623,450;20191,979;    0,430;   -0,864
624,028;20096,163;   -0,388;   -0,955
624,606;19702,782;    2,339;    1,682
625,183;20052,963;   -0,661;   -1,136
625,761;19775,985;    1,885;    1,136
626,339;20062,108;    2,339;    2,591
626,917;20391,791;    0,339;   -0,045
627,495;20419,478;    2,794;    1,318
628,073;19901,818;    5,248;    2,864
628,650;19622,107;    3,067;    2,136
629,228;20022,632;    1,248;    4,409
629,806;19462,156;   -0,024;    1,136
630,383;19711,400;    0,066;   -0,318
630,961;19562,270;   -2,206;   -0,955
631,539;19313,055;   -2,479;    0,227
632,116;18756,815;   12,703;   15,409
632,694;19288,267;    4,885;    6,500
633,271;19474,420;    1,975;    2,682
633,848;19424,034;    1,430;    2,045
634,426;19480,244;    1,521;    1,773
635,003;18713,162;   -0,207;   -0,409
635,580;18950,519;    1,884;    3,682
636,158;19430,723;    3,793;    1,227
636,735;19422,716;    3,339;   -0,500
637,312;19543,087;    0,521;   -0,682
637,889;19606,963;    2,248;   -0,682
638,466;19198,373;    0,066;   -0,409
639,043;19169,826;    1,702;   -1,136
639,620;19459,370;    0,611;   -0,955
640,197;19731,870;    1,612;    1,682
640,774;19882,863;    1,430;    1,136
641,351;20171,673;    0,612;    1,136
641,928;19697,939;    2,794;    1,409
642,505;19359,840;    0,794;   -0,500
643,082;19495,742;    1,885;    1,227
643,658;18592,462;    1,157;    1,500
644,235;19278,818;   -2,479;    2,500
644,812;19486,538;    1,794;    0,773
645,388;19277,530;    1,612;    1,409
645,965;19308,250;    1,521;    1,682
646,542;19422,879;    3,430;   -0,227
647,118;19441,962;    3,703;   -0,955
647,695;19689,137;    0,339;    1,136
648,271;19603,220;   -2,115;    0,500
648,848;19846,394;    0,248;    2,227
649,424;19689,932;    0,976;    1,318
650,000;19440,743;   -0,388;   -1,045
650,577;19283,281;    0,158;   -0,955
651,153;19718,637;   -1,115;    0,955
651,729;20569,448;    0,521;    0,864
652,305;20596,986;    1,339;    2,773
652,881;23952,342;   -1,297;    1,136
653,458;29348,607;    0,249;    0,227
654,034;32327,873;    0,703;    1,591
654,610;33463,956;    0,339;    0,773
655,186;34665,221;    1,612;    3,045
655,762;34430,396;   -1,842;    0,409
656,338;34395,206;    0,703;    0,136
656,913;35306,744;   -0,297;    0,409
657,489;34682,373;    0,249;   -0,318
658,065;34704,729;    0,794;   -1,591
658,641;35252,267;    2,158;   -0,864
659,217;34655,169;    2,067;    0,409
659,792;34137,162;   -1,751;   -0,409
660,368;34515,791;   -0,388;   -0,682
660,944;34435,419;    1,794;    1,227
661,519;30816,048;    0,522;    0,409
662,095;25942,586;   -0,206;    0,591
662,670;22153,306;   -0,206;   -0,136
663,246;21288,480;   -0,660;   -0,409
663,821;20748,018;    0,431;    1,682
664,396;20246,829;    0,613;    1,864
664,972;20443,094;   -0,660;   -0,500
665,547;20744,178;    3,794;    0,136
666,122;20765,625;    1,340;    0,318
666,698;20999,436;    2,431;    0,318
667,273;20369,155;    0,885;    0,136
667,848;21091,330;    0,340;    1,500
668,423;20893,595;    1,795;    2,318
668,998;21305,769;    0,976;   -0,682
669,573;21788,126;    2,067;   -1,500
670,148;21640,936;    1,885;   -0,682
670,723;21416,747;   -0,024;    0,318
671,298;21796,921;   -1,296;    1,045
671,873;21857,641;   -0,296;   -0,136
672,448;21839,543;    1,704;    0,136
673,023;22143,626;    0,249;   -0,227
673,597;22451,710;    2,704;    2,318
674,172;22243,248;    2,431;    0,318
674,747;21772,695;   -0,205;   -1,045
675,321;21552,142;   -0,933;    3,318
675,896;21198,225;    2,158;    1,045
676,471;22087,854;    2,522;    1,591
677,045;21831,574;   -0,296;    0,682
677,620;21862,839;    2,158;    1,136
678,194;22205,832;    0,249;    1,136
678,769;21835,733;    0,886;   -0,318
679,343;22053,635;   -0,023;    1,773
679,917;21896,718;    0,340;    1,955
680,492;21934,984;    0,249;    3,227
681,066;22061,431;    0,613;    0,409
681,640;22112,605;    1,795;   -0,318
682,214;22801,052;    2,340;    0,500
682,788;22358,772;    0,613;   -0,773
683,363;22235,310;    1,977;    1,682
683,937;21982,393;    0,886;   -0,318
684,511;22664,386;   -1,023;   -0,591
685,085;22410,469;   -1,478;    0,318
685,659;22130,007;    1,431;    0,864
686,232;22387,454;    1,159;   -0,318
686,806;22158,265;    2,159;    0,409
687,380;22696,621;   -1,932;    0,591
687,954;22934,796;    2,432;    1,136
688,528;22608,061;    2,613;    1,955
689,101;23319,599;    0,432;    1,045
689,675;22957,410;    0,886;   -0,136
690,249;22364,493;    3,432;    0,409
690,822;22684,213;    1,159;    0,318
691,396;22764,569;    2,068;    1,227
691,969;22312,198;    2,523;    0,136
692,543;22736,372;   -0,568;   -1,955
693,116;22418,638;   -0,659;   -1,409
693,690;22336,994;   -0,296;    0,500
694,263;22827,350;    2,341;    2,955
694,836;22840,797;    2,795;    3,591
695,410;21612,153;    1,159;    1,773
695,983;21984,964;    1,614;    0,591
696,556;21964,775;   -0,750;   -1,045
697,129;22337,767;   -1,114;    1,409
697,703;22006,396;    1,341;    1,955
698,276;22030,389;    1,705;   -0,773
698,849;21869,654;   -1,023;    1,409
699,422;22199,646;    1,250;    0,591
699,995;21941,821;   -0,659;    0,136
700,568;22350,541;   -0,204;    3,045
701,140;22377,078;   -1,841;    1,682
701,713;22159,162;    0,341;    2,409
702,286;21944,791;    0,796;    0,864
702,859;21800,602;    0,614;   -0,591
703,432;21070,049;   -0,841;    0,682
704,004;21482,587;    1,978;    0,318
704,577;21346,397;    1,068;    0,136
705,150;21866,844;    0,887;    2,500
705,722;21676,110;    1,523;   -3,227
706,295;21493,648;    1,432;   -0,591
706,867;21363,004;    0,250;    1,955
707,440;21575,178;   -0,113;   -0,409
708,012;21776,262;   -0,022;    0,591
708,584;21684,891;    2,705;    0,227
709,157;21978,792;    1,160;   -0,591
709,729;21691,876;    1,069;    2,045
710,301;22432,868;   -1,204;    0,045
710,874;22424,224;    0,341;   -0,227
711,446;21395,944;   -0,295;    0,864
712,018;21255,937;   -3,022;    0,500
712,590;21054,656;   -0,204;    1,682
713,162;21547,831;   -0,477;    1,318
713,734;21754,369;    1,796;   -2,045
714,306;21690,907;    0,342;   -0,409
714,878;20496,172;   -0,295;    0,864
715,450;21245,165;   -0,113;    0,864
716,022;21517,157;    2,433;    1,318
716,593;21621,877;    0,978;    0,591
717,165;21588,779;    1,796;   -1,227
717,737;21335,862;    0,796;    0,409
718,309;21036,491;    1,160;   -0,045
718,880;21037,938;   -1,295;   -1,409
719,452;21226,294;    0,887;   -1,591
720,024;20884,287;    1,705;   -0,591
720,595;21379,916;    2,978;    0,955
721,167;21028,363;    1,160;   -2,045
721,738;20554,173;    2,069;   -1,045
722,309;20583,711;    1,251;   -1,227
722,881;20370,158;    2,705;    0,773
723,452;20905,787;    1,251;    2,864
724,023;21115,507;    1,524;    2,682
724,595;20904,045;    2,342;    0,682
725,166;20665,856;    1,524;   -0,409
725,737;20345,394;    1,887;    0,227
726,308;20435,386;    0,797;    0,318
726,879;20784,470;    1,069;    1,227
727,450;20614,644;   -2,022;   -0,045
728,021;20594,637;    1,069;    0,682
728,592;20440,720;    1,160;    0,500
729,163;20754,258;    1,433;   -0,136
729,734;20730,796;    2,160;   -0,227
730,305;21073,425;    0,615;    0,136
730,876;21345,145;    0,888;    2,955
731,447;21116,228;    0,797;    2,682
732,017;21170,312;   -0,840;    1,864
732,588;20738,122;   -0,021;    1,227
733,159;20869,115;    3,615;   -1,045
733,729;20717,926;    1,251;    0,409
734,300;20101,736;    0,160;    0,864
734,870;20467,820;   -1,385;    0,591
735,441;20945,903;    0,888;   -0,591
736,011;20748,259;    1,070;   -1,591
736,582;20694,252;    1,251;    0,045
737,152;20160,335;    0,979;   -2,045
737,722;20633,146;    1,070;   -0,682
738,293;20373,684;   -2,021;    1,318
738,863;20285,677;    1,797;    2,318
739,433;20161,760;    4,524;    0,318
740,003;20730,662;    1,524;   -0,682
740,573;20173,745;    2,252;   -1,591
741,143;20156,283;    3,615;    0,318
741,713;20860,094;    0,252;   -0,500
742,283;20599,814;    1,706;    1,591
742,853;20399,897;    0,524;    1,591
743,423;19894,071;    0,161;    0,045
743,993;19988,791;    1,070;    1,500
744,563;19459,966;    2,524;   -0,864
745,133;19423,594;   -0,112;   -0,864
745,702;20067,678;    2,797;    1,773
746,272;19355,125;    0,434;    0,591
746,842;19150,208;   -0,748;   -0,591
747,411;19536,746;   -0,839;   -0,318
747,981;19677,739;   -0,930;    0,500
748,551;19718,368;   -0,021;   -1,045
749,120;19573,179;   -0,112;   -0,227
749,690;19913,444;    2,161;    2,409
750,259;20244,345;    0,979;    2,955
750,828;20159,792;    4,070;   -1,955
751,398;20420,876;   -0,112;   -0,045
751,967;19940,050;    2,888;    0,409
752,536;20097,952;    1,161;   -0,227
753,105;20483,490;   -1,384;    0,227
753,675;20268,028;   -0,112;    1,773
754,244;20222,748;    0,888;    3,591
754,813;20221,104;    0,979;    1,227
755,382;19846,187;    0,798;    0,955
755,951;20280,271;   -0,112;    3,682
756,520;19922,081;    2,525;    1,864
757,089;20397,438;    1,888;    0,500
757,658;20512,794;    2,434;    1,227
758,227;20524,150;   -1,111;    0,318
758,795;20782,506;   -1,021;    1,136
759,364;21056,862;    0,525;   -0,591
759,933;20164,491;    1,343;   -0,045
760,501;19790,302;    0,252;   -1,318
761,070;20137,022;   -0,293;   -1,409
761,639;20807,014;    1,434;    1,318
762,207;20198,189;    0,889;   -0,955
762,776;20127,636;    2,889;    0,864
763,344;20088,446;    0,071;    0,591
763,913;19205,984;    1,616;    1,409
764,481;19911,795;    1,980;   -0,136
765,049;19752,788;    0,616;    1,409
765,618;19653,235;    1,434;    0,318
766,186;19779,954;    2,434;    0,136
766,754;19978,220;    1,798;    1,864
767,322;19072,758;    1,162;    0,409
767,890;19063,296;    0,525;   -1,773
768,459;19471,743;    2,616;   -0,318
769,027;19584,463;    2,525;    3,409
769,595;18664,273;    2,616;    2,591
770,163;19067,720;    3,344;    2,955
770,730;18903,258;    2,525;   -0,136
771,298;18756,433;    1,162;   -1,409
771,866;18852,698;    0,253;    4,955
772,434;19150,691;    1,162;   -1,864
773,002;19273,138;    2,616;    0,682
773,569;18937,312;    1,071;    1,682
774,137;18831,304;    0,889;   -0,045
774,705;19536,297;   -0,747;   -0,136
775,272;19103,562;    0,253;    0,682
775,840;18936,373;   -0,111;    2,682
776,407;18476,911;   -0,293;    1,955
776,975;18106,540;    1,162;    0,318
777,542;19044,623;    2,162;   -0,045
778,110;18902,525;    0,707;   -0,045
778,677;18611,063;    1,071;   -0,864
779,244;18398,146;   -1,020;    1,045
779,812;18517,503;    0,980;    0,864
780,379;18328,859;    2,435;    1,136
780,946;18570,397;    2,617;   -0,773
781,513;18852,753;   -0,565;    0,318
782,080;18270,836;    1,253;    2,864
782,647;18936,556;    1,708;    3,045
783,214;18548,458;   -0,201;    3,864
783,781;18221,268;    1,708;   -0,682
784,348;18171,988;    0,253;    1,500
784,915;18578,072;   -1,474;    0,318
785,482;18340,064;    2,708;    2,591
786,049;18821,511;    1,071;   -0,591
786,615;18897,867;    1,708;   -0,955
787,182;18635,951;   -3,201;   -0,682
787,749;18323,307;   -2,201;    1,409
788,315;17718,572;    0,253;   -0,409
788,882;18057,201;    0,981;   -1,227
789,448;18621,739;    1,435;   -0,955
790,015;18633,368;    1,799;    3,227
790,581;18280,633;    0,708;    0,227
791,148;18163,717;    1,344;    1,045
791,714;18349,709;   -1,019;    3,136
792,280;18103,520;    3,708;    1,591
792,847;17766,422;   -0,928;    2,500
793,413;18177,414;   -0,110;   -0,318
793,979;17811,043;    1,526;   -1,318
794,545;17917,581;    2,981;    2,682
795,111;17383,846;    2,435;    1,318
795,678;17568,657;    3,526;   -1,682
796,244;17228,831;    2,799;    0,136
796,810;17682,188;    0,799;    0,773
797,375;17471,817;   -0,292;   -2,136
797,941;17497,173;   -1,110;    0,591
798,507;17611,983;    0,254;   -0,955
799,073;17257,612;    2,708;    0,591
799,639;17275,696;    1,435;    3,136
800,205;17357,961;   -1,565;    2,682
800,770;16940,772;    1,345;    1,773
801,336;16933,855;    2,981;   -0,955
801,901;16744,120;    6,072;    3,136
802,467;17284,295;    0,526;    2,045
803,033;16674,015;   -0,019;    0,864
803,598;16847,371;    1,072;   -1,045
804,163;16942,272;    0,708;   -0,318
804,729;16855,356;   -0,110;    1,136
805,294;17160,257;    1,072;    2,227
805,859;16979,068;    0,890;   -0,409
806,425;16609,424;    3,890;    2,682
806,990;16286,508;    1,890;    4,318
807,555;16678,864;   -0,110;    2,591
808,120;16590,766;   -1,292;   -0,409
808,685;16695,940;    1,072;   -2,500
809,250;16243,114;    2,072;   -0,500
809,815;16478,561;   -0,201;    0,682
810,380;16977,917;    0,981;    1,591
810,945;17434,637;    2,890;    2,045
811,510;16737,721;   -0,200;    1,591
812,075;16456,713;    2,800;   -1,409
812,640;16463,888;    3,709;    1,409
813,204;16535,698;    2,163;   -0,227
813,769;17004,509;    0,254;   -0,045
814,334;16475,047;    0,527;    0,864
814,898;16536,312;    1,981;    0,591
815,463;16362,305;    0,981;   -0,773
816,027;16357,570;    1,345;   -2,318
816,592;16517,290;    2,163;   -2,045
817,156;16070,282;   -2,200;    1,136
817,721;15922,366;    0,982;    2,318
818,285;15938,995;    0,618;    1,500
818,849;16477,624;   -0,018;    1,682
819,414;16386,071;    0,073;    2,955
819,978;16012,881;   -0,291;    1,773
820,542;16543,238;    2,891;    0,500
821,106;16357,321;    2,800;    0,682
821,670;16425,495;    2,709;    2,591
822,234;16174,033;    1,073;    1,409
822,798;15659,935;   -0,836;    0,500
823,362;15636,473;    1,527;    4,227
823,926;15077,920;   -0,018;    1,136
824,490;15243,913;    3,527;   -0,682
825,054;15612,723;    2,527;   -1,136
825,618;15331,807;   -1,200;   -1,500
826,181;15288,254;    0,982;   -1,318
826,745;15197,610;   -0,745;   -1,045
827,309;15497,421;    2,255;    1,318
827,872;15000,413;    0,527;    0,955
828,436;15880,224;    1,982;   -0,773
828,999;16031,126;    2,436;    1,227
829,563;14983,754;   -0,654;    1,136
830,126;14791,383;   -0,018;   -0,591
830,690;14814,103;    0,709;    2,864
831,253;14347,187;   -0,473;    2,227
831,816;14509,906;   -0,018;    0,500
832,380;14458,990;    1,164;    0,864
832,943;14663,073;    3,073;   -0,500
833,506;14206,339;    0,255;   -1,227
834,069;14932,877;    2,164;   -0,955
834,632;15008,778;   -2,200;    1,318
835,195;14923,589;    1,346;    0,955
835,758;14199,309;    0,709;    1,955
836,321;14053,210;    1,073;   -1,045
836,884;14152,567;   -1,291;   -0,955
837,447;14208,923;    0,528;    1,773
838,010;14428,097;    1,800;    3,227
838,573;14684,635;    0,528;    0,773
839,135;14693,718;   -0,109;   -0,955
839,698;14197,802;    2,528;    0,409
840,261;13785,431;    0,255;   -0,227
840,823;13684,605;   -0,927;    0,864
841,386;13916,416;   -0,018;   -2,409
841,948;13839,136;    0,255;    1,773
842,511;13632,946;    0,255;    1,682
843,073;13744,030;    2,982;    0,227
843,636;13591,568;    0,619;   -0,227
844,198;13532,015;    1,255;    0,591
844,760;13640,371;    0,619;    1,955
845,322;13274,273;    0,164;    1,136
845,885;13660,083;   -0,290;    0,591
846,447;14057,985;    0,710;    0,227
847,009;13719,432;    3,983;   -0,682
847,571;13983,516;    1,346;   -2,045
848,133;14085,417;   -0,199;   -1,864
848,695;13868,773;    2,346;    1,409
849,257;13481,675;    1,346;   -1,682
849,819;13655,031;    2,983;   -0,409
850,381;13715,296;    1,801;   -0,864
850,942;14018,107;    1,892;   -0,591
851,504;13911,009;    0,983;    0,227
852,066;13946,274;    1,619;   -1,591
852,628;13602,448;    0,165;    1,955
853,189;13190,805;    0,256;    2,682
853,751;13312,161;   -0,654;    1,409
854,312;13131,971;    1,256;   -1,682
854,874;13560,418;   -0,108;   -0,773
855,435;13980,866;    0,528;   -1,682
855,997;14135,585;    3,983;   -0,136
856,558;13518,305;    0,801;    1,773
857,119;13612,752;   -0,744;    2,864
857,681;13323,017;   -0,108;    0,318
858,242;13374,555;    1,347;   -2,136
858,803;13802,366;    1,074;   -0,773
859,364;14307,631;    0,892;   -4,773
859,925;13716,624;   -0,290;   -0,955
860,486;13607,344;    0,529;   -0,955
861,047;13391,518;    0,165;   -1,227
861,608;13208,692;    0,165;   -0,773
862,169;13354,958;   -0,562;   -0,045
862,730;13124,405;   -0,290;    1,409
863,291;13363,397;    0,438;   -0,500
863,852;13664,481;   -0,926;    1,955
864,412;13167,837;   -1,835;   -0,864
864,973;11995,648;    1,892;    0,500
865,534;11891,367;    2,074;    0,227
866,094;13175,724;    2,620;    0,227
866,655;12873,716;    4,711;    3,318
867,215;13141,163;    0,074;    0,136
867,776;13005,156;   -1,199;   -0,136
868,336;13063,057;    1,529;    0,136
868,897;12660,777;    3,438;    1,682
869,457;12446,861;    3,256;    0,318
870,017;12689,035;    2,438;   -1,227
870,578;13117,846;    1,893;    0,773
871,138;12806,929;    2,620;   -0,955
871,698;12397,194;   -0,562;   -1,318
872,258;12258,187;    0,711;   -2,864
872,818;12653,725;    2,347;    0,045
873,378;12644,990;   -2,198;    1,045
873,938;12219,528;    4,984;    0,500
874,498;12516,430;    1,256;   -1,955
875,058;12438,422;    4,347;    1,773
875,618;12299,142;    1,438;   -2,682
876,177;12244,407;   -0,471;    0,136
876,737;11892,582;   -0,289;    1,955
877,297;11920,120;    2,711;    1,955
877,856;11932,930;    2,529;    0,318
878,416;11918,287;    2,438;   -0,136
878,976;12095,643;    3,438;    0,409
879,535;12250,999;    4,529;    3,136
880,095;12032,810;    1,347;    0,045
880,654;12134,439;    0,347;    1,318
881,213;12250,249;    2,347;    1,500
881,773;11924,060;    1,984;    2,682
882,332;12274,780;    6,075;    5,136
882,891;12123,863;    0,711;    2,136
883,451;12483,401;   -2,016;    1,682
884,010;11999,939;   -1,107;   -0,409
884,569;12090,295;   -2,289;   -0,045
885,128;12226,288;   -0,743;   -1,864
885,687;12275,826;   -0,743;    0,682
886,246;12044,455;    2,620;    2,136
886,805;11762,902;    1,620;    2,045
887,364;12008,167;    1,166;   -0,500
887,922;12320,069;   -0,016;    0,045
888,481;11825,789;    1,530;    0,591
889,040;12121,417;    3,711;    2,136
889,599;12711,046;    2,166;    1,409
890,157;12792,130;    2,166;    2,409
890,716;12408,213;    2,166;    0,227
891,274;12227,569;    0,075;   -1,136
891,833;12581,653;    1,166;    0,864
892,391;12487,100;    1,802;    0,500
892,950;12558,365;    0,166;   -0,773
893,508;12909,085;    0,984;   -0,409
894,067;12302,078;   -0,379;    0,136
894,625;12211,979;   -1,016;   -1,500
895,183;12418,972;   -0,198;   -0,682
895,741;12351,964;    2,257;   -1,773
896,299;12206,957;    1,621;   -2,409
896,858;12352,586;    1,530;   -1,591
897,416;12467,942;    0,166;   -1,318
897,974;12290,389;   -2,197;    0,318
898,532;12431,109;    6,530;    2,682
899,089;12368,829;    0,621;   -0,682
899,647;12398,367;    0,530;    1,318
900,205;12212,814;    0,257;    1,045
900,763;12380,533;    2,166;    0,227
901,321;12391,526;    3,530;   -1,409
901,878;11869,428;    3,257;   -0,773
902,436;11797,966;    0,257;    1,318
902,994;12200,049;    6,712;    3,682
903,551;11705,132;    1,439;    0,409
904,109;12036,580;    1,530;   -1,409
904,666;11712,481;    1,439;    1,045
905,224;11562,019;    3,894;   -0,409
905,781;11361,103;   -0,470;   -0,318
906,338;11429,459;    0,167;    1,045
906,895;11376,815;    1,894;    2,045
907,453;11300,626;    2,348;    1,136
908,010;11302,982;    3,348;    0,409
908,567;11008,883;   -0,561;    0,591
909,124;10612,876;    2,439;   -1,500
909,681;10675,323;   -1,288;    0,682
910,238;10864,406;   -0,106;   -1,318
910,795;11158,217;   -1,561;   -1,136
911,352;10828,581;   -0,379;   -2,682
911,909;10333,763;    2,803;   -0,864
912,466;10789,581;    1,985;    1,500
913,022;10379,854;   -0,924;    0,500
913,579;10705,035;   -0,470;    2,045
914,136;10473,399;   -2,561;    0,955
914,692;10798,035;    1,530;   -1,227
915,249;10417,944;    0,530;    0,409
915,806;10613,399;    1,803;    1,955
916,362;10456,308;    0,894;    1,864
916,918;10050,126;    2,439;    1,045
917,475;10045,854;    1,621;    0,955
918,031;10125,581;    0,076;   -0,045
918,587; 9686,672;    0,621;   -0,318
919,144; 9915,399;   -0,379;    0,227
919,700;10154,581;    0,167;    0,773
920,256; 9779,672;    0,439;    0,045
920,812; 9524,672;    1,439;   -1,045
921,368; 9563,308;    1,348;   -1,045
921,924; 9261,126;    0,439;   -0,136
922,480; 8881,035;    0,076;    1,227
923,036; 9445,217;   -0,652;    1,955
923,592; 9361,217;    0,621;    0,318
924,148; 9319,763;    1,894;   -0,955
924,704; 8805,399;    0,258;   -0,409
925,259; 9063,672;   -0,561;    0,591
925,815; 8851,672;    3,803;    0,500
926,371; 8473,308;    3,530;    1,409
926,926; 8378,581;    1,621;    0,591
927,482; 8091,308;    1,621;    0,773
928,037; 7991,854;   -0,833;    2,045
928,593; 8290,490;    0,258;    1,045
929,148; 8186,581;    1,167;   -1,500
929,704; 7744,581;    2,439;   -0,500
930,259; 7931,581;    0,894;   -0,136
930,814; 7191,399;    1,803;    1,955
931,369; 6944,944;    0,258;   -0,773
931,925; 6870,490;   -1,924;    0,136
932,480; 6807,763;    3,076;   -2,591
933,035; 6773,672;    3,985;   -0,318
933,590; 6583,854;   -1,742;   -1,773
934,145; 6332,126;   -1,288;   -0,318
934,700; 6639,217;    0,348;   -0,591
935,255; 6485,217;    4,803;    0,045
935,809; 5963,944;    6,258;    0,864
936,364; 5244,944;    2,167;   -0,136
936,919; 5286,763;    2,348;   -1,773
937,474; 5216,399;    1,348;    0,136
938,028; 5050,944;    3,076;    1,136
938,583; 4709,490;    6,348;    4,682
939,138; 4913,126;    0,167;    2,136
939,692; 4459,126;   -1,015;   -1,136
940,247; 4241,944;    1,167;   -1,045
940,801; 3968,217;    0,621;    0,227
941,355; 3909,944;    0,439;    2,591
941,910; 3627,944;    0,712;   -2,136
942,464; 3732,035;    2,712;   -0,318
943,018; 3639,399;    3,258;   -0,227
943,572; 3561,672;    2,803;   -0,682
944,126; 3145,035;   -0,924;   -0,409
944,681; 3033,308;    0,712;    0,227
945,235; 2996,035;    2,167;   -0,591
945,789; 2941,581;    1,258;   -1,864
946,342; 3118,854;   -0,561;   -0,591
946,896; 2907,763;    0,348;    0,955
947,450; 2700,854;   -0,561;   -0,227
948,004; 2938,490;    1,076;   -0,045
948,558; 2897,399;    1,258;   -0,864
949,111; 2822,217;   -1,197;   -0,318
949,665; 2944,854;   -0,106;   -0,682
950,219; 2834,944;    0,621;   -1,045
950,772; 2871,217;    0,258;    1,864
951,326; 2800,126;   -1,106;   -0,955
951,879; 2819,672;    1,076;   -2,318
952,433; 2887,217;    1,348;    2,227
952,986; 2708,126;    0,348;    0,682
953,539; 2665,126;    1,530;    0,591
954,093; 2620,581;    0,985;   -1,318
954,646; 2773,126;   -0,288;    1,318
955,199; 2587,126;    1,258;   -0,500
955,752; 2575,490;    1,985;    1,773
956,305; 2511,763;    0,894;    2,955
956,858; 2642,399;    0,621;   -0,318
957,411; 2790,217;    3,621;    2,136
957,964; 2625,035;    2,076;    2,136
958,517; 2595,217;    0,985;    3,136
959,070; 2473,308;   -1,197;    1,955
959,623; 2643,581;    1,076;    1,500
960,176; 2446,763;    0,712;    2,045
960,728; 2422,126;    1,712;    0,773
961,281; 2465,126;    2,258;    0,500
961,834; 2462,581;   -0,833;    0,864
962,386; 2392,581;    1,258;    1,045
962,939; 2314,763;    3,439;   -0,318
963,491; 2429,126;    2,621;    1,136
964,043; 2337,581;    0,076;    2,409
964,596; 2472,217;    1,712;    2,227
965,148; 2338,126;   -0,379;    1,773
965,700; 2248,944;   -0,015;   -0,227
966,253; 2398,944;   -0,833;    0,318
966,805; 2283,308;    1,894;    0,773
967,357; 2289,944;    0,439;   -1,500
967,909; 2290,035;    1,167;   -1,227
968,461; 2329,763;    0,894;    3,136
969,013; 2269,217;   -1,561;   -0,864
969,565; 2353,399;    1,803;   -1,136
970,117; 2557,126;    3,803;    1,045
970,669; 2301,581;    3,258;   -0,136
971,220; 2144,672;    2,167;   -1,500
971,772; 2115,035;    1,348;   -0,318
972,324; 2231,490;   -1,197;   -0,500
972,876; 2157,126;    0,167;   -0,045
973,427; 2312,763;   -1,197;   -1,045
973,979; 2307,854;    0,076;   -2,500
974,530; 2245,399;    0,803;    1,318
975,082; 2253,763;    2,167;    1,682
975,633; 2175,490;    2,894;    1,682
976,184; 2325,944;    2,076;    0,773
976,736; 2185,944;    0,348;    0,227
977,287; 2035,035;    0,258;   -0,500
977,838; 2157,944;   -0,924;   -0,318
978,389; 2193,944;    0,803;   -0,500
978,940; 2059,308;    1,258;   -0,409
979,491; 2090,763;    2,258;   -0,500
980,042; 2082,581;   -0,652;    3,045
980,593; 2096,490;    1,894;    0,227
981,144; 2204,581;    3,530;   -0,500
981,695; 2218,490;   -0,470;    1,500
982,246; 2142,035;   -1,833;    1,045
982,797; 2204,399;   -0,561;    0,682
983,347; 2332,308;    2,167;    0,591
983,898; 2516,308;    4,167;    0,409
984,449; 2386,854;    2,530;    0,773
984,999; 2226,126;    1,894;   -1,136
985,550; 2085,763;    3,167;   -0,318
986,100; 2042,854;    0,712;   -0,318
986,651; 2074,035;    0,258;    0,045
987,201; 2074,581;    0,894;   -0,591
987,751; 2127,035;   -0,288;    2,864
988,302; 2146,944;   -0,379;    1,500
988,852; 2152,399;    1,985;   -1,136
989,402; 2231,126;    0,985;    0,682
989,952; 2176,854;    1,621;    0,864
990,502; 2211,035;    1,076;    0,682
991,052; 2144,217;   -0,106;    0,045
991,602; 2042,126;    1,167;    1,318
992,152; 2077,944;    2,803;    0,682
992,702; 2053,126;    1,167;   -0,045
993,252; 1980,854;    0,076;   -0,500
993,802; 2105,854;    1,167;    1,318
994,352; 2264,217;   -0,742;    1,136
994,901; 2292,490;    1,076;    3,227
995,451; 2235,581;   -1,197;    0,318
996,000; 2291,126;    1,076;    0,318
996,550; 2086,763;    2,894;    0,227
997,100; 2091,854;   -0,561;   -0,045
997,649; 2339,763;   -0,197;    0,955
998,198; 2042,308;   -0,288;   -1,500
998,748; 2229,944;    0,348;   -2,318
999,297; 2114,490;    0,985;   -0,409
999,846; 2218,854;    1,894;   -0,773
1000,395; 2213,035;    1,530;    0,500
1000,945; 2241,763;    1,076;   -0,773
1001,494; 2301,399;    0,167;    0,682
1002,043; 2250,308;    0,712;    0,864
1002,592; 2098,308;    3,439;    1,955
1003,141; 2201,672;    2,439;   -0,682
1003,690; 2145,581;    1,258;    0,500
1004,238; 2144,308;   -0,106;   -0,045
1004,787; 1869,944;   -1,288;    1,227
1005,336; 2132,763;    1,621;    0,682
1005,885; 2185,308;   -0,197;   -2,773
1006,433; 2254,126;   -0,470;    0,955
1006,982; 2411,490;    2,167;    1,682
1007,531; 2265,763;    2,712;   -0,227
1008,079; 2187,763;    0,258;    0,500
1008,627; 2295,035;    1,621;    0,409
1009,176; 2122,217;    0,076;   -1,955
1009,724; 2142,217;   -2,742;    0,864
1010,273; 2235,763;    1,076;    0,500
1010,821; 2266,944;    1,076;    1,409
1011,369; 2059,126;    0,076;    1,318
1011,917; 2069,944;   -0,833;   -0,591
1012,465; 2306,126;    2,530;   -1,591
1013,013; 2369,308;    0,439;   -1,682
1013,561; 2309,763;   -1,288;   -0,773
1014,109; 2383,854;   -0,833;    1,682
1014,657; 2255,126;    1,348;    0,591
1015,205; 2303,944;    0,894;   -0,955
1015,753; 2290,399;    0,258;   -1,409
1016,301; 2342,854;    2,621;    3,045
1016,848; 2370,217;    2,167;    0,409
1017,396; 2421,035;    1,621;    0,045
1017,944; 2513,217;    2,621;    1,864
1018,491; 2292,399;   -0,197;    1,409
1019,039; 2529,854;   -0,652;    0,591
1019,586; 2370,126;    0,076;    1,682
1020,134; 2428,399;    0,712;    1,500
1020,681; 2473,763;    2,894;   -1,136
1021,228; 2429,944;   -0,561;   -2,227
1021,776; 2294,581;   -0,833;   -1,136
1022,323; 2536,854;    0,803;    0,773
1022,870; 2468,854;   -0,470;   -0,045
1023,417; 2419,126;    2,076;    1,864
1023,964; 2456,126;    0,621;    1,227
1024,511; 2347,581;   -0,652;    0,773
1025,058; 2197,854;    0,439;   -0,045
1025,605; 2217,035;   -1,742;    3,136
1026,152; 2469,308;   -0,106;   -0,591
1026,699; 2210,763;    0,167;    1,318
1027,245; 2321,035;    2,439;    0,318
1027,792; 2472,399;    0,712;    1,409
1028,339; 2466,672;    4,076;   -0,045
1028,885; 2317,944;    3,621;   -0,227
1029,432; 2241,854;   -0,106;    0,227
1029,978; 2332,217;    1,348;   -1,591
1030,525; 2238,217;    1,621;    0,409
1031,071; 2387,035;    0,348;    1,136
1031,618; 2589,126;    1,258;    1,682
1032,164; 2353,672;    2,076;    3,045
1032,710; 2398,854;    0,076;   -1,500
1033,256; 2313,763;    0,712;   -0,136
1033,803; 2262,854;   -0,288;    1,500
1034,349; 2039,581;    1,803;    0,136
1034,895; 2173,308;    2,621;   -0,318
1035,441; 2155,581;    0,439;    0,318
1035,987; 2184,854;   -2,288;   -0,682
1036,533; 2212,763;   -0,197;   -0,955
1037,078; 2414,944;    4,712;    1,682
1037,624; 2231,490;    2,439;   -0,955
1038,170; 2223,035;    1,712;   -0,318
1038,716; 2182,399;    2,167;   -0,409
1039,261; 2068,854;    2,167;   -0,773
1039,807; 2049,308;   -0,015;    3,409
1040,352; 2119,399;   -1,288;   -0,318
1040,898; 2140,399;    0,167;   -0,682
1041,443; 2048,217;    0,803;   -2,591
1041,989; 2186,126;    3,621;    1,591
1042,534; 2003,944;    0,985;    2,591
1043,079; 2054,854;    1,985;    0,955
1043,625; 1935,854;    0,258;    0,500
1044,170; 1992,399;    2,439;    1,045
1044,715; 2238,672;    0,167;    0,955
1045,260; 2073,308;   -0,833;   -0,955
1045,805; 2060,308;    0,258;   -0,591
1046,350; 1986,035;    0,530;   -0,409
1046,895; 2051,581;    0,803;    1,591
1047,440; 2019,308;    1,530;    0,409
1047,985; 1885,399;   -1,197;   -0,955
1048,530; 1812,490;    1,348;    1,227
1049,074; 1891,217;    2,803;    0,318
1049,619; 1847,490;   -0,924;    1,955
1050,164; 1697,763;    1,076;    0,227
1050,708; 1758,308;    2,621;    0,045
1051,253; 2141,490;    3,258;   -2,227
1051,797; 1850,944;   -0,197;   -1,318
1052,342; 1780,399;    1,348;    1,045
1052,886; 1809,581;    1,803;   -1,409
1053,430; 1691,217;    2,167;    0,136
1053,975; 1720,581;    0,894;   -0,318
1054,519; 1729,217;    1,803;    3,227
1055,063; 1779,854;    3,621;    1,318
1055,607; 1691,672;    1,348;    0,227
1056,151; 1704,399;    0,530;    1,682
1056,695; 1603,308;   -1,833;   -1,136
1057,239; 1650,581;   -1,197;   -0,682
1057,783; 1683,581;    2,258;   -1,500
1058,327; 1678,308;    3,076;    1,409
1058,871; 1905,763;    3,985;    1,318
1059,415; 1637,490;   -0,561;   -0,045
1059,958; 1918,126;    2,985;    2,591
1060,502; 1620,581;    1,348;   -0,773
1061,046; 1497,399;    1,712;   -0,955
1061,589; 1466,035;    2,803;   -1,136
1062,133; 1386,672;    0,985;    1,864
1062,676; 1359,035;    1,439;    0,864
1063,220; 1385,763;    0,985;    0,500
1063,763; 1407,944;    2,985;    1,136
1064,306; 1483,763;    0,985;    1,864
1064,849; 1394,308;    2,076;    0,591
1065,393; 1384,399;    2,894;   -1,500
1065,936; 1466,944;    2,530;   -0,409
1066,479; 1331,944;    2,621;    1,318
1067,022; 1359,672;    1,894;   -0,227
1067,565; 1287,581;   -1,197;   -1,318
1068,108; 1290,672;    1,258;   -0,591
1068,651; 1271,126;   -2,470;    1,409
1069,194; 1225,944;   -1,106;   -1,682
1069,736; 1245,944;    3,803;    0,955
1070,279; 1202,581;   -1,652;   -0,500
1070,822; 1286,854;    1,530;   -0,318
1071,364; 1415,581;    0,530;    1,318
1071,907; 1219,126;    0,348;    3,227
1072,450; 1078,672;    0,258;   -0,045
1072,992; 1114,308;   -0,561;    3,136
1073,535; 1265,763;    0,167;    2,136
1074,077; 1074,217;    2,985;    2,045
1074,619; 1047,581;    0,985;    0,591
1075,161; 1095,399;   -0,561;    1,500
1075,704; 1281,490;    0,258;    1,227
1076,246; 1053,308;    1,530;    0,682
1076,788;  969,763;   -1,015;    1,773
1077,330; 1032,672;   -2,106;    2,136
1077,872; 1037,126;   -1,924;    0,955
1078,414; 1266,035;    3,712;    0,773
1078,956; 1020,854;    0,167;   -0,227
1079,498; 1274,763;    0,439;    0,318
1080,040;  999,490;    0,985;   -1,318
1080,581;  926,854;    0,621;   -0,318
1081,123;  850,944;   -0,106;   -0,773
1081,665;  907,399;    3,803;   -0,955
1082,206; 1207,490;    3,258;   -0,500
1082,748; 1063,490;    3,258;    2,045
1083,289;  939,581;    0,167;    1,318
1083,831;  872,035;    0,258;    0,227
1084,372;  917,490;    0,894;    0,591
1084,913;  912,490;    3,348;    0,864
1085,455;  859,490;    1,530;   -2,045
1085,996;  854,308;    0,530;    0,136
1086,537;  893,399;    0,985;    0,864
1087,078;  901,399;    0,439;   -2,136
1087,619;  952,763;   -1,652;    0,227
1088,160;  879,126;    1,439;    1,318
1088,701;  860,126;   -0,742;    0,682
1089,242;  825,217;   -0,561;   -2,227
1089,783;  905,126;   -0,561;    1,409
1090,324;  883,035;   -0,833;    0,682
1090,865;  766,763;   -1,924;   -0,409
1091,405;  723,944;   -0,561;    2,227
1091,946;  754,217;   -0,197;   -0,955
1092,487;  674,581;   -1,288;   -1,409
1093,027;  853,581;    1,803;   -1,500
1093,568;  721,672;    2,258;    1,227
1094,108;  812,763;    0,621;    1,773
1094,649;  750,035;   -0,470;    0,136
1095,189;  700,672;    1,167;   -0,682
1095,729;  663,490;    0,712;    0,955
1096,269;  643,490;    1,258;   -0,955
1096,810;  951,944;   -0,197;    0,500
1097,350;  801,581;   -0,561;   -0,773
1097,890;  698,944;    2,985;    1,227
1098,430;  952,581;    4,985;    2,864
1098,970;  846,035;    1,894;    1,682
1099,510;  703,035;   -0,833;   -2,318
1100,050;  638,126;    0,258;   -1,591
1100,589;  617,217;    0,076;   -0,318
1101,129;  730,944;    0,894;   -0,955
1101,669;  883,399;    2,803;    2,136
1102,209;  718,763;    1,530;    2,227
1102,748;  669,581;    3,439;    0,955
1103,288;  659,399;    0,712;   -1,227
1103,827;  677,672;    3,530;   -2,227
1104,367;  570,763;    1,712;   -2,409
1104,906;  540,399;   -1,015;   -1,136
1105,445;  614,581;    0,985;   -1,136
1105,985;  566,035;   -0,652;    1,500
1106,524;  603,217;    1,530;   -0,682
1107,063;  578,763;    1,167;    1,409
1107,602;  556,763;    1,894;   -1,500
1108,141;  493,308;    1,621;    1,500
1108,680;  598,763;    3,985;   -0,591
1109,219;  537,944;    0,167;   -0,500
1109,758;  532,490;    4,167;    0,682
1110,297;  501,944;   -1,106;   -0,682
1110,836;  462,035;    1,439;    0,955
1111,375;  603,944;    0,348;    0,409
1111,913;  623,308;    0,985;    0,773
1112,452;  555,672;    0,894;    0,136
1112,991;  450,217;    1,076;    1,955
1113,529;  426,581;    0,167;   -0,045
1114,068;  489,126;    0,439;    2,955
1114,606;  408,308;   -0,561;   -0,955
1115,144;  548,763;    1,530;    1,045
1115,683;  490,399;    1,985;    0,318
1116,221;  536,944;    2,076;   -0,864
1116,759;  451,944;    1,621;   -0,864
1117,297;  636,126;    1,621;    1,864
1117,836;  457,126;    1,985;   -1,227
1118,374;  467,944;    0,258;   -0,682
1118,912;  424,399;    0,439;    2,682
1119,450;  416,854;    0,985;    0,864
1119,988;  444,672;    3,348;    2,136
1120,525;  873,126;    7,258;    3,318
1121,063;  597,763;    0,530;    1,864
1121,601;  423,035;    1,076;   -1,227
1122,139;  386,854;    1,076;   -2,045
1122,676;  573,490;   -1,652;    2,773
1123,214;  508,035;    0,712;    4,409
1123,751;  334,490;    0,621;    2,227
1124,289;  448,399;    0,894;   -0,409
1124,826;  341,854;   -0,379;    0,227
1125,364;  266,763;    0,712;   -0,955
1125,901;  439,854;    6,258;    1,227
1126,438;  537,308;    3,530;    0,955
1126,975;  286,126;    2,985;   -0,773
1127,513;  351,308;    2,621;    2,136
1128,050;  275,581;   -0,561;   -0,682
1128,587;  360,399;    1,348;   -0,227
1129,124;  405,854;   -0,015;    1,318
1129,661;  280,581;   -1,924;    0,227
1130,198;  440,217;    2,439;    0,773
1130,734;  383,944;   -0,379;    1,409
1131,271;  252,308;   -1,197;    0,864
1131,808;  414,581;    1,621;    3,045
1132,345;  306,581;    4,530;    0,318
1132,881;  184,126;   -0,561;   -1,864
1133,418;  318,672;    0,348;   -1,136
1133,954;  259,763;    0,712;   -2,682
1134,491;  326,399;    1,712;   -0,773
1135,027;  233,399;    2,167;    0,864
1135,564;  311,217;    1,439;    2,955
1136,100;  295,581;   -0,742;    2,136
1136,636;  200,490;   -1,015;   -1,045
1137,172;  287,944;    0,894;   -1,045
1137,708;  222,308;   -1,561;   -1,045
1138,245;  225,399;    0,803;   -1,227
1138,781;  179,672;    1,803;   -3,318
1139,317;  250,035;    1,894;   -1,409
1139,852;  234,035;    3,076;    0,136
1140,388;  328,944;    2,076;   -0,409
1140,924;  238,126;    1,076;   -2,227
1141,460;  173,672;   -0,288;    0,136
1141,996;  122,035;   -0,652;    2,682
1142,531;  169,672;    1,076;    3,318
1143,067;  352,399;    1,167;    1,045
1143,602;  404,763;    3,439;   -0,318
1144,138;  264,854;    0,803;    1,045
1144,673;  158,763;    1,621;    1,409
1145,209;  220,217;    2,894;   -0,318
1145,744;  145,763;    0,803;    0,864
1146,279;  259,672;    1,530;   -0,136
1146,815;  185,672;    1,530;   -2,682
1147,350;  223,399;   -0,924;    0,045
1147,885;  139,399;   -1,924;   -1,318
1148,420;  142,581;    2,439;    0,773
1148,955;  127,944;   -1,470;    1,864
1149,490;  157,035;   -1,106;   -1,591
1150,025;  132,490;   -1,106;   -1,773
1150,560;  233,672;   -0,288;   -0,955
1151,094;  205,763;    0,258;   -0,591
1151,629;  208,035;   -3,742;    0,864
1152,164;  146,581;   -1,288;    1,318
1152,698;  110,399;    1,258;   -0,136
1153,233;   76,308;   -1,379;   -0,682
1153,767;  110,854;   -0,288;   -2,318
1154,302;  156,217;   -0,379;    1,773
1154,836;  166,763;    0,803;   -2,136
1155,371;  210,672;    2,258;    3,682
1155,905;  168,399;    1,985;    1,682
1156,439;  143,126;    0,530;   -0,500
1156,973;  164,217;    0,439;    0,318
1157,507;  105,126;   -1,742;    0,682
1158,042;  132,763;   -0,652;    1,045
1158,576;  178,763;   -0,561;    1,773
1159,110;  161,126;    0,076;    2,409
1159,643;  140,126;   -2,470;   -0,045
1160,177;   85,126;   -2,015;    1,500

