
Integration time [ms]:   0,040
Averaging Nr. [scans]: 11
Smoothing Nr. [pixels]: 0
Data measured with spectrometer [name]: 7318044SP
Wave   ;Sample   ;Dark     ;Reference
[nm]   ;[counts] ;[counts] ;[counts] 

186,757;   31,910;   38,161;    1,318
187,357;   60,961;   26,706;    0,955
187,958;   36,035;   17,252;   -1,591
188,558;   74,680;   12,979;   -1,227
189,159;   46,716;   10,070;   -4,500
189,759;   26,350;    5,797;   -3,591
190,360;   21,149;    6,797;   -2,136
190,960;   57,014;    5,706;   -4,136
191,560;   68,119;    2,614;   -6,591
192,161;  282,840;    5,885;   -3,500
192,761;  146,282;    5,520;   -3,227
193,361;   93,799;    3,065;   -3,773
193,962;  142,941;    1,612;   -2,682
194,562;   82,435;   -0,114;   -3,955
195,162;  101,192;   -0,567;   -2,227
195,762;  258,053;    2,433;   -0,045
196,362;  206,979;    1,706;   -2,500
196,963;   85,732;    1,706;   -0,864
197,563;  147,477;    1,252;   -0,955
198,163;   91,484;   -0,111;   -0,682
198,763;  120,959;   -0,020;   -0,500
199,363;  216,054;    3,616;   -0,500
199,963;  171,920;    2,162;    0,409
200,563;  153,394;    6,344;   -1,409
201,163;  141,714;    5,435;   -0,227
201,763;  223,911;    1,435;    0,318
202,363;  162,787;    0,980;    1,500
202,963;  259,130;    1,526;    1,045
203,563;  370,932;    0,344;    0,500
204,162;  216,666;    1,889;   -1,864
204,762;  213,207;    2,071;    0,591
205,362;  178,363;    0,708;    1,955
205,962;  266,644;    3,435;    1,955
206,562;  270,941;    1,889;    2,318
207,161;  238,404;    1,708;    0,318
207,761;  383,419;    4,435;    2,409
208,361;  259,623;    1,889;    1,409
208,960;  352,457;    2,889;    1,500
209,560;  425,598;    0,435;    1,591
210,160;  401,077;    5,071;    1,864
210,759;  360,131;    0,708;    1,227
211,359;  371,370;   -0,474;    1,045
211,958;  623,468;    3,526;    2,045
212,558;  696,322;    0,799;    1,864
213,157;  535,046;   -0,929;    1,500
213,757;  953,061;    5,617;   -0,227
214,356;  668,060;    1,708;   -0,409
214,956;  982,926;    3,526;    0,409
215,555;  620,954;    0,617;    2,136
216,154;  565,159;   -0,292;   -0,591
216,754;  570,384;    1,253;    0,773
217,353;  686,170;   -0,383;   -1,045
217,952;  547,031;    2,072;    0,318
218,552;  773,737;    0,254;   -0,773
219,151;  667,959;   -1,110;    0,955
219,750;  662,784;    0,890;   -0,227
220,349;  766,971;   -2,292;    1,045
220,948;  863,128;    1,163;    1,136
221,548;  835,955;    0,617;    1,227
222,147;  942,266;   -1,292;   -0,409
222,746; 1219,374;    1,254;   -0,955
223,345; 1092,722;   -1,019;    0,500
223,944; 1083,920;    1,163;    0,773
224,543; 1239,833;    4,072;   -1,409
225,142; 1349,183;    1,345;    0,136
225,741; 1249,930;    1,163;    1,045
226,340; 1273,211;    1,254;   -0,955
226,939; 1691,036;    2,708;   -0,136
227,538; 1602,290;    1,163;   -0,773
228,137; 1777,637;    0,435;    0,864
228,735; 1877,113;    0,435;    1,227
229,334; 1650,519;   -0,474;   -0,227
229,933; 2011,614;    0,799;    0,591
230,532; 2122,687;   -1,201;   -0,409
231,131; 2187,335;    1,253;    0,318
231,729; 2271,993;    1,163;   -2,318
232,328; 2344,943;    0,435;   -1,500
232,927; 2401,530;    4,526;   -0,500
233,525; 2500,934;    0,981;    0,045
234,124; 2694,118;    1,890;   -1,591
234,723; 2719,130;    1,617;   -1,045
235,321; 2837,040;    1,163;    0,136
235,920; 3039,608;    2,526;   -1,227
236,518; 3298,700;    1,072;    0,318
237,117; 3431,638;    2,890;   -0,227
237,715; 3568,566;    1,163;   -0,500
238,314; 3595,987;    1,708;   -2,318
238,912; 3724,101;    0,526;   -1,409
239,510; 3745,186;    1,162;   -1,227
240,109; 3902,541;   -0,474;    3,773
240,707; 3915,594;   -0,474;    1,227
241,305; 4236,195;   -0,383;    0,136
241,904; 4444,195;   -0,292;   -2,045
242,502; 4419,677;    3,253;   -0,227
243,100; 4355,790;    3,344;   -0,955
243,698; 4565,900;    2,799;    1,682
244,297; 4724,225;   -0,656;    0,682
244,895; 4577,355;   -0,474;   -2,318
245,493; 4843,210;    2,981;   -0,591
246,091; 4899,999;    5,163;   -1,318
246,689; 4887,293;    2,163;    0,591
247,287; 4991,201;   -0,019;   -1,136
247,885; 5267,958;   -1,019;    1,227
248,483; 5359,380;   -0,201;   -0,500
249,081; 5449,167;    0,981;    1,591
249,679; 5606,912;   -1,019;    1,682
250,277; 5868,015;   -2,292;    0,864
250,875; 5837,132;    0,617;   -1,045
251,473; 5844,822;   -0,019;    0,500
252,071; 6017,199;   -0,383;    1,045
252,669; 6162,193;   -1,565;    0,318
253,267; 6405,289;    1,618;    0,773
253,864; 6340,837;    0,617;    0,682
254,462; 6224,112;    1,526;    1,591
255,060; 6169,218;    0,072;    1,318
255,658; 6474,648;   -3,292;   -0,136
256,255; 6861,404;   -0,201;   -2,045
256,853; 6740,230;    2,345;    1,409
257,451; 6727,435;    1,981;    1,864
258,048; 7019,814;    2,072;    1,864
258,646; 6733,588;    0,436;   -1,045
259,243; 6931,503;    2,981;    2,227
259,841; 6965,785;    1,799;    0,318
260,438; 6894,186;    0,254;    0,864
261,036; 7536,500;    0,617;    1,409
261,633; 7439,060;    1,526;    2,227
262,231; 7192,826;   -0,110;   -0,045
262,828; 7298,376;   -0,383;    1,136
263,425; 7329,129;   -1,928;   -0,591
264,023; 7585,491;    1,436;    0,045
264,620; 7132,449;    1,526;   -0,318
265,217; 7465,626;    2,890;    3,136
265,815; 7577,937;    2,527;    2,136
266,412; 7381,675;    0,072;    0,136
267,009; 7380,092;    0,526;    0,773
267,606; 7320,315;    0,345;   -0,955
268,203; 7277,984;   -0,383;   -0,591
268,801; 7518,510;   -0,474;    0,591
269,398; 7825,462;   -0,564;    2,500
269,995; 7797,830;    0,890;    1,591
270,592; 7566,724;    0,799;   -0,500
271,189; 7773,577;    1,981;    0,409
271,786; 7877,767;    2,072;    1,227
272,383; 7735,639;   -0,383;    0,227
272,980; 7911,663;    1,617;    0,318
273,577; 8353,888;    2,162;    1,227
274,174; 7933,372;    1,435;    2,591
274,771; 7918,830;    1,890;   -0,773
275,367; 8036,182;    3,253;    1,409
275,964; 8011,610;   -0,565;   -0,500
276,561; 8117,584;   -2,474;   -1,045
277,158; 8303,548;    1,799;   -1,773
277,755; 8422,258;   -0,110;    0,409
278,351; 7866,518;    0,436;   -1,500
278,948; 8130,892;   -0,201;    0,045
279,545; 8134,989;    0,527;    2,318
280,141; 8718,520;    1,254;   -2,045
280,738; 8580,963;    2,435;   -0,136
281,334; 8779,735;   -0,383;    0,591
281,931; 8212,011;    2,890;   -1,318
282,528; 8332,049;    4,072;   -0,500
283,124; 8970,385;    3,345;   -0,500
283,721; 8865,369;    0,709;    1,409
284,317; 8674,127;    0,163;    2,500
284,913; 9207,303;   -0,110;    0,591
285,510; 9355,939;    2,890;   -0,318
286,106; 9384,920;    2,345;   -0,955
286,703; 8999,387;    0,072;    1,955
287,299; 9199,785;    1,254;   -0,591
287,895; 9394,926;    0,890;   -1,045
288,491; 9911,281;    0,163;    2,136
289,088; 9664,975;    0,163;    2,409
289,684; 9733,830;    2,890;    1,500
290,280; 9745,674;    1,890;    0,682
290,876; 9803,447;    0,163;    5,500
291,472; 9703,662;    2,163;    2,227
292,068; 9801,786;    1,254;    0,227
292,665; 9507,512;   -0,564;    0,773
293,261; 9179,170;   -1,292;    2,136
293,857; 9568,899;    4,072;    2,136
294,453; 9489,726;   -0,928;    0,955
295,049; 9369,668;    0,253;    1,955
295,644; 9407,323;   -1,292;    0,136
296,240; 9349,206;    0,162;   -0,136
296,836; 9403,219;   -0,747;    0,318
297,432; 9636,352;    2,980;   -0,500
298,028; 9649,217;    0,435;    0,773
298,624;10003,974;    0,889;    1,864
299,220;10226,687;    0,435;    0,591
299,815; 9882,388;    0,526;   -0,409
300,411; 9714,941;    0,435;    1,773
301,007; 9730,462;    1,889;    0,227
301,602; 9732,790;    2,071;   -2,318
302,198; 9884,129;    1,435;   -0,773
302,794;10249,182;    1,526;   -0,500
303,389;10341,664;    1,071;    1,045
303,985;10403,849;    1,253;    1,409
304,580;10357,749;    0,889;    1,591
305,176;10330,463;    0,344;    0,136
305,771;10270,113;   -0,929;   -1,227
306,367;10164,669;    3,071;    0,136
306,962;10488,517;    2,889;    1,500
307,558;10182,107;    2,435;    0,136
308,153;10109,169;   -0,383;   -1,136
308,748;10355,819;    0,162;    1,682
309,344;10329,147;    0,253;   -1,318
309,939;10451,634;    2,071;   -1,318
310,534;10676,208;   -2,020;   -1,682
311,130;10626,935;   -0,656;   -2,500
311,725;10384,311;    0,526;   -0,500
312,320;10676,360;    1,253;    0,045
312,915;10525,732;    2,890;   -1,045
313,510;10587,767;    0,526;   -0,500
314,105;11097,468;   -3,565;    1,409
314,700;10484,116;   -1,656;   -1,045
315,295;10147,840;   -0,020;    0,045
315,890; 9750,287;   -0,292;    0,864
316,485;10066,359;    0,253;   -0,318
317,080;10185,202;   -0,929;    1,591
317,675;10687,703;    3,071;   -0,682
318,270;10150,114;    6,889;    3,318
318,865;10155,771;    2,435;    3,045
319,460; 9998,857;   -1,565;    0,591
320,055;10221,121;   -2,565;   -1,227
320,650; 9899,295;   -1,838;   -0,591
321,244; 9970,015;    0,889;   -1,409
321,839;10826,871;    0,980;   -0,227
322,434;10715,633;   -0,111;   -1,591
323,029;10378,576;   -0,474;    1,591
323,623;10222,819;    0,798;    0,773
324,218;10040,634;    2,707;    1,409
324,812; 9948,433;    0,889;    1,591
325,407; 9776,948;   -0,929;    2,045
326,002; 9726,155;    0,526;   -0,409
326,596; 9988,089;   -0,656;    1,318
327,191;10228,716;   -0,383;   -1,045
327,785; 9851,907;   -0,747;   -0,227
328,379;10052,376;   -0,383;    0,136
328,974; 9852,581;    1,798;   -3,955
329,568;10064,163;    2,889;   -2,409
330,163; 9899,466;    2,435;    1,045
330,757;10244,727;    0,253;    1,591
331,351; 9608,711;   -0,292;    0,682
331,945; 9912,749;   -0,383;    1,409
332,540; 9509,235;    1,617;   -0,591
333,134; 9657,843;    3,344;    0,773
333,728; 9876,848;    2,799;    0,318
334,322;10175,987;    0,889;   -0,864
334,916; 9482,858;    0,344;    0,955
335,510; 9812,413;   -0,111;   -0,136
336,105;10054,625;   -0,929;    1,591
336,699; 9743,353;   -1,292;    0,591
337,293; 9682,878;    1,071;    0,318
337,887; 9832,384;    0,071;    1,955
338,481; 9936,188;    2,980;    0,591
339,074;10038,880;    2,071;    2,682
339,668; 9853,145;   -0,110;    1,227
340,262;10119,117;    7,708;    3,227
340,856; 9657,714;    1,708;   -0,682
341,450; 9067,772;    0,708;    1,864
342,044; 9876,150;    1,799;    0,136
342,637; 9628,541;    1,162;   -2,136
343,231; 9495,118;   -1,474;    0,682
343,825; 9450,102;   -0,747;   -0,591
344,419; 9463,894;   -0,474;    0,500
345,012; 9260,563;    2,889;    4,045
345,606; 9239,394;   -0,656;    1,591
346,199; 9125,785;   -0,111;   -0,227
346,793; 8715,140;    2,525;    2,045
347,386; 8896,704;    0,889;   -1,136
347,980; 8864,419;   -0,838;   -0,045
348,573; 8694,553;   -1,748;    0,409
349,167; 8416,367;    6,161;    4,773
349,760; 8745,530;    2,252;    2,682
350,354; 8722,551;    1,616;    1,136
350,947; 8490,310;    2,798;    1,682
351,540; 8193,285;    0,616;   -1,409
352,134; 8145,916;   -1,111;    1,136
352,727; 8204,161;   -0,657;    1,136
353,320; 8035,197;    2,343;    0,591
353,913; 7875,184;   -1,929;    1,864
354,507; 8072,987;    0,434;   -1,227
355,100; 8103,387;    0,071;    0,864
355,693; 7442,809;    4,798;    2,409
356,286; 7464,483;    0,980;    2,773
356,879; 7782,396;   -0,475;    1,227
357,472; 7426,538;    0,980;    1,500
358,065; 7633,036;    3,161;    2,500
358,658; 7550,054;    0,798;    2,318
359,251; 7257,920;    0,252;   -0,591
359,844; 6782,736;    0,343;   -1,136
360,437; 6952,594;    0,252;    0,045
361,030; 7215,352;    0,525;   -0,682
361,623; 6861,039;    0,434;    0,318
362,215; 6871,759;    0,979;    2,045
362,808; 6698,177;   -2,293;   -1,682
363,401; 6893,641;    0,798;    0,136
363,994; 6686,445;    3,252;   -1,500
364,586; 6617,721;    0,888;   -1,500
365,179; 6809,126;   -0,203;   -1,136
365,772; 6316,658;   -0,930;    2,045
366,364; 6588,210;    1,524;   -3,227
366,957; 6779,460;    1,342;   -0,045
367,549; 6796,556;   -0,203;   -0,864
368,142; 6509,996;    0,978;   -1,500
368,734; 6665,081;    2,523;   -2,136
369,327; 6625,394;    2,341;   -0,500
369,919; 6559,345;   -1,659;    0,409
370,512; 6394,115;   -1,023;   -0,500
371,104; 6184,282;    2,704;    1,591
371,696; 6348,108;    1,703;   -0,955
372,289; 6406,332;    0,157;    1,136
372,881; 6520,891;    1,156;    1,318
373,473; 6434,230;    4,064;    1,136
374,066; 6280,381;    1,336;    0,500
374,658; 6149,861;    0,879;    1,136
375,250; 6455,288;   -1,668;   -1,409
375,842; 6329,150;   -0,124;   -0,045
376,434; 6180,248;   -2,762;   -0,409
377,026; 6703,080;   -1,855;   -2,500
377,618; 6591,702;    0,779;   -0,682
378,210; 6453,253;    3,141;   -1,955
378,802; 6330,698;    3,412;   -0,591
379,394; 6317,232;    3,411;    0,682
379,986; 6837,290;    1,138;   -0,955
380,578; 6899,498;    1,410;    0,773
381,170; 6315,824;    0,320;    0,045
381,762; 6280,357;   -0,224;    1,409
382,354; 6442,764;   -0,223;   -1,318
382,945; 6539,312;    0,870;    0,318
383,537; 6679,866;    1,144;   -1,955
384,129; 6691,061;    0,963;   -1,136
384,721; 6844,736;    0,418;    0,955
385,312; 6751,022;   -1,399;   -0,955
385,904; 6866,545;   -0,945;    1,591
386,496; 6269,176;    0,691;    1,045
387,087; 6414,745;    0,418;    2,500
387,679; 6420,725;   -0,401;    0,045
388,270; 6588,849;   -2,401;    2,045
388,862; 6679,896;   -0,401;   -0,318
389,453; 6537,200;    1,054;    1,045
390,045; 6801,449;    3,236;   -2,682
390,636; 6724,818;    0,144;   -0,591
391,227; 6599,641;    2,054;   -0,045
391,819; 6715,371;    0,781;    0,773
392,410; 6757,201;    0,600;    0,045
393,001; 6703,716;    1,600;   -1,591
393,593; 6966,148;    0,600;   -0,045
394,184; 6836,219;    0,873;   -0,409
394,775; 6713,312;    1,146;    2,136
395,366; 6929,872;    1,782;    0,773
395,957; 6891,364;   -2,400;    0,136
396,548; 7155,084;    1,054;    2,682
397,139; 7445,025;    2,236;    0,591
397,730; 7207,164;    0,873;    0,955
398,321; 7272,291;    0,509;    0,955
398,912; 7257,962;   -0,764;    0,136
399,503; 7343,210;   -1,945;   -1,409
400,094; 6843,256;   -1,582;    1,682
400,685; 6717,035;    3,600;    0,045
401,276; 6752,660;   -0,400;   -0,955
401,867; 7038,892;   -1,127;    0,773
402,458; 7145,861;    1,509;   -2,318
403,048; 7109,744;    0,146;    0,591
403,639; 6775,766;    1,509;    0,864
404,230; 7000,361;    0,691;    0,318
404,821; 6983,573;   -0,127;    0,045
405,411; 7101,487;   -0,763;   -2,591
406,002; 6717,361;    3,237;   -1,136
406,592; 6592,648;    2,691;    0,045
407,183; 6825,516;    0,328;   -1,500
407,774; 6754,587;    1,419;   -0,136
408,364; 7050,846;    2,600;    0,409
408,954; 6709,225;   -0,036;    1,227
409,545; 6767,016;    1,873;    1,045
410,135; 6316,330;   -1,581;    0,500
410,726; 6458,837;    0,783;    0,318
411,316; 6838,397;    2,237;    0,773
411,906; 6514,225;    0,146;   -0,409
412,497; 6079,034;   -0,490;   -0,045
413,087; 6601,584;    0,783;   -0,227
413,677; 6951,496;   -2,490;    3,864
414,267; 6831,195;   -1,035;    1,409
414,857; 6812,158;    0,419;    4,227
415,448; 7068,501;   -0,763;    0,500
416,038; 6788,600;   -2,945;   -0,591
416,628; 6757,469;    0,965;    0,409
417,218; 6293,785;   -1,762;    3,318
417,808; 6515,476;    0,965;   -0,409
418,398; 6933,023;   -1,035;    2,682
418,988; 6910,530;   -2,217;    0,591
419,578; 7135,255;    3,601;    1,409
420,168; 7439,092;    0,692;   -0,955
420,757; 7056,069;    0,964;   -1,500
421,347; 6770,063;    1,601;   -0,227
421,937; 6917,332;    3,329;    1,409
422,527; 6877,601;    2,602;   -0,773
423,116; 6728,704;    2,692;   -0,045
423,706; 7007,314;    2,965;    0,318
424,296; 7005,356;    1,601;    0,682
424,885; 7374,538;    1,510;   -3,045
425,475; 7606,310;    1,147;   -2,864
426,065; 7546,467;   -1,489;   -0,318
426,654; 7196,006;    0,329;   -0,318
427,244; 7320,430;    1,147;    1,409
427,833; 6818,488;    1,056;   -0,500
428,423; 7227,762;    0,147;    1,136
429,012; 7896,461;    2,420;   -1,136
429,601; 7435,551;    2,057;    0,136
430,191; 7660,853;    2,511;    4,318
430,780; 7316,696;   -1,671;   -0,409
431,369; 7249,529;    1,329;   -0,045
431,959; 7844,901;    1,693;    0,500
432,548; 7633,860;   -1,398;   -0,045
433,137; 7709,060;    0,329;   -1,318
433,726; 8208,615;    0,148;    0,500
434,315; 7632,764;    0,148;    2,409
434,905; 7718,029;    0,693;    1,409
435,494; 7636,658;    3,148;    0,955
436,083; 8067,395;    1,420;   -0,955
436,672; 7940,140;    1,148;    0,500
437,261; 7556,649;    0,512;   -1,955
437,850; 7657,656;   -1,125;    0,682
438,439; 7640,666;    2,239;    1,955
439,027; 7497,314;    3,421;    1,773
439,616; 7836,367;    2,239;    1,227
440,205; 7656,565;    0,057;   -2,136
440,794; 7697,806;   -0,306;   -0,045
441,383; 7947,343;    1,603;   -0,591
441,971; 7822,973;   -0,306;    0,591
442,560; 7661,032;    0,603;   -1,773
443,149; 7407,792;    3,060;   -1,318
443,737; 7579,168;    0,968;   -2,318
444,326; 7820,968;    0,331;    0,318
444,915; 7814,916;   -1,851;    0,864
445,503; 8163,331;    0,058;   -0,318
446,092; 7552,161;    7,876;    2,136
446,680; 8059,297;    1,876;    0,318
447,269; 8203,719;   -1,487;   -0,318
447,857; 7973,658;    2,240;   -1,773
448,445; 8085,169;    2,149;    1,318
449,034; 8305,683;    0,876;   -1,136
449,622; 8403,116;    1,240;    3,500
450,210; 7695,385;    3,149;    2,227
450,799; 8187,691;    2,604;   -0,591
451,387; 8151,453;    1,786;   -0,591
451,975; 7841,414;   -1,305;    0,864
452,563; 7925,228;    0,422;    2,318
453,151; 7971,612;   -1,032;   -1,227
453,739; 7869,627;   -1,577;    0,136
454,328; 7776,516;    0,604;   -2,136
454,916; 7527,927;    1,150;   -0,136
455,504; 7659,723;    3,513;    1,227
456,092; 7826,931;    2,150;   -1,591
456,679; 7823,481;    0,604;    0,682
457,267; 7782,874;    3,604;    1,045
457,855; 7908,960;    3,241;    1,409
458,443; 7641,541;   -0,304;    1,682
459,031; 7782,768;    1,332;    2,409
459,619; 8185,930;   -3,577;    2,864
460,206; 8302,035;   -0,759;    2,045
460,794; 8360,579;   -0,668;   -0,227
461,382; 8583,420;    0,878;   -0,864
461,970; 8188,737;    0,605;    1,864
462,557; 8235,894;    0,878;   -0,682
463,145; 8372,559;   -0,304;   -1,682
463,732; 8471,515;    2,514;   -1,045
464,320; 8399,029;    1,514;   -3,045
464,907; 8119,469;    0,423;   -0,773
465,495; 8001,517;    2,696;   -1,227
466,082; 8165,025;    2,060;   -0,045
466,670; 8080,758;    2,605;    1,227
467,257; 8456,909;    0,060;    2,045
467,844; 8612,832;    1,514;    0,045
468,432; 8620,588;   -0,031;    3,500
469,019; 8201,243;    1,606;   -1,773
469,606; 8622,105;    0,969;    3,682
470,193; 8435,681;    2,151;    0,227
470,780; 8060,365;    0,333;    0,864
471,368; 8372,824;   -1,212;   -0,773
471,955; 8206,469;    1,060;   -0,682
472,542; 7843,668;   -0,303;   -1,136
473,129; 8069,410;   -0,485;    0,136
473,716; 7845,535;    0,060;    0,591
474,303; 7997,220;    1,333;   -0,864
474,890; 8256,972;    2,333;   -0,500
475,477; 8296,400;   -0,576;    0,409
476,064; 8202,238;    0,697;   -1,591
476,650; 8110,336;    2,152;    0,318
477,237; 7947,336;    1,879;    0,955
477,824; 8091,596;    3,879;    0,864
478,411; 8107,408;    0,606;   -0,318
478,997; 8300,374;    0,606;   -0,773
479,584; 8328,168;   -0,666;   -0,409
480,171; 8964,241;    1,243;   -0,773
480,757; 8671,691;   -0,848;    0,773
481,344; 8923,266;    0,334;    0,409
481,931; 8434,613;   -0,393;    1,045
482,517; 9308,608;    0,425;    0,318
483,104; 9772,417;    1,334;    2,864
483,690;10030,354;    0,243;    0,045
484,276;10288,910;    0,698;    0,227
484,863;10024,731;    2,152;    1,136
485,449;10549,436;    0,152;    0,318
486,035;10556,738;   -0,666;   -0,136
486,622;10978,184;   -2,393;    0,045
487,208;10899,864;    1,334;    1,500
487,794;10761,574;    0,971;    0,318
488,380;10865,495;    0,698;   -1,409
488,967;10930,121;   -1,120;   -0,409
489,553;10987,394;   -1,029;   -1,409
490,139;11172,601;    0,971;    0,773
490,725;10669,312;    0,789;   -0,227
491,311;10329,577;    1,516;    3,045
491,897; 9712,241;   -0,665;    1,500
492,483; 9595,094;    0,426;    1,227
493,069; 9435,769;    5,426;    0,864
493,655; 9398,661;    1,789;    0,682
494,241; 9312,199;    1,517;   -0,955
494,826; 9677,142;    0,335;   -1,045
495,412; 9156,347;    0,335;   -0,682
495,998; 9314,809;    0,971;   -0,318
496,584; 9398,654;    2,244;    1,045
497,169; 9368,579;    2,335;   -0,682
497,755; 9354,791;    1,244;    1,227
498,341; 9874,327;    2,153;    0,318
498,926; 9480,237;    2,881;    1,955
499,512; 9592,309;   -0,028;    2,955
500,097; 9700,486;   -0,574;   -0,318
500,683; 9626,105;   -0,028;    2,136
501,268; 9968,631;    1,881;   -0,955
501,854; 9729,989;   -0,119;    1,227
502,439; 9669,031;   -0,573;   -1,773
503,024; 9843,705;    1,608;    0,500
503,610; 9894,156;    1,335;   -0,682
504,195; 9899,127;    1,245;    1,955
504,780;10025,546;    2,335;    1,227
505,366; 9846,219;    4,063;    2,864
505,951; 9570,113;   -1,119;    1,045
506,536; 9595,536;    1,427;   -3,682
507,121; 9566,269;    1,699;   -0,318
507,706;10078,387;   -0,392;    1,045
508,291;10392,819;   -2,937;    1,136
508,876; 9899,947;   -0,482;    2,591
509,461; 9387,938;    1,427;   -0,773
510,046; 9798,410;   -0,391;    0,318
510,631; 9991,226;   -0,119;   -0,773
511,216; 9684,632;   -0,664;   -0,500
511,801;10035,722;   -0,755;    2,591
512,386;10263,669;    0,972;    0,500
512,971;10194,710;    0,427;    0,955
513,555; 9815,363;    1,154;   -1,500
514,140;10529,602;    1,336;   -3,136
514,725;10485,171;    1,791;   -1,136
515,309;10626,753;    1,064;    0,318
515,894;10157,115;   -0,300;   -2,227
516,479;10554,993;    1,973;   -0,955
517,063;10361,548;    0,882;    1,227
517,648;10499,918;    0,155;   -1,136
518,232;10101,718;   -1,300;   -1,409
518,817;10457,653;    1,337;    1,682
519,401;10659,121;    0,700;    0,591
519,985;10166,472;    2,700;    1,136
520,570;10088,113;   -0,118;   -1,955
521,154;10332,611;    0,064;    0,591
521,738;10474,289;    1,064;    2,409
522,323;10998,011;   -0,390;    1,682
522,907;10778,057;    2,428;   -0,136
523,491;10523,811;    1,155;    0,955
524,075;10519,382;    0,428;    0,591
524,659;10552,493;    0,973;    0,591
525,243;10115,613;    0,883;    0,409
525,827;10313,610;    0,883;   -0,045
526,411;11044,130;    1,155;   -0,136
526,995;11235,439;    0,337;    1,409
527,579;10838,835;    1,974;   -1,045
528,163;11111,519;    0,428;   -1,500
528,747;11056,716;    1,065;   -0,773
529,331;11315,572;    0,883;   -1,409
529,915;11488,318;    2,338;    0,955
530,499;11427,385;    0,247;    1,227
531,082;11151,969;    1,065;    1,591
531,666;10683,171;    0,520;    0,773
532,250;11260,923;    0,428;    2,682
532,833;11567,982;    0,610;    2,773
533,417;11413,326;    1,247;    0,864
534,001;11367,127;    0,429;   -0,318
534,584;12001,159;    1,974;    0,500
535,168;11816,293;    3,247;    1,409
535,751;11865,810;    4,520;    0,045
536,334;11366,437;    4,520;   -0,409
536,918;11932,524;    1,974;    1,591
537,501;11977,590;    1,520;    1,318
538,085;11960,805;    1,702;    1,045
538,668;12055,466;    0,883;    2,409
539,251;12369,037;    3,156;    3,773
539,834;12399,667;    0,156;    0,773
540,418;12323,823;    3,247;    4,318
541,001;12380,606;    2,702;    1,773
541,584;12363,130;    1,429;    2,227
542,167;12076,125;    0,702;    2,955
542,750;12198,503;    0,793;   -0,773
543,333;11816,778;    1,429;    2,136
543,916;12528,360;   -0,298;    2,500
544,499;13006,306;    2,520;    0,227
545,082;13001,946;    0,248;    3,591
545,665;13132,776;   -0,207;    1,500
546,248;13395,597;    0,520;   -0,318
546,830;13089,861;   -1,752;    1,955
547,413;13489,531;    0,157;   -0,773
547,996;13956,232;    0,157;    0,500
548,579;13705,030;   -0,843;    0,955
549,161;13530,397;    0,884;    2,682
549,744;13327,467;    0,612;    0,409
550,326;13785,970;    0,885;   -1,136
550,909;13562,195;    2,339;    0,591
551,492;13930,007;    0,521;    0,227
552,074;13745,412;   -0,024;   -1,318
552,657;14252,186;    2,430;    0,045
553,239;14048,170;   -3,024;   -0,773
553,821;13976,686;   -1,570;    1,045
554,404;13494,457;   -0,024;    1,136
554,986;13830,747;    2,248;    1,045
555,568;14316,823;    0,430;   -0,955
556,151;13636,757;    4,067;   -0,227
556,733;13851,671;   -1,388;   -0,864
557,315;14226,174;    4,703;    0,500
557,897;13991,508;    0,521;   -0,500
558,479;14102,398;    1,703;    1,318
559,061;14241,124;    1,067;   -0,864
559,643;14539,035;   -0,297;    0,045
560,225;14834,918;   -0,388;    2,864
560,807;14845,762;    0,340;    0,318
561,389;14401,884;   -1,206;    2,318
561,971;15036,531;   -0,660;    2,136
562,553;14895,399;    0,613;    1,591
563,135;14999,759;    1,249;    1,136
563,717;14631,575;    3,158;    1,136
564,298;15200,386;    3,976;   -0,045
564,880;14934,903;    0,340;   -1,409
565,462;15054,540;    1,977;    1,318
566,043;16030,173;   -0,933;    2,318
566,625;15648,194;    4,067;    1,227
567,207;15442,630;    0,704;    1,682
567,788;16361,524;   -0,114;    1,500
568,370;17080,152;   -1,841;   -0,500
568,951;16855,170;   -0,569;    0,227
569,533;17617,945;    0,977;   -0,500
570,114;18014,278;   -0,296;    0,682
570,695;18397,631;   -0,478;   -1,318
571,277;18691,285;   -0,205;   -1,682
571,858;19347,703;    2,704;   -1,136
572,439;20084,683;    0,795;   -1,045
573,021;20184,944;    0,432;   -2,773
573,602;20551,766;    1,795;    0,318
574,183;21308,103;   -0,114;    2,227
574,764;21361,871;    2,068;    0,409
575,345;21772,728;    0,250;   -0,136
575,926;22275,259;    2,704;    0,136
576,507;22248,151;    2,704;   -0,227
577,088;23238,764;    1,704;    1,682
577,669;23209,701;    1,704;    1,955
578,250;23830,194;   -0,750;   -1,045
578,831;24334,357;   -0,841;   -2,227
579,412;24478,453;   -1,205;    0,955
579,993;25332,821;    1,432;    0,227
580,573;25589,641;   -0,023;   -0,955
581,154;24619,521;    1,613;   -0,591
581,735;25470,790;    0,341;    0,773
582,315;24959,790;    0,523;    2,136
582,896;25228,871;   -1,750;    1,227
583,477;24773,815;    0,614;    1,227
584,057;24934,888;    1,159;    0,955
584,638;25198,912;   -2,750;    2,318
585,218;25154,476;    2,886;    2,682
585,799;25300,124;    1,977;   -0,227
586,379;25330,127;    1,250;    1,591
586,959;24342,331;    2,613;    0,318
587,540;23805,988;    0,432;    2,227
588,120;23433,507;   -1,113;   -0,045
588,700;22516,655;    2,977;    2,136
589,281;22822,867;    1,250;   -0,955
589,861;22751,127;   -0,296;   -1,682
590,441;22576,188;   -1,477;   -2,682
591,021;21692,296;    1,432;   -2,591
591,601;21953,663;    0,431;    0,500
592,181;22000,408;   -1,296;   -0,773
592,761;21360,052;    2,250;    1,409
593,341;21337,784;    1,522;    0,045
593,921;21320,286;   -0,569;    1,591
594,501;21197,445;    1,250;    1,318
595,081;21066,352;    0,522;   -0,318
595,661;21377,549;    1,068;    0,955
596,240;21864,050;   -1,023;    0,136
596,820;21430,113;    2,613;    1,955
597,400;21556,273;    1,977;    0,773
597,980;21766,516;   -0,750;    1,045
598,559;21843,882;    0,341;   -0,227
599,139;21589,754;   -0,750;   -1,227
599,718;21488,482;    0,795;   -0,409
600,298;21731,814;   -2,387;    0,682
600,877;21960,816;    4,795;    1,409
601,457;22179,242;    0,340;    1,136
602,036;22092,775;    1,795;    2,045
602,616;22252,628;    2,250;    1,682
603,195;22545,536;    0,431;    3,500
603,774;22074,204;   -0,296;    2,045
604,354;21984,320;    2,522;   -0,500
604,933;21587,636;    0,250;    1,864
605,512;21717,960;    2,340;    0,591
606,091;21750,207;    1,886;    3,773
606,671;22483,198;    0,249;    0,773
607,250;21644,428;    1,431;    3,136
607,829;21851,371;    1,158;    3,227
608,408;21724,954;    4,613;    2,591
608,987;20895,158;    2,704;    3,409
609,566;21146,437;    0,341;   -2,500
610,145;21252,777;    2,885;    0,682
610,723;21645,352;    1,613;    6,864
611,302;20988,985;    1,067;    1,682
611,881;20518,088;    5,158;   11,227
612,460;21253,638;    0,795;    3,955
613,039;21687,904;    1,703;    2,045
613,617;20533,401;    0,886;    4,773
614,196;20641,479;    1,613;    1,227
614,775;20966,832;    1,249;    2,409
615,353;20921,224;   -1,660;    0,864
615,932;20747,501;    0,249;    2,409
616,510;21258,944;    0,158;    0,591
617,089;20850,596;    8,794;   17,591
617,667;20605,662;    4,885;    6,136
618,246;20481,940;   -1,115;    1,318
618,824;20640,286;    1,612;   -0,955
619,402;20229,083;    0,431;   -1,773
619,981;20667,177;    1,067;   -1,045
620,559;20546,527;    0,794;    1,682
621,137;20147,195;    3,067;    1,864
621,715;20138,588;    3,703;   -0,682
622,293;20084,829;    1,885;   -0,773
622,871;20520,174;    0,340;    0,500
623,450;20170,571;    0,430;   -0,864
624,028;20083,844;   -0,388;   -0,955
624,606;19693,101;    2,339;    1,682
625,183;20020,921;   -0,661;   -1,136
625,761;19743,579;    1,885;    1,136
626,339;20021,517;    2,339;    2,591
626,917;20311,388;    0,339;   -0,045
627,495;20385,802;    2,794;    1,318
628,073;19856,144;    5,248;    2,864
628,650;19589,884;    3,067;    2,136
629,228;19976,952;    1,248;    4,409
629,806;19473,387;   -0,024;    1,136
630,383;19683,725;    0,066;   -0,318
630,961;19516,592;   -2,206;   -0,955
631,539;19293,926;   -2,479;    0,227
632,116;18729,683;   12,703;   15,409
632,694;19208,955;    4,885;    6,500
633,271;19395,567;    1,975;    2,682
633,848;19392,179;    1,430;    2,045
634,426;19438,574;    1,521;    1,773
635,003;18697,952;   -0,207;   -0,409
635,580;18942,128;    1,884;    3,682
636,158;19437,783;    3,793;    1,227
636,735;19391,045;    3,339;   -0,500
637,312;19495,504;    0,521;   -0,682
637,889;19598,112;    2,248;   -0,682
638,466;19188,710;    0,066;   -0,409
639,043;19164,713;    1,702;   -1,136
639,620;19426,257;    0,611;   -0,955
640,197;19682,925;    1,612;    1,682
640,774;19853,463;    1,430;    1,136
641,351;20183,364;    0,612;    1,136
641,928;19685,538;    2,794;    1,409
642,505;19321,621;    0,794;   -0,500
643,082;19480,704;    1,885;    1,227
643,658;18610,424;    1,157;    1,500
644,235;19235,779;   -2,479;    2,500
644,812;19443,862;    1,794;    0,773
645,388;19206,218;    1,612;    1,409
645,965;19287,483;    1,521;    1,682
646,542;19378,839;    3,430;   -0,227
647,118;19387,104;    3,703;   -0,955
647,695;19638,005;    0,339;    1,136
648,271;19570,634;   -2,115;    0,500
648,848;19839,535;    0,248;    2,227
649,424;19657,527;    0,976;    1,318
650,000;19386,156;   -0,388;   -1,045
650,577;19238,239;    0,158;   -0,955
651,153;19639,504;   -1,115;    0,955
651,729;20475,950;    0,521;    0,864
652,305;20574,488;    1,339;    2,773
652,881;23925,026;   -1,297;    1,136
653,458;29294,472;    0,249;    0,227
654,034;32303,737;    0,703;    1,591
654,610;33489,548;    0,339;    0,773
655,186;34605,722;    1,612;    3,045
655,762;34312,077;   -1,842;    0,409
656,338;34376,615;    0,703;    0,136
656,913;35266,880;   -0,297;    0,409
657,489;34614,781;    0,249;   -0,318
658,065;34583,228;    0,794;   -1,591
658,641;35185,038;    2,158;   -0,864
659,217;34600,939;    2,067;    0,409
659,792;34072,750;   -1,751;   -0,409
660,368;34409,106;   -0,388;   -0,682
660,944;34334,007;    1,794;    1,227
661,519;30774,272;    0,522;    0,409
662,095;25932,355;   -0,206;    0,591
662,670;22112,893;   -0,206;   -0,136
663,246;21189,339;   -0,660;   -0,409
663,821;20676,422;    0,431;    1,682
664,396;20160,142;    0,613;    1,864
664,972;20379,770;   -0,660;   -0,500
665,547;20673,308;    3,794;    0,136
666,122;20735,027;    1,340;    0,318
666,698;20980,020;    2,431;    0,318
667,273;20341,103;    0,885;    0,136
667,848;21073,640;    0,340;    1,500
668,423;20841,996;    1,795;    2,318
668,998;21294,534;    0,976;   -0,682
669,573;21747,344;    2,067;   -1,500
670,148;21547,609;    1,885;   -0,682
670,723;21392,147;   -0,024;    0,318
671,298;21806,684;   -1,296;    1,045
671,873;21820,676;   -0,296;   -0,136
672,448;21741,123;    1,704;    0,136
673,023;22075,024;    0,249;   -0,227
673,597;22393,744;    2,704;    2,318
674,172;22199,918;    2,431;    0,318
674,747;21694,365;   -0,205;   -1,045
675,321;21511,266;   -0,933;    3,318
675,896;21193,531;    2,158;    1,045
676,471;22047,432;    2,522;    1,591
677,045;21830,515;   -0,296;    0,682
677,620;21794,689;    2,158;    1,136
678,194;22130,772;    0,249;    1,136
678,769;21787,492;    0,886;   -0,318
679,343;22008,847;   -0,023;    1,773
679,917;21818,294;    0,340;    1,955
680,492;21830,559;    0,249;    3,227
681,066;21959,551;    0,613;    0,409
681,640;22083,180;    1,795;   -0,318
682,214;22734,081;    2,340;    0,500
682,788;22300,437;    0,613;   -0,773
683,363;22204,338;    1,977;    1,682
683,937;21944,239;    0,886;   -0,318
684,511;22600,231;   -1,023;   -0,591
685,085;22374,133;   -1,478;    0,318
685,659;22099,761;    1,431;    0,864
686,232;22315,481;    1,159;   -0,318
686,806;22118,837;    2,159;    0,409
687,380;22650,738;   -1,932;    0,591
687,954;22935,457;    2,432;    1,136
688,528;22532,268;    2,613;    1,955
689,101;23294,805;    0,432;    1,045
689,675;22935,070;    0,886;   -0,136
690,249;22285,335;    3,432;    0,409
690,822;22625,964;    1,159;    0,318
691,396;22760,410;    2,068;    1,227
691,969;22260,857;    2,523;    0,136
692,543;22688,213;   -0,568;   -1,955
693,116;22392,296;   -0,659;   -1,409
693,690;22230,197;   -0,296;    0,500
694,263;22719,644;    2,341;    2,955
694,836;22781,363;    2,795;    3,591
695,410;21540,083;    1,159;    1,773
695,983;21930,166;    1,614;    0,591
696,556;21941,249;   -0,750;   -1,045
697,129;22241,423;   -1,114;    1,409
697,703;21953,142;    1,341;    1,955
698,276;21994,316;    1,705;   -0,773
698,849;21817,399;   -1,023;    1,409
699,422;22118,119;    1,250;    0,591
699,995;21856,657;   -0,659;    0,136
700,568;22309,467;   -0,204;    3,045
701,140;22294,095;   -1,841;    1,682
701,713;22083,997;    0,341;    2,409
702,286;21868,625;    0,796;    0,864
702,859;21736,890;    0,614;   -0,591
703,432;21004,700;   -0,841;    0,682
704,004;21392,784;    1,978;    0,318
704,577;21286,139;    1,068;    0,136
705,150;21826,495;    0,887;    2,500
705,722;21644,396;    1,523;   -3,227
706,295;21458,934;    1,432;   -0,591
706,867;21317,290;    0,250;    1,955
707,440;21504,100;   -0,113;   -0,409
708,012;21763,002;   -0,022;    0,591
708,584;21658,539;    2,705;    0,227
709,157;21891,077;    1,160;   -0,591
709,729;21616,705;    1,069;    2,045
710,301;22398,970;   -1,204;    0,045
710,874;22388,690;    0,341;   -0,227
711,446;21323,864;   -0,295;    0,864
712,018;21257,401;   -3,022;    0,500
712,590;21062,121;   -0,204;    1,682
713,162;21483,840;   -0,477;    1,318
713,734;21703,105;    1,796;   -2,045
714,306;21642,734;    0,342;   -0,409
714,878;20433,544;   -0,295;    0,864
715,450;21199,173;   -0,113;    0,864
716,022;21461,346;    2,433;    1,318
716,593;21648,520;    0,978;    0,591
717,165;21550,604;    1,796;   -1,227
717,737;21295,687;    0,796;    0,409
718,309;21025,406;    1,160;   -0,045
718,880;20976,671;   -1,295;   -1,409
719,452;21180,663;    0,887;   -1,591
720,024;20831,019;    1,705;   -0,591
720,595;21370,011;    2,978;    0,955
721,167;20966,094;    1,160;   -2,045
721,738;20519,632;    2,069;   -1,045
722,309;20524,988;    1,251;   -1,227
722,881;20323,980;    2,705;    0,773
723,452;20840,699;    1,251;    2,864
724,023;21039,328;    1,524;    2,682
724,595;20866,047;    2,342;    0,682
725,166;20604,949;    1,524;   -0,409
725,737;20269,668;    1,887;    0,227
726,308;20390,569;    0,797;    0,318
726,879;20773,016;    1,069;    1,227
727,450;20639,463;   -2,022;   -0,045
728,021;20580,091;    1,069;    0,682
728,592;20421,629;    1,160;    0,500
729,163;20737,712;    1,433;   -0,136
729,734;20679,704;    2,160;   -0,227
730,305;21008,151;    0,615;    0,136
730,876;21315,507;    0,888;    2,955
731,447;21061,590;    0,797;    2,682
732,017;21146,127;   -0,840;    1,864
732,588;20722,938;   -0,021;    1,227
733,159;20836,112;    3,615;   -1,045
733,729;20652,740;    1,251;    0,409
734,300;20047,642;    0,160;    0,864
734,870;20449,361;   -1,385;    0,591
735,441;20916,262;    0,888;   -0,591
736,011;20736,527;    1,070;   -1,591
736,582;20668,156;    1,251;    0,045
737,152;20189,693;    0,979;   -2,045
737,722;20586,231;    1,070;   -0,682
738,293;20307,496;   -2,021;    1,318
738,863;20217,670;    1,797;    2,318
739,433;20110,662;    4,524;    0,318
740,003;20690,927;    1,524;   -0,682
740,573;20117,283;    2,252;   -1,591
741,143;20124,002;    3,615;    0,318
741,713;20790,267;    0,252;   -0,500
742,283;20592,805;    1,706;    1,591
742,853;20357,524;    0,524;    1,591
743,423;19862,244;    0,161;    0,045
743,993;19953,236;    1,070;    1,500
744,563;19423,773;    2,524;   -0,864
745,133;19389,311;   -0,112;   -0,864
745,702;20007,030;    2,797;    1,773
746,272;19254,659;    0,434;    0,591
746,842;19122,015;   -0,748;   -0,591
747,411;19505,371;   -0,839;   -0,318
747,981;19608,181;   -0,930;    0,500
748,551;19657,900;   -0,021;   -1,045
749,120;19523,256;   -0,112;   -0,227
749,690;19873,521;    2,161;    2,409
750,259;20179,150;    0,979;    2,955
750,828;20092,233;    4,070;   -1,955
751,398;20329,952;   -0,112;   -0,045
751,967;19900,217;    2,888;    0,409
752,536;20094,664;    1,161;   -0,227
753,105;20486,929;   -1,384;    0,227
753,675;20218,921;   -0,112;    1,773
754,244;20170,459;    0,888;    3,591
754,813;20206,178;    0,979;    1,227
755,382;19847,897;    0,798;    0,955
755,951;20269,435;   -0,112;    3,682
756,520;19908,791;    2,525;    1,864
757,089;20362,419;    1,888;    0,500
757,658;20467,684;    2,434;    1,227
758,227;20503,313;   -1,111;    0,318
758,795;20748,396;   -1,021;    1,136
759,364;21048,024;    0,525;   -0,591
759,933;20108,653;    1,343;   -0,045
760,501;19722,918;    0,252;   -1,318
761,070;20106,365;   -0,293;   -1,409
761,639;20772,448;    1,434;    1,318
762,207;20153,531;    0,889;   -0,955
762,776;20116,250;    2,889;    0,864
763,344;20079,424;    0,071;    0,591
763,913;19172,780;    1,616;    1,409
764,481;19896,045;    1,980;   -0,136
765,049;19800,037;    0,616;    1,409
765,618;19664,302;    1,434;    0,318
766,186;19737,476;    2,434;    0,136
766,754;19906,195;    1,798;    1,864
767,322;19029,097;    1,162;    0,409
767,890;19015,089;    0,525;   -1,773
768,459;19422,263;    2,616;   -0,318
769,027;19538,800;    2,525;    3,409
769,595;18653,156;    2,616;    2,591
770,163;19062,239;    3,344;    2,955
770,730;18874,504;    2,525;   -0,136
771,298;18735,315;    1,162;   -1,409
771,866;18811,489;    0,253;    4,955
772,434;19119,935;    1,162;   -1,864
773,002;19274,473;    2,616;    0,682
773,569;18984,102;    1,071;    1,682
774,137;18792,821;    0,889;   -0,045
774,705;19494,540;   -0,747;   -0,136
775,272;19068,169;    0,253;    0,682
775,840;18897,616;   -0,111;    2,682
776,407;18453,244;   -0,293;    1,955
776,975;18044,509;    1,162;    0,318
777,542;19014,229;    2,162;   -0,045
778,110;18892,039;    0,707;   -0,045
778,677;18585,577;    1,071;   -0,864
779,244;18379,841;   -1,020;    1,045
779,812;18471,015;    0,980;    0,864
780,379;18313,553;    2,435;    1,136
780,946;18549,636;    2,617;   -0,773
781,513;18854,810;   -0,565;    0,318
782,080;18248,166;    1,253;    2,864
782,647;18909,067;    1,708;    3,045
783,214;18546,968;   -0,201;    3,864
783,781;18205,142;    1,708;   -0,682
784,348;18094,316;    0,253;    1,500
784,915;18474,490;   -1,474;    0,318
785,482;18298,483;    2,708;    2,591
786,049;18717,020;    1,071;   -0,591
786,615;18834,376;    1,708;   -0,955
787,182;18576,914;   -3,201;   -0,682
787,749;18294,088;   -2,201;    1,409
788,315;17700,443;    0,253;   -0,409
788,882;17975,799;    0,981;   -1,227
789,448;18631,428;    1,435;   -0,955
790,015;18629,784;    1,799;    3,227
790,581;18242,230;    0,708;    0,227
791,148;18128,041;    1,344;    1,045
791,714;18281,397;   -1,019;    3,136
792,280;18052,480;    3,708;    1,591
792,847;17759,290;   -0,928;    2,500
793,413;18147,009;   -0,110;   -0,318
793,979;17806,002;    1,526;   -1,318
794,545;17856,812;    2,981;    2,682
795,111;17353,077;    2,435;    1,318
795,678;17473,887;    3,526;   -1,682
796,244;17192,698;    2,799;    0,136
796,810;17709,235;    0,799;    0,773
797,375;17474,046;   -0,292;   -2,136
797,941;17450,310;   -1,110;    0,591
798,507;17525,303;    0,254;   -0,955
799,073;17185,658;    2,708;    0,591
799,639;17295,469;    1,435;    3,136
800,205;17350,370;   -1,565;    2,682
800,770;16855,999;    1,345;    1,773
801,336;16954,991;    2,981;   -0,955
801,901;16705,347;    6,072;    3,136
802,467;17237,793;    0,526;    2,045
803,033;16627,967;   -0,019;    0,864
803,598;16778,959;    1,072;   -1,045
804,163;16850,406;    0,708;   -0,318
804,729;16802,671;   -0,110;    1,136
805,294;17134,391;    1,072;    2,227
805,859;16928,110;    0,890;   -0,409
806,425;16546,920;    3,890;    2,682
806,990;16223,912;    1,890;    4,318
807,555;16626,450;   -0,110;    2,591
808,120;16578,351;   -1,292;   -0,409
808,685;16654,071;    1,072;   -2,500
809,250;16214,336;    2,072;   -0,500
809,815;16450,237;   -0,201;    0,682
810,380;16894,593;    0,981;    1,591
810,945;17362,676;    2,890;    2,045
811,510;16688,123;   -0,200;    1,591
812,075;16404,115;    2,800;   -1,409
812,640;16453,289;    3,709;    1,409
813,204;16535,190;    2,163;   -0,227
813,769;16997,455;    0,254;   -0,045
814,334;16486,811;    0,527;    0,864
814,898;16553,530;    1,981;    0,591
815,463;16369,977;    0,981;   -0,773
816,027;16330,515;    1,345;   -2,318
816,592;16431,507;    2,163;   -2,045
817,156;16028,681;   -2,200;    1,136
817,721;15874,673;    0,982;    2,318
818,285;15887,483;    0,618;    1,500
818,849;16461,475;   -0,018;    1,682
819,414;16370,286;    0,073;    2,955
819,978;15999,005;   -0,291;    1,773
820,542;16506,452;    2,891;    0,500
821,106;16330,444;    2,800;    0,682
821,670;16386,164;    2,709;    2,591
822,234;16126,428;    1,073;    1,409
822,798;15624,784;   -0,836;    0,500
823,362;15637,322;    1,527;    4,227
823,926;15051,587;   -0,018;    1,136
824,490;15194,124;    3,527;   -0,682
825,054;15586,117;    2,527;   -1,136
825,618;15316,109;   -1,200;   -1,500
826,181;15273,010;    0,982;   -1,318
826,745;15191,184;   -0,745;   -1,045
827,309;15502,994;    2,255;    1,318
827,872;14995,077;    0,527;    0,955
828,436;15861,797;    1,982;   -0,773
828,999;15977,425;    2,436;    1,227
829,563;14911,509;   -0,654;    1,136
830,126;14741,864;   -0,018;   -0,591
830,690;14783,766;    0,709;    2,864
831,253;14308,849;   -0,473;    2,227
831,816;14468,841;   -0,018;    0,500
832,380;14434,197;    1,164;    0,864
832,943;14637,280;    3,073;   -0,500
833,506;14183,545;    0,255;   -1,227
834,069;14879,900;    2,164;   -0,955
834,632;14970,165;   -2,200;    1,318
835,195;14862,067;    1,346;    0,955
835,758;14154,968;    0,709;    1,955
836,321;13998,596;    1,073;   -1,045
836,884;14160,225;   -1,291;   -0,955
837,447;14184,035;    0,528;    1,773
838,010;14393,937;    1,800;    3,227
838,573;14685,383;    0,528;    0,773
839,135;14707,739;   -0,109;   -0,955
839,698;14201,549;    2,528;    0,409
840,261;13777,996;    0,255;   -0,227
840,823;13688,443;   -0,927;    0,864
841,386;13927,071;   -0,018;   -2,409
841,948;13810,791;    0,255;    1,773
842,511;13555,601;    0,255;    1,682
843,073;13694,048;    2,982;    0,227
843,636;13534,858;    0,619;   -0,227
844,198;13482,214;    1,255;    0,591
844,760;13592,843;    0,619;    1,955
845,322;13252,926;    0,164;    1,136
845,885;13652,827;   -0,290;    0,591
846,447;14077,092;    0,710;    0,227
847,009;13706,902;    3,983;   -0,682
847,571;13942,076;    1,346;   -2,045
848,133;14025,432;   -0,199;   -1,864
848,695;13891,152;    2,346;    1,409
849,257;13495,416;    1,346;   -1,682
849,819;13667,409;    2,983;   -0,409
850,381;13647,855;    1,801;   -0,864
850,942;13959,666;    1,892;   -0,591
851,504;13917,476;    0,983;    0,227
852,066;13939,377;    1,619;   -1,591
852,628;13585,369;    0,165;    1,955
853,189;13164,907;    0,256;    2,682
853,751;13311,172;   -0,654;    1,409
854,312;13099,982;    1,256;   -1,682
854,874;13532,338;   -0,108;   -0,773
855,435;13985,967;    0,528;   -1,682
855,997;14154,141;    3,983;   -0,136
856,558;13465,587;    0,801;    1,773
857,119;13571,580;   -0,744;    2,864
857,681;13333,844;   -0,108;    0,318
858,242;13356,291;    1,347;   -2,136
858,803;13726,556;    1,074;   -0,773
859,364;14233,639;    0,892;   -4,773
859,925;13730,631;   -0,290;   -0,955
860,486;13617,078;    0,529;   -0,955
861,047;13342,616;    0,165;   -1,227
861,608;13167,517;    0,165;   -0,773
862,169;13320,873;   -0,562;   -0,045
862,730;13081,501;   -0,290;    1,409
863,291;13330,948;    0,438;   -0,500
863,852;13631,577;   -0,926;    1,955
864,412;13186,205;   -1,835;   -0,864
864,973;11970,379;    1,892;    0,500
865,534;11868,462;    2,074;    0,227
866,094;13161,909;    2,620;    0,227
866,655;12853,537;    4,711;    3,318
867,215;13139,348;    0,074;    0,136
867,776;13003,431;   -1,199;   -0,136
868,336;13054,605;    1,529;    0,136
868,897;12624,415;    3,438;    1,682
869,457;12450,498;    3,256;    0,318
870,017;12676,491;    2,438;   -1,227
870,578;13098,028;    1,893;    0,773
871,138;12767,020;    2,620;   -0,955
871,698;12372,194;   -0,562;   -1,318
872,258;12240,186;    0,711;   -2,864
872,818;12632,088;    2,347;    0,045
873,378;12591,625;   -2,198;    1,045
873,938;12193,527;    4,984;    0,500
874,498;12500,155;    1,256;   -1,955
875,058;12410,602;    4,347;    1,773
875,618;12276,140;    1,438;   -2,682
876,177;12198,859;   -0,471;    0,136
876,737;11846,851;   -0,289;    1,955
877,297;11895,934;    2,711;    1,955
877,856;11895,290;    2,529;    0,318
878,416;11858,009;    2,438;   -0,136
878,976;12061,093;    3,438;    0,409
879,535;12243,085;    4,529;    3,136
880,095;12010,441;    1,347;    0,045
880,654;12110,887;    0,347;    1,318
881,213;12223,243;    2,347;    1,500
881,773;11894,053;    1,984;    2,682
882,332;12206,864;    6,075;    5,136
882,891;12066,401;    0,711;    2,136
883,451;12447,394;   -2,016;    1,682
884,010;11966,022;   -1,107;   -0,409
884,569;12025,378;   -2,289;   -0,045
885,128;12158,370;   -0,743;   -1,864
885,687;12234,726;   -0,743;    0,682
886,246;11978,900;    2,620;    2,136
886,805;11764,892;    1,620;    2,045
887,364;12027,702;    1,166;   -0,500
887,922;12334,604;   -0,016;    0,045
888,481;11818,323;    1,530;    0,591
889,040;12099,043;    3,711;    2,136
889,599;12672,398;    2,166;    1,409
890,157;12745,936;    2,166;    2,409
890,716;12354,201;    2,166;    0,227
891,274;12200,829;    0,075;   -1,136
891,833;12572,458;    1,166;    0,864
892,391;12445,814;    1,802;    0,500
892,950;12497,806;    0,166;   -0,773
893,508;12880,071;    0,984;   -0,409
894,067;12267,154;   -0,379;    0,136
894,625;12210,419;   -1,016;   -1,500
895,183;12412,138;   -0,198;   -0,682
895,741;12333,585;    2,257;   -1,773
896,299;12179,486;    1,621;   -2,409
896,858;12352,297;    1,530;   -1,591
897,416;12473,289;    0,166;   -1,318
897,974;12246,008;   -2,197;    0,318
898,532;12378,637;    6,530;    2,682
899,089;12311,356;    0,621;   -0,682
899,647;12338,985;    0,530;    1,318
900,205;12160,250;    0,257;    1,045
900,763;12315,333;    2,166;    0,227
901,321;12389,598;    3,530;   -1,409
901,878;11862,499;    3,257;   -0,773
902,436;11755,764;    0,257;    1,318
902,994;12148,483;    6,712;    3,682
903,551;11671,748;    1,439;    0,409
904,109;12015,649;    1,530;   -1,409
904,666;11695,187;    1,439;    1,045
905,224;11548,725;    3,894;   -0,409
905,781;11319,535;   -0,470;   -0,318
906,338;11382,436;    0,167;    1,045
906,895;11372,247;    1,894;    2,045
907,453;11296,966;    2,348;    1,136
908,010;11290,322;    3,348;    0,409
908,567;11013,587;   -0,561;    0,591
909,124;10543,670;    2,439;   -1,500
909,681;10629,389;   -1,288;    0,682
910,238;10847,745;   -0,106;   -1,318
910,795;11127,283;   -1,561;   -1,136
911,352;10812,919;   -0,379;   -2,682
911,909;10308,919;    2,803;   -0,864
912,466;10780,828;    1,985;    1,500
913,022;10386,737;   -0,924;    0,500
913,579;10682,737;   -0,470;    2,045
914,136;10430,828;   -2,561;    0,955
914,692;10757,919;    1,530;   -1,227
915,249;10371,556;    0,530;    0,409
915,806;10577,646;    1,803;    1,955
916,362;10420,556;    0,894;    1,864
916,918;10049,283;    2,439;    1,045
917,475;10032,465;    1,621;    0,955
918,031;10109,283;    0,076;   -0,045
918,587; 9678,919;    0,621;   -0,318
919,144; 9900,919;   -0,379;    0,227
919,700;10135,192;    0,167;    0,773
920,256; 9771,192;    0,439;    0,045
920,812; 9500,465;    1,439;   -1,045
921,368; 9508,556;    1,348;   -1,045
921,924; 9209,465;    0,439;   -0,136
922,480; 8839,919;    0,076;    1,227
923,036; 9415,646;   -0,652;    1,955
923,592; 9372,283;    0,621;    0,318
924,148; 9304,646;    1,894;   -0,955
924,704; 8756,101;    0,258;   -0,409
925,259; 9065,192;   -0,561;    0,591
925,815; 8831,192;    3,803;    0,500
926,371; 8445,556;    3,530;    1,409
926,926; 8387,192;    1,621;    0,591
927,482; 8084,556;    1,621;    0,773
928,037; 8003,192;   -0,833;    2,045
928,593; 8285,556;    0,258;    1,045
929,148; 8138,465;    1,167;   -1,500
929,704; 7733,192;    2,439;   -0,500
930,259; 7918,374;    0,894;   -0,136
930,814; 7161,192;    1,803;    1,955
931,369; 6939,374;    0,258;   -0,773
931,925; 6859,646;   -1,924;    0,136
932,480; 6800,283;    3,076;   -2,591
933,035; 6768,374;    3,985;   -0,318
933,590; 6576,101;   -1,742;   -1,773
934,145; 6336,737;   -1,288;   -0,318
934,700; 6614,919;    0,348;   -0,591
935,255; 6498,465;    4,803;    0,045
935,809; 5964,556;    6,258;    0,864
936,364; 5262,465;    2,167;   -0,136
936,919; 5313,919;    2,348;   -1,773
937,474; 5224,646;    1,348;    0,136
938,028; 5043,283;    3,076;    1,136
938,583; 4709,828;    6,348;    4,682
939,138; 4898,465;    0,167;    2,136
939,692; 4453,556;   -1,015;   -1,136
940,247; 4230,010;    1,167;   -1,045
940,801; 3959,374;    0,621;    0,227
941,355; 3890,646;    0,439;    2,591
941,910; 3601,010;    0,712;   -2,136
942,464; 3697,556;    2,712;   -0,318
943,018; 3614,556;    3,258;   -0,227
943,572; 3555,556;    2,803;   -0,682
944,126; 3133,192;   -0,924;   -0,409
944,681; 3025,374;    0,712;    0,227
945,235; 3007,919;    2,167;   -0,591
945,789; 2944,283;    1,258;   -1,864
946,342; 3144,010;   -0,561;   -0,591
946,896; 2915,919;    0,348;    0,955
947,450; 2687,465;   -0,561;   -0,227
948,004; 2929,465;    1,076;   -0,045
948,558; 2892,465;    1,258;   -0,864
949,111; 2823,919;   -1,197;   -0,318
949,665; 2942,556;   -0,106;   -0,682
950,219; 2836,646;    0,621;   -1,045
950,772; 2850,101;    0,258;    1,864
951,326; 2787,101;   -1,106;   -0,955
951,879; 2822,101;    1,076;   -2,318
952,433; 2873,192;    1,348;    2,227
952,986; 2713,828;    0,348;    0,682
953,539; 2670,465;    1,530;    0,591
954,093; 2615,919;    0,985;   -1,318
954,646; 2757,192;   -0,288;    1,318
955,199; 2578,646;    1,258;   -0,500
955,752; 2570,010;    1,985;    1,773
956,305; 2503,192;    0,894;    2,955
956,858; 2635,101;    0,621;   -0,318
957,411; 2780,192;    3,621;    2,136
957,964; 2609,374;    2,076;    2,136
958,517; 2584,465;    0,985;    3,136
959,070; 2460,737;   -1,197;    1,955
959,623; 2620,010;    1,076;    1,500
960,176; 2422,556;    0,712;    2,045
960,728; 2405,828;    1,712;    0,773
961,281; 2457,556;    2,258;    0,500
961,834; 2460,919;   -0,833;    0,864
962,386; 2398,828;    1,258;    1,045
962,939; 2321,465;    3,439;   -0,318
963,491; 2426,010;    2,621;    1,136
964,043; 2317,101;    0,076;    2,409
964,596; 2469,556;    1,712;    2,227
965,148; 2330,374;   -0,379;    1,773
965,700; 2253,737;   -0,015;   -0,227
966,253; 2394,101;   -0,833;    0,318
966,805; 2267,919;    1,894;    0,773
967,357; 2282,828;    0,439;   -1,500
967,909; 2283,556;    1,167;   -1,227
968,461; 2318,646;    0,894;    3,136
969,013; 2264,374;   -1,561;   -0,864
969,565; 2349,465;    1,803;   -1,136
970,117; 2542,192;    3,803;    1,045
970,669; 2306,101;    3,258;   -0,136
971,220; 2121,556;    2,167;   -1,500
971,772; 2089,374;    1,348;   -0,318
972,324; 2244,556;   -1,197;   -0,500
972,876; 2153,556;    0,167;   -0,045
973,427; 2305,919;   -1,197;   -1,045
973,979; 2295,192;    0,076;   -2,500
974,530; 2232,737;    0,803;    1,318
975,082; 2259,737;    2,167;    1,682
975,633; 2176,919;    2,894;    1,682
976,184; 2332,101;    2,076;    0,773
976,736; 2185,737;    0,348;    0,227
977,287; 2031,192;    0,258;   -0,500
977,838; 2146,283;   -0,924;   -0,318
978,389; 2199,283;    0,803;   -0,500
978,940; 2048,737;    1,258;   -0,409
979,491; 2068,010;    2,258;   -0,500
980,042; 2075,283;   -0,652;    3,045
980,593; 2096,646;    1,894;    0,227
981,144; 2186,465;    3,530;   -0,500
981,695; 2202,192;   -0,470;    1,500
982,246; 2140,283;   -1,833;    1,045
982,797; 2188,465;   -0,561;    0,682
983,347; 2313,828;    2,167;    0,591
983,898; 2513,556;    4,167;    0,409
984,449; 2390,283;    2,530;    0,773
984,999; 2203,919;    1,894;   -1,136
985,550; 2072,101;    3,167;   -0,318
986,100; 2051,010;    0,712;   -0,318
986,651; 2076,828;    0,258;    0,045
987,201; 2079,465;    0,894;   -0,591
987,751; 2134,828;   -0,288;    2,864
988,302; 2142,374;   -0,379;    1,500
988,852; 2154,737;    1,985;   -1,136
989,402; 2242,646;    0,985;    0,682
989,952; 2182,919;    1,621;    0,864
990,502; 2201,737;    1,076;    0,682
991,052; 2124,010;   -0,106;    0,045
991,602; 2027,192;    1,167;    1,318
992,152; 2053,828;    2,803;    0,682
992,702; 2047,192;    1,167;   -0,045
993,252; 1994,556;    0,076;   -0,500
993,802; 2097,556;    1,167;    1,318
994,352; 2245,646;   -0,742;    1,136
994,901; 2288,465;    1,076;    3,227
995,451; 2227,010;   -1,197;    0,318
996,000; 2295,737;    1,076;    0,318
996,550; 2092,192;    2,894;    0,227
997,100; 2084,374;   -0,561;   -0,045
997,649; 2339,828;   -0,197;    0,955
998,198; 2049,192;   -0,288;   -1,500
998,748; 2222,737;    0,348;   -2,318
999,297; 2101,101;    0,985;   -0,409
999,846; 2218,828;    1,894;   -0,773
1000,395; 2200,283;    1,530;    0,500
1000,945; 2238,646;    1,076;   -0,773
1001,494; 2293,919;    0,167;    0,682
1002,043; 2253,828;    0,712;    0,864
1002,592; 2071,646;    3,439;    1,955
1003,141; 2196,737;    2,439;   -0,682
1003,690; 2155,283;    1,258;    0,500
1004,238; 2142,374;   -0,106;   -0,045
1004,787; 1855,556;   -1,288;    1,227
1005,336; 2125,828;    1,621;    0,682
1005,885; 2186,465;   -0,197;   -2,773
1006,433; 2256,374;   -0,470;    0,955
1006,982; 2419,010;    2,167;    1,682
1007,531; 2276,737;    2,712;   -0,227
1008,079; 2183,374;    0,258;    0,500
1008,627; 2278,374;    1,621;    0,409
1009,176; 2093,556;    0,076;   -1,955
1009,724; 2128,010;   -2,742;    0,864
1010,273; 2239,737;    1,076;    0,500
1010,821; 2261,919;    1,076;    1,409
1011,369; 2053,010;    0,076;    1,318
1011,917; 2048,101;   -0,833;   -0,591
1012,465; 2290,283;    2,530;   -1,591
1013,013; 2355,919;    0,439;   -1,682
1013,561; 2311,374;   -1,288;   -0,773
1014,109; 2379,646;   -0,833;    1,682
1014,657; 2242,556;    1,348;    0,591
1015,205; 2301,556;    0,894;   -0,955
1015,753; 2297,556;    0,258;   -1,409
1016,301; 2351,283;    2,621;    3,045
1016,848; 2372,283;    2,167;    0,409
1017,396; 2416,101;    1,621;    0,045
1017,944; 2494,828;    2,621;    1,864
1018,491; 2265,010;   -0,197;    1,409
1019,039; 2532,374;   -0,652;    0,591
1019,586; 2375,646;    0,076;    1,682
1020,134; 2428,010;    0,712;    1,500
1020,681; 2468,828;    2,894;   -1,136
1021,228; 2425,192;   -0,561;   -2,227
1021,776; 2290,465;   -0,833;   -1,136
1022,323; 2548,192;    0,803;    0,773
1022,870; 2463,828;   -0,470;   -0,045
1023,417; 2415,010;    2,076;    1,864
1023,964; 2464,374;    0,621;    1,227
1024,511; 2369,101;   -0,652;    0,773
1025,058; 2185,374;    0,439;   -0,045
1025,605; 2212,646;   -1,742;    3,136
1026,152; 2469,919;   -0,106;   -0,591
1026,699; 2207,556;    0,167;    1,318
1027,245; 2327,919;    2,439;    0,318
1027,792; 2467,556;    0,712;    1,409
1028,339; 2457,374;    4,076;   -0,045
1028,885; 2301,737;    3,621;   -0,227
1029,432; 2231,374;   -0,106;    0,227
1029,978; 2321,646;    1,348;   -1,591
1030,525; 2228,737;    1,621;    0,409
1031,071; 2390,101;    0,348;    1,136
1031,618; 2579,010;    1,258;    1,682
1032,164; 2341,737;    2,076;    3,045
1032,710; 2396,374;    0,076;   -1,500
1033,256; 2307,192;    0,712;   -0,136
1033,803; 2247,283;   -0,288;    1,500
1034,349; 2017,828;    1,803;    0,136
1034,895; 2153,465;    2,621;   -0,318
1035,441; 2154,465;    0,439;    0,318
1035,987; 2170,737;   -2,288;   -0,682
1036,533; 2213,374;   -0,197;   -0,955
1037,078; 2423,192;    4,712;    1,682
1037,624; 2247,010;    2,439;   -0,955
1038,170; 2223,374;    1,712;   -0,318
1038,716; 2166,465;    2,167;   -0,409
1039,261; 2074,646;    2,167;   -0,773
1039,807; 2033,374;   -0,015;    3,409
1040,352; 2113,919;   -1,288;   -0,318
1040,898; 2137,465;    0,167;   -0,682
1041,443; 2031,919;    0,803;   -2,591
1041,989; 2171,010;    3,621;    1,591
1042,534; 2005,646;    0,985;    2,591
1043,079; 2040,283;    1,985;    0,955
1043,625; 1921,283;    0,258;    0,500
1044,170; 1983,465;    2,439;    1,045
1044,715; 2240,010;    0,167;    0,955
1045,260; 2066,465;   -0,833;   -0,955
1045,805; 2062,374;    0,258;   -0,591
1046,350; 1994,192;    0,530;   -0,409
1046,895; 2036,374;    0,803;    1,591
1047,440; 2012,919;    1,530;    0,409
1047,985; 1883,374;   -1,197;   -0,955
1048,530; 1798,101;    1,348;    1,227
1049,074; 1883,919;    2,803;    0,318
1049,619; 1831,283;   -0,924;    1,955
1050,164; 1688,374;    1,076;    0,227
1050,708; 1738,828;    2,621;    0,045
1051,253; 2133,828;    3,258;   -2,227
1051,797; 1833,465;   -0,197;   -1,318
1052,342; 1781,919;    1,348;    1,045
1052,886; 1820,465;    1,803;   -1,409
1053,430; 1685,283;    2,167;    0,136
1053,975; 1726,374;    0,894;   -0,318
1054,519; 1721,919;    1,803;    3,227
1055,063; 1783,010;    3,621;    1,318
1055,607; 1699,192;    1,348;    0,227
1056,151; 1704,919;    0,530;    1,682
1056,695; 1584,828;   -1,833;   -1,136
1057,239; 1663,737;   -1,197;   -0,682
1057,783; 1684,646;    2,258;   -1,500
1058,327; 1673,192;    3,076;    1,409
1058,871; 1897,283;    3,985;    1,318
1059,415; 1635,374;   -0,561;   -0,045
1059,958; 1929,010;    2,985;    2,591
1060,502; 1627,919;    1,348;   -0,773
1061,046; 1506,283;    1,712;   -0,955
1061,589; 1466,919;    2,803;   -1,136
1062,133; 1369,192;    0,985;    1,864
1062,676; 1349,010;    1,439;    0,864
1063,220; 1374,919;    0,985;    0,500
1063,763; 1407,101;    2,985;    1,136
1064,306; 1479,283;    0,985;    1,864
1064,849; 1379,374;    2,076;    0,591
1065,393; 1388,919;    2,894;   -1,500
1065,936; 1470,101;    2,530;   -0,409
1066,479; 1340,374;    2,621;    1,318
1067,022; 1373,646;    1,894;   -0,227
1067,565; 1287,737;   -1,197;   -1,318
1068,108; 1289,828;    1,258;   -0,591
1068,651; 1266,737;   -2,470;    1,409
1069,194; 1213,101;   -1,106;   -1,682
1069,736; 1241,465;    3,803;    0,955
1070,279; 1204,556;   -1,652;   -0,500
1070,822; 1285,919;    1,530;   -0,318
1071,364; 1406,919;    0,530;    1,318
1071,907; 1214,828;    0,348;    3,227
1072,450; 1089,192;    0,258;   -0,045
1072,992; 1114,101;   -0,561;    3,136
1073,535; 1257,919;    0,167;    2,136
1074,077; 1072,374;    2,985;    2,045
1074,619; 1048,010;    0,985;    0,591
1075,161; 1085,646;   -0,561;    1,500
1075,704; 1262,374;    0,258;    1,227
1076,246; 1049,465;    1,530;    0,682
1076,788;  961,283;   -1,015;    1,773
1077,330; 1027,646;   -2,106;    2,136
1077,872; 1016,919;   -1,924;    0,955
1078,414; 1272,556;    3,712;    0,773
1078,956; 1019,465;    0,167;   -0,227
1079,498; 1276,556;    0,439;    0,318
1080,040; 1005,465;    0,985;   -1,318
1080,581;  931,283;    0,621;   -0,318
1081,123;  854,737;   -0,106;   -0,773
1081,665;  894,192;    3,803;   -0,955
1082,206; 1194,101;    3,258;   -0,500
1082,748; 1055,556;    3,258;    2,045
1083,289;  921,192;    0,167;    1,318
1083,831;  866,828;    0,258;    0,227
1084,372;  912,374;    0,894;    0,591
1084,913;  922,465;    3,348;    0,864
1085,455;  853,465;    1,530;   -2,045
1085,996;  853,192;    0,530;    0,136
1086,537;  893,374;    0,985;    0,864
1087,078;  909,828;    0,439;   -2,136
1087,619;  963,374;   -1,652;    0,227
1088,160;  880,283;    1,439;    1,318
1088,701;  866,283;   -0,742;    0,682
1089,242;  816,283;   -0,561;   -2,227
1089,783;  904,283;   -0,561;    1,409
1090,324;  872,465;   -0,833;    0,682
1090,865;  761,919;   -1,924;   -0,409
1091,405;  725,101;   -0,561;    2,227
1091,946;  752,646;   -0,197;   -0,955
1092,487;  673,374;   -1,288;   -1,409
1093,027;  856,737;    1,803;   -1,500
1093,568;  720,101;    2,258;    1,227
1094,108;  814,828;    0,621;    1,773
1094,649;  755,556;   -0,470;    0,136
1095,189;  693,828;    1,167;   -0,682
1095,729;  660,374;    0,712;    0,955
1096,269;  652,919;    1,258;   -0,955
1096,810;  954,828;   -0,197;    0,500
1097,350;  805,101;   -0,561;   -0,773
1097,890;  710,101;    2,985;    1,227
1098,430;  962,192;    4,985;    2,864
1098,970;  836,828;    1,894;    1,682
1099,510;  694,646;   -0,833;   -2,318
1100,050;  623,737;    0,258;   -1,591
1100,589;  606,283;    0,076;   -0,318
1101,129;  729,010;    0,894;   -0,955
1101,669;  871,556;    2,803;    2,136
1102,209;  708,374;    1,530;    2,227
1102,748;  673,737;    3,439;    0,955
1103,288;  661,556;    0,712;   -1,227
1103,827;  681,646;    3,530;   -2,227
1104,367;  567,737;    1,712;   -2,409
1104,906;  540,828;   -1,015;   -1,136
1105,445;  620,556;    0,985;   -1,136
1105,985;  573,828;   -0,652;    1,500
1106,524;  606,010;    1,530;   -0,682
1107,063;  580,465;    1,167;    1,409
1107,602;  547,101;    1,894;   -1,500
1108,141;  486,737;    1,621;    1,500
1108,680;  591,283;    3,985;   -0,591
1109,219;  526,374;    0,167;   -0,500
1109,758;  518,283;    4,167;    0,682
1110,297;  513,283;   -1,106;   -0,682
1110,836;  462,283;    1,439;    0,955
1111,375;  612,374;    0,348;    0,409
1111,913;  632,374;    0,985;    0,773
1112,452;  554,646;    0,894;    0,136
1112,991;  451,556;    1,076;    1,955
1113,529;  422,101;    0,167;   -0,045
1114,068;  489,919;    0,439;    2,955
1114,606;  400,101;   -0,561;   -0,955
1115,144;  552,101;    1,530;    1,045
1115,683;  487,828;    1,985;    0,318
1116,221;  540,737;    2,076;   -0,864
1116,759;  452,010;    1,621;   -0,864
1117,297;  628,919;    1,621;    1,864
1117,836;  457,101;    1,985;   -1,227
1118,374;  464,374;    0,258;   -0,682
1118,912;  426,010;    0,439;    2,682
1119,450;  403,919;    0,985;    0,864
1119,988;  446,646;    3,348;    2,136
1120,525;  884,283;    7,258;    3,318
1121,063;  598,192;    0,530;    1,864
1121,601;  425,010;    1,076;   -1,227
1122,139;  386,646;    1,076;   -2,045
1122,676;  576,192;   -1,652;    2,773
1123,214;  509,646;    0,712;    4,409
1123,751;  333,919;    0,621;    2,227
1124,289;  449,192;    0,894;   -0,409
1124,826;  343,192;   -0,379;    0,227
1125,364;  274,101;    0,712;   -0,955
1125,901;  452,828;    6,258;    1,227
1126,438;  541,101;    3,530;    0,955
1126,975;  286,465;    2,985;   -0,773
1127,513;  353,192;    2,621;    2,136
1128,050;  276,374;   -0,561;   -0,682
1128,587;  370,646;    1,348;   -0,227
1129,124;  405,465;   -0,015;    1,318
1129,661;  288,737;   -1,924;    0,227
1130,198;  433,192;    2,439;    0,773
1130,734;  382,192;   -0,379;    1,409
1131,271;  256,465;   -1,197;    0,864
1131,808;  412,192;    1,621;    3,045
1132,345;  298,919;    4,530;    0,318
1132,881;  184,556;   -0,561;   -1,864
1133,418;  320,646;    0,348;   -1,136
1133,954;  263,010;    0,712;   -2,682
1134,491;  330,646;    1,712;   -0,773
1135,027;  239,283;    2,167;    0,864
1135,564;  313,737;    1,439;    2,955
1136,100;  297,283;   -0,742;    2,136
1136,636;  193,919;   -1,015;   -1,045
1137,172;  282,556;    0,894;   -1,045
1137,708;  227,737;   -1,561;   -1,045
1138,245;  214,828;    0,803;   -1,227
1138,781;  172,828;    1,803;   -3,318
1139,317;  243,101;    1,894;   -1,409
1139,852;  229,556;    3,076;    0,136
1140,388;  325,374;    2,076;   -0,409
1140,924;  234,010;    1,076;   -2,227
1141,460;  171,646;   -0,288;    0,136
1141,996;  119,556;   -0,652;    2,682
1142,531;  155,283;    1,076;    3,318
1143,067;  349,919;    1,167;    1,045
1143,602;  403,192;    3,439;   -0,318
1144,138;  265,010;    0,803;    1,045
1144,673;  147,556;    1,621;    1,409
1145,209;  205,283;    2,894;   -0,318
1145,744;  135,556;    0,803;    0,864
1146,279;  256,010;    1,530;   -0,136
1146,815;  182,556;    1,530;   -2,682
1147,350;  217,919;   -0,924;    0,045
1147,885;  143,192;   -1,924;   -1,318
1148,420;  144,646;    2,439;    0,773
1148,955;  131,556;   -1,470;    1,864
1149,490;  160,919;   -1,106;   -1,591
1150,025;  139,828;   -1,106;   -1,773
1150,560;  238,101;   -0,288;   -0,955
1151,094;  210,374;    0,258;   -0,591
1151,629;  205,919;   -3,742;    0,864
1152,164;  141,374;   -1,288;    1,318
1152,698;  109,101;    1,258;   -0,136
1153,233;   76,192;   -1,379;   -0,682
1153,767;  123,556;   -0,288;   -2,318
1154,302;  161,010;   -0,379;    1,773
1154,836;  160,737;    0,803;   -2,136
1155,371;  207,283;    2,258;    3,682
1155,905;  167,828;    1,985;    1,682
1156,439;  142,010;    0,530;   -0,500
1156,973;  166,556;    0,439;    0,318
1157,507;  106,101;   -1,742;    0,682
1158,042;  125,101;   -0,652;    1,045
1158,576;  177,374;   -0,561;    1,773
1159,110;  159,010;    0,076;    2,409
1159,643;  139,737;   -2,470;   -0,045
1160,177;   88,737;   -2,015;    1,500

