
Integration time [ms]:   0,040
Averaging Nr. [scans]: 11
Smoothing Nr. [pixels]: 0
Data measured with spectrometer [name]: 7318044SP
Wave   ;Sample   ;Dark     ;Reference
[nm]   ;[counts] ;[counts] ;[counts] 

186,757;   29,915;   38,161;    1,318
187,357;   50,142;   26,706;    0,955
187,958;   32,944;   17,252;   -1,591
188,558;   76,048;   12,979;   -1,227
189,159;   49,443;   10,070;   -4,500
189,759;   22,986;    5,797;   -3,591
190,360;   17,685;    6,797;   -2,136
190,960;   51,994;    5,706;   -4,136
191,560;   63,259;    2,614;   -6,591
192,161;  283,479;    5,885;   -3,500
192,761;  133,697;    5,520;   -3,227
193,361;   90,119;    3,065;   -3,773
193,962;  145,558;    1,612;   -2,682
194,562;   78,291;   -0,114;   -3,955
195,162;   99,531;   -0,567;   -2,227
195,762;  251,587;    2,433;   -0,045
196,362;  212,516;    1,706;   -2,500
196,963;   81,546;    1,706;   -0,864
197,563;  149,845;    1,252;   -0,955
198,163;   95,405;   -0,111;   -0,682
198,763;  113,422;   -0,020;   -0,500
199,363;  210,972;    3,616;   -0,500
199,963;  171,391;    2,162;    0,409
200,563;  149,686;    6,344;   -1,409
201,163;  137,919;    5,435;   -0,227
201,763;  226,387;    1,435;    0,318
202,363;  160,448;    0,980;    1,500
202,963;  258,794;    1,526;    1,045
203,563;  364,503;    0,344;    0,500
204,162;  210,601;    1,889;   -1,864
204,762;  203,243;    2,071;    0,591
205,362;  178,304;    0,708;    1,955
205,962;  278,576;    3,435;    1,955
206,562;  270,789;    1,889;    2,318
207,161;  233,170;    1,708;    0,318
207,761;  385,449;    4,435;    2,409
208,361;  264,104;    1,889;    1,409
208,960;  355,214;    2,889;    1,500
209,560;  416,907;    0,435;    1,591
210,160;  401,201;    5,071;    1,864
210,759;  369,617;    0,708;    1,227
211,359;  374,501;   -0,474;    1,045
211,958;  616,865;    3,526;    2,045
212,558;  695,719;    0,799;    1,864
213,157;  539,264;   -0,929;    1,500
213,757;  952,556;    5,617;   -0,227
214,356;  673,098;    1,708;   -0,409
214,956;  990,684;    3,526;    0,409
215,555;  619,997;    0,617;    2,136
216,154;  567,838;   -0,292;   -0,591
216,754;  566,426;    1,253;    0,773
217,353;  685,935;   -0,383;   -1,045
217,952;  540,259;    2,072;    0,318
218,552;  777,875;    0,254;   -0,773
219,151;  667,373;   -1,110;    0,955
219,750;  664,566;    0,890;   -0,227
220,349;  760,746;   -2,292;    1,045
220,948;  855,816;    1,163;    1,136
221,548;  847,274;    0,617;    1,227
222,147;  947,402;   -1,292;   -0,409
222,746; 1227,879;    1,254;   -0,955
223,345; 1083,319;   -1,019;    0,500
223,944; 1098,877;    1,163;    0,773
224,543; 1248,968;    4,072;   -1,409
225,142; 1365,421;    1,345;    0,136
225,741; 1262,979;    1,163;    1,045
226,340; 1276,352;    1,254;   -0,955
226,939; 1695,080;    2,708;   -0,136
227,538; 1604,884;    1,163;   -0,773
228,137; 1777,225;    0,435;    0,864
228,735; 1869,155;    0,435;    1,227
229,334; 1643,016;   -0,474;   -0,227
229,933; 2032,111;    0,799;    0,591
230,532; 2124,363;   -1,201;   -0,409
231,131; 2174,737;    1,253;    0,318
231,729; 2269,762;    1,163;   -2,318
232,328; 2350,892;    0,435;   -1,500
232,927; 2406,203;    4,526;   -0,500
233,525; 2487,525;    0,981;    0,045
234,124; 2689,431;    1,890;   -1,591
234,723; 2711,081;    1,617;   -1,045
235,321; 2830,358;    1,163;    0,136
235,920; 3030,831;    2,526;   -1,227
236,518; 3288,563;    1,072;    0,318
237,117; 3423,229;    2,890;   -0,227
237,715; 3585,517;    1,163;   -0,500
238,314; 3603,664;    1,708;   -2,318
238,912; 3724,869;    0,526;   -1,409
239,510; 3746,771;    1,162;   -1,227
240,109; 3913,485;   -0,474;    3,773
240,707; 3910,721;   -0,474;    1,227
241,305; 4228,779;   -0,383;    0,136
241,904; 4442,415;   -0,292;   -2,045
242,502; 4408,443;    3,253;   -0,227
243,100; 4346,013;    3,344;   -0,955
243,698; 4583,755;    2,799;    1,682
244,297; 4728,176;   -0,656;    0,682
244,895; 4581,127;   -0,474;   -2,318
245,493; 4870,621;    2,981;   -0,591
246,091; 4894,772;    5,163;   -1,318
246,689; 4864,975;    2,163;    0,591
247,287; 5027,337;   -0,019;   -1,136
247,885; 5282,462;   -1,019;    1,227
248,483; 5396,062;   -0,201;   -0,500
249,081; 5482,221;    0,981;    1,591
249,679; 5613,510;   -1,019;    1,682
250,277; 5849,063;   -2,292;    0,864
250,875; 5838,356;    0,617;   -1,045
251,473; 5844,413;   -0,019;    0,500
252,071; 6025,880;   -0,383;    1,045
252,669; 6180,877;   -1,565;    0,318
253,267; 6397,435;    1,618;    0,773
253,864; 6329,609;    0,617;    0,682
254,462; 6260,888;    1,526;    1,591
255,060; 6192,175;    0,072;    1,318
255,658; 6487,695;   -3,292;   -0,136
256,255; 6901,630;   -0,201;   -2,045
256,853; 6738,734;    2,345;    1,409
257,451; 6731,481;    1,981;    1,864
258,048; 7016,313;    2,072;    1,864
258,646; 6737,000;    0,436;   -1,045
259,243; 6938,916;    2,981;    2,227
259,841; 6983,469;    1,799;    0,318
260,438; 6889,417;    0,254;    0,864
261,036; 7555,360;    0,617;    1,409
261,633; 7450,653;    1,526;    2,227
262,231; 7207,054;   -0,110;   -0,045
262,828; 7282,326;   -0,383;    1,136
263,425; 7327,355;   -1,928;   -0,591
264,023; 7582,903;    1,436;    0,045
264,620; 7160,770;    1,526;   -0,318
265,217; 7459,492;    2,890;    3,136
265,815; 7580,081;    2,527;    2,136
266,412; 7367,996;    0,072;    0,136
267,009; 7407,684;    0,526;    0,773
267,606; 7363,000;    0,345;   -0,955
268,203; 7312,300;   -0,383;   -0,591
268,801; 7569,649;   -0,474;    0,591
269,398; 7852,149;   -0,564;    2,500
269,995; 7842,871;    0,890;    1,591
270,592; 7626,675;    0,799;   -0,500
271,189; 7775,809;    1,981;    0,409
271,786; 7890,903;    2,072;    1,227
272,383; 7767,046;   -0,383;    0,227
272,980; 7940,982;    1,617;    0,318
273,577; 8340,109;    2,162;    1,227
274,174; 7902,867;    1,435;    2,591
274,771; 7893,422;    1,890;   -0,773
275,367; 8064,585;    3,253;    1,409
275,964; 8050,016;   -0,565;   -0,500
276,561; 8148,814;   -2,474;   -1,045
277,158; 8324,237;    1,799;   -1,773
277,755; 8420,312;   -0,110;    0,409
278,351; 7900,840;    0,436;   -1,500
278,948; 8149,491;   -0,201;    0,045
279,545; 8149,494;    0,527;    2,318
280,141; 8760,020;    1,254;   -2,045
280,738; 8598,374;    2,435;   -0,136
281,334; 8790,786;   -0,383;    0,591
281,931; 8192,523;    2,890;   -1,318
282,528; 8319,106;    4,072;   -0,500
283,124; 8981,070;    3,345;   -0,500
283,721; 8863,062;    0,709;    1,409
284,317; 8726,912;    0,163;    2,500
284,913; 9261,633;   -0,110;    0,591
285,510; 9426,451;    2,890;   -0,318
286,106; 9443,701;    2,345;   -0,955
286,703; 9062,531;    0,072;    1,955
287,299; 9255,378;    1,254;   -0,591
287,895; 9441,066;    0,890;   -1,045
288,491; 9962,422;    0,163;    2,136
289,088; 9693,846;    0,163;    2,409
289,684; 9750,695;    2,890;    1,500
290,280; 9744,810;    1,890;    0,682
290,876; 9824,040;    0,163;    5,500
291,472; 9730,533;    2,163;    2,227
292,068; 9843,386;    1,254;    0,227
292,665; 9551,833;   -0,564;    0,773
293,261; 9221,130;   -1,292;    2,136
293,857; 9568,397;    4,072;    2,136
294,453; 9498,314;   -0,928;    0,955
295,049; 9398,880;    0,253;    1,955
295,644; 9438,359;   -1,292;    0,136
296,240; 9326,966;    0,162;   -0,136
296,836; 9413,156;   -0,747;    0,318
297,432; 9630,194;    2,980;   -0,500
298,028; 9675,149;    0,435;    0,773
298,624;10052,456;    0,889;    1,864
299,220;10250,168;    0,435;    0,591
299,815; 9913,780;    0,526;   -0,409
300,411; 9733,062;    0,435;    1,773
301,007; 9755,031;    1,889;    0,227
301,602; 9784,908;    2,071;   -2,318
302,198; 9921,332;    1,435;   -0,773
302,794;10244,480;    1,526;   -0,500
303,389;10359,053;    1,071;    1,045
303,985;10431,331;    1,253;    1,409
304,580;10378,228;    0,889;    1,591
305,176;10371,766;    0,344;    0,136
305,771;10307,782;   -0,929;   -1,227
306,367;10189,066;    3,071;    0,136
306,962;10490,727;    2,889;    1,500
307,558;10190,226;    2,435;    0,136
308,153;10149,563;   -0,383;   -1,136
308,748;10391,939;    0,162;    1,682
309,344;10364,271;    0,253;   -1,318
309,939;10456,393;    2,071;   -1,318
310,534;10698,786;   -2,020;   -1,682
311,130;10639,237;   -0,656;   -2,500
311,725;10385,978;    0,526;   -0,500
312,320;10682,570;    1,253;    0,045
312,915;10560,947;    2,890;   -1,045
313,510;10618,617;    0,526;   -0,500
314,105;11099,037;   -3,565;    1,409
314,700;10524,960;   -1,656;   -1,045
315,295;10200,501;   -0,020;    0,045
315,890; 9810,496;   -0,292;    0,864
316,485;10123,936;    0,253;   -0,318
317,080;10200,776;   -0,929;    1,591
317,675;10710,368;    3,071;   -0,682
318,270;10181,045;    6,889;    3,318
318,865;10170,975;    2,435;    3,045
319,460;10033,885;   -1,565;    0,591
320,055;10244,868;   -2,565;   -1,227
320,650; 9894,404;   -1,838;   -0,591
321,244; 9977,308;    0,889;   -1,409
321,839;10853,715;    0,980;   -0,227
322,434;10736,480;   -0,111;   -1,591
323,029;10399,327;   -0,474;    1,591
323,623;10250,666;    0,798;    0,773
324,218;10064,110;    2,707;    1,409
324,812;10012,641;    0,889;    1,591
325,407; 9837,158;   -0,929;    2,045
326,002; 9746,729;    0,526;   -0,409
326,596;10032,114;   -0,656;    1,318
327,191;10232,652;   -0,383;   -1,045
327,785; 9835,932;   -0,747;   -0,227
328,379;10056,494;   -0,383;    0,136
328,974; 9876,335;    1,798;   -3,955
329,568;10088,552;    2,889;   -2,409
330,163; 9933,308;    2,435;    1,045
330,757;10253,577;    0,253;    1,591
331,351; 9622,468;   -0,292;    0,682
331,945; 9934,683;   -0,383;    1,409
332,540; 9520,356;    1,617;   -0,591
333,134; 9670,148;    3,344;    0,773
333,728; 9893,423;    2,799;    0,318
334,322;10209,832;    0,889;   -0,864
334,916; 9543,893;    0,344;    0,955
335,510; 9846,533;   -0,111;   -0,136
336,105;10057,016;   -0,929;    1,591
336,699; 9760,565;   -1,292;    0,591
337,293; 9700,003;    1,071;    0,318
337,887; 9850,321;    0,071;    1,955
338,481; 9962,491;    2,980;    0,591
339,074;10056,278;    2,071;    2,682
339,668; 9919,178;   -0,110;    1,227
340,262;10178,332;    7,708;    3,227
340,856; 9669,751;    1,708;   -0,682
341,450; 9065,811;    0,708;    1,864
342,044; 9912,639;    1,799;    0,136
342,637; 9677,667;    1,162;   -2,136
343,231; 9507,982;   -1,474;    0,682
343,825; 9474,223;   -0,747;   -0,591
344,419; 9458,920;   -0,474;    0,500
345,012; 9298,042;    2,889;    4,045
345,606; 9279,690;   -0,656;    1,591
346,199; 9140,623;   -0,111;   -0,227
346,793; 8737,705;    2,525;    2,045
347,386; 8917,820;    0,889;   -1,136
347,980; 8892,799;   -0,838;   -0,045
348,573; 8704,748;   -1,748;    0,409
349,167; 8424,194;    6,161;    4,773
349,760; 8751,539;    2,252;    2,682
350,354; 8736,732;    1,616;    1,136
350,947; 8511,586;    2,798;    1,682
351,540; 8230,197;    0,616;   -1,409
352,134; 8183,198;   -1,111;    1,136
352,727; 8263,540;   -0,657;    1,136
353,320; 8093,208;    2,343;    0,591
353,913; 7934,559;   -1,929;    1,864
354,507; 8092,091;    0,434;   -1,227
355,100; 8106,217;    0,071;    0,864
355,693; 7446,449;    4,798;    2,409
356,286; 7492,220;    0,980;    2,773
356,879; 7800,679;   -0,475;    1,227
357,472; 7456,093;    0,980;    1,500
358,065; 7637,770;    3,161;    2,500
358,658; 7552,881;    0,798;    2,318
359,251; 7262,930;    0,252;   -0,591
359,844; 6814,651;    0,343;   -1,136
360,437; 6992,970;    0,252;    0,045
361,030; 7201,634;    0,525;   -0,682
361,623; 6829,407;    0,434;    0,318
362,215; 6884,856;    0,979;    2,045
362,808; 6725,548;   -2,293;   -1,682
363,401; 6915,915;    0,798;    0,136
363,994; 6725,081;    3,252;   -1,500
364,586; 6651,441;    0,888;   -1,500
365,179; 6835,025;   -0,203;   -1,136
365,772; 6366,845;   -0,930;    2,045
366,364; 6601,838;    1,524;   -3,227
366,957; 6815,078;    1,342;   -0,045
367,549; 6792,444;   -0,203;   -0,864
368,142; 6494,879;    0,978;   -1,500
368,734; 6689,316;    2,523;   -2,136
369,327; 6657,352;    2,341;   -0,500
369,919; 6582,113;   -1,659;    0,409
370,512; 6433,964;   -1,023;   -0,500
371,104; 6196,930;    2,704;    1,591
371,696; 6330,915;    1,703;   -0,955
372,289; 6420,489;    0,157;    1,136
372,881; 6555,113;    1,156;    1,318
373,473; 6427,159;    4,064;    1,136
374,066; 6268,544;    1,336;    0,500
374,658; 6144,154;    0,879;    1,136
375,250; 6481,170;   -1,668;   -1,409
375,842; 6330,067;   -0,124;   -0,045
376,434; 6194,485;   -2,762;   -0,409
377,026; 6749,076;   -1,855;   -2,500
377,618; 6626,459;    0,779;   -0,682
378,210; 6456,778;    3,141;   -1,955
378,802; 6325,370;    3,412;   -0,591
379,394; 6322,874;    3,411;    0,682
379,986; 6830,456;    1,138;   -0,955
380,578; 6944,112;    1,410;    0,773
381,170; 6334,915;    0,320;    0,045
381,762; 6307,930;   -0,224;    1,409
382,354; 6459,196;   -0,223;   -1,318
382,945; 6530,694;    0,870;    0,318
383,537; 6692,477;    1,144;   -1,955
384,129; 6691,162;    0,963;   -1,136
384,721; 6843,123;    0,418;    0,955
385,312; 6785,599;   -1,399;   -0,955
385,904; 6883,752;   -0,945;    1,591
386,496; 6302,376;    0,691;    1,045
387,087; 6433,294;    0,418;    2,500
387,679; 6460,449;   -0,401;    0,045
388,270; 6613,842;   -2,401;    2,045
388,862; 6678,710;   -0,401;   -0,318
389,453; 6572,102;    1,054;    1,045
390,045; 6809,352;    3,236;   -2,682
390,636; 6752,623;    0,144;   -0,591
391,227; 6603,454;    2,054;   -0,045
391,819; 6692,915;    0,781;    0,773
392,410; 6777,296;    0,600;    0,045
393,001; 6733,464;    1,600;   -1,591
393,593; 6972,263;    0,600;   -0,045
394,184; 6841,422;    0,873;   -0,409
394,775; 6735,151;    1,146;    2,136
395,366; 6932,157;    1,782;    0,773
395,957; 6907,187;   -2,400;    0,136
396,548; 7199,549;    1,054;    2,682
397,139; 7477,936;    2,236;    0,591
397,730; 7222,267;    0,873;    0,955
398,321; 7280,763;    0,509;    0,955
398,912; 7260,527;   -0,764;    0,136
399,503; 7352,774;   -1,945;   -1,409
400,094; 6870,734;   -1,582;    1,682
400,685; 6732,324;    3,600;    0,045
401,276; 6822,493;   -0,400;   -0,955
401,867; 7121,457;   -1,127;    0,773
402,458; 7193,330;    1,509;   -2,318
403,048; 7147,128;    0,146;    0,591
403,639; 6776,416;    1,509;    0,864
404,230; 7042,746;    0,691;    0,318
404,821; 6982,774;   -0,127;    0,045
405,411; 7085,783;   -0,763;   -2,591
406,002; 6715,746;    3,237;   -1,136
406,592; 6606,129;    2,691;    0,045
407,183; 6844,368;    0,328;   -1,500
407,774; 6761,163;    1,419;   -0,136
408,364; 7073,784;    2,600;    0,409
408,954; 6722,075;   -0,036;    1,227
409,545; 6777,501;    1,873;    1,045
410,135; 6316,095;   -1,581;    0,500
410,726; 6461,158;    0,783;    0,318
411,316; 6811,164;    2,237;    0,773
411,906; 6521,907;    0,146;   -0,409
412,497; 6090,526;   -0,490;   -0,045
413,087; 6632,258;    0,783;   -0,227
413,677; 6962,272;   -2,490;    3,864
414,267; 6820,333;   -1,035;    1,409
414,857; 6820,480;    0,419;    4,227
415,448; 7083,358;   -0,763;    0,500
416,038; 6828,458;   -2,945;   -0,591
416,628; 6776,790;    0,965;    0,409
417,218; 6339,654;   -1,762;    3,318
417,808; 6555,710;    0,965;   -0,409
418,398; 6928,530;   -1,035;    2,682
418,988; 6927,311;   -2,217;    0,591
419,578; 7158,577;    3,601;    1,409
420,168; 7479,137;    0,692;   -0,955
420,757; 7077,472;    0,964;   -1,500
421,347; 6767,030;    1,601;   -0,227
421,937; 6922,480;    3,329;    1,409
422,527; 6891,480;    2,602;   -0,773
423,116; 6739,120;    2,692;   -0,045
423,706; 7016,914;    2,965;    0,318
424,296; 6989,411;    1,601;    0,682
424,885; 7388,229;    1,510;   -3,045
425,475; 7632,641;    1,147;   -2,864
426,065; 7543,434;   -1,489;   -0,318
426,654; 7180,709;    0,329;   -0,318
427,244; 7302,853;    1,147;    1,409
427,833; 6824,091;    1,056;   -0,500
428,423; 7216,463;    0,147;    1,136
429,012; 7884,168;    2,420;   -1,136
429,601; 7454,261;    2,057;    0,136
430,191; 7652,103;    2,511;    4,318
430,780; 7318,670;   -1,671;   -0,409
431,369; 7261,149;    1,329;   -0,045
431,959; 7827,612;    1,693;    0,500
432,548; 7607,845;   -1,398;   -0,045
433,137; 7701,684;    0,329;   -1,318
433,726; 8202,782;    0,148;    0,500
434,315; 7659,115;    0,148;    2,409
434,905; 7732,389;    0,693;    1,409
435,494; 7659,105;    3,148;    0,955
436,083; 8081,109;    1,420;   -0,955
436,672; 7947,947;    1,148;    0,500
437,261; 7577,371;    0,512;   -1,955
437,850; 7687,557;   -1,125;    0,682
438,439; 7657,938;    2,239;    1,955
439,027; 7505,497;    3,421;    1,773
439,616; 7814,737;    2,239;    1,227
440,205; 7683,476;    0,057;   -2,136
440,794; 7738,632;   -0,306;   -0,045
441,383; 7937,265;    1,603;   -0,591
441,971; 7810,712;   -0,306;    0,591
442,560; 7674,322;    0,603;   -1,773
443,149; 7445,964;    3,060;   -1,318
443,737; 7582,839;    0,968;   -2,318
444,326; 7802,805;    0,331;    0,318
444,915; 7853,751;   -1,851;    0,864
445,503; 8168,891;    0,058;   -0,318
446,092; 7559,723;    7,876;    2,136
446,680; 8028,135;    1,876;    0,318
447,269; 8179,105;   -1,487;   -0,318
447,857; 7966,502;    2,240;   -1,773
448,445; 8095,379;    2,149;    1,318
449,034; 8303,346;    0,876;   -1,136
449,622; 8401,234;    1,240;    3,500
450,210; 7726,149;    3,149;    2,227
450,799; 8207,456;    2,604;   -0,591
451,387; 8152,766;    1,786;   -0,591
451,975; 7847,179;   -1,305;    0,864
452,563; 7958,261;    0,422;    2,318
453,151; 7974,652;   -1,032;   -1,227
453,739; 7880,948;   -1,577;    0,136
454,328; 7786,289;    0,604;   -2,136
454,916; 7518,158;    1,150;   -0,136
455,504; 7672,042;    3,513;    1,227
456,092; 7832,157;    2,150;   -1,591
456,679; 7800,707;    0,604;    0,682
457,267; 7784,832;    3,604;    1,045
457,855; 7890,284;    3,241;    1,409
458,443; 7649,415;   -0,304;    1,682
459,031; 7799,185;    1,332;    2,409
459,619; 8202,799;   -3,577;    2,864
460,206; 8279,269;   -0,759;    2,045
460,794; 8336,998;   -0,668;   -0,227
461,382; 8568,937;    0,878;   -0,864
461,970; 8206,799;    0,605;    1,864
462,557; 8246,501;    0,878;   -0,682
463,145; 8387,981;   -0,304;   -1,682
463,732; 8486,672;    2,514;   -1,045
464,320; 8429,282;    1,514;   -3,045
464,907; 8147,812;    0,423;   -0,773
465,495; 8014,507;    2,696;   -1,227
466,082; 8175,641;    2,060;   -0,045
466,670; 8050,103;    2,605;    1,227
467,257; 8444,165;    0,060;    2,045
467,844; 8607,272;    1,514;    0,045
468,432; 8640,393;   -0,031;    3,500
469,019; 8159,327;    1,606;   -1,773
469,606; 8599,003;    0,969;    3,682
470,193; 8458,860;    2,151;    0,227
470,780; 8073,901;    0,333;    0,864
471,368; 8378,273;   -1,212;   -0,773
471,955; 8187,462;    1,060;   -0,682
472,542; 7864,939;   -0,303;   -1,136
473,129; 8082,131;   -0,485;    0,136
473,716; 7829,255;    0,060;    0,591
474,303; 8031,122;    1,333;   -0,864
474,890; 8250,612;    2,333;   -0,500
475,477; 8302,497;   -0,576;    0,409
476,064; 8206,706;    0,697;   -1,591
476,650; 8099,707;    2,152;    0,318
477,237; 7940,525;    1,879;    0,955
477,824; 8077,058;    3,879;    0,864
478,411; 8108,415;    0,606;   -0,318
478,997; 8280,023;    0,606;   -0,773
479,584; 8335,278;   -0,666;   -0,409
480,171; 8979,985;    1,243;   -0,773
480,757; 8656,713;   -0,848;    0,773
481,344; 8917,828;    0,334;    0,409
481,931; 8427,466;   -0,393;    1,045
482,517; 9290,999;    0,425;    0,318
483,104; 9744,073;    1,334;    2,864
483,690; 9986,737;    0,243;    0,045
484,276;10285,571;    0,698;    0,227
484,863;10049,935;    2,152;    1,136
485,449;10558,010;    0,152;    0,318
486,035;10561,859;   -0,666;   -0,136
486,622;10962,846;   -2,393;    0,045
487,208;10899,801;    1,334;    1,500
487,794;10759,516;    0,971;    0,318
488,380;10857,166;    0,698;   -1,409
488,967;10929,709;   -1,120;   -0,409
489,553;11001,069;   -1,029;   -1,409
490,139;11190,640;    0,971;    0,773
490,725;10683,626;    0,789;   -0,227
491,311;10317,980;    1,516;    3,045
491,897; 9726,917;   -0,665;    1,500
492,483; 9607,045;    0,426;    1,227
493,069; 9464,810;    5,426;    0,864
493,655; 9398,252;    1,789;    0,682
494,241; 9306,425;    1,517;   -0,955
494,826; 9666,636;    0,335;   -1,045
495,412; 9150,204;    0,335;   -0,682
495,998; 9326,314;    0,971;   -0,318
496,584; 9400,520;    2,244;    1,045
497,169; 9410,356;    2,335;   -0,682
497,755; 9356,394;    1,244;    1,227
498,341; 9878,195;    2,153;    0,318
498,926; 9459,199;    2,881;    1,955
499,512; 9626,744;   -0,028;    2,955
500,097; 9683,641;   -0,574;   -0,318
500,683; 9663,529;   -0,028;    2,136
501,268; 9998,783;    1,881;   -0,955
501,854; 9750,780;   -0,119;    1,227
502,439; 9657,919;   -0,573;   -1,773
503,024; 9825,771;    1,608;    0,500
503,610; 9893,221;    1,335;   -0,682
504,195; 9887,922;    1,245;    1,955
504,780;10033,699;    2,335;    1,227
505,366; 9895,371;    4,063;    2,864
505,951; 9607,098;   -1,119;    1,045
506,536; 9620,792;    1,427;   -3,682
507,121; 9597,795;    1,699;   -0,318
507,706;10071,096;   -0,392;    1,045
508,291;10422,804;   -2,937;    1,136
508,876; 9907,944;   -0,482;    2,591
509,461; 9435,476;    1,427;   -0,773
510,046; 9817,765;   -0,391;    0,318
510,631;10022,123;   -0,119;   -0,773
511,216; 9699,805;   -0,664;   -0,500
511,801;10034,161;   -0,755;    2,591
512,386;10310,022;    0,972;    0,500
512,971;10251,252;    0,427;    0,955
513,555; 9881,537;    1,154;   -1,500
514,140;10577,959;    1,336;   -3,136
514,725;10553,263;    1,791;   -1,136
515,309;10664,389;    1,064;    0,318
515,894;10169,205;   -0,300;   -2,227
516,479;10580,449;    1,973;   -0,955
517,063;10398,002;    0,882;    1,227
517,648;10528,281;    0,155;   -1,136
518,232;10134,547;   -1,300;   -1,409
518,817;10493,209;    1,337;    1,682
519,401;10713,040;    0,700;    0,591
519,985;10205,117;    2,700;    1,136
520,570;10097,125;   -0,118;   -1,955
521,154;10369,626;    0,064;    0,591
521,738;10531,856;    1,064;    2,409
522,323;11079,116;   -0,390;    1,682
522,907;10770,168;    2,428;   -0,136
523,491;10528,378;    1,155;    0,955
524,075;10566,403;    0,428;    0,591
524,659;10625,602;    0,973;    0,591
525,243;10126,905;    0,883;    0,409
525,827;10320,632;    0,883;   -0,045
526,411;11065,602;    1,155;   -0,136
526,995;11246,096;    0,337;    1,409
527,579;10869,500;    1,974;   -1,045
528,163;11166,733;    0,428;   -1,500
528,747;11082,656;    1,065;   -0,773
529,331;11407,693;    0,883;   -1,409
529,915;11531,805;    2,338;    0,955
530,499;11461,963;    0,247;    1,227
531,082;11188,360;    1,065;    1,591
531,666;10686,937;    0,520;    0,773
532,250;11283,227;    0,428;    2,682
532,833;11584,200;    0,610;    2,773
533,417;11470,363;    1,247;    0,864
534,001;11423,896;    0,429;   -0,318
534,584;12030,842;    1,974;    0,500
535,168;11898,793;    3,247;    1,409
535,751;11908,121;    4,520;    0,045
536,334;11389,022;    4,520;   -0,409
536,918;11968,018;    1,974;    1,591
537,501;12012,451;    1,520;    1,318
538,085;11992,304;    1,702;    1,045
538,668;12134,329;    0,883;    2,409
539,251;12427,446;    3,156;    3,773
539,834;12428,075;    0,156;    0,773
540,418;12344,510;    3,247;    4,318
541,001;12406,473;    2,702;    1,773
541,584;12388,371;    1,429;    2,227
542,167;12112,904;    0,702;    2,955
542,750;12204,829;    0,793;   -0,773
543,333;11834,112;    1,429;    2,136
543,916;12555,689;   -0,298;    2,500
544,499;13041,546;    2,520;    0,227
545,082;13063,096;    0,248;    3,591
545,665;13187,288;   -0,207;    1,500
546,248;13474,021;    0,520;   -0,318
546,830;13164,830;   -1,752;    1,955
547,413;13522,778;    0,157;   -0,773
547,996;13985,572;    0,157;    0,500
548,579;13734,646;   -0,843;    0,955
549,161;13563,105;    0,884;    2,682
549,744;13366,816;    0,612;    0,409
550,326;13809,410;    0,885;   -1,136
550,909;13594,729;    2,339;    0,591
551,492;14008,900;    0,521;    0,227
552,074;13793,220;   -0,024;   -1,318
552,657;14294,812;    2,430;    0,045
553,239;14066,253;   -3,024;   -0,773
553,821;14010,400;   -1,570;    1,045
554,404;13526,265;   -0,024;    1,136
554,986;13842,467;    2,248;    1,045
555,568;14384,816;    0,430;   -0,955
556,151;13662,569;    4,067;   -0,227
556,733;13846,390;   -1,388;   -0,864
557,315;14274,718;    4,703;    0,500
557,897;14050,688;    0,521;   -0,500
558,479;14163,487;    1,703;    1,318
559,061;14267,584;    1,067;   -0,864
559,643;14514,309;   -0,297;    0,045
560,225;14846,276;   -0,388;    2,864
560,807;14880,218;    0,340;    0,318
561,389;14454,069;   -1,206;    2,318
561,971;15038,634;   -0,660;    2,136
562,553;14927,131;    0,613;    1,591
563,135;15044,036;    1,249;    1,136
563,717;14656,852;    3,158;    1,136
564,298;15258,574;    3,976;   -0,045
564,880;15002,920;    0,340;   -1,409
565,462;15123,102;    1,977;    1,318
566,043;16149,909;   -0,933;    2,318
566,625;15700,385;    4,067;    1,227
567,207;15488,916;    0,704;    1,682
567,788;16424,901;   -0,114;    1,500
568,370;17157,898;   -1,841;   -0,500
568,951;16901,640;   -0,569;    0,227
569,533;17656,331;    0,977;   -0,500
570,114;18049,834;   -0,296;    0,682
570,695;18397,560;   -0,478;   -1,318
571,277;18754,217;   -0,205;   -1,682
571,858;19364,450;    2,704;   -1,136
572,439;20093,155;    0,795;   -1,045
573,021;20194,155;    0,432;   -2,773
573,602;20602,065;    1,795;    0,318
574,183;21384,495;   -0,114;    2,227
574,764;21448,990;    2,068;    0,409
575,345;21851,213;    0,250;   -0,136
575,926;22401,375;    2,704;    0,136
576,507;22353,631;    2,704;   -0,227
577,088;23328,153;    1,704;    1,682
577,669;23299,822;    1,704;    1,955
578,250;23928,586;   -0,750;   -1,045
578,831;24382,303;   -0,841;   -2,227
579,412;24553,029;   -1,205;    0,955
579,993;25383,852;    1,432;    0,227
580,573;25697,945;   -0,023;   -0,955
581,154;24687,460;    1,613;   -0,591
581,735;25520,274;    0,341;    0,773
582,315;25018,274;    0,523;    2,136
582,896;25320,626;   -1,750;    1,227
583,477;24835,758;    0,614;    1,227
584,057;25038,101;    1,159;    0,955
584,638;25301,034;   -2,750;    2,318
585,218;25315,325;    2,886;    2,682
585,799;25461,426;    1,977;   -0,227
586,379;25428,062;    1,250;    1,591
586,959;24350,542;    2,613;    0,318
587,540;23820,023;    0,432;    2,227
588,120;23454,913;   -1,113;   -0,045
588,700;22625,056;    2,977;    2,136
589,281;22887,717;    1,250;   -0,955
589,861;22784,068;   -0,296;   -1,682
590,441;22628,402;   -1,477;   -2,682
591,021;21781,600;    1,432;   -2,591
591,601;22033,324;    0,431;    0,500
592,181;22094,431;   -1,296;   -0,773
592,761;21408,909;    2,250;    1,409
593,341;21397,722;    1,522;    0,045
593,921;21380,494;   -0,569;    1,591
594,501;21296,474;    1,250;    1,318
595,081;21136,286;    0,522;   -0,318
595,661;21462,395;    1,068;    0,955
596,240;21977,711;   -1,023;    0,136
596,820;21549,133;    2,613;    1,955
597,400;21670,845;    1,977;    0,773
597,980;21825,357;   -0,750;    1,045
598,559;21917,181;    0,341;   -0,227
599,139;21693,510;   -0,750;   -1,227
599,718;21549,237;    0,795;   -0,409
600,298;21801,295;   -2,387;    0,682
600,877;22049,748;    4,795;    1,409
601,457;22281,625;    0,340;    1,136
602,036;22191,163;    1,795;    2,045
602,616;22323,378;    2,250;    1,682
603,195;22588,465;    0,431;    3,500
603,774;22185,588;   -0,296;    2,045
604,354;22064,341;    2,522;   -0,500
604,933;21623,569;    0,250;    1,864
605,512;21734,982;    2,340;    0,591
606,091;21816,316;    1,886;    3,773
606,671;22557,581;    0,249;    0,773
607,250;21745,448;    1,431;    3,136
607,829;21970,204;    1,158;    3,227
608,408;21855,244;    4,613;    2,591
608,987;20961,804;    2,704;    3,409
609,566;21201,647;    0,341;   -2,500
610,145;21339,515;    2,885;    0,682
610,723;21799,182;    1,613;    6,864
611,302;21042,266;    1,067;    1,682
611,881;20571,553;    5,158;   11,227
612,460;21346,193;    0,795;    3,955
613,039;21742,910;    1,703;    2,045
613,617;20585,962;    0,886;    4,773
614,196;20747,580;    1,613;    1,227
614,775;21080,020;    1,249;    2,409
615,353;20996,864;   -1,660;    0,864
615,932;20791,323;    0,249;    2,409
616,510;21326,950;    0,158;    0,591
617,089;20882,691;    8,794;   17,591
617,667;20698,484;    4,885;    6,136
618,246;20569,123;   -1,115;    1,318
618,824;20715,834;    1,612;   -0,955
619,402;20264,358;    0,431;   -1,773
619,981;20705,722;    1,067;   -1,045
620,559;20597,070;    0,794;    1,682
621,137;20218,193;    3,067;    1,864
621,715;20180,314;    3,703;   -0,682
622,293;20117,100;    1,885;   -0,773
622,871;20545,081;    0,340;    0,500
623,450;20235,565;    0,430;   -0,864
624,028;20091,205;   -0,388;   -0,955
624,606;19731,551;    2,339;    1,682
625,183;20073,912;   -0,661;   -1,136
625,761;19787,388;    1,885;    1,136
626,339;20083,968;    2,339;    2,591
626,917;20430,920;    0,339;   -0,045
627,495;20477,790;    2,794;    1,318
628,073;19957,310;    5,248;    2,864
628,650;19648,600;    3,067;    2,136
629,228;20029,945;    1,248;    4,409
629,806;19486,649;   -0,024;    1,136
630,383;19739,529;    0,066;   -0,318
630,961;19574,491;   -2,206;   -0,955
631,539;19353,366;   -2,479;    0,227
632,116;18768,400;   12,703;   15,409
632,694;19308,850;    4,885;    6,500
633,271;19495,364;    1,975;    2,682
633,848;19460,434;    1,430;    2,045
634,426;19499,097;    1,521;    1,773
635,003;18731,557;   -0,207;   -0,409
635,580;19014,369;    1,884;    3,682
636,158;19443,393;    3,793;    1,227
636,735;19453,570;    3,339;   -0,500
637,312;19555,942;    0,521;   -0,682
637,889;19666,633;    2,248;   -0,682
638,466;19194,677;    0,066;   -0,409
639,043;19180,037;    1,702;   -1,136
639,620;19468,489;    0,611;   -0,955
640,197;19738,815;    1,612;    1,682
640,774;19869,899;    1,430;    1,136
641,351;20220,074;    0,612;    1,136
641,928;19709,521;    2,794;    1,409
642,505;19382,968;    0,794;   -0,500
643,082;19520,870;    1,885;    1,227
643,658;18641,135;    1,157;    1,500
644,235;19282,037;   -2,479;    2,500
644,812;19502,121;    1,794;    0,773
645,388;19271,932;    1,612;    1,409
645,965;19362,470;    1,521;    1,682
646,542;19452,826;    3,430;   -0,227
647,118;19415,819;    3,703;   -0,955
647,695;19665,903;    0,339;    1,136
648,271;19610,805;   -2,115;    0,500
648,848;19825,252;    0,248;    2,227
649,424;19719,699;    0,976;    1,318
650,000;19479,419;   -0,388;   -1,045
650,577;19322,139;    0,158;   -0,955
651,153;19702,314;   -1,115;    0,955
651,729;20521,306;    0,521;    0,864
652,305;20626,390;    1,339;    2,773
652,881;24040,746;   -1,297;    1,136
653,458;29378,375;    0,249;    0,227
654,034;32356,095;    0,703;    1,591
654,610;33513,815;    0,339;    0,773
655,186;34776,808;    1,612;    3,045
655,762;34457,346;   -1,842;    0,409
656,338;34440,794;    0,703;    0,136
656,913;35373,332;   -0,297;    0,409
657,489;34779,143;    0,249;   -0,318
658,065;34724,590;    0,794;   -1,591
658,641;35317,401;    2,158;   -0,864
659,217;34743,576;    2,067;    0,409
659,792;34179,386;   -1,751;   -0,409
660,368;34499,652;   -0,388;   -0,682
660,944;34456,463;    1,794;    1,227
661,519;30846,456;    0,522;    0,409
662,095;26010,903;   -0,206;    0,591
662,670;22233,077;   -0,206;   -0,136
663,246;21322,797;   -0,660;   -0,409
663,821;20683,790;    0,431;    1,682
664,396;20219,692;    0,613;    1,864
664,972;20471,412;   -0,660;   -0,500
665,547;20811,859;    3,794;    0,136
666,122;20781,943;    1,340;    0,318
666,698;21015,663;    2,431;    0,318
667,273;20378,747;    0,885;    0,136
667,848;21152,285;    0,340;    1,500
668,423;20914,096;    1,795;    2,318
668,998;21316,634;    0,976;   -0,682
669,573;21786,172;    2,067;   -1,500
670,148;21645,074;    1,885;   -0,682
670,723;21433,339;   -0,024;    0,318
671,298;21802,150;   -1,296;    1,045
671,873;21843,597;   -0,296;   -0,136
672,448;21823,317;    1,704;    0,136
673,023;22152,310;    0,249;   -0,227
673,597;22442,485;    2,704;    2,318
674,172;22203,659;    2,431;    0,318
674,747;21731,107;   -0,205;   -1,045
675,321;21513,099;   -0,933;    3,318
675,896;21162,456;    2,158;    1,045
676,471;22097,085;    2,522;    1,591
677,045;21848,987;   -0,296;    0,682
677,620;21889,434;    2,158;    1,136
678,194;22194,154;    0,249;    1,136
678,769;21834,783;    0,886;   -0,318
679,343;22050,685;   -0,023;    1,773
679,917;21904,223;    0,340;    1,955
680,492;21889,852;    0,249;    3,227
681,066;22038,936;    0,613;    0,409
681,640;22104,292;    1,795;   -0,318
682,214;22833,376;    2,340;    0,500
682,788;22380,641;    0,613;   -0,773
683,363;22285,634;    1,977;    1,682
683,937;22011,718;    0,886;   -0,318
684,511;22683,983;   -1,023;   -0,591
685,085;22461,612;   -1,478;    0,318
685,659;22237,423;    1,431;    0,864
686,232;22449,688;    1,159;   -0,318
686,806;22132,227;    2,159;    0,409
687,380;22706,947;   -1,932;    0,591
687,954;22923,758;    2,432;    1,136
688,528;22597,205;    2,613;    1,955
689,101;23342,834;    0,432;    1,045
689,675;22930,372;    0,886;   -0,136
690,249;22363,910;    3,432;    0,409
690,822;22692,085;    1,159;    0,318
691,396;22821,987;    2,068;    1,227
691,969;22340,343;    2,523;    0,136
692,543;22773,881;   -0,568;   -1,955
693,116;22417,783;   -0,659;   -1,409
693,690;22329,685;   -0,296;    0,500
694,263;22843,769;    2,341;    2,955
694,836;22789,398;    2,795;    3,591
695,410;21546,754;    1,159;    1,773
695,983;21956,292;    1,614;    0,591
696,556;22014,376;   -0,750;   -1,045
697,129;22347,732;   -1,114;    1,409
697,703;22001,725;    1,341;    1,955
698,276;22022,899;    1,705;   -0,773
698,849;21835,710;   -1,023;    1,409
699,422;22151,521;    1,250;    0,591
699,995;21965,241;   -0,659;    0,136
700,568;22357,689;   -0,204;    3,045
701,140;22380,136;   -1,841;    1,682
701,713;22132,492;    0,341;    2,409
702,286;21926,940;    0,796;    0,864
702,859;21825,205;    0,614;   -0,591
703,432;21109,016;   -0,841;    0,682
704,004;21496,554;    1,978;    0,318
704,577;21352,456;    1,068;    0,136
705,150;21906,358;    0,887;    2,500
705,722;21720,350;    1,523;   -3,227
706,295;21525,434;    1,432;   -0,591
706,867;21369,881;    0,250;    1,955
707,440;21555,147;   -0,113;   -0,409
708,012;21812,594;   -0,022;    0,591
708,584;21709,769;    2,705;    0,227
709,157;22011,307;    1,160;   -0,591
709,729;21694,481;    1,069;    2,045
710,301;22459,020;   -1,204;    0,045
710,874;22462,194;    0,341;   -0,227
711,446;21404,187;   -0,295;    0,864
712,018;21307,089;   -3,022;    0,500
712,590;21090,263;   -0,204;    1,682
713,162;21547,983;   -0,477;    1,318
713,734;21797,794;    1,796;   -2,045
714,306;21719,878;    0,342;   -0,409
714,878;20519,598;   -0,295;    0,864
715,450;21259,318;   -0,113;    0,864
716,022;21567,220;    2,433;    1,318
716,593;21721,485;    0,978;    0,591
717,165;21634,569;    1,796;   -1,227
717,737;21363,198;    0,796;    0,409
718,309;21097,009;    1,160;   -0,045
718,880;21049,729;   -1,295;   -1,409
719,452;21242,540;    0,887;   -1,591
720,024;20911,623;    1,705;   -0,591
720,595;21449,161;    2,978;    0,955
721,167;21022,336;    1,160;   -2,045
721,738;20572,056;    2,069;   -1,045
722,309;20586,958;    1,251;   -1,227
722,881;20377,860;    2,705;    0,773
723,452;20963,762;    1,251;    2,864
724,023;21200,300;    1,524;    2,682
724,595;20961,202;    2,342;    0,682
725,166;20701,103;    1,524;   -0,409
725,737;20367,551;    1,887;    0,227
726,308;20455,634;    0,797;    0,318
726,879;20834,809;    1,069;    1,227
727,450;20669,256;   -2,022;   -0,045
728,021;20597,794;    1,069;    0,682
728,592;20483,060;    1,160;    0,500
729,163;20828,871;    1,433;   -0,136
729,734;20806,772;    2,160;   -0,227
730,305;21080,129;    0,615;    0,136
730,876;21389,940;    0,888;    2,955
731,447;21151,023;    0,797;    2,682
732,017;21245,562;   -0,840;    1,864
732,588;20789,645;   -0,021;    1,227
733,159;20928,729;    3,615;   -1,045
733,729;20739,812;    1,251;    0,409
734,300;20137,987;    0,160;    0,864
734,870;20491,434;   -1,385;    0,591
735,441;21009,154;    0,888;   -0,591
736,011;20801,329;    1,070;   -1,591
736,582;20738,867;    1,251;    0,045
737,152;20199,405;    0,979;   -2,045
737,722;20682,216;    1,070;   -0,682
738,293;20422,754;   -2,021;    1,318
738,863;20316,474;    1,797;    2,318
739,433;20168,194;    4,524;    0,318
740,003;20742,551;    1,524;   -0,682
740,573;20179,271;    2,252;   -1,591
741,143;20181,445;    3,615;    0,318
741,713;20882,074;    0,252;   -0,500
742,283;20617,794;    1,706;    1,591
742,853;20441,969;    0,524;    1,591
743,423;19953,416;    0,161;    0,045
743,993;20046,136;    1,070;    1,500
744,563;19517,311;    2,524;   -0,864
745,133;19429,758;   -0,112;   -0,864
745,702;20040,569;    2,797;    1,773
746,272;19330,744;    0,434;    0,591
746,842;19150,009;   -0,748;   -0,591
747,411;19531,093;   -0,839;   -0,318
747,981;19663,176;   -0,930;    0,500
748,551;19744,351;   -0,021;   -1,045
749,120;19602,616;   -0,112;   -0,227
749,690;19919,336;    2,161;    2,409
750,259;20264,056;    0,979;    2,955
750,828;20153,594;    4,070;   -1,955
751,398;20381,314;   -0,112;   -0,045
751,967;19906,762;    2,888;    0,409
752,536;20135,664;    1,161;   -0,227
753,105;20493,293;   -1,384;    0,227
753,675;20282,104;   -0,112;    1,773
754,244;20235,914;    0,888;    3,591
754,813;20275,180;    0,979;    1,227
755,382;19861,173;    0,798;    0,955
755,951;20342,802;   -0,112;    3,682
756,520;19981,340;    2,525;    1,864
757,089;20416,060;    1,888;    0,500
757,658;20504,144;    2,434;    1,227
758,227;20561,136;   -1,111;    0,318
758,795;20824,584;   -1,021;    1,136
759,364;21075,576;    0,525;   -0,591
759,933;20205,933;    1,343;   -0,045
760,501;19733,925;    0,252;   -1,318
761,070;20174,191;   -0,293;   -1,409
761,639;20823,729;    1,434;    1,318
762,207;20200,904;    0,889;   -0,955
762,776;20133,805;    2,889;    0,864
763,344;20117,707;    0,071;    0,591
763,913;19212,700;    1,616;    1,409
764,481;19946,420;    1,980;   -0,136
765,049;19839,685;    0,616;    1,409
765,618;19706,587;    1,434;    0,318
766,186;19765,671;    2,434;    0,136
766,754;19961,755;    1,798;    1,864
767,322;19079,384;    1,162;    0,409
767,890;19042,104;    0,525;   -1,773
768,459;19436,824;    2,616;   -0,318
769,027;19592,089;    2,525;    3,409
769,595;18696,446;    2,616;    2,591
770,163;19080,529;    3,344;    2,955
770,730;18941,431;    2,525;   -0,136
771,298;18799,424;    1,162;   -1,409
771,866;18907,962;    0,253;    4,955
772,434;19181,318;    1,162;   -1,864
773,002;19296,220;    2,616;    0,682
773,569;19040,758;    1,071;    1,682
774,137;18837,933;    0,889;   -0,045
774,705;19574,016;   -0,747;   -0,136
775,272;19131,827;    0,253;    0,682
775,840;18950,366;   -0,111;    2,682
776,407;18505,176;   -0,293;    1,955
776,975;18129,351;    1,162;    0,318
777,542;19059,616;    2,162;   -0,045
778,110;18914,246;    0,707;   -0,045
778,677;18575,602;    1,071;   -0,864
779,244;18402,140;   -1,020;    1,045
779,812;18524,315;    0,980;    0,864
780,379;18402,944;    2,435;    1,136
780,946;18629,391;    2,617;   -0,773
781,513;18882,929;   -0,565;    0,318
782,080;18323,831;    1,253;    2,864
782,647;18956,824;    1,708;    3,045
783,214;18605,180;   -0,201;    3,864
783,781;18228,809;    1,708;   -0,682
784,348;18184,075;    0,253;    1,500
784,915;18589,522;   -1,474;    0,318
785,482;18339,969;    2,708;    2,591
786,049;18783,507;    1,071;   -0,591
786,615;18883,955;    1,708;   -0,955
787,182;18642,311;   -3,201;   -0,682
787,749;18380,395;   -2,201;    1,409
788,315;17795,842;    0,253;   -0,409
788,882;18053,744;    0,981;   -1,227
789,448;18650,737;    1,435;   -0,955
790,015;18681,093;    1,799;    3,227
790,581;18282,722;    0,708;    0,227
791,148;18216,442;    1,344;    1,045
791,714;18387,798;   -1,019;    3,136
792,280;18160,700;    3,708;    1,591
792,847;17814,966;   -0,928;    2,500
793,413;18255,322;   -0,110;   -0,318
793,979;17842,860;    1,526;   -1,318
794,545;17918,308;    2,981;    2,682
795,111;17440,028;    2,435;    1,318
795,678;17539,475;    3,526;   -1,682
796,244;17255,377;    2,799;    0,136
796,810;17748,460;    0,799;    0,773
797,375;17536,180;   -0,292;   -2,136
797,941;17524,628;   -1,110;    0,591
798,507;17605,438;    0,254;   -0,955
799,073;17256,249;    2,708;    0,591
799,639;17385,515;    1,435;    3,136
800,205;17397,871;   -1,565;    2,682
800,770;16947,682;    1,345;    1,773
801,336;16967,766;    2,981;   -0,955
801,901;16758,486;    6,072;    3,136
802,467;17266,388;    0,526;    2,045
803,033;16676,199;   -0,019;    0,864
803,598;16862,282;    1,072;   -1,045
804,163;16911,820;    0,708;   -0,318
804,729;16877,177;   -0,110;    1,136
805,294;17182,079;    1,072;    2,227
805,859;16994,435;    0,890;   -0,409
806,425;16598,428;    3,890;    2,682
806,990;16299,693;    1,890;    4,318
807,555;16688,686;   -0,110;    2,591
808,120;16653,951;   -1,292;   -0,409
808,685;16702,035;    1,072;   -2,500
809,250;16261,482;    2,072;   -0,500
809,815;16518,293;   -0,201;    0,682
810,380;16981,649;    0,981;    1,591
810,945;17417,097;    2,890;    2,045
811,510;16730,089;   -0,200;    1,591
812,075;16470,991;    2,800;   -1,409
812,640;16501,893;    3,709;    1,409
813,204;16585,522;    2,163;   -0,227
813,769;17053,242;    0,254;   -0,045
814,334;16557,871;    0,527;    0,864
814,898;16582,046;    1,981;    0,591
815,463;16384,493;    0,981;   -0,773
816,027;16376,304;    1,345;   -2,318
816,592;16514,570;    2,163;   -2,045
817,156;16100,926;   -2,200;    1,136
817,721;15960,646;    0,982;    2,318
818,285;15944,639;    0,618;    1,500
818,849;16487,995;   -0,018;    1,682
819,414;16403,624;    0,073;    2,955
819,978;16025,980;   -0,291;    1,773
820,542;16583,519;    2,891;    0,500
821,106;16370,602;    2,800;    0,682
821,670;16431,777;    2,709;    2,591
822,234;16183,679;    1,073;    1,409
822,798;15653,853;   -0,836;    0,500
823,362;15619,028;    1,527;    4,227
823,926;15049,111;   -0,018;    1,136
824,490;15237,650;    3,527;   -0,682
825,054;15624,824;    2,527;   -1,136
825,618;15396,181;   -1,200;   -1,500
826,181;15351,719;    0,982;   -1,318
826,745;15234,802;   -0,745;   -1,045
827,309;15558,522;    2,255;    1,318
827,872;15039,061;    0,527;    0,955
828,436;15896,599;    1,982;   -0,773
828,999;16024,046;    2,436;    1,227
829,563;15000,039;   -0,654;    1,136
830,126;14833,031;   -0,018;   -0,591
830,690;14880,933;    0,709;    2,864
831,253;14427,199;   -0,473;    2,227
831,816;14536,010;   -0,018;    0,500
832,380;14467,911;    1,164;    0,864
832,943;14676,359;    3,073;   -0,500
833,506;14230,715;    0,255;   -1,227
834,069;14945,708;    2,164;   -0,955
834,632;15010,701;   -2,200;    1,318
835,195;14934,693;    1,346;    0,955
835,758;14265,504;    0,709;    1,955
836,321;14077,497;    1,073;   -1,045
836,884;14179,126;   -1,291;   -0,955
837,447;14248,392;    0,528;    1,773
838,010;14454,748;    1,800;    3,227
838,573;14730,286;    0,528;    0,773
839,135;14707,733;   -0,109;   -0,955
839,698;14213,453;    2,528;    0,409
840,261;13827,901;    0,255;   -0,227
840,823;13688,257;   -0,927;    0,864
841,386;13973,795;   -0,018;   -2,409
841,948;13850,242;    0,255;    1,773
842,511;13631,235;    0,255;    1,682
843,073;13733,137;    2,982;    0,227
843,636;13576,039;    0,619;   -0,227
844,198;13498,213;    1,255;    0,591
844,760;13646,206;    0,619;    1,955
845,322;13312,199;    0,164;    1,136
845,885;13693,828;   -0,290;    0,591
846,447;14109,003;    0,710;    0,227
847,009;13758,177;    3,983;   -0,682
847,571;13998,988;    1,346;   -2,045
848,133;14068,526;   -0,199;   -1,864
848,695;13932,155;    2,346;    1,409
849,257;13511,512;    1,346;   -1,682
849,819;13685,050;    2,983;   -0,409
850,381;13699,588;    1,801;   -0,864
850,942;13993,126;    1,892;   -0,591
851,504;13884,210;    0,983;    0,227
852,066;13972,293;    1,619;   -1,591
852,628;13597,286;    0,165;    1,955
853,189;13194,097;    0,256;    2,682
853,751;13351,272;   -0,654;    1,409
854,312;13137,628;    1,256;   -1,682
854,874;13589,893;   -0,108;   -0,773
855,435;14024,432;    0,528;   -1,682
855,997;14167,606;    3,983;   -0,136
856,558;13513,872;    0,801;    1,773
857,119;13622,228;   -0,744;    2,864
857,681;13382,948;   -0,108;    0,318
858,242;13410,032;    1,347;   -2,136
858,803;13777,115;    1,074;   -0,773
859,364;14330,472;    0,892;   -4,773
859,925;13766,828;   -0,290;   -0,955
860,486;13640,730;    0,529;   -0,955
861,047;13385,814;    0,165;   -1,227
861,608;13244,624;    0,165;   -0,773
862,169;13374,344;   -0,562;   -0,045
862,730;13156,246;   -0,290;    1,409
863,291;13378,512;    0,438;   -0,500
863,852;13683,414;   -0,926;    1,955
864,412;13204,679;   -1,835;   -0,864
864,973;12016,490;    1,892;    0,500
865,534;11877,119;    2,074;    0,227
866,094;13196,294;    2,620;    0,227
866,655;12885,377;    4,711;    3,318
867,215;13174,643;    0,074;    0,136
867,776;13021,454;   -1,199;   -0,136
868,336;13128,174;    1,529;    0,136
868,897;12690,803;    3,438;    1,682
869,457;12448,977;    3,256;    0,318
870,017;12672,697;    2,438;   -1,227
870,578;13162,508;    1,893;    0,773
871,138;12800,955;    2,620;   -0,955
871,698;12405,130;   -0,562;   -1,318
872,258;12296,759;    0,711;   -2,864
872,818;12657,388;    2,347;    0,045
873,378;12632,381;   -2,198;    1,045
873,938;12237,374;    4,984;    0,500
874,498;12496,821;    1,256;   -1,955
875,058;12453,632;    4,347;    1,773
875,618;12334,443;    1,438;   -2,682
876,177;12260,345;   -0,471;    0,136
876,737;11939,701;   -0,289;    1,955
877,297;11952,603;    2,711;    1,955
877,856;11955,050;    2,529;    0,318
878,416;11910,952;    2,438;   -0,136
878,976;12094,035;    3,438;    0,409
879,535;12259,301;    4,529;    3,136
880,095;12055,021;    1,347;    0,045
880,654;12132,105;    0,347;    1,318
881,213;12262,552;    2,347;    1,500
881,773;11911,999;    1,984;    2,682
882,332;12274,628;    6,075;    5,136
882,891;12164,621;    0,711;    2,136
883,451;12502,977;   -2,016;    1,682
884,010;11996,970;   -1,107;   -0,409
884,569;12112,508;   -2,289;   -0,045
885,128;12217,319;   -0,743;   -1,864
885,687;12305,403;   -0,743;    0,682
886,246;12047,941;    2,620;    2,136
886,805;11805,752;    1,620;    2,045
887,364;12018,926;    1,166;   -0,500
887,922;12333,828;   -0,016;    0,045
888,481;11859,185;    1,530;    0,591
889,040;12141,541;    3,711;    2,136
889,599;12686,261;    2,166;    1,409
890,157;12777,526;    2,166;    2,409
890,716;12382,428;    2,166;    0,227
891,274;12248,967;    0,075;   -1,136
891,833;12625,505;    1,166;    0,864
892,391;12500,043;    1,802;    0,500
892,950;12566,945;    0,166;   -0,773
893,508;12905,937;    0,984;   -0,409
894,067;12308,112;   -0,379;    0,136
894,625;12232,468;   -1,016;   -1,500
895,183;12433,370;   -0,198;   -0,682
895,741;12372,090;    2,257;   -1,773
896,299;12195,083;    1,621;   -2,409
896,858;12368,167;    1,530;   -1,591
897,416;12495,887;    0,166;   -1,318
897,974;12276,516;   -2,197;    0,318
898,532;12444,781;    6,530;    2,682
899,089;12375,137;    0,621;   -0,682
899,647;12444,767;    0,530;    1,318
900,205;12255,668;    0,257;    1,045
900,763;12401,843;    2,166;    0,227
901,321;12406,472;    3,530;   -1,409
901,878;11889,828;    3,257;   -0,773
902,436;11798,003;    0,257;    1,318
902,994;12207,450;    6,712;    3,682
903,551;11717,534;    1,439;    0,409
904,109;12061,072;    1,530;   -1,409
904,666;11693,156;    1,439;    1,045
905,224;11588,330;    3,894;   -0,409
905,781;11384,323;   -0,470;   -0,318
906,338;11411,043;    0,167;    1,045
906,895;11392,399;    1,894;    2,045
907,453;11326,210;    2,348;    1,136
908,010;11330,112;    3,348;    0,409
908,567;11051,196;   -0,561;    0,591
909,124;10619,643;    2,439;   -1,500
909,681;10696,181;   -1,288;    0,682
910,238;10896,719;   -0,106;   -1,318
910,795;11174,076;   -1,561;   -1,136
911,352;10864,985;   -0,379;   -2,682
911,909;10350,167;    2,803;   -0,864
912,466;10801,167;    1,985;    1,500
913,022;10366,348;   -0,924;    0,500
913,579;10720,258;   -0,470;    2,045
914,136;10514,439;   -2,561;    0,955
914,692;10821,803;    1,530;   -1,227
915,249;10434,076;    0,530;    0,409
915,806;10618,894;    1,803;    1,955
916,362;10460,894;    0,894;    1,864
916,918;10069,985;    2,439;    1,045
917,475;10077,803;    1,621;    0,955
918,031;10126,439;    0,076;   -0,045
918,587; 9708,803;    0,621;   -0,318
919,144; 9927,803;   -0,379;    0,227
919,700;10151,894;    0,167;    0,773
920,256; 9805,621;    0,439;    0,045
920,812; 9494,348;    1,439;   -1,045
921,368; 9553,894;    1,348;   -1,045
921,924; 9247,712;    0,439;   -0,136
922,480; 8898,439;    0,076;    1,227
923,036; 9448,985;   -0,652;    1,955
923,592; 9414,167;    0,621;    0,318
924,148; 9360,258;    1,894;   -0,955
924,704; 8786,076;    0,258;   -0,409
925,259; 9077,803;   -0,561;    0,591
925,815; 8873,530;    3,803;    0,500
926,371; 8454,439;    3,530;    1,409
926,926; 8396,439;    1,621;    0,591
927,482; 8109,621;    1,621;    0,773
928,037; 8021,076;   -0,833;    2,045
928,593; 8301,348;    0,258;    1,045
929,148; 8168,530;    1,167;   -1,500
929,704; 7770,076;    2,439;   -0,500
930,259; 7960,348;    0,894;   -0,136
930,814; 7235,439;    1,803;    1,955
931,369; 6979,621;    0,258;   -0,773
931,925; 6893,258;   -1,924;    0,136
932,480; 6809,985;    3,076;   -2,591
933,035; 6786,258;    3,985;   -0,318
933,590; 6626,803;   -1,742;   -1,773
934,145; 6329,439;   -1,288;   -0,318
934,700; 6608,258;    0,348;   -0,591
935,255; 6478,348;    4,803;    0,045
935,809; 5979,167;    6,258;    0,864
936,364; 5274,530;    2,167;   -0,136
936,919; 5314,076;    2,348;   -1,773
937,474; 5232,712;    1,348;    0,136
938,028; 5060,530;    3,076;    1,136
938,583; 4720,803;    6,348;    4,682
939,138; 4923,803;    0,167;    2,136
939,692; 4478,803;   -1,015;   -1,136
940,247; 4231,530;    1,167;   -1,045
940,801; 3968,258;    0,621;    0,227
941,355; 3912,348;    0,439;    2,591
941,910; 3602,439;    0,712;   -2,136
942,464; 3724,167;    2,712;   -0,318
943,018; 3639,985;    3,258;   -0,227
943,572; 3547,712;    2,803;   -0,682
944,126; 3133,258;   -0,924;   -0,409
944,681; 3031,530;    0,712;    0,227
945,235; 3009,076;    2,167;   -0,591
945,789; 2970,439;    1,258;   -1,864
946,342; 3155,803;   -0,561;   -0,591
946,896; 2904,348;    0,348;    0,955
947,450; 2711,621;   -0,561;   -0,227
948,004; 2955,076;    1,076;   -0,045
948,558; 2908,076;    1,258;   -0,864
949,111; 2832,803;   -1,197;   -0,318
949,665; 2955,167;   -0,106;   -0,682
950,219; 2840,439;    0,621;   -1,045
950,772; 2873,348;    0,258;    1,864
951,326; 2809,167;   -1,106;   -0,955
951,879; 2837,348;    1,076;   -2,318
952,433; 2903,894;    1,348;    2,227
952,986; 2729,803;    0,348;    0,682
953,539; 2678,985;    1,530;    0,591
954,093; 2628,076;    0,985;   -1,318
954,646; 2765,348;   -0,288;    1,318
955,199; 2594,348;    1,258;   -0,500
955,752; 2581,803;    1,985;    1,773
956,305; 2515,076;    0,894;    2,955
956,858; 2642,167;    0,621;   -0,318
957,411; 2788,894;    3,621;    2,136
957,964; 2614,712;    2,076;    2,136
958,517; 2597,712;    0,985;    3,136
959,070; 2469,803;   -1,197;    1,955
959,623; 2635,530;    1,076;    1,500
960,176; 2446,985;    0,712;    2,045
960,728; 2403,348;    1,712;    0,773
961,281; 2453,621;    2,258;    0,500
961,834; 2454,985;   -0,833;    0,864
962,386; 2393,258;    1,258;    1,045
962,939; 2313,348;    3,439;   -0,318
963,491; 2428,348;    2,621;    1,136
964,043; 2323,348;    0,076;    2,409
964,596; 2466,803;    1,712;    2,227
965,148; 2320,348;   -0,379;    1,773
965,700; 2257,076;   -0,015;   -0,227
966,253; 2393,894;   -0,833;    0,318
966,805; 2280,439;    1,894;    0,773
967,357; 2288,621;    0,439;   -1,500
967,909; 2291,712;    1,167;   -1,227
968,461; 2331,439;    0,894;    3,136
969,013; 2278,076;   -1,561;   -0,864
969,565; 2349,439;    1,803;   -1,136
970,117; 2544,076;    3,803;    1,045
970,669; 2296,258;    3,258;   -0,136
971,220; 2130,348;    2,167;   -1,500
971,772; 2091,894;    1,348;   -0,318
972,324; 2221,258;   -1,197;   -0,500
972,876; 2164,348;    0,167;   -0,045
973,427; 2315,530;   -1,197;   -1,045
973,979; 2300,258;    0,076;   -2,500
974,530; 2237,803;    0,803;    1,318
975,082; 2261,258;    2,167;    1,682
975,633; 2184,985;    2,894;    1,682
976,184; 2315,076;    2,076;    0,773
976,736; 2168,439;    0,348;    0,227
977,287; 2026,167;    0,258;   -0,500
977,838; 2153,712;   -0,924;   -0,318
978,389; 2185,985;    0,803;   -0,500
978,940; 2046,803;    1,258;   -0,409
979,491; 2079,258;    2,258;   -0,500
980,042; 2088,167;   -0,652;    3,045
980,593; 2100,712;    1,894;    0,227
981,144; 2196,076;    3,530;   -0,500
981,695; 2224,894;   -0,470;    1,500
982,246; 2159,167;   -1,833;    1,045
982,797; 2215,258;   -0,561;    0,682
983,347; 2335,712;    2,167;    0,591
983,898; 2517,894;    4,167;    0,409
984,449; 2389,530;    2,530;    0,773
984,999; 2227,712;    1,894;   -1,136
985,550; 2089,348;    3,167;   -0,318
986,100; 2058,985;    0,712;   -0,318
986,651; 2071,439;    0,258;    0,045
987,201; 2073,258;    0,894;   -0,591
987,751; 2139,258;   -0,288;    2,864
988,302; 2154,621;   -0,379;    1,500
988,852; 2167,076;    1,985;   -1,136
989,402; 2229,894;    0,985;    0,682
989,952; 2170,712;    1,621;    0,864
990,502; 2196,803;    1,076;    0,682
991,052; 2140,712;   -0,106;    0,045
991,602; 2041,530;    1,167;    1,318
992,152; 2074,803;    2,803;    0,682
992,702; 2069,348;    1,167;   -0,045
993,252; 2009,621;    0,076;   -0,500
993,802; 2106,348;    1,167;    1,318
994,352; 2260,167;   -0,742;    1,136
994,901; 2294,621;    1,076;    3,227
995,451; 2230,439;   -1,197;    0,318
996,000; 2297,167;    1,076;    0,318
996,550; 2088,803;    2,894;    0,227
997,100; 2083,803;   -0,561;   -0,045
997,649; 2349,258;   -0,197;    0,955
998,198; 2046,076;   -0,288;   -1,500
998,748; 2234,348;    0,348;   -2,318
999,297; 2122,894;    0,985;   -0,409
999,846; 2227,803;    1,894;   -0,773
1000,395; 2203,258;    1,530;    0,500
1000,945; 2224,167;    1,076;   -0,773
1001,494; 2293,621;    0,167;    0,682
1002,043; 2266,258;    0,712;    0,864
1002,592; 2078,985;    3,439;    1,955
1003,141; 2211,985;    2,439;   -0,682
1003,690; 2150,167;    1,258;    0,500
1004,238; 2163,985;   -0,106;   -0,045
1004,787; 1862,803;   -1,288;    1,227
1005,336; 2135,621;    1,621;    0,682
1005,885; 2200,167;   -0,197;   -2,773
1006,433; 2251,439;   -0,470;    0,955
1006,982; 2411,712;    2,167;    1,682
1007,531; 2292,439;    2,712;   -0,227
1008,079; 2197,985;    0,258;    0,500
1008,627; 2301,530;    1,621;    0,409
1009,176; 2119,167;    0,076;   -1,955
1009,724; 2128,439;   -2,742;    0,864
1010,273; 2242,348;    1,076;    0,500
1010,821; 2288,439;    1,076;    1,409
1011,369; 2072,348;    0,076;    1,318
1011,917; 2071,803;   -0,833;   -0,591
1012,465; 2304,621;    2,530;   -1,591
1013,013; 2361,258;    0,439;   -1,682
1013,561; 2309,803;   -1,288;   -0,773
1014,109; 2402,894;   -0,833;    1,682
1014,657; 2261,985;    1,348;    0,591
1015,205; 2305,258;    0,894;   -0,955
1015,753; 2304,803;    0,258;   -1,409
1016,301; 2351,530;    2,621;    3,045
1016,848; 2369,803;    2,167;    0,409
1017,396; 2408,894;    1,621;    0,045
1017,944; 2506,985;    2,621;    1,864
1018,491; 2277,076;   -0,197;    1,409
1019,039; 2538,894;   -0,652;    0,591
1019,586; 2374,076;    0,076;    1,682
1020,134; 2414,167;    0,712;    1,500
1020,681; 2460,621;    2,894;   -1,136
1021,228; 2426,621;   -0,561;   -2,227
1021,776; 2287,258;   -0,833;   -1,136
1022,323; 2544,985;    0,803;    0,773
1022,870; 2456,348;   -0,470;   -0,045
1023,417; 2415,348;    2,076;    1,864
1023,964; 2449,167;    0,621;    1,227
1024,511; 2351,439;   -0,652;    0,773
1025,058; 2196,803;    0,439;   -0,045
1025,605; 2239,712;   -1,742;    3,136
1026,152; 2477,712;   -0,106;   -0,591
1026,699; 2207,439;    0,167;    1,318
1027,245; 2315,439;    2,439;    0,318
1027,792; 2463,712;    0,712;    1,409
1028,339; 2468,985;    4,076;   -0,045
1028,885; 2312,439;    3,621;   -0,227
1029,432; 2255,348;   -0,106;    0,227
1029,978; 2337,621;    1,348;   -1,591
1030,525; 2251,621;    1,621;    0,409
1031,071; 2393,803;    0,348;    1,136
1031,618; 2580,439;    1,258;    1,682
1032,164; 2354,167;    2,076;    3,045
1032,710; 2401,258;    0,076;   -1,500
1033,256; 2290,894;    0,712;   -0,136
1033,803; 2237,348;   -0,288;    1,500
1034,349; 2015,621;    1,803;    0,136
1034,895; 2156,803;    2,621;   -0,318
1035,441; 2153,167;    0,439;    0,318
1035,987; 2185,894;   -2,288;   -0,682
1036,533; 2216,530;   -0,197;   -0,955
1037,078; 2440,167;    4,712;    1,682
1037,624; 2254,439;    2,439;   -0,955
1038,170; 2227,167;    1,712;   -0,318
1038,716; 2182,439;    2,167;   -0,409
1039,261; 2074,894;    2,167;   -0,773
1039,807; 2043,712;   -0,015;    3,409
1040,352; 2117,348;   -1,288;   -0,318
1040,898; 2142,803;    0,167;   -0,682
1041,443; 2036,621;    0,803;   -2,591
1041,989; 2181,985;    3,621;    1,591
1042,534; 2007,530;    0,985;    2,591
1043,079; 2063,076;    1,985;    0,955
1043,625; 1930,621;    0,258;    0,500
1044,170; 2008,439;    2,439;    1,045
1044,715; 2247,530;    0,167;    0,955
1045,260; 2063,439;   -0,833;   -0,955
1045,805; 2052,076;    0,258;   -0,591
1046,350; 1980,803;    0,530;   -0,409
1046,895; 2046,348;    0,803;    1,591
1047,440; 2020,621;    1,530;    0,409
1047,985; 1887,258;   -1,197;   -0,955
1048,530; 1799,894;    1,348;    1,227
1049,074; 1892,076;    2,803;    0,318
1049,619; 1850,712;   -0,924;    1,955
1050,164; 1696,985;    1,076;    0,227
1050,708; 1754,439;    2,621;    0,045
1051,253; 2151,712;    3,258;   -2,227
1051,797; 1859,167;   -0,197;   -1,318
1052,342; 1775,803;    1,348;    1,045
1052,886; 1816,894;    1,803;   -1,409
1053,430; 1683,712;    2,167;    0,136
1053,975; 1717,712;    0,894;   -0,318
1054,519; 1722,348;    1,803;    3,227
1055,063; 1785,439;    3,621;    1,318
1055,607; 1699,167;    1,348;    0,227
1056,151; 1711,803;    0,530;    1,682
1056,695; 1606,985;   -1,833;   -1,136
1057,239; 1665,076;   -1,197;   -0,682
1057,783; 1689,076;    2,258;   -1,500
1058,327; 1690,348;    3,076;    1,409
1058,871; 1911,258;    3,985;    1,318
1059,415; 1633,621;   -0,561;   -0,045
1059,958; 1921,439;    2,985;    2,591
1060,502; 1624,348;    1,348;   -0,773
1061,046; 1501,712;    1,712;   -0,955
1061,589; 1474,076;    2,803;   -1,136
1062,133; 1378,530;    0,985;    1,864
1062,676; 1358,439;    1,439;    0,864
1063,220; 1380,258;    0,985;    0,500
1063,763; 1409,167;    2,985;    1,136
1064,306; 1485,712;    0,985;    1,864
1064,849; 1391,076;    2,076;    0,591
1065,393; 1388,894;    2,894;   -1,500
1065,936; 1455,439;    2,530;   -0,409
1066,479; 1337,439;    2,621;    1,318
1067,022; 1375,621;    1,894;   -0,227
1067,565; 1289,258;   -1,197;   -1,318
1068,108; 1300,530;    1,258;   -0,591
1068,651; 1270,258;   -2,470;    1,409
1069,194; 1216,348;   -1,106;   -1,682
1069,736; 1229,076;    3,803;    0,955
1070,279; 1215,712;   -1,652;   -0,500
1070,822; 1294,894;    1,530;   -0,318
1071,364; 1409,258;    0,530;    1,318
1071,907; 1225,712;    0,348;    3,227
1072,450; 1084,530;    0,258;   -0,045
1072,992; 1115,076;   -0,561;    3,136
1073,535; 1272,985;    0,167;    2,136
1074,077; 1070,803;    2,985;    2,045
1074,619; 1054,894;    0,985;    0,591
1075,161; 1093,530;   -0,561;    1,500
1075,704; 1278,894;    0,258;    1,227
1076,246; 1049,985;    1,530;    0,682
1076,788;  968,439;   -1,015;    1,773
1077,330; 1030,076;   -2,106;    2,136
1077,872; 1031,439;   -1,924;    0,955
1078,414; 1277,167;    3,712;    0,773
1078,956; 1020,712;    0,167;   -0,227
1079,498; 1265,894;    0,439;    0,318
1080,040;  999,530;    0,985;   -1,318
1080,581;  940,167;    0,621;   -0,318
1081,123;  857,348;   -0,106;   -0,773
1081,665;  897,348;    3,803;   -0,955
1082,206; 1187,712;    3,258;   -0,500
1082,748; 1061,803;    3,258;    2,045
1083,289;  922,894;    0,167;    1,318
1083,831;  871,803;    0,258;    0,227
1084,372;  918,167;    0,894;    0,591
1084,913;  920,439;    3,348;    0,864
1085,455;  869,894;    1,530;   -2,045
1085,996;  851,348;    0,530;    0,136
1086,537;  883,985;    0,985;    0,864
1087,078;  910,167;    0,439;   -2,136
1087,619;  956,621;   -1,652;    0,227
1088,160;  878,985;    1,439;    1,318
1088,701;  850,348;   -0,742;    0,682
1089,242;  811,712;   -0,561;   -2,227
1089,783;  913,712;   -0,561;    1,409
1090,324;  880,076;   -0,833;    0,682
1090,865;  755,621;   -1,924;   -0,409
1091,405;  715,712;   -0,561;    2,227
1091,946;  755,439;   -0,197;   -0,955
1092,487;  670,258;   -1,288;   -1,409
1093,027;  853,167;    1,803;   -1,500
1093,568;  727,712;    2,258;    1,227
1094,108;  812,985;    0,621;    1,773
1094,649;  750,712;   -0,470;    0,136
1095,189;  692,348;    1,167;   -0,682
1095,729;  657,803;    0,712;    0,955
1096,269;  654,712;    1,258;   -0,955
1096,810;  961,803;   -0,197;    0,500
1097,350;  804,894;   -0,561;   -0,773
1097,890;  713,712;    2,985;    1,227
1098,430;  954,712;    4,985;    2,864
1098,970;  839,530;    1,894;    1,682
1099,510;  692,621;   -0,833;   -2,318
1100,050;  624,894;    0,258;   -1,591
1100,589;  613,712;    0,076;   -0,318
1101,129;  731,712;    0,894;   -0,955
1101,669;  873,621;    2,803;    2,136
1102,209;  710,530;    1,530;    2,227
1102,748;  658,894;    3,439;    0,955
1103,288;  662,985;    0,712;   -1,227
1103,827;  671,803;    3,530;   -2,227
1104,367;  562,985;    1,712;   -2,409
1104,906;  542,167;   -1,015;   -1,136
1105,445;  612,167;    0,985;   -1,136
1105,985;  573,348;   -0,652;    1,500
1106,524;  609,985;    1,530;   -0,682
1107,063;  583,348;    1,167;    1,409
1107,602;  549,348;    1,894;   -1,500
1108,141;  488,530;    1,621;    1,500
1108,680;  599,803;    3,985;   -0,591
1109,219;  530,530;    0,167;   -0,500
1109,758;  533,076;    4,167;    0,682
1110,297;  507,167;   -1,106;   -0,682
1110,836;  464,712;    1,439;    0,955
1111,375;  604,621;    0,348;    0,409
1111,913;  623,985;    0,985;    0,773
1112,452;  562,894;    0,894;    0,136
1112,991;  455,985;    1,076;    1,955
1113,529;  424,439;    0,167;   -0,045
1114,068;  495,348;    0,439;    2,955
1114,606;  401,348;   -0,561;   -0,955
1115,144;  551,621;    1,530;    1,045
1115,683;  490,258;    1,985;    0,318
1116,221;  537,894;    2,076;   -0,864
1116,759;  462,167;    1,621;   -0,864
1117,297;  632,712;    1,621;    1,864
1117,836;  461,348;    1,985;   -1,227
1118,374;  467,076;    0,258;   -0,682
1118,912;  419,439;    0,439;    2,682
1119,450;  416,076;    0,985;    0,864
1119,988;  456,348;    3,348;    2,136
1120,525;  882,894;    7,258;    3,318
1121,063;  593,439;    0,530;    1,864
1121,601;  416,803;    1,076;   -1,227
1122,139;  381,439;    1,076;   -2,045
1122,676;  574,621;   -1,652;    2,773
1123,214;  522,076;    0,712;    4,409
1123,751;  337,985;    0,621;    2,227
1124,289;  448,439;    0,894;   -0,409
1124,826;  335,894;   -0,379;    0,227
1125,364;  262,530;    0,712;   -0,955
1125,901;  440,348;    6,258;    1,227
1126,438;  534,076;    3,530;    0,955
1126,975;  284,530;    2,985;   -0,773
1127,513;  355,894;    2,621;    2,136
1128,050;  273,439;   -0,561;   -0,682
1128,587;  366,348;    1,348;   -0,227
1129,124;  403,803;   -0,015;    1,318
1129,661;  284,985;   -1,924;    0,227
1130,198;  440,439;    2,439;    0,773
1130,734;  388,712;   -0,379;    1,409
1131,271;  258,167;   -1,197;    0,864
1131,808;  417,803;    1,621;    3,045
1132,345;  310,439;    4,530;    0,318
1132,881;  190,167;   -0,561;   -1,864
1133,418;  322,530;    0,348;   -1,136
1133,954;  253,348;    0,712;   -2,682
1134,491;  321,530;    1,712;   -0,773
1135,027;  234,439;    2,167;    0,864
1135,564;  322,258;    1,439;    2,955
1136,100;  298,803;   -0,742;    2,136
1136,636;  206,530;   -1,015;   -1,045
1137,172;  292,712;    0,894;   -1,045
1137,708;  219,439;   -1,561;   -1,045
1138,245;  224,985;    0,803;   -1,227
1138,781;  183,076;    1,803;   -3,318
1139,317;  241,076;    1,894;   -1,409
1139,852;  234,258;    3,076;    0,136
1140,388;  325,803;    2,076;   -0,409
1140,924;  228,076;    1,076;   -2,227
1141,460;  169,894;   -0,288;    0,136
1141,996;  121,076;   -0,652;    2,682
1142,531;  163,803;    1,076;    3,318
1143,067;  357,530;    1,167;    1,045
1143,602;  399,167;    3,439;   -0,318
1144,138;  261,258;    0,803;    1,045
1144,673;  148,167;    1,621;    1,409
1145,209;  206,894;    2,894;   -0,318
1145,744;  140,530;    0,803;    0,864
1146,279;  257,348;    1,530;   -0,136
1146,815;  188,167;    1,530;   -2,682
1147,350;  224,712;   -0,924;    0,045
1147,885;  144,985;   -1,924;   -1,318
1148,420;  143,985;    2,439;    0,773
1148,955;  134,621;   -1,470;    1,864
1149,490;  152,803;   -1,106;   -1,591
1150,025;  133,258;   -1,106;   -1,773
1150,560;  233,167;   -0,288;   -0,955
1151,094;  207,076;    0,258;   -0,591
1151,629;  201,076;   -3,742;    0,864
1152,164;  145,076;   -1,288;    1,318
1152,698;  102,803;    1,258;   -0,136
1153,233;   73,439;   -1,379;   -0,682
1153,767;  117,712;   -0,288;   -2,318
1154,302;  162,985;   -0,379;    1,773
1154,836;  162,621;    0,803;   -2,136
1155,371;  200,894;    2,258;    3,682
1155,905;  162,803;    1,985;    1,682
1156,439;  140,076;    0,530;   -0,500
1156,973;  172,985;    0,439;    0,318
1157,507;  110,348;   -1,742;    0,682
1158,042;  123,803;   -0,652;    1,045
1158,576;  171,530;   -0,561;    1,773
1159,110;  163,439;    0,076;    2,409
1159,643;  145,258;   -2,470;   -0,045
1160,177;   93,167;   -2,015;    1,500

