
Integration time [ms]:   0,050
Averaging Nr. [scans]: 11
Smoothing Nr. [pixels]: 0
Data measured with spectrometer [name]: 7318044SP
Wave   ;Sample   ;Dark     ;Reference
[nm]   ;[counts] ;[counts] ;[counts] 

186,757;   -3,033;   38,161;    1,318
187,357;   26,500;   26,706;    0,955
187,958;    6,683;   17,252;   -1,591
188,558;   66,132;   12,979;   -1,227
189,159;   30,162;   10,070;   -4,500
189,759;    8,211;    5,797;   -3,591
190,360;    1,181;    6,797;   -2,136
190,960;   37,712;    5,706;   -4,136
191,560;   51,286;    2,614;   -6,591
192,161;  278,424;    5,885;   -3,500
192,761;  129,267;    5,520;   -3,227
193,361;   88,049;    3,065;   -3,773
193,962;  136,006;    1,612;   -2,682
194,562;   72,007;   -0,114;   -3,955
195,162;  102,891;   -0,567;   -2,227
195,762;  267,420;    2,433;   -0,045
196,362;  210,793;    1,706;   -2,500
196,963;   82,060;    1,706;   -0,864
197,563;  161,413;    1,252;   -0,955
198,163;  107,467;   -0,111;   -0,682
198,763;  126,903;   -0,020;   -0,500
199,363;  230,986;    3,616;   -0,500
199,963;  191,891;    2,162;    0,409
200,563;  170,760;    6,344;   -1,409
201,163;  150,837;    5,435;   -0,227
201,763;  241,977;    1,435;    0,318
202,363;  187,565;    0,980;    1,500
202,963;  291,492;    1,526;    1,045
203,563;  405,979;    0,344;    0,500
204,162;  254,194;    1,889;   -1,864
204,762;  246,191;    2,071;    0,591
205,362;  231,925;    0,708;    1,955
205,962;  323,919;    3,435;    1,955
206,562;  328,791;    1,889;    2,318
207,161;  302,614;    1,708;    0,318
207,761;  448,552;    4,435;    2,409
208,361;  324,574;    1,889;    1,409
208,960;  417,543;    2,889;    1,500
209,560;  511,126;    0,435;    1,591
210,160;  479,917;    5,071;    1,864
210,759;  453,048;    0,708;    1,227
211,359;  454,343;   -0,474;    1,045
211,958;  722,852;    3,526;    2,045
212,558;  806,165;    0,799;    1,864
213,157;  649,638;   -0,929;    1,500
213,757; 1111,211;    5,617;   -0,227
214,356;  813,292;    1,708;   -0,409
214,956; 1141,561;    3,526;    0,409
215,555;  773,526;    0,617;    2,136
216,154;  706,923;   -0,292;   -0,591
216,754;  727,542;    1,253;    0,773
217,353;  885,787;   -0,383;   -1,045
217,952;  742,033;    2,072;    0,318
218,552;  971,950;    0,254;   -0,773
219,151;  884,084;   -1,110;    0,955
219,750;  892,764;    0,890;   -0,227
220,349; 1066,323;   -2,292;    1,045
220,948; 1105,895;    1,163;    1,136
221,548; 1160,991;    0,617;    1,227
222,147; 1284,345;   -1,292;   -0,409
222,746; 1581,233;    1,254;   -0,955
223,345; 1464,821;   -1,019;    0,500
223,944; 1488,446;    1,163;    0,773
224,543; 1694,428;    4,072;   -1,409
225,142; 1808,137;    1,345;    0,136
225,741; 1729,836;    1,163;    1,045
226,340; 1763,911;    1,254;   -0,955
226,939; 2257,147;    2,708;   -0,136
227,538; 2291,298;    1,163;   -0,773
228,137; 2441,228;    0,435;    0,864
228,735; 2663,947;    0,435;    1,227
229,334; 2390,749;   -0,474;   -0,227
229,933; 2770,195;    0,799;    0,591
230,532; 2923,004;   -1,201;   -0,409
231,131; 2968,697;    1,253;    0,318
231,729; 3171,426;    1,163;   -2,318
232,328; 3374,186;    0,435;   -1,500
232,927; 3518,159;    4,526;   -0,500
233,525; 3671,635;    0,981;    0,045
234,124; 3899,698;    1,890;   -1,591
234,723; 3965,310;    1,617;   -1,045
235,321; 4164,957;    1,163;    0,136
235,920; 4431,344;    2,526;   -1,227
236,518; 4756,263;    1,072;    0,318
237,117; 5035,966;    2,890;   -0,227
237,715; 5234,269;    1,163;   -0,500
238,314; 5262,211;    1,708;   -2,318
238,912; 5384,426;    0,526;   -1,409
239,510; 5480,665;    1,162;   -1,227
240,109; 5685,943;   -0,474;    3,773
240,707; 5745,406;   -0,474;    1,227
241,305; 6188,771;   -0,383;    0,136
241,904; 6453,862;   -0,292;   -2,045
242,502; 6413,796;    3,253;   -0,227
243,100; 6380,434;    3,344;   -0,955
243,698; 6669,102;    2,799;    1,682
244,297; 6862,848;   -0,656;    0,682
244,895; 6681,486;   -0,474;   -2,318
245,493; 7073,537;    2,981;   -0,591
246,091; 7177,834;    5,163;   -1,318
246,689; 7136,462;    2,163;    0,591
247,287; 7332,238;   -0,019;   -1,136
247,885; 7714,224;   -1,019;    1,227
248,483; 7846,560;   -0,201;   -0,500
249,081; 8014,805;    0,981;    1,591
249,679; 8199,532;   -1,019;    1,682
250,277; 8524,529;   -2,292;    0,864
250,875; 8497,534;    0,617;   -1,045
251,473; 8548,462;   -0,019;    0,500
252,071; 8781,651;   -0,383;    1,045
252,669; 8951,901;   -1,565;    0,318
253,267; 9290,186;    1,618;    0,773
253,864; 9256,056;    0,617;    0,682
254,462; 9047,745;    1,526;    1,591
255,060; 9074,339;    0,072;    1,318
255,658; 9474,083;   -3,292;   -0,136
256,255; 9909,594;   -0,201;   -2,045
256,853; 9788,952;    2,345;    1,409
257,451; 9819,611;    1,981;    1,864
258,048;10069,932;    2,072;    1,864
258,646; 9846,464;    0,436;   -1,045
259,243;10078,679;    2,981;    2,227
259,841;10121,967;    1,799;    0,318
260,438; 9985,927;    0,254;    0,864
261,036;10870,071;    0,617;    1,409
261,633;10794,372;    1,526;    2,227
262,231;10500,636;   -0,110;   -0,045
262,828;10592,558;   -0,383;    1,136
263,425;10658,552;   -1,928;   -0,591
264,023;10934,248;    1,436;    0,045
264,620;10436,901;    1,526;   -0,318
265,217;10861,546;    2,890;    3,136
265,815;10995,334;    2,527;    2,136
266,412;10743,744;    0,072;    0,136
267,009;10796,966;    0,526;    0,773
267,606;10659,100;    0,345;   -0,955
268,203;10665,593;   -0,383;   -0,591
268,801;10991,835;   -0,474;    0,591
269,398;11358,101;   -0,564;    2,500
269,995;11355,285;    0,890;    1,591
270,592;11050,691;    0,799;   -0,500
271,189;11307,679;    1,981;    0,409
271,786;11473,866;    2,072;    1,227
272,383;11262,179;   -0,383;    0,227
272,980;11501,586;    1,617;    0,318
273,577;12077,136;    2,162;    1,227
274,174;11588,748;    1,435;    2,591
274,771;11588,537;    1,890;   -0,773
275,367;11701,582;    3,253;    1,409
275,964;11656,294;   -0,565;   -0,500
276,561;11836,562;   -2,474;   -1,045
277,158;12113,532;    1,799;   -1,773
277,755;12201,714;   -0,110;    0,409
278,351;11488,546;    0,436;   -1,500
278,948;11892,491;   -0,201;    0,045
279,545;11919,060;    0,527;    2,318
280,141;12591,759;    1,254;   -2,045
280,738;12426,248;    2,435;   -0,136
281,334;12787,919;   -0,383;    0,591
281,931;12119,799;    2,890;   -1,318
282,528;12245,245;    4,072;   -0,500
283,124;13077,745;    3,345;   -0,500
283,721;12918,402;    0,709;    1,409
284,317;12738,147;    0,163;    2,500
284,913;13364,477;   -0,110;    0,591
285,510;13582,295;    2,890;   -0,318
286,106;13606,334;    2,345;   -0,955
286,703;13150,706;    0,072;    1,955
287,299;13387,149;    1,254;   -0,591
287,895;13658,298;    0,890;   -1,045
288,491;14342,464;    0,163;    2,136
289,088;14012,598;    0,163;    2,409
289,684;14070,264;    2,890;    1,500
290,280;14082,461;    1,890;    0,682
290,876;14128,769;    0,163;    5,500
291,472;14079,111;    2,163;    2,227
292,068;14153,624;    1,254;    0,227
292,665;13863,512;   -0,564;    0,773
293,261;13391,242;   -1,292;    2,136
293,857;13835,990;    4,072;    2,136
294,453;13773,460;   -0,928;    0,955
295,049;13629,519;    0,253;    1,955
295,644;13662,721;   -1,292;    0,136
296,240;13573,727;    0,162;   -0,136
296,836;13669,451;   -0,747;    0,318
297,432;13949,242;    2,980;   -0,500
298,028;13981,035;    0,435;    0,773
298,624;14452,567;    0,889;    1,864
299,220;14769,731;    0,435;    0,591
299,815;14364,807;    0,526;   -0,409
300,411;14138,519;    0,435;    1,773
301,007;14154,101;    1,889;    0,227
301,602;14240,162;    2,071;   -2,318
302,198;14408,835;    1,435;   -0,773
302,794;14792,036;    1,526;   -0,500
303,389;14922,971;    1,071;    1,045
303,985;15014,781;    1,253;    1,409
304,580;14971,210;    0,889;    1,591
305,176;14965,849;    0,344;    0,136
305,771;14923,867;   -0,929;   -1,227
306,367;14633,620;    3,071;    0,136
306,962;15061,253;    2,889;    1,500
307,558;14804,641;    2,435;    0,136
308,153;14762,403;   -0,383;   -1,136
308,748;15012,865;    0,162;    1,682
309,344;14994,744;    0,253;   -1,318
309,939;15081,974;    2,071;   -1,318
310,534;15390,404;   -2,020;   -1,682
311,130;15372,030;   -0,656;   -2,500
311,725;15082,643;    0,526;   -0,500
312,320;15415,237;    1,253;    0,045
312,915;15251,595;    2,890;   -1,045
313,510;15300,775;    0,526;   -0,500
314,105;15877,226;   -3,565;    1,409
314,700;15244,202;   -1,656;   -1,045
315,295;14812,210;   -0,020;    0,045
315,890;14306,327;   -0,292;    0,864
316,485;14722,024;    0,253;   -0,318
317,080;14822,088;   -0,929;    1,591
317,675;15418,154;    3,071;   -0,682
318,270;14699,514;    6,889;    3,318
318,865;14755,596;    2,435;    3,045
319,460;14587,674;   -1,565;    0,591
320,055;14876,397;   -2,565;   -1,227
320,650;14488,685;   -1,838;   -0,591
321,244;14499,711;    0,889;   -1,409
321,839;15612,954;    0,980;   -0,227
322,434;15481,237;   -0,111;   -1,591
323,029;15030,771;   -0,474;    1,591
323,623;14871,410;    0,798;    0,773
324,218;14585,985;    2,707;    1,409
324,812;14511,045;    0,889;    1,591
325,407;14310,402;   -0,929;    2,045
326,002;14183,112;    0,526;   -0,409
326,596;14516,359;   -0,656;    1,318
327,191;14822,616;   -0,383;   -1,045
327,785;14347,904;   -0,747;   -0,227
328,379;14595,376;   -0,383;    0,136
328,974;14373,773;    1,798;   -3,955
329,568;14620,723;    2,889;   -2,409
330,163;14429,639;    2,435;    1,045
330,757;14841,197;    0,253;    1,591
331,351;14100,865;   -0,292;    0,682
331,945;14377,301;   -0,383;    1,409
332,540;13918,328;    1,617;   -0,591
333,134;14059,908;    3,344;    0,773
333,728;14279,932;    2,799;    0,318
334,322;14652,574;    0,889;   -0,864
334,916;13926,240;    0,344;    0,955
335,510;14239,700;   -0,111;   -0,136
336,105;14524,525;   -0,929;    1,591
336,699;14178,172;   -1,292;    0,591
337,293;14098,645;    1,071;    0,318
337,887;14293,997;    0,071;    1,955
338,481;14364,171;    2,980;    0,591
339,074;14510,414;    2,071;    2,682
339,668;14285,248;   -0,110;    1,227
340,262;14540,950;    7,708;    3,227
340,856;14032,928;    1,708;   -0,682
341,450;13343,516;    0,708;    1,864
342,044;14276,281;    1,799;    0,136
342,637;14035,397;    1,162;   -2,136
343,231;13867,859;   -1,474;    0,682
343,825;13790,345;   -0,747;   -0,591
344,419;13723,715;   -0,474;    0,500
345,012;13420,127;    2,889;    4,045
345,606;13436,952;   -0,656;    1,591
346,199;13256,786;   -0,111;   -0,227
346,793;12741,256;    2,525;    2,045
347,386;12954,094;    0,889;   -1,136
347,980;12944,188;   -0,838;   -0,045
348,573;12695,657;   -1,748;    0,409
349,167;12258,564;    6,161;    4,773
349,760;12682,159;    2,252;    2,682
350,354;12694,343;    1,616;    1,136
350,947;12362,371;    2,798;    1,682
351,540;12016,387;    0,616;   -1,409
352,134;11969,374;   -1,111;    1,136
352,727;11975,419;   -0,657;    1,136
353,320;11761,176;    2,343;    0,591
353,913;11622,805;   -1,929;    1,864
354,507;11788,938;    0,434;   -1,227
355,100;11819,342;    0,071;    0,864
355,693;10904,668;    4,798;    2,409
356,286;10920,275;    0,980;    2,773
356,879;11364,176;   -0,475;    1,227
357,472;10950,052;    0,980;    1,500
358,065;11086,430;    3,161;    2,500
358,658;11053,440;    0,798;    2,318
359,251;10612,366;    0,252;   -0,591
359,844;10006,405;    0,343;   -1,136
360,437;10199,144;    0,252;    0,045
361,030;10502,697;    0,525;   -0,682
361,623;10052,867;    0,434;    0,318
362,215;10076,529;    0,979;    2,045
362,808; 9904,761;   -2,293;   -1,682
363,401;10098,039;    0,798;    0,136
363,994; 9802,658;    3,252;   -1,500
364,586; 9720,084;    0,888;   -1,500
365,179; 9966,602;   -0,203;   -1,136
365,772; 9384,958;   -0,930;    2,045
366,364; 9723,446;    1,524;   -3,227
366,957; 9926,060;    1,342;   -0,045
367,549; 9949,629;   -0,203;   -0,864
368,142; 9541,055;    0,978;   -1,500
368,734; 9754,487;    2,523;   -2,136
369,327; 9714,873;    2,341;   -0,500
369,919; 9618,108;   -1,659;    0,409
370,512; 9333,102;   -1,023;   -0,500
371,104; 9042,256;    2,704;    1,591
371,696; 9219,069;    1,703;   -0,955
372,289; 9343,416;    0,157;    1,136
372,881; 9501,525;    1,156;    1,318
373,473; 9469,199;    4,064;    1,136
374,066; 9241,283;    1,336;    0,500
374,658; 9052,823;    0,879;    1,136
375,250; 9444,001;   -1,668;   -1,409
375,842; 9240,936;   -0,124;   -0,045
376,434; 9106,092;   -2,762;   -0,409
377,026; 9767,586;   -1,855;   -2,500
377,618; 9685,114;    0,779;   -0,682
378,210; 9509,341;    3,141;   -1,955
378,802; 9343,336;    3,412;   -0,591
379,394; 9233,269;    3,411;    0,682
379,986; 9936,232;    1,138;   -0,955
380,578;10060,963;    1,410;    0,773
381,170; 9285,538;    0,320;    0,045
381,762; 9260,440;   -0,224;    1,409
382,354; 9524,695;   -0,223;   -1,318
382,945; 9629,463;    0,870;    0,318
383,537; 9789,821;    1,144;   -1,955
384,129; 9801,636;    0,963;   -1,136
384,721;10016,899;    0,418;    0,955
385,312; 9920,078;   -1,399;   -0,955
385,904; 9967,157;   -0,945;    1,591
386,496; 9286,417;    0,691;    1,045
387,087; 9452,813;    0,418;    2,500
387,679; 9524,661;   -0,401;    0,045
388,270; 9631,377;   -2,401;    2,045
388,862; 9783,726;   -0,401;   -0,318
389,453; 9631,733;    1,054;    1,045
390,045; 9922,973;    3,236;   -2,682
390,636; 9897,167;    0,144;   -0,591
391,227; 9737,726;    2,054;   -0,045
391,819; 9810,959;    0,781;    0,773
392,410; 9906,037;    0,600;    0,045
393,001; 9819,030;    1,600;   -1,591
393,593;10161,007;    0,600;   -0,045
394,184; 9959,137;    0,873;   -0,409
394,775; 9910,452;    1,146;    2,136
395,366;10141,480;    1,782;    0,773
395,957;10175,905;   -2,400;    0,136
396,548;10542,669;    1,054;    2,682
397,139;10856,424;    2,236;    0,591
397,730;10537,975;    0,873;    0,955
398,321;10609,359;    0,509;    0,955
398,912;10614,550;   -0,764;    0,136
399,503;10703,748;   -1,945;   -1,409
400,094;10101,188;   -1,582;    1,682
400,685; 9949,540;    3,600;    0,045
401,276;10060,109;   -0,400;   -0,955
401,867;10397,905;   -1,127;    0,773
402,458;10498,878;    1,509;   -2,318
403,048;10489,782;    0,146;    0,591
403,639;10053,158;    1,509;    0,864
404,230;10304,832;    0,691;    0,318
404,821;10222,294;   -0,127;    0,045
405,411;10316,932;   -0,763;   -2,591
406,002; 9866,650;    3,237;   -1,136
406,592; 9674,406;    2,691;    0,045
407,183;10038,807;    0,328;   -1,500
407,774; 9912,483;    1,419;   -0,136
408,364;10300,647;    2,600;    0,409
408,954; 9868,706;   -0,036;    1,227
409,545; 9913,590;    1,873;    1,045
410,135; 9369,916;   -1,581;    0,500
410,726; 9574,641;    0,783;    0,318
411,316; 9995,397;    2,237;    0,773
411,906; 9618,797;    0,146;   -0,409
412,497; 9063,337;   -0,490;   -0,045
413,087; 9716,511;    0,783;   -0,227
413,677;10195,584;   -2,490;    3,864
414,267; 9992,244;   -1,035;    1,409
414,857;10015,749;    0,419;    4,227
415,448;10292,677;   -0,763;    0,500
416,038; 9979,207;   -2,945;   -0,591
416,628; 9935,195;    0,965;    0,409
417,218; 9326,643;   -1,762;    3,318
417,808; 9614,330;    0,965;   -0,409
418,398;10170,189;   -1,035;    2,682
418,988;10216,925;   -2,217;    0,591
419,578;10483,965;    3,601;    1,409
420,168;10870,359;    0,692;   -0,955
420,757;10394,256;    0,964;   -1,500
421,347;10053,201;    1,601;   -0,227
421,937;10226,754;    3,329;    1,409
422,527;10116,045;    2,602;   -0,773
423,116; 9934,396;    2,692;   -0,045
423,706;10402,290;    2,965;    0,318
424,296;10382,455;    1,601;    0,682
424,885;10811,910;    1,510;   -3,045
425,475;11117,945;    1,147;   -2,864
426,065;11040,325;   -1,489;   -0,318
426,654;10599,553;    0,329;   -0,318
427,244;10690,284;    1,147;    1,409
427,833;10088,771;    1,056;   -0,500
428,423;10630,610;    0,147;    1,136
429,012;11515,473;    2,420;   -1,136
429,601;10928,623;    2,057;    0,136
430,191;11197,620;    2,511;    4,318
430,780;10765,411;   -1,671;   -0,409
431,369;10707,632;    1,329;   -0,045
431,959;11433,161;    1,693;    0,500
432,548;11185,311;   -1,398;   -0,045
433,137;11363,139;    0,329;   -1,318
433,726;11897,336;    0,148;    0,500
434,315;11199,833;    0,148;    2,409
434,905;11302,383;    0,693;    1,409
435,494;11188,067;    3,148;    0,955
436,083;11694,345;    1,420;   -0,955
436,672;11556,991;    1,148;    0,500
437,261;11054,506;    0,512;   -1,955
437,850;11173,389;   -1,125;    0,682
438,439;11132,212;    2,239;    1,955
439,027;10918,188;    3,421;    1,773
439,616;11366,571;    2,239;    1,227
440,205;11265,106;    0,057;   -2,136
440,794;11347,340;   -0,306;   -0,045
441,383;11636,063;    1,603;   -0,591
441,971;11498,393;   -0,306;    0,591
442,560;11314,173;    0,603;   -1,773
443,149;11130,119;    3,060;   -1,318
443,737;11265,935;    0,968;   -2,318
444,326;11503,743;    0,331;    0,318
444,915;11555,644;   -1,851;    0,864
445,503;12049,642;    0,058;   -0,318
446,092;11216,891;    7,876;    2,136
446,680;11817,199;    1,876;    0,318
447,269;12043,423;   -1,487;   -0,318
447,857;11742,046;    2,240;   -1,773
448,445;11906,319;    2,149;    1,318
449,034;12134,302;    0,876;   -1,136
449,622;12264,947;    1,240;    3,500
450,210;11377,126;    3,149;    2,227
450,799;11950,185;    2,604;   -0,591
451,387;11856,921;    1,786;   -0,591
451,975;11474,647;   -1,305;    0,864
452,563;11605,008;    0,422;    2,318
453,151;11682,888;   -1,032;   -1,227
453,739;11557,472;   -1,577;    0,136
454,328;11391,421;    0,604;   -2,136
454,916;11045,043;    1,150;   -0,136
455,504;11242,859;    3,513;    1,227
456,092;11468,692;    2,150;   -1,591
456,679;11462,866;    0,604;    0,682
457,267;11278,034;    3,604;    1,045
457,855;11515,829;    3,241;    1,409
458,443;11323,576;   -0,304;    1,682
459,031;11390,814;    1,332;    2,409
459,619;11925,399;   -3,577;    2,864
460,206;12103,962;   -0,759;    2,045
460,794;12153,476;   -0,668;   -0,227
461,382;12426,216;    0,878;   -0,864
461,970;11947,786;    0,605;    1,864
462,557;12028,438;    0,878;   -0,682
463,145;12253,949;   -0,304;   -1,682
463,732;12371,309;    2,514;   -1,045
464,320;12316,816;    1,514;   -3,045
464,907;11913,799;    0,423;   -0,773
465,495;11836,532;    2,696;   -1,227
466,082;11987,370;    2,060;   -0,045
466,670;11916,585;    2,605;    1,227
467,257;12340,396;    0,060;    2,045
467,844;12494,869;    1,514;    0,045
468,432;12480,481;   -0,031;    3,500
469,019;11943,046;    1,606;   -1,773
469,606;12476,970;    0,969;    3,682
470,193;12303,421;    2,151;    0,227
470,780;11820,690;    0,333;    0,864
471,368;12178,601;   -1,212;   -0,773
471,955;11893,889;    1,060;   -0,682
472,542;11460,413;   -0,303;   -1,136
473,129;11744,907;   -0,485;    0,136
473,716;11479,269;    0,060;    0,591
474,303;11744,195;    1,333;   -0,864
474,890;12081,714;    2,333;   -0,500
475,477;12044,881;   -0,576;    0,409
476,064;11959,851;    0,697;   -1,591
476,650;11904,815;    2,152;    0,318
477,237;11752,179;    1,879;    0,955
477,824;11933,171;    3,879;    0,864
478,411;11960,592;    0,606;   -0,318
478,997;12147,694;    0,606;   -0,773
479,584;12206,550;   -0,666;   -0,409
480,171;12998,631;    1,243;   -0,773
480,757;12653,163;   -0,848;    0,773
481,344;13000,160;    0,334;    0,409
481,931;12495,079;   -0,393;    1,045
482,517;13535,249;    0,425;    0,318
483,104;14194,516;    1,334;    2,864
483,690;14616,542;    0,243;    0,045
484,276;15056,214;    0,698;    0,227
484,863;14779,468;    2,152;    1,136
485,449;15425,638;    0,152;    0,318
486,035;15440,977;   -0,666;   -0,136
486,622;15853,074;   -2,393;    0,045
487,208;15842,522;    1,334;    1,500
487,794;15678,896;    0,971;    0,318
488,380;15795,691;    0,698;   -1,409
488,967;15889,018;   -1,120;   -0,409
489,553;15956,735;   -1,029;   -1,409
490,139;16114,719;    0,971;    0,773
490,725;15511,215;    0,789;   -0,227
491,311;15012,231;    1,516;    3,045
491,897;14196,438;   -0,665;    1,500
492,483;13922,811;    0,426;    1,227
493,069;13598,166;    5,426;    0,864
493,655;13633,177;    1,789;    0,682
494,241;13520,556;    1,517;   -0,955
494,826;13986,363;    0,335;   -1,045
495,412;13414,032;    0,335;   -0,682
495,998;13552,006;    0,971;   -0,318
496,584;13744,930;    2,244;    1,045
497,169;13723,080;    2,335;   -0,682
497,755;13660,895;    1,244;    1,227
498,341;14232,981;    2,153;    0,318
498,926;13752,719;    2,881;    1,955
499,512;14019,688;   -0,028;    2,955
500,097;14165,766;   -0,574;   -0,318
500,683;14065,120;   -0,028;    2,136
501,268;14463,260;    1,881;   -0,955
501,854;14165,964;   -0,119;    1,227
502,439;14099,290;   -0,573;   -1,773
503,024;14338,271;    1,608;    0,500
503,610;14392,643;    1,335;   -0,682
504,195;14431,223;    1,245;    1,955
504,780;14519,385;    2,335;    1,227
505,366;14340,607;    4,063;    2,864
505,951;14030,467;   -1,119;    1,045
506,536;14013,632;    1,427;   -3,682
507,121;14027,382;    1,699;   -0,318
507,706;14600,771;   -0,392;    1,045
508,291;15043,930;   -2,937;    1,136
508,876;14488,789;   -0,482;    2,591
509,461;13856,703;    1,427;   -0,773
510,046;14290,703;   -0,391;    0,318
510,631;14538,106;   -0,119;   -0,773
511,216;14206,917;   -0,664;   -0,500
511,801;14587,169;   -0,755;    2,591
512,386;14933,503;    0,972;    0,500
512,971;14876,193;    0,427;    0,955
513,555;14400,818;    1,154;   -1,500
514,140;15258,547;    1,336;   -3,136
514,725;15242,691;    1,791;   -1,136
515,309;15353,732;    1,064;    0,318
515,894;14777,599;   -0,300;   -2,227
516,479;15252,865;    1,973;   -0,955
517,063;15105,244;    0,882;    1,227
517,648;15258,551;    0,155;   -1,136
518,232;14876,722;   -1,300;   -1,409
518,817;15183,888;    1,337;    1,682
519,401;15429,713;    0,700;    0,591
519,985;14902,919;    2,700;    1,136
520,570;14798,285;   -0,118;   -1,955
521,154;15105,370;    0,064;    0,591
521,738;15268,968;    1,064;    2,409
522,323;15893,774;   -0,390;    1,682
522,907;15623,455;    2,428;   -0,136
523,491;15326,571;    1,155;    0,955
524,075;15318,464;    0,428;    0,591
524,659;15374,991;    0,973;    0,591
525,243;14787,240;    0,883;    0,409
525,827;15054,712;    0,883;   -0,045
526,411;15964,718;    1,155;   -0,136
526,995;16194,133;    0,337;    1,409
527,579;15748,171;    1,974;   -1,045
528,163;16092,520;    0,428;   -1,500
528,747;16015,387;    1,065;   -0,773
529,331;16360,105;    0,883;   -1,409
529,915;16543,388;    2,338;    0,955
530,499;16514,537;    0,247;    1,227
531,082;16151,608;    1,065;    1,591
531,666;15539,953;    0,520;    0,773
532,250;16310,098;    0,428;    2,682
532,833;16686,605;    0,610;    2,773
533,417;16587,928;    1,247;    0,864
534,001;16489,848;    0,429;   -0,318
534,584;17275,876;    1,974;    0,500
535,168;17093,131;    3,247;    1,409
535,751;17114,449;    4,520;    0,045
536,334;16556,343;    4,520;   -0,409
536,918;17197,987;    1,974;    1,591
537,501;17321,378;    1,520;    1,318
538,085;17296,164;    1,702;    1,045
538,668;17505,693;    0,883;    2,409
539,251;17815,949;    3,156;    3,773
539,834;17835,643;    0,156;    0,773
540,418;17777,093;    3,247;    4,318
541,001;17894,538;    2,702;    1,773
541,584;17937,627;    1,429;    2,227
542,167;17603,341;    0,702;    2,955
542,750;17775,723;    0,793;   -0,773
543,333;17325,603;    1,429;    2,136
543,916;18156,270;   -0,298;    2,500
544,499;18758,048;    2,520;    0,227
545,082;18741,404;    0,248;    3,591
545,665;18909,551;   -0,207;    1,500
546,248;19332,967;    0,520;   -0,318
546,830;18931,073;   -1,752;    1,955
547,413;19402,415;    0,157;   -0,773
547,996;19970,310;    0,157;    0,500
548,579;19771,783;   -0,843;    0,955
549,161;19543,139;    0,884;    2,682
549,744;19359,066;    0,612;    0,409
550,326;19874,447;    0,885;   -1,136
550,909;19579,440;    2,339;    0,591
551,492;20003,578;    0,521;    0,227
552,074;19820,541;   -0,024;   -1,318
552,657;20400,243;    2,430;    0,045
553,239;20158,558;   -3,024;   -0,773
553,821;20059,390;   -1,570;    1,045
554,404;19548,293;   -0,024;    1,136
554,986;19950,211;    2,248;    1,045
555,568;20548,344;    0,430;   -0,955
556,151;19738,055;    4,067;   -0,227
556,733;19941,533;   -1,388;   -0,864
557,315;20412,802;    4,703;    0,500
557,897;20249,372;    0,521;   -0,500
558,479;20437,603;    1,703;    1,318
559,061;20527,310;    1,067;   -0,864
559,643;20871,432;   -0,297;    0,045
560,225;21276,609;   -0,388;    2,864
560,807;21318,977;    0,340;    0,318
561,389;20803,267;   -1,206;    2,318
561,971;21519,404;   -0,660;    2,136
562,553;21305,351;    0,613;    1,591
563,135;21489,359;    1,249;    1,136
563,717;21066,408;    3,158;    1,136
564,298;21843,344;    3,976;   -0,045
564,880;21528,763;    0,340;   -1,409
565,462;21742,672;    1,977;    1,318
566,043;22990,428;   -0,933;    2,318
566,625;22500,237;    4,067;    1,227
567,207;22360,661;    0,704;    1,682
567,788;23505,612;   -0,114;    1,500
568,370;24453,698;   -1,841;   -0,500
568,951;24220,547;   -0,569;    0,227
569,533;25215,452;    0,977;   -0,500
570,114;25736,536;   -0,296;    0,682
570,695;26211,591;   -0,478;   -1,318
571,277;26821,328;   -0,205;   -1,682
571,858;27625,732;    2,704;   -1,136
572,439;28685,590;    0,795;   -1,045
573,021;28836,795;    0,432;   -2,773
573,602;29397,504;    1,795;    0,318
574,183;30406,671;   -0,114;    2,227
574,764;30605,704;    2,068;    0,409
575,345;31171,251;    0,250;   -0,136
575,926;31874,132;    2,704;    0,136
576,507;31860,677;    2,704;   -0,227
577,088;32969,281;    1,704;    1,682
577,669;32994,680;    1,704;    1,955
578,250;33858,126;   -0,750;   -1,045
578,831;34542,832;   -0,841;   -2,227
579,412;34868,209;   -1,205;    0,955
579,993;35788,747;    1,432;    0,227
580,573;36181,970;   -0,023;   -0,955
581,154;35125,812;    1,613;   -0,591
581,735;35995,911;    0,341;    0,773
582,315;35493,638;    0,523;    2,136
582,896;35831,613;   -1,750;    1,227
583,477;35266,178;    0,614;    1,227
584,057;35418,713;    1,159;    0,955
584,638;35734,110;   -2,750;    2,318
585,218;35728,606;    2,886;    2,682
585,799;35879,935;    1,977;   -0,227
586,379;35838,281;    1,250;    1,591
586,959;34606,101;    2,613;    0,318
587,540;33825,435;    0,432;    2,227
588,120;33258,340;   -1,113;   -0,045
588,700;32124,180;    2,977;    2,136
589,281;32448,449;    1,250;   -0,955
589,861;32343,987;   -0,296;   -1,682
590,441;32241,375;   -1,477;   -2,682
591,021;31105,920;    1,432;   -2,591
591,601;31366,800;    0,431;    0,500
592,181;31343,709;   -1,296;   -0,773
592,761;30624,239;    2,250;    1,409
593,341;30457,059;    1,522;    0,045
593,921;30452,793;   -0,569;    1,591
594,501;30292,588;    1,250;    1,318
595,081;30122,718;    0,522;   -0,318
595,661;30483,869;    1,068;    0,955
596,240;31018,743;   -1,023;    0,136
596,820;30622,253;    2,613;    1,955
597,400;30869,695;    1,977;    0,773
597,980;31082,345;   -0,750;    1,045
598,559;31069,851;    0,341;   -0,227
599,139;30781,356;   -0,750;   -1,227
599,718;30649,720;    0,795;   -0,409
600,298;30986,975;   -2,387;    0,682
600,877;31129,188;    4,795;    1,409
601,457;31497,880;    0,340;    1,136
602,036;31332,247;    1,795;    2,045
602,616;31561,155;    2,250;    1,682
603,195;31912,054;    0,431;    3,500
603,774;31371,253;   -0,296;    2,045
604,354;31317,691;    2,522;   -0,500
604,933;30812,593;    0,250;    1,864
605,512;30915,592;    2,340;    0,591
606,091;30981,780;    1,886;    3,773
606,671;31779,219;    0,249;    0,773
607,250;30753,418;    1,431;    3,136
607,829;31060,497;    1,158;    3,227
608,408;30888,912;    4,613;    2,591
608,987;29928,742;    2,704;    3,409
609,566;30257,059;    0,341;   -2,500
610,145;30278,652;    2,885;    0,682
610,723;30742,355;    1,613;    6,864
611,302;29879,849;    1,067;    1,682
611,881;29373,098;    5,158;   11,227
612,460;30257,544;    0,795;    3,955
613,039;30660,046;    1,703;    2,045
613,617;29364,564;    0,886;    4,773
614,196;29578,396;    1,613;    1,227
614,775;29888,269;    1,249;    2,409
615,353;29869,143;   -1,660;    0,864
615,932;29508,681;    0,249;    2,409
616,510;30148,260;    0,158;    0,591
617,089;29612,582;    8,794;   17,591
617,667;29352,598;    4,885;    6,136
618,246;29144,258;   -1,115;    1,318
618,824;29275,258;    1,612;   -0,955
619,402;28842,085;    0,431;   -1,773
619,981;29329,885;    1,067;   -1,045
620,559;29267,685;    0,794;    1,682
621,137;28797,793;    3,067;    1,864
621,715;28701,224;    3,703;   -0,682
622,293;28674,570;    1,885;   -0,773
622,871;29146,438;    0,340;    0,500
623,450;28604,972;    0,430;   -0,864
624,028;28535,983;   -0,388;   -0,955
624,606;28111,923;    2,339;    1,682
625,183;28568,955;   -0,661;   -1,136
625,761;28181,037;    1,885;    1,136
626,339;28459,023;    2,339;    2,591
626,917;28853,679;    0,339;   -0,045
627,495;28927,919;    2,794;    1,318
628,073;28269,281;    5,248;    2,864
628,650;27937,086;    3,067;    2,136
629,228;28429,972;    1,248;    4,409
629,806;27758,648;   -0,024;    1,136
630,383;28017,199;    0,066;   -0,318
630,961;27793,317;   -2,206;   -0,955
631,539;27535,058;   -2,479;    0,227
632,116;26781,317;   12,703;   15,409
632,694;27409,125;    4,885;    6,500
633,271;27667,253;    1,975;    2,682
633,848;27606,098;    1,430;    2,045
634,426;27695,136;    1,521;    1,773
635,003;26755,801;   -0,207;   -0,409
635,580;27045,949;    1,884;    3,682
636,158;27661,969;    3,793;    1,227
636,735;27606,559;    3,339;   -0,500
637,312;27811,834;    0,521;   -0,682
637,889;27864,697;    2,248;   -0,682
638,466;27309,353;    0,066;   -0,409
639,043;27344,779;    1,702;   -1,136
639,620;27645,647;    0,611;   -0,955
640,197;27925,425;    1,612;    1,682
640,774;28131,309;    1,430;    1,136
641,351;28540,103;    0,612;    1,136
641,928;27901,351;    2,794;    1,409
642,505;27574,599;    0,794;   -0,500
643,082;27666,574;    1,885;    1,227
643,658;26648,731;    1,157;    1,500
644,235;27426,616;   -2,479;    2,500
644,812;27725,954;    1,794;    0,773
645,388;27493,657;    1,612;    1,409
645,965;27547,360;    1,521;    1,682
646,542;27603,517;    3,430;   -0,227
647,118;27619,765;    3,703;   -0,955
647,695;27922,195;    0,339;    1,136
648,271;27781,897;   -2,115;    0,500
648,848;28115,145;    0,248;    2,227
649,424;27940,029;    0,976;    1,318
650,000;27683,187;   -0,388;   -1,045
650,577;27579,162;    0,158;   -0,955
651,153;27989,228;   -1,115;    0,955
651,729;28993,385;    0,521;    0,864
652,305;29224,997;    1,339;    2,773
652,881;33968,972;   -1,297;    1,136
653,458;41505,584;    0,249;    0,227
654,034;45648,468;    0,703;    1,591
654,610;47360,353;    0,339;    0,773
655,186;48808,146;    1,612;    3,045
655,762;48562,030;   -1,842;    0,409
656,338;48573,006;    0,703;    0,136
656,913;49647,799;   -0,297;    0,409
657,489;48915,865;    0,249;   -0,318
658,065;48897,204;    0,794;   -1,591
658,641;49443,998;    2,158;   -0,864
659,217;48709,882;    2,067;    0,409
659,792;48112,130;   -1,751;   -0,409
660,368;48406,378;   -0,388;   -0,682
660,944;48106,353;    1,794;    1,227
661,519;43186,238;    0,522;    0,409
662,095;36470,395;   -0,206;    0,591
662,670;31400,279;   -0,206;   -0,136
663,246;30048,345;   -0,660;   -0,409
663,821;29288,775;    0,431;    1,682
664,396;28807,387;    0,613;    1,864
664,972;29058,817;   -0,660;   -0,500
665,547;29357,519;    3,794;    0,136
666,122;29361,767;    1,340;    0,318
666,698;29648,197;    2,431;    0,318
667,273;28988,263;    0,885;    0,136
667,848;29804,330;    0,340;    1,500
668,423;29566,487;    1,795;    2,318
668,998;30170,189;    0,976;   -0,682
669,573;30758,983;    2,067;   -1,500
670,148;30554,594;    1,885;   -0,682
670,723;30389,115;   -0,024;    0,318
671,298;30852,272;   -1,296;    1,045
671,873;30944,338;   -0,296;   -0,136
672,448;30886,314;    1,704;    0,136
673,023;31245,016;    0,249;   -0,227
673,597;31556,901;    2,704;    2,318
674,172;31312,694;    2,431;    0,318
674,747;30783,942;   -0,205;   -1,045
675,321;30623,099;   -0,933;    3,318
675,896;30168,529;    2,158;    1,045
676,471;31194,686;    2,522;    1,591
677,045;30999,661;   -0,296;    0,682
677,620;31065,364;    2,158;    1,136
678,194;31398,430;    0,249;    1,136
678,769;30922,769;    0,886;   -0,318
679,343;31123,290;   -0,023;    1,773
679,917;31010,992;    0,340;    1,955
680,492;31070,240;    0,249;    3,227
681,066;31199,216;    0,613;    0,409
681,640;31276,100;    1,795;   -0,318
682,214;32132,530;    2,340;    0,500
682,788;31546,596;    0,613;   -0,773
683,363;31509,480;    1,977;    1,682
683,937;31226,819;    0,886;   -0,318
684,511;32080,522;   -1,023;   -0,591
685,085;31744,043;   -1,478;    0,318
685,659;31484,473;    1,431;    0,864
686,232;31668,357;    1,159;   -0,318
686,806;31422,969;    2,159;    0,409
687,380;32111,671;   -1,932;    0,591
687,954;32385,646;    2,432;    1,136
688,528;31967,349;    2,613;    1,955
689,101;32801,688;    0,432;    1,045
689,675;32332,572;    0,886;   -0,136
690,249;31698,275;    3,432;    0,409
690,822;32023,432;    1,159;    0,318
691,396;32141,953;    2,068;    1,227
691,969;31549,655;    2,523;    0,136
692,543;32042,358;   -0,568;   -1,955
693,116;31673,060;   -0,659;   -1,409
693,690;31506,581;   -0,296;    0,500
694,263;32054,829;    2,341;    2,955
694,836;32099,168;    2,795;    3,591
695,410;30712,689;    1,159;    1,773
695,983;31200,573;    1,614;    0,591
696,556;31148,185;   -0,750;   -1,045
697,129;31514,615;   -1,114;    1,409
697,703;31143,499;    1,341;    1,955
698,276;31213,838;    1,705;   -0,773
698,849;30970,177;   -1,023;    1,409
699,422;31298,425;    1,250;    0,591
699,995;30977,855;   -0,659;    0,136
700,568;31498,921;   -0,204;    3,045
701,140;31565,078;   -1,841;    1,682
701,713;31259,235;    0,341;    2,409
702,286;31011,029;    0,796;    0,864
702,859;30879,731;    0,614;   -0,591
703,432;30021,070;   -0,841;    0,682
704,004;30528,954;    1,978;    0,318
704,577;30401,657;    1,068;    0,136
705,150;30990,814;    0,887;    2,500
705,722;30765,971;    1,523;   -3,227
706,295;30494,037;    1,432;   -0,591
706,867;30317,649;    0,250;    1,955
707,440;30587,624;   -0,113;   -0,409
708,012;30814,327;   -0,022;    0,591
708,584;30737,575;    2,705;    0,227
709,157;31089,914;    1,160;   -0,591
709,729;30671,707;    1,069;    2,045
710,301;31597,864;   -1,204;    0,045
710,874;31608,840;    0,341;   -0,227
711,446;30448,451;   -0,295;    0,864
712,018;30315,608;   -3,022;    0,500
712,590;30010,947;   -0,204;    1,682
713,162;30581,832;   -0,477;    1,318
713,734;30848,171;    1,796;   -2,045
714,306;30708,782;    0,342;   -0,409
714,878;29383,848;   -0,295;    0,864
715,450;30166,460;   -0,113;    0,864
716,022;30476,072;    2,433;    1,318
716,593;30672,229;    0,978;    0,591
717,165;30584,659;    1,796;   -1,227
717,737;30213,725;    0,796;    0,409
718,309;29929,518;    1,160;   -0,045
718,880;29889,857;   -1,295;   -1,409
719,452;30110,378;    0,887;   -1,591
720,024;29590,990;    1,705;   -0,591
720,595;30138,692;    2,978;    0,955
721,167;29727,395;    1,160;   -2,045
721,738;29176,461;    2,069;   -1,045
722,309;29091,709;    1,251;   -1,227
722,881;28872,321;    2,705;    0,773
723,452;29594,387;    1,251;    2,864
724,023;29758,817;    1,524;    2,682
724,595;29563,065;    2,342;    0,682
725,166;29285,131;    1,524;   -0,409
725,737;28942,833;    1,887;    0,227
726,308;29071,354;    0,797;    0,318
726,879;29474,602;    1,069;    1,227
727,450;29315,577;   -2,022;   -0,045
728,021;29272,825;    1,069;    0,682
728,592;29093,983;    1,160;    0,500
729,163;29352,049;    1,433;   -0,136
729,734;29342,660;    2,160;   -0,227
730,305;29704,818;    0,615;    0,136
730,876;30101,338;    0,888;    2,955
731,447;29773,223;    0,797;    2,682
732,017;29921,380;   -0,840;    1,864
732,588;29421,537;   -0,021;    1,227
733,159;29631,149;    3,615;   -1,045
733,729;29438,942;    1,251;    0,409
734,300;28655,008;    0,160;    0,864
734,870;29059,074;   -1,385;    0,591
735,441;29684,868;    0,888;   -0,591
736,011;29355,934;    1,070;   -1,591
736,582;29323,000;    1,251;    0,045
737,152;28759,521;    0,979;   -2,045
737,722;29292,587;    1,070;   -0,682
738,293;29000,562;   -2,021;    1,318
738,863;28847,265;    1,797;    2,318
739,433;28635,058;    4,524;    0,318
740,003;29292,852;    1,524;   -0,682
740,573;28678,282;    2,252;   -1,591
741,143;28687,166;    3,615;    0,318
741,713;29419,051;    0,252;   -0,500
742,283;29057,299;    1,706;    1,591
742,853;28823,092;    0,524;    1,591
743,423;28276,976;    0,161;    0,045
743,993;28394,043;    1,070;    1,500
744,563;27684,382;    2,524;   -0,864
745,133;27617,539;   -0,112;   -0,864
745,702;28410,605;    2,797;    1,773
746,272;27545,126;    0,434;    0,591
746,842;27311,464;   -0,748;   -0,591
747,411;27703,894;   -0,839;   -0,318
747,981;27907,779;   -0,930;    0,500
748,551;28040,481;   -0,021;   -1,045
749,120;27875,184;   -0,112;   -0,227
749,690;28248,341;    2,161;    2,409
750,259;28580,589;    0,979;    2,955
750,828;28481,201;    4,070;   -1,955
751,398;28687,721;   -0,112;   -0,045
751,967;28161,242;    2,888;    0,409
752,536;28434,036;    1,161;   -0,227
753,105;28867,920;   -1,384;    0,227
753,675;28680,441;   -0,112;    1,773
754,244;28640,507;    0,888;    3,591
754,813;28663,391;    0,979;    1,227
755,382;28257,821;    0,798;    0,955
755,951;28760,069;   -0,112;    3,682
756,520;28293,499;    2,525;    1,864
757,089;28862,747;    1,888;    0,500
757,658;29022,449;    2,434;    1,227
758,227;29043,061;   -1,111;    0,318
758,795;29343,945;   -1,021;    1,136
759,364;29637,375;    0,525;   -0,591
759,933;28550,442;    1,343;   -0,045
760,501;28170,053;    0,252;   -1,318
761,070;28612,210;   -0,293;   -1,409
761,639;29323,367;    1,434;    1,318
762,207;28626,434;    0,889;   -0,955
762,776;28481,500;    2,889;    0,864
763,344;28451,021;    0,071;    0,591
763,913;27591,450;    1,616;    1,409
764,481;28346,607;    1,980;   -0,136
765,049;28150,674;    0,616;    1,409
765,618;27994,649;    1,434;    0,318
766,186;28109,442;    2,434;    0,136
766,754;28294,690;    1,798;    1,864
767,322;27223,848;    1,162;    0,409
767,890;27340,550;    0,525;   -1,773
768,459;27684,525;    2,616;   -0,318
769,027;27811,501;    2,525;    3,409
769,595;26818,930;    2,616;    2,591
770,163;27202,724;    3,344;    2,955
770,730;26930,063;    2,525;   -0,136
771,298;26817,402;    1,162;   -1,409
771,866;26911,650;    0,253;    4,955
772,434;27238,080;    1,162;   -1,864
773,002;27387,146;    2,616;    0,682
773,569;26997,576;    1,071;    1,682
774,137;26792,278;    0,889;   -0,045
774,705;27616,708;   -0,747;   -0,136
775,272;27026,229;    0,253;    0,682
775,840;26863,659;   -0,111;    2,682
776,407;26337,270;   -0,293;    1,955
776,975;25889,973;    1,162;    0,318
777,542;26977,039;    2,162;   -0,045
778,110;26844,196;    0,707;   -0,045
778,677;26496,081;    1,071;   -0,864
779,244;26225,783;   -1,020;    1,045
779,812;26392,122;    0,980;    0,864
780,379;26158,279;    2,435;    1,136
780,946;26390,982;    2,617;   -0,773
781,513;26711,593;   -0,565;    0,318
782,080;26021,569;    1,253;    2,864
782,647;26807,817;    1,708;    3,045
783,214;26432,337;   -0,201;    3,864
783,781;26013,858;    1,708;   -0,682
784,348;25878,470;    0,253;    1,500
784,915;26333,536;   -1,474;    0,318
785,482;26097,238;    2,708;    2,591
786,049;26574,759;    1,071;   -0,591
786,615;26707,825;    1,708;   -0,955
787,182;26440,528;   -3,201;   -0,682
787,749;26106,776;   -2,201;    1,409
788,315;25377,206;    0,253;   -0,409
788,882;25680,545;    0,981;   -1,227
789,448;26376,975;    1,435;   -0,955
790,015;26415,495;    1,799;    3,227
790,581;25957,107;    0,708;    0,227
791,148;25800,537;    1,344;    1,045
791,714;26045,603;   -1,019;    3,136
792,280;25728,851;    3,708;    1,591
792,847;25301,281;   -0,928;    2,500
793,413;25892,438;   -0,110;   -0,318
793,979;25419,504;    1,526;   -1,318
794,545;25433,025;    2,981;    2,682
795,111;24809,455;    2,435;    1,318
795,678;25032,339;    3,526;   -1,682
796,244;24720,496;    2,799;    0,136
796,810;25293,926;    0,799;    0,773
797,375;24914,992;   -0,292;   -2,136
797,941;24964,967;   -1,110;    0,591
798,507;25108,125;    0,254;   -0,955
799,073;24646,009;    2,708;    0,591
799,639;24717,893;    1,435;    3,136
800,205;24707,050;   -1,565;    2,682
800,770;24240,117;    1,345;    1,773
801,336;24283,637;    2,981;   -0,955
801,901;23946,885;    6,072;    3,136
802,467;24548,679;    0,526;    2,045
803,033;23842,563;   -0,019;    0,864
803,598;24046,266;    1,072;   -1,045
804,163;24130,332;    0,708;   -0,318
804,729;24029,853;   -0,110;    1,136
805,294;24494,555;    1,072;    2,227
805,859;24301,349;    0,890;   -0,409
806,425;23726,324;    3,890;    2,682
806,990;23404,572;    1,890;    4,318
807,555;23972,184;   -0,110;    2,591
808,120;23824,614;   -1,292;   -0,409
808,685;23853,589;    1,072;   -2,500
809,250;23318,837;    2,072;   -0,500
809,815;23643,994;   -0,201;    0,682
810,380;24178,060;    0,981;    1,591
810,945;24686,035;    2,890;    2,045
811,510;23922,647;   -0,200;    1,591
812,075;23640,531;    2,800;   -1,409
812,640;23634,689;    3,709;    1,409
813,204;23629,118;    2,163;   -0,227
813,769;24169,912;    0,254;   -0,045
814,334;23543,251;    0,527;    0,864
814,898;23615,317;    1,981;    0,591
815,463;23418,747;    0,981;   -0,773
816,027;23394,268;    1,345;   -2,318
816,592;23527,243;    2,163;   -2,045
817,156;22995,218;   -2,200;    1,136
817,721;22796,193;    0,982;    2,318
818,285;22726,623;    0,618;    1,500
818,849;23421,599;   -0,018;    1,682
819,414;23306,937;    0,073;    2,955
819,978;22855,640;   -0,291;    1,773
820,542;23466,433;    2,891;    0,500
821,106;23230,227;    2,800;    0,682
821,670;23317,748;    2,709;    2,591
822,234;22956,178;    1,073;    1,409
822,798;22357,244;   -0,836;    0,500
823,362;22352,037;    1,527;    4,227
823,926;21651,012;   -0,018;    1,136
824,490;21866,351;    3,527;   -0,682
825,054;22309,236;    2,527;   -1,136
825,618;21882,666;   -1,200;   -1,500
826,181;21821,368;    0,982;   -1,318
826,745;21669,071;   -0,745;   -1,045
827,309;22057,591;    2,255;    1,318
827,872;21460,385;    0,527;    0,955
828,436;22461,451;    1,982;   -0,773
828,999;22543,699;    2,436;    1,227
829,563;21361,856;   -0,654;    1,136
830,126;21157,922;   -0,018;   -0,591
830,690;21134,807;    0,709;    2,864
831,253;20608,691;   -0,473;    2,227
831,816;20782,757;   -0,018;    0,500
832,380;20735,551;    1,164;    0,864
832,943;20902,890;    3,073;   -0,500
833,506;20411,501;    0,255;   -1,227
834,069;21244,204;    2,164;   -0,955
834,632;21300,179;   -2,200;    1,318
835,195;21179,518;    1,346;    0,955
835,758;20340,584;    0,709;    1,955
836,321;20170,923;    1,073;   -1,045
836,884;20271,626;   -1,291;   -0,955
837,447;20323,328;    0,528;    1,773
838,010;20562,213;    1,800;    3,227
838,573;20908,824;    0,528;    0,773
839,135;20852,163;   -0,109;   -0,955
839,698;20288,230;    2,528;    0,409
840,261;19782,296;    0,255;   -0,227
840,823;19636,089;   -0,927;    0,864
841,386;19930,428;   -0,018;   -2,409
841,948;19792,313;    0,255;    1,773
842,511;19504,833;    0,255;    1,682
843,073;19676,172;    2,982;    0,227
843,636;19458,238;    0,619;   -0,227
844,198;19346,941;    1,255;    0,591
844,760;19515,734;    0,619;    1,955
845,322;19137,164;    0,164;    1,136
845,885;19556,321;   -0,290;    0,591
846,447;20010,115;    0,710;    0,227
847,009;19513,272;    3,983;   -0,682
847,571;19895,156;    1,346;   -2,045
848,133;20013,132;   -0,199;   -1,864
848,695;19849,289;    2,346;    1,409
849,257;19379,900;    1,346;   -1,682
849,819;19567,239;    2,983;   -0,409
850,381;19582,669;    1,801;   -0,864
850,942;19990,372;    1,892;   -0,591
851,504;19902,711;    0,983;    0,227
852,066;19949,868;    1,619;   -1,591
852,628;19471,570;    0,165;    1,955
853,189;18987,364;    0,256;    2,682
853,751;19153,430;   -0,654;    1,409
854,312;18953,769;    1,256;   -1,682
854,874;19458,835;   -0,108;   -0,773
855,435;19974,628;    0,528;   -1,682
855,997;20107,149;    3,983;   -0,136
856,558;19318,034;    0,801;    1,773
857,119;19469,282;   -0,744;    2,864
857,681;19143,530;   -0,108;    0,318
858,242;19198,141;    1,347;   -2,136
858,803;19695,298;    1,074;   -0,773
859,364;20273,274;    0,892;   -4,773
859,925;19584,976;   -0,290;   -0,955
860,486;19499,770;    0,529;   -0,955
861,047;19184,109;    0,165;   -1,227
861,608;18948,902;    0,165;   -0,773
862,169;19166,423;   -0,562;   -0,045
862,730;18911,944;   -0,290;    1,409
863,291;19136,010;    0,438;   -0,500
863,852;19453,894;   -0,926;    1,955
864,412;18927,869;   -1,835;   -0,864
864,973;17447,572;    1,892;    0,500
865,534;17253,456;    2,074;    0,227
866,094;18835,613;    2,620;    0,227
866,655;18444,498;    4,711;    3,318
867,215;18768,291;    0,074;    0,136
867,776;18627,448;   -1,199;   -0,136
868,336;18715,696;    1,529;    0,136
868,897;18128,308;    3,438;    1,682
869,457;17876,465;    3,256;    0,318
870,017;18149,531;    2,438;   -1,227
870,578;18683,416;    1,893;    0,773
871,138;18348,755;    2,620;   -0,955
871,698;17882,912;   -0,562;   -1,318
872,258;17710,614;    0,711;   -2,864
872,818;18102,681;    2,347;    0,045
873,378;18067,292;   -2,198;    1,045
873,938;17615,813;    4,984;    0,500
874,498;17942,697;    1,256;   -1,955
875,058;17817,309;    4,347;    1,773
875,618;17666,739;    1,438;   -2,682
876,177;17610,078;   -0,471;    0,136
876,737;17179,144;   -0,289;    1,955
877,297;17169,210;    2,711;    1,955
877,856;17169,367;    2,529;    0,318
878,416;17101,342;    2,438;   -0,136
878,976;17367,863;    3,438;    0,409
879,535;17568,566;    4,529;    3,136
880,095;17274,905;    1,347;    0,045
880,654;17390,335;    0,347;    1,318
881,213;17474,673;    2,347;    1,500
881,773;17138,921;    1,984;    2,682
882,332;17434,351;    6,075;    5,136
882,891;17375,963;    0,711;    2,136
883,451;17838,666;   -2,016;    1,682
884,010;17299,641;   -1,107;   -0,409
884,569;17399,071;   -2,289;   -0,045
885,128;17548,228;   -0,743;   -1,864
885,687;17564,567;   -0,743;    0,682
886,246;17210,724;    2,620;    2,136
886,805;16968,972;    1,620;    2,045
887,364;17301,765;    1,166;   -0,500
887,922;17706,650;   -0,016;    0,045
888,481;17200,170;    1,530;    0,591
889,040;17512,691;    3,711;    2,136
889,599;18225,303;    2,166;    1,409
890,157;18258,369;    2,166;    2,409
890,716;17904,617;    2,166;    0,227
891,274;17706,229;    0,075;   -1,136
891,833;18165,113;    1,166;    0,864
892,391;18031,906;    1,802;    0,500
892,950;18126,791;    0,166;   -0,773
893,508;18451,766;    0,984;   -0,409
894,067;17792,196;   -0,379;    0,136
894,625;17729,444;   -1,016;   -1,500
895,183;17929,965;   -0,198;   -0,682
895,741;17826,940;    2,257;   -1,773
896,299;17604,915;    1,621;   -2,409
896,858;17836,527;    1,530;   -1,591
897,416;17923,048;    0,166;   -1,318
897,974;17686,114;   -2,197;    0,318
898,532;17842,998;    6,530;    2,682
899,089;17693,701;    0,621;   -0,682
899,647;17749,494;    0,530;    1,318
900,205;17508,379;    0,257;    1,045
900,763;17693,808;    2,166;    0,227
901,321;17694,147;    3,530;   -1,409
901,878;17104,668;    3,257;   -0,773
902,436;16963,825;    0,257;    1,318
902,994;17383,164;    6,712;    3,682
903,551;16794,412;    1,439;    0,409
904,109;17255,478;    1,530;   -1,409
904,666;16845,635;    1,439;    1,045
905,224;16641,429;    3,894;   -0,409
905,781;16325,586;   -0,470;   -0,318
906,338;16400,925;    0,167;    1,045
906,895;16344,446;    1,894;    2,045
907,453;16271,785;    2,348;    1,136
908,010;16269,033;    3,348;    0,409
908,567;15886,644;   -0,561;    0,591
909,124;15411,620;    2,439;   -1,500
909,681;15534,686;   -1,288;    0,682
910,238;15677,661;   -0,106;   -1,318
910,795;15969,455;   -1,561;   -1,136
911,352;15595,364;   -0,379;   -2,682
911,909;15000,000;    2,803;   -0,864
912,466;15479,273;    1,985;    1,500
913,022;15057,182;   -0,924;    0,500
913,579;15429,000;   -0,470;    2,045
914,136;15116,455;   -2,561;    0,955
914,692;15466,091;    1,530;   -1,227
915,249;14987,364;    0,530;    0,409
915,806;15218,091;    1,803;    1,955
916,362;14898,727;    0,894;    1,864
916,918;14445,636;    2,439;    1,045
917,475;14441,545;    1,621;    0,955
918,031;14579,636;    0,076;   -0,045
918,587;13996,091;    0,621;   -0,318
919,144;14218,818;   -0,379;    0,227
919,700;14580,091;    0,167;    0,773
920,256;14154,636;    0,439;    0,045
920,812;13743,455;    1,439;   -1,045
921,368;13704,727;    1,348;   -1,045
921,924;13341,091;    0,439;   -0,136
922,480;12929,727;    0,076;    1,227
923,036;13570,636;   -0,652;    1,955
923,592;13497,909;    0,621;    0,318
924,148;13413,909;    1,894;   -0,955
924,704;12676,273;    0,258;   -0,409
925,259;12968,091;   -0,561;    0,591
925,815;12740,364;    3,803;    0,500
926,371;12278,182;    3,530;    1,409
926,926;12120,273;    1,621;    0,591
927,482;11737,273;    1,621;    0,773
928,037;11639,455;   -0,833;    2,045
928,593;11929,727;    0,258;    1,045
929,148;11760,000;    1,167;   -1,500
929,704;11252,818;    2,439;   -0,500
930,259;11451,636;    0,894;   -0,136
930,814;10513,909;    1,803;    1,955
931,369;10182,273;    0,258;   -0,773
931,925;10069,455;   -1,924;    0,136
932,480; 9921,636;    3,076;   -2,591
933,035; 9815,636;    3,985;   -0,318
933,590; 9560,000;   -1,742;   -1,773
934,145; 9211,182;   -1,288;   -0,318
934,700; 9569,727;    0,348;   -0,591
935,255; 9329,727;    4,803;    0,045
935,809; 8600,545;    6,258;    0,864
936,364; 7732,364;    2,167;   -0,136
936,919; 7708,182;    2,348;   -1,773
937,474; 7616,182;    1,348;    0,136
938,028; 7369,000;    3,076;    1,136
938,583; 6790,455;    6,348;    4,682
939,138; 7076,091;    0,167;    2,136
939,692; 6547,818;   -1,015;   -1,136
940,247; 6209,091;    1,167;   -1,045
940,801; 5742,182;    0,621;    0,227
941,355; 5649,000;    0,439;    2,591
941,910; 5321,182;    0,712;   -2,136
942,464; 5420,455;    2,712;   -0,318
943,018; 5164,909;    3,258;   -0,227
943,572; 5098,091;    2,803;   -0,682
944,126; 4489,182;   -0,924;   -0,409
944,681; 4384,818;    0,712;    0,227
945,235; 4390,909;    2,167;   -0,591
945,789; 4326,182;    1,258;   -1,864
946,342; 4392,636;   -0,561;   -0,591
946,896; 4221,182;    0,348;    0,955
947,450; 3970,636;   -0,561;   -0,227
948,004; 4141,636;    1,076;   -0,045
948,558; 4158,455;    1,258;   -0,864
949,111; 4084,273;   -1,197;   -0,318
949,665; 4120,364;   -0,106;   -0,682
950,219; 3976,455;    0,621;   -1,045
950,772; 4073,636;    0,258;    1,864
951,326; 3978,000;   -1,106;   -0,955
951,879; 4076,636;    1,076;   -2,318
952,433; 4095,727;    1,348;    2,227
952,986; 3942,273;    0,348;    0,682
953,539; 3877,364;    1,530;    0,591
954,093; 3809,818;    0,985;   -1,318
954,646; 3948,636;   -0,288;    1,318
955,199; 3762,636;    1,258;   -0,500
955,752; 3626,364;    1,985;    1,773
956,305; 3582,636;    0,894;    2,955
956,858; 3747,909;    0,621;   -0,318
957,411; 3947,545;    3,621;    2,136
957,964; 3772,273;    2,076;    2,136
958,517; 3752,273;    0,985;    3,136
959,070; 3575,364;   -1,197;    1,955
959,623; 3622,455;    1,076;    1,500
960,176; 3398,909;    0,712;    2,045
960,728; 3383,273;    1,712;    0,773
961,281; 3443,182;    2,258;    0,500
961,834; 3503,636;   -0,833;    0,864
962,386; 3411,091;    1,258;    1,045
962,939; 3327,455;    3,439;   -0,318
963,491; 3485,909;    2,621;    1,136
964,043; 3333,818;    0,076;    2,409
964,596; 3454,091;    1,712;    2,227
965,148; 3301,818;   -0,379;    1,773
965,700; 3246,545;   -0,015;   -0,227
966,253; 3377,636;   -0,833;    0,318
966,805; 3215,182;    1,894;    0,773
967,357; 3282,727;    0,439;   -1,500
967,909; 3208,909;    1,167;   -1,227
968,461; 3340,091;    0,894;    3,136
969,013; 3266,455;   -1,561;   -0,864
969,565; 3323,545;    1,803;   -1,136
970,117; 3402,091;    3,803;    1,045
970,669; 3245,455;    3,258;   -0,136
971,220; 3109,545;    2,167;   -1,500
971,772; 3026,000;    1,348;   -0,318
972,324; 3130,091;   -1,197;   -0,500
972,876; 3089,364;    0,167;   -0,045
973,427; 3221,000;   -1,197;   -1,045
973,979; 3190,636;    0,076;   -2,500
974,530; 3222,545;    0,803;    1,318
975,082; 3249,273;    2,167;    1,682
975,633; 3135,727;    2,894;    1,682
976,184; 3292,364;    2,076;    0,773
976,736; 3058,909;    0,348;    0,227
977,287; 2837,636;    0,258;   -0,500
977,838; 3032,818;   -0,924;   -0,318
978,389; 3094,545;    0,803;   -0,500
978,940; 2967,364;    1,258;   -0,409
979,491; 3002,364;    2,258;   -0,500
980,042; 2935,636;   -0,652;    3,045
980,593; 3021,636;    1,894;    0,227
981,144; 3061,182;    3,530;   -0,500
981,695; 3010,273;   -0,470;    1,500
982,246; 2982,364;   -1,833;    1,045
982,797; 3158,000;   -0,561;    0,682
983,347; 3250,091;    2,167;    0,591
983,898; 3417,364;    4,167;    0,409
984,449; 3226,273;    2,530;    0,773
984,999; 3151,909;    1,894;   -1,136
985,550; 2907,182;    3,167;   -0,318
986,100; 2974,364;    0,712;   -0,318
986,651; 3009,545;    0,258;    0,045
987,201; 2972,545;    0,894;   -0,591
987,751; 3063,455;   -0,288;    2,864
988,302; 3045,455;   -0,379;    1,500
988,852; 3070,364;    1,985;   -1,136
989,402; 3113,364;    0,985;    0,682
989,952; 3027,455;    1,621;    0,864
990,502; 3128,455;    1,076;    0,682
991,052; 3100,273;   -0,106;    0,045
991,602; 2940,091;    1,167;    1,318
992,152; 2946,727;    2,803;    0,682
992,702; 2927,455;    1,167;   -0,045
993,252; 2836,636;    0,076;   -0,500
993,802; 2917,727;    1,167;    1,318
994,352; 3186,091;   -0,742;    1,136
994,901; 3283,364;    1,076;    3,227
995,451; 3187,091;   -1,197;    0,318
996,000; 3271,364;    1,076;    0,318
996,550; 2970,909;    2,894;    0,227
997,100; 2993,000;   -0,561;   -0,045
997,649; 3279,364;   -0,197;    0,955
998,198; 2903,818;   -0,288;   -1,500
998,748; 3093,455;    0,348;   -2,318
999,297; 2992,273;    0,985;   -0,409
999,846; 3075,455;    1,894;   -0,773
1000,395; 3138,545;    1,530;    0,500
1000,945; 3068,091;    1,076;   -0,773
1001,494; 3156,727;    0,167;    0,682
1002,043; 3140,727;    0,712;    0,864
1002,592; 2964,364;    3,439;    1,955
1003,141; 3148,273;    2,439;   -0,682
1003,690; 2971,545;    1,258;    0,500
1004,238; 3047,455;   -0,106;   -0,045
1004,787; 2657,091;   -1,288;    1,227
1005,336; 2887,273;    1,621;    0,682
1005,885; 3052,364;   -0,197;   -2,773
1006,433; 3211,000;   -0,470;    0,955
1006,982; 3272,455;    2,167;    1,682
1007,531; 3191,364;    2,712;   -0,227
1008,079; 3136,455;    0,258;    0,500
1008,627; 3295,909;    1,621;    0,409
1009,176; 3014,000;    0,076;   -1,955
1009,724; 3059,091;   -2,742;    0,864
1010,273; 3091,545;    1,076;    0,500
1010,821; 3230,545;    1,076;    1,409
1011,369; 2953,818;    0,076;    1,318
1011,917; 2934,455;   -0,833;   -0,591
1012,465; 3235,273;    2,530;   -1,591
1013,013; 3346,636;    0,439;   -1,682
1013,561; 3206,818;   -1,288;   -0,773
1014,109; 3245,545;   -0,833;    1,682
1014,657; 3123,727;    1,348;    0,591
1015,205; 3224,273;    0,894;   -0,955
1015,753; 3301,727;    0,258;   -1,409
1016,301; 3351,182;    2,621;    3,045
1016,848; 3347,909;    2,167;    0,409
1017,396; 3355,909;    1,621;    0,045
1017,944; 3480,818;    2,621;    1,864
1018,491; 3236,545;   -0,197;    1,409
1019,039; 3406,091;   -0,652;    0,591
1019,586; 3328,909;    0,076;    1,682
1020,134; 3430,818;    0,712;    1,500
1020,681; 3432,818;    2,894;   -1,136
1021,228; 3473,818;   -0,561;   -2,227
1021,776; 3295,636;   -0,833;   -1,136
1022,323; 3491,545;    0,803;    0,773
1022,870; 3450,636;   -0,470;   -0,045
1023,417; 3327,273;    2,076;    1,864
1023,964; 3498,545;    0,621;    1,227
1024,511; 3320,636;   -0,652;    0,773
1025,058; 3103,364;    0,439;   -0,045
1025,605; 3169,727;   -1,742;    3,136
1026,152; 3366,182;   -0,106;   -0,591
1026,699; 3096,364;    0,167;    1,318
1027,245; 3264,636;    2,439;    0,318
1027,792; 3505,545;    0,712;    1,409
1028,339; 3378,273;    4,076;   -0,045
1028,885; 3226,091;    3,621;   -0,227
1029,432; 3154,182;   -0,106;    0,227
1029,978; 3215,545;    1,348;   -1,591
1030,525; 3108,455;    1,621;    0,409
1031,071; 3402,909;    0,348;    1,136
1031,618; 3460,182;    1,258;    1,682
1032,164; 3252,455;    2,076;    3,045
1032,710; 3287,273;    0,076;   -1,500
1033,256; 3218,636;    0,712;   -0,136
1033,803; 3207,364;   -0,288;    1,500
1034,349; 2943,727;    1,803;    0,136
1034,895; 3080,636;    2,621;   -0,318
1035,441; 3056,091;    0,439;    0,318
1035,987; 3068,455;   -2,288;   -0,682
1036,533; 3065,727;   -0,197;   -0,955
1037,078; 3256,273;    4,712;    1,682
1037,624; 3101,727;    2,439;   -0,955
1038,170; 3103,000;    1,712;   -0,318
1038,716; 2995,455;    2,167;   -0,409
1039,261; 2924,000;    2,167;   -0,773
1039,807; 2864,636;   -0,015;    3,409
1040,352; 2940,182;   -1,288;   -0,318
1040,898; 2981,273;    0,167;   -0,682
1041,443; 2902,727;    0,803;   -2,591
1041,989; 2899,818;    3,621;    1,591
1042,534; 2791,000;    0,985;    2,591
1043,079; 2933,545;    1,985;    0,955
1043,625; 2696,909;    0,258;    0,500
1044,170; 2719,273;    2,439;    1,045
1044,715; 2997,091;    0,167;    0,955
1045,260; 2811,273;   -0,833;   -0,955
1045,805; 2857,636;    0,258;   -0,591
1046,350; 2805,091;    0,530;   -0,409
1046,895; 2750,636;    0,803;    1,591
1047,440; 2673,636;    1,530;    0,409
1047,985; 2607,818;   -1,197;   -0,955
1048,530; 2523,182;    1,348;    1,227
1049,074; 2583,455;    2,803;    0,318
1049,619; 2554,091;   -0,924;    1,955
1050,164; 2347,000;    1,076;    0,227
1050,708; 2411,727;    2,621;    0,045
1051,253; 2764,636;    3,258;   -2,227
1051,797; 2476,545;   -0,197;   -1,318
1052,342; 2515,182;    1,348;    1,045
1052,886; 2493,000;    1,803;   -1,409
1053,430; 2374,000;    2,167;    0,136
1053,975; 2378,455;    0,894;   -0,318
1054,519; 2357,545;    1,803;    3,227
1055,063; 2352,182;    3,621;    1,318
1055,607; 2250,364;    1,348;    0,227
1056,151; 2291,636;    0,530;    1,682
1056,695; 2204,455;   -1,833;   -1,136
1057,239; 2259,545;   -1,197;   -0,682
1057,783; 2262,364;    2,258;   -1,500
1058,327; 2215,909;    3,076;    1,409
1058,871; 2455,909;    3,985;    1,318
1059,415; 2147,000;   -0,561;   -0,045
1059,958; 2388,000;    2,985;    2,591
1060,502; 2130,455;    1,348;   -0,773
1061,046; 2033,364;    1,712;   -0,955
1061,589; 2013,091;    2,803;   -1,136
1062,133; 1897,727;    0,985;    1,864
1062,676; 1836,455;    1,439;    0,864
1063,220; 1829,000;    0,985;    0,500
1063,763; 1849,636;    2,985;    1,136
1064,306; 1919,182;    0,985;    1,864
1064,849; 1809,545;    2,076;    0,591
1065,393; 1804,636;    2,894;   -1,500
1065,936; 1935,545;    2,530;   -0,409
1066,479; 1827,182;    2,621;    1,318
1067,022; 1852,727;    1,894;   -0,227
1067,565; 1751,818;   -1,197;   -1,318
1068,108; 1791,727;    1,258;   -0,591
1068,651; 1755,545;   -2,470;    1,409
1069,194; 1674,273;   -1,106;   -1,682
1069,736; 1669,727;    3,803;    0,955
1070,279; 1656,000;   -1,652;   -0,500
1070,822; 1695,545;    1,530;   -0,318
1071,364; 1759,000;    0,530;    1,318
1071,907; 1602,455;    0,348;    3,227
1072,450; 1520,273;    0,258;   -0,045
1072,992; 1511,727;   -0,561;    3,136
1073,535; 1633,455;    0,167;    2,136
1074,077; 1442,455;    2,985;    2,045
1074,619; 1406,000;    0,985;    0,591
1075,161; 1429,455;   -0,561;    1,500
1075,704; 1609,818;    0,258;    1,227
1076,246; 1418,909;    1,530;    0,682
1076,788; 1345,909;   -1,015;    1,773
1077,330; 1438,000;   -2,106;    2,136
1077,872; 1386,364;   -1,924;    0,955
1078,414; 1608,364;    3,712;    0,773
1078,956; 1334,727;    0,167;   -0,227
1079,498; 1566,909;    0,439;    0,318
1080,040; 1267,727;    0,985;   -1,318
1080,581; 1237,545;    0,621;   -0,318
1081,123; 1175,000;   -0,106;   -0,773
1081,665; 1226,727;    3,803;   -0,955
1082,206; 1495,909;    3,258;   -0,500
1082,748; 1371,545;    3,258;    2,045
1083,289; 1253,545;    0,167;    1,318
1083,831; 1145,636;    0,258;    0,227
1084,372; 1180,545;    0,894;    0,591
1084,913; 1188,636;    3,348;    0,864
1085,455; 1175,545;    1,530;   -2,045
1085,996; 1129,364;    0,530;    0,136
1086,537; 1148,273;    0,985;    0,864
1087,078; 1185,364;    0,439;   -2,136
1087,619; 1222,182;   -1,652;    0,227
1088,160; 1129,818;    1,439;    1,318
1088,701; 1127,545;   -0,742;    0,682
1089,242; 1062,545;   -0,561;   -2,227
1089,783; 1138,636;   -0,561;    1,409
1090,324; 1123,000;   -0,833;    0,682
1090,865; 1006,455;   -1,924;   -0,409
1091,405;  986,818;   -0,561;    2,227
1091,946; 1021,091;   -0,197;   -0,955
1092,487;  945,091;   -1,288;   -1,409
1093,027; 1104,818;    1,803;   -1,500
1093,568;  948,636;    2,258;    1,227
1094,108; 1018,182;    0,621;    1,773
1094,649;  977,182;   -0,470;    0,136
1095,189;  923,000;    1,167;   -0,682
1095,729;  865,182;    0,712;    0,955
1096,269;  874,727;    1,258;   -0,955
1096,810; 1168,727;   -0,197;    0,500
1097,350;  998,455;   -0,561;   -0,773
1097,890;  912,182;    2,985;    1,227
1098,430; 1156,455;    4,985;    2,864
1098,970; 1037,091;    1,894;    1,682
1099,510;  909,091;   -0,833;   -2,318
1100,050;  837,727;    0,258;   -1,591
1100,589;  793,000;    0,076;   -0,318
1101,129;  918,182;    0,894;   -0,955
1101,669; 1041,727;    2,803;    2,136
1102,209;  880,636;    1,530;    2,227
1102,748;  835,182;    3,439;    0,955
1103,288;  823,273;    0,712;   -1,227
1103,827;  849,091;    3,530;   -2,227
1104,367;  742,455;    1,712;   -2,409
1104,906;  711,364;   -1,015;   -1,136
1105,445;  772,727;    0,985;   -1,136
1105,985;  709,000;   -0,652;    1,500
1106,524;  758,727;    1,530;   -0,682
1107,063;  736,727;    1,167;    1,409
1107,602;  711,818;    1,894;   -1,500
1108,141;  639,273;    1,621;    1,500
1108,680;  725,909;    3,985;   -0,591
1109,219;  673,727;    0,167;   -0,500
1109,758;  676,000;    4,167;    0,682
1110,297;  649,273;   -1,106;   -0,682
1110,836;  599,000;    1,439;    0,955
1111,375;  751,636;    0,348;    0,409
1111,913;  759,636;    0,985;    0,773
1112,452;  705,182;    0,894;    0,136
1112,991;  604,273;    1,076;    1,955
1113,529;  552,000;    0,167;   -0,045
1114,068;  614,273;    0,439;    2,955
1114,606;  516,818;   -0,561;   -0,955
1115,144;  664,545;    1,530;    1,045
1115,683;  609,091;    1,985;    0,318
1116,221;  671,182;    2,076;   -0,864
1116,759;  571,182;    1,621;   -0,864
1117,297;  757,545;    1,621;    1,864
1117,836;  571,182;    1,985;   -1,227
1118,374;  567,182;    0,258;   -0,682
1118,912;  529,818;    0,439;    2,682
1119,450;  515,273;    0,985;    0,864
1119,988;  553,545;    3,348;    2,136
1120,525; 1000,727;    7,258;    3,318
1121,063;  708,455;    0,530;    1,864
1121,601;  516,000;    1,076;   -1,227
1122,139;  475,818;    1,076;   -2,045
1122,676;  664,818;   -1,652;    2,773
1123,214;  603,818;    0,712;    4,409
1123,751;  425,182;    0,621;    2,227
1124,289;  547,818;    0,894;   -0,409
1124,826;  425,091;   -0,379;    0,227
1125,364;  361,182;    0,712;   -0,955
1125,901;  524,455;    6,258;    1,227
1126,438;  619,364;    3,530;    0,955
1126,975;  366,091;    2,985;   -0,773
1127,513;  428,000;    2,621;    2,136
1128,050;  356,000;   -0,561;   -0,682
1128,587;  440,636;    1,348;   -0,227
1129,124;  470,455;   -0,015;    1,318
1129,661;  359,091;   -1,924;    0,227
1130,198;  519,091;    2,439;    0,773
1130,734;  461,455;   -0,379;    1,409
1131,271;  324,727;   -1,197;    0,864
1131,808;  487,909;    1,621;    3,045
1132,345;  359,182;    4,530;    0,318
1132,881;  248,455;   -0,561;   -1,864
1133,418;  378,000;    0,348;   -1,136
1133,954;  318,636;    0,712;   -2,682
1134,491;  390,091;    1,712;   -0,773
1135,027;  287,091;    2,167;    0,864
1135,564;  370,091;    1,439;    2,955
1136,100;  348,455;   -0,742;    2,136
1136,636;  254,909;   -1,015;   -1,045
1137,172;  330,545;    0,894;   -1,045
1137,708;  269,818;   -1,561;   -1,045
1138,245;  271,455;    0,803;   -1,227
1138,781;  238,273;    1,803;   -3,318
1139,317;  292,818;    1,894;   -1,409
1139,852;  285,182;    3,076;    0,136
1140,388;  390,273;    2,076;   -0,409
1140,924;  273,727;    1,076;   -2,227
1141,460;  228,636;   -0,288;    0,136
1141,996;  173,545;   -0,652;    2,682
1142,531;  205,364;    1,076;    3,318
1143,067;  413,636;    1,167;    1,045
1143,602;  467,455;    3,439;   -0,318
1144,138;  315,636;    0,803;    1,045
1144,673;  191,182;    1,621;    1,409
1145,209;  255,545;    2,894;   -0,318
1145,744;  174,909;    0,803;    0,864
1146,279;  300,909;    1,530;   -0,136
1146,815;  224,455;    1,530;   -2,682
1147,350;  255,818;   -0,924;    0,045
1147,885;  178,000;   -1,924;   -1,318
1148,420;  177,727;    2,439;    0,773
1148,955;  163,182;   -1,470;    1,864
1149,490;  188,273;   -1,106;   -1,591
1150,025;  172,273;   -1,106;   -1,773
1150,560;  273,273;   -0,288;   -0,955
1151,094;  240,455;    0,258;   -0,591
1151,629;  237,455;   -3,742;    0,864
1152,164;  171,727;   -1,288;    1,318
1152,698;  146,091;    1,258;   -0,136
1153,233;  106,545;   -1,379;   -0,682
1153,767;  146,545;   -0,288;   -2,318
1154,302;  197,091;   -0,379;    1,773
1154,836;  185,545;    0,803;   -2,136
1155,371;  235,182;    2,258;    3,682
1155,905;  190,000;    1,985;    1,682
1156,439;  167,455;    0,530;   -0,500
1156,973;  187,364;    0,439;    0,318
1157,507;  136,455;   -1,742;    0,682
1158,042;  152,909;   -0,652;    1,045
1158,576;  195,545;   -0,561;    1,773
1159,110;  189,636;    0,076;    2,409
1159,643;  168,636;   -2,470;   -0,045
1160,177;  111,182;   -2,015;    1,500

