
Integration time [ms]:   0,050
Averaging Nr. [scans]: 11
Smoothing Nr. [pixels]: 0
Data measured with spectrometer [name]: 7318044SP
Wave   ;Sample   ;Dark     ;Reference
[nm]   ;[counts] ;[counts] ;[counts] 

186,757;  -10,783;   38,161;    1,318
187,357;   25,729;   26,706;    0,955
187,958;   12,823;   17,252;   -1,591
188,558;   61,562;   12,979;   -1,227
189,159;   25,120;   10,070;   -4,500
189,759;   -0,922;    5,797;   -3,591
190,360;   -0,443;    6,797;   -2,136
190,960;   39,961;    5,706;   -4,136
191,560;   54,456;    2,614;   -6,591
192,161;  286,337;    5,885;   -3,500
192,761;  126,478;    5,520;   -3,227
193,361;   77,791;    3,065;   -3,773
193,962;  134,292;    1,612;   -2,682
194,562;   68,501;   -0,114;   -3,955
195,162;  103,035;   -0,567;   -2,227
195,762;  260,339;    2,433;   -0,045
196,362;  215,086;    1,706;   -2,500
196,963;   81,185;    1,706;   -0,864
197,563;  156,208;    1,252;   -0,955
198,163;  104,655;   -0,111;   -0,682
198,763;  131,713;   -0,020;   -0,500
199,363;  236,071;    3,616;   -0,500
199,963;  194,366;    2,162;    0,409
200,563;  169,064;    6,344;   -1,409
201,163;  157,972;    5,435;   -0,227
201,763;  252,472;    1,435;    0,318
202,363;  194,703;    0,980;    1,500
202,963;  297,826;    1,526;    1,045
203,563;  410,758;    0,344;    0,500
204,162;  256,159;    1,889;   -1,864
204,762;  247,737;    2,071;    0,591
205,362;  220,183;    0,708;    1,955
205,962;  324,963;    3,435;    1,955
206,562;  325,134;    1,889;    2,318
207,161;  294,259;    1,708;    0,318
207,761;  442,258;    4,435;    2,409
208,361;  324,632;    1,889;    1,409
208,960;  416,245;    2,889;    1,500
209,560;  496,673;    0,435;    1,591
210,160;  479,726;    5,071;    1,864
210,759;  453,395;    0,708;    1,227
211,359;  454,539;   -0,474;    1,045
211,958;  726,936;    3,526;    2,045
212,558;  823,881;    0,799;    1,864
213,157;  666,546;   -0,929;    1,500
213,757; 1110,049;    5,617;   -0,227
214,356;  816,662;    1,708;   -0,409
214,956; 1160,361;    3,526;    0,409
215,555;  795,458;    0,617;    2,136
216,154;  719,128;   -0,292;   -0,591
216,754;  741,110;    1,253;    0,773
217,353;  883,247;   -0,383;   -1,045
217,952;  753,982;    2,072;    0,318
218,552;  989,173;    0,254;   -0,773
219,151;  891,226;   -1,110;    0,955
219,750;  890,922;    0,890;   -0,227
220,349; 1071,549;   -2,292;    1,045
220,948; 1103,133;    1,163;    1,136
221,548; 1168,845;    0,617;    1,227
222,147; 1286,378;   -1,292;   -0,409
222,746; 1582,105;    1,254;   -0,955
223,345; 1464,151;   -1,019;    0,500
223,944; 1513,125;    1,163;    0,773
224,543; 1718,005;    4,072;   -1,409
225,142; 1827,029;    1,345;    0,136
225,741; 1745,156;    1,163;    1,045
226,340; 1789,690;    1,254;   -0,955
226,939; 2288,541;    2,708;   -0,136
227,538; 2338,162;    1,163;   -0,773
228,137; 2467,707;    0,435;    0,864
228,735; 2682,789;    0,435;    1,227
229,334; 2401,497;   -0,474;   -0,227
229,933; 2785,037;    0,799;    0,591
230,532; 2936,108;   -1,201;   -0,409
231,131; 2993,341;    1,253;    0,318
231,729; 3178,264;    1,163;   -2,318
232,328; 3392,930;    0,435;   -1,500
232,927; 3531,525;    4,526;   -0,500
233,525; 3700,400;    0,981;    0,045
234,124; 3946,257;    1,890;   -1,591
234,723; 4038,149;    1,617;   -1,045
235,321; 4222,445;    1,163;    0,136
235,920; 4503,364;    2,526;   -1,227
236,518; 4801,933;    1,072;    0,318
237,117; 5084,639;    2,890;   -0,227
237,715; 5294,655;    1,163;   -0,500
238,314; 5354,045;    1,708;   -2,318
238,912; 5443,079;    0,526;   -1,409
239,510; 5522,042;    1,162;   -1,227
240,109; 5706,667;   -0,474;    3,773
240,707; 5793,043;   -0,474;    1,227
241,305; 6277,232;   -0,383;    0,136
241,904; 6506,868;   -0,292;   -2,045
242,502; 6442,714;    3,253;   -0,227
243,100; 6440,091;    3,344;   -0,955
243,698; 6764,107;    2,799;    1,682
244,297; 6963,870;   -0,656;    0,682
244,895; 6771,063;   -0,474;   -2,318
245,493; 7173,121;    2,981;   -0,591
246,091; 7242,142;    5,163;   -1,318
246,689; 7262,224;    2,163;    0,591
247,287; 7443,636;   -0,019;   -1,136
247,885; 7799,274;   -1,019;    1,227
248,483; 7946,684;   -0,201;   -0,500
249,081; 8109,416;    0,981;    1,591
249,679; 8285,413;   -1,019;    1,682
250,277; 8609,301;   -2,292;    0,864
250,875; 8576,373;    0,617;   -1,045
251,473; 8647,591;   -0,019;    0,500
252,071; 8860,048;   -0,383;    1,045
252,669; 9035,761;   -1,565;    0,318
253,267; 9375,347;    1,618;    0,773
253,864; 9380,363;    0,617;    0,682
254,462; 9148,883;    1,526;    1,591
255,060; 9184,110;    0,072;    1,318
255,658; 9587,670;   -3,292;   -0,136
256,255;10020,626;   -0,201;   -2,045
256,853; 9898,183;    2,345;    1,409
257,451; 9936,194;    1,981;    1,864
258,048;10172,784;    2,072;    1,864
258,646; 9953,874;    0,436;   -1,045
259,243;10173,456;    2,981;    2,227
259,841;10240,101;    1,799;    0,318
260,438;10097,159;    0,254;    0,864
261,036;10938,640;    0,617;    1,409
261,633;10873,507;    1,526;    2,227
262,231;10605,221;   -0,110;   -0,045
262,828;10704,303;   -0,383;    1,136
263,425;10738,038;   -1,928;   -0,591
264,023;11073,655;    1,436;    0,045
264,620;10583,583;    1,526;   -0,318
265,217;10951,498;    2,890;    3,136
265,815;11069,670;    2,527;    2,136
266,412;10818,425;    0,072;    0,136
267,009;10907,366;    0,526;    0,773
267,606;10745,965;    0,345;   -0,955
268,203;10739,438;   -0,383;   -0,591
268,801;11113,240;   -0,474;    0,591
269,398;11445,335;   -0,564;    2,500
269,995;11418,030;    0,890;    1,591
270,592;11149,985;    0,799;   -0,500
271,189;11431,551;    1,981;    0,409
271,786;11590,899;    2,072;    1,227
272,383;11376,022;   -0,383;    0,227
272,980;11611,533;    1,617;    0,318
273,577;12172,511;    2,162;    1,227
274,174;11694,581;    1,435;    2,591
274,771;11648,943;    1,890;   -0,773
275,367;11797,229;    3,253;    1,409
275,964;11788,225;   -0,565;   -0,500
276,561;11952,152;   -2,474;   -1,045
277,158;12247,322;    1,799;   -1,773
277,755;12322,507;   -0,110;    0,409
278,351;11658,865;    0,436;   -1,500
278,948;12013,919;   -0,201;    0,045
279,545;12055,933;    0,527;    2,318
280,141;12731,884;    1,254;   -2,045
280,738;12610,743;    2,435;   -0,136
281,334;12911,699;   -0,383;    0,591
281,931;12251,061;    2,890;   -1,318
282,528;12368,957;    4,072;   -0,500
283,124;13164,156;    3,345;   -0,500
283,721;13062,387;    0,709;    1,409
284,317;12901,136;    0,163;    2,500
284,913;13471,372;   -0,110;    0,591
285,510;13686,554;    2,890;   -0,318
286,106;13745,492;    2,345;   -0,955
286,703;13300,040;    0,072;    1,955
287,299;13541,737;    1,254;   -0,591
287,895;13824,707;    0,890;   -1,045
288,491;14452,063;    0,163;    2,136
289,088;14142,385;    0,163;    2,409
289,684;14191,852;    2,890;    1,500
290,280;14265,584;    1,890;    0,682
290,876;14291,449;    0,163;    5,500
291,472;14185,082;    2,163;    2,227
292,068;14279,329;    1,254;    0,227
292,665;14003,101;   -0,564;    0,773
293,261;13565,114;   -1,292;    2,136
293,857;13962,929;    4,072;    2,136
294,453;13922,573;   -0,928;    0,955
295,049;13774,497;    0,253;    1,955
295,644;13800,085;   -1,292;    0,136
296,240;13714,895;    0,162;   -0,136
296,836;13784,511;   -0,747;    0,318
297,432;14104,924;    2,980;   -0,500
298,028;14119,536;    0,435;    0,773
298,624;14550,357;    0,889;    1,864
299,220;14885,877;    0,435;    0,591
299,815;14507,509;    0,526;   -0,409
300,411;14278,770;    0,435;    1,773
301,007;14320,509;    1,889;    0,227
301,602;14396,405;    2,071;   -2,318
302,198;14569,507;    1,435;   -0,773
302,794;14939,452;    1,526;   -0,500
303,389;15085,571;    1,071;    1,045
303,985;15139,111;    1,253;    1,409
304,580;15080,716;    0,889;    1,591
305,176;15083,918;    0,344;    0,136
305,771;15071,217;   -0,929;   -1,227
306,367;14820,702;    3,071;    0,136
306,962;15242,314;    2,889;    1,500
307,558;14939,157;    2,435;    0,136
308,153;14902,109;   -0,383;   -1,136
308,748;15177,748;    0,162;    1,682
309,344;15135,099;    0,253;   -1,318
309,939;15211,959;    2,071;   -1,318
310,534;15566,120;   -2,020;   -1,682
311,130;15549,824;   -0,656;   -2,500
311,725;15249,352;    0,526;   -0,500
312,320;15567,481;    1,253;    0,045
312,915;15400,856;    2,890;   -1,045
313,510;15442,213;    0,526;   -0,500
314,105;16018,636;   -3,565;    1,409
314,700;15380,619;   -1,656;   -1,045
315,295;14938,898;   -0,020;    0,045
315,890;14466,296;   -0,292;    0,864
316,485;14823,553;    0,253;   -0,318
317,080;14960,333;   -0,929;    1,591
317,675;15550,309;    3,071;   -0,682
318,270;14836,281;    6,889;    3,318
318,865;14894,635;    2,435;    3,045
319,460;14733,008;   -1,565;    0,591
320,055;15046,701;   -2,565;   -1,227
320,650;14664,894;   -1,838;   -0,591
321,244;14716,656;    0,889;   -1,409
321,839;15733,647;    0,980;   -0,227
322,434;15649,845;   -0,111;   -1,591
323,029;15183,997;   -0,474;    1,591
323,623;15024,112;    0,798;    0,773
324,218;14742,205;    2,707;    1,409
324,812;14655,916;    0,889;    1,591
325,407;14454,645;   -0,929;    2,045
326,002;14350,811;    0,526;   -0,409
326,596;14707,228;   -0,656;    1,318
327,191;14924,674;   -0,383;   -1,045
327,785;14445,682;   -0,747;   -0,227
328,379;14723,799;   -0,383;    0,136
328,974;14547,559;    1,798;   -3,955
329,568;14732,959;    2,889;   -2,409
330,163;14531,230;    2,435;    1,045
330,757;14914,820;    0,253;    1,591
331,351;14223,570;   -0,292;    0,682
331,945;14498,170;   -0,383;    1,409
332,540;14035,579;    1,617;   -0,591
333,134;14199,532;    3,344;    0,773
333,728;14426,182;    2,799;    0,318
334,322;14803,086;    0,889;   -0,864
334,916;14065,782;    0,344;    0,955
335,510;14405,039;   -0,111;   -0,136
336,105;14693,856;   -0,929;    1,591
336,699;14342,334;   -1,292;    0,591
337,293;14252,821;    1,071;    0,318
337,887;14424,514;    0,071;    1,955
338,481;14474,967;    2,980;    0,591
339,074;14657,863;    2,071;    2,682
339,668;14420,875;   -0,110;    1,227
340,262;14673,211;    7,708;    3,227
340,856;14154,931;    1,708;   -0,682
341,450;13445,708;    0,708;    1,864
342,044;14404,275;    1,799;    0,136
342,637;14141,394;    1,162;   -2,136
343,231;13970,079;   -1,474;    0,682
343,825;13924,234;   -0,747;   -0,591
344,419;13875,135;   -0,474;    0,500
345,012;13551,812;    2,889;    4,045
345,606;13576,178;   -0,656;    1,591
346,199;13409,637;   -0,111;   -0,227
346,793;12867,467;    2,525;    2,045
347,386;13074,964;    0,889;   -1,136
347,980;13074,663;   -0,838;   -0,045
348,573;12838,300;   -1,748;    0,409
349,167;12397,101;    6,161;    4,773
349,760;12812,426;    2,252;    2,682
350,354;12800,117;    1,616;    1,136
350,947;12448,435;    2,798;    1,682
351,540;12108,995;    0,616;   -1,409
352,134;12041,459;   -1,111;    1,136
352,727;12129,617;   -0,657;    1,136
353,320;11929,902;    2,343;    0,591
353,913;11779,900;   -1,929;    1,864
354,507;11943,673;    0,434;   -1,227
355,100;11929,618;    0,071;    0,864
355,693;11004,732;    4,798;    2,409
356,286;11073,177;    0,980;    2,773
356,879;11467,808;   -0,475;    1,227
357,472;11041,505;    0,980;    1,500
358,065;11235,688;    3,161;    2,500
358,658;11183,071;    0,798;    2,318
359,251;10764,362;    0,252;   -0,591
359,844;10169,842;    0,343;   -1,136
360,437;10310,421;    0,252;    0,045
361,030;10636,511;    0,525;   -0,682
361,623;10153,659;    0,434;    0,318
362,215;10165,148;    0,979;    2,045
362,808;10010,749;   -2,293;   -1,682
363,401;10216,734;    0,798;    0,136
363,994; 9903,527;    3,252;   -1,500
364,586; 9819,566;    0,888;   -1,500
365,179;10090,888;   -0,203;   -1,136
365,772; 9469,299;   -0,930;    2,045
366,364; 9782,286;    1,524;   -3,227
366,957;10029,771;    1,342;   -0,045
367,549;10063,240;   -0,203;   -0,864
368,142; 9653,646;    0,978;   -1,500
368,734; 9863,582;    2,523;   -2,136
369,327; 9813,498;    2,341;   -0,500
369,919; 9724,706;   -1,659;    0,409
370,512; 9469,752;   -1,023;   -0,500
371,104; 9135,381;    2,704;    1,591
371,696; 9341,475;    1,703;   -0,955
372,289; 9490,134;    0,157;    1,136
372,881; 9621,151;    1,156;    1,318
373,473; 9564,295;    4,064;    1,136
374,066; 9322,692;    1,336;    0,500
374,658; 9121,228;    0,879;    1,136
375,250; 9548,957;   -1,668;   -1,409
375,842; 9378,419;   -0,124;   -0,045
376,434; 9255,507;   -2,762;   -0,409
377,026; 9906,694;   -1,855;   -2,500
377,618; 9781,651;    0,779;   -0,682
378,210; 9605,421;    3,141;   -1,955
378,802; 9445,651;    3,412;   -0,591
379,394; 9356,841;    3,411;    0,682
379,986;10048,451;    1,138;   -0,955
380,578;10171,978;    1,410;    0,773
381,170; 9370,541;    0,320;    0,045
381,762; 9374,456;   -0,224;    1,409
382,354; 9634,223;   -0,223;   -1,318
382,945; 9751,415;    0,870;    0,318
383,537; 9896,122;    1,144;   -1,955
384,129; 9886,795;    0,963;   -1,136
384,721;10104,742;    0,418;    0,955
385,312;10017,043;   -1,399;   -0,955
385,904;10090,552;   -0,945;    1,591
386,496; 9437,420;    0,691;    1,045
387,087; 9580,768;    0,418;    2,500
387,679; 9621,955;   -0,401;    0,045
388,270; 9769,016;   -2,401;    2,045
388,862; 9888,470;   -0,401;   -0,318
389,453; 9774,377;    1,054;    1,045
390,045;10060,617;    3,236;   -2,682
390,636;10023,153;    0,144;   -0,591
391,227; 9875,739;    2,054;   -0,045
391,819; 9957,623;    0,781;    0,773
392,410;10039,356;    0,600;    0,045
393,001; 9936,134;    1,600;   -1,591
393,593;10261,396;    0,600;   -0,045
394,184;10122,789;    0,873;   -0,409
394,775;10009,468;    1,146;    2,136
395,366;10224,921;    1,782;    0,773
395,957;10288,862;   -2,400;    0,136
396,548;10629,102;    1,054;    2,682
397,139;10968,915;    2,236;    0,591
397,730;10652,960;    0,873;    0,955
398,321;10714,363;    0,509;    0,955
398,912;10737,834;   -0,764;    0,136
399,503;10858,485;   -1,945;   -1,409
400,094;10238,938;   -1,582;    1,682
400,685;10089,087;    3,600;    0,045
401,276;10175,013;   -0,400;   -0,955
401,867;10515,915;   -1,127;    0,773
402,458;10619,689;    1,509;   -2,318
403,048;10575,798;    0,146;    0,591
403,639;10145,422;    1,509;    0,864
404,230;10412,941;    0,691;    0,318
404,821;10362,667;   -0,127;    0,045
405,411;10460,684;   -0,763;   -2,591
406,002; 9990,759;    3,237;   -1,136
406,592; 9769,353;    2,691;    0,045
407,183;10125,508;    0,328;   -1,500
407,774;10042,173;    1,419;   -0,136
408,364;10417,784;    2,600;    0,409
408,954; 9936,852;   -0,036;    1,227
409,545; 9980,188;    1,873;    1,045
410,135; 9472,083;   -1,581;    0,500
410,726; 9680,849;    0,783;    0,318
411,316;10074,030;    2,237;    0,773
411,906; 9721,629;    0,146;   -0,409
412,497; 9158,685;   -0,490;   -0,045
413,087; 9826,498;    0,783;   -0,227
413,677;10296,519;   -2,490;    3,864
414,267;10109,994;   -1,035;    1,409
414,857;10112,958;    0,419;    4,227
415,448;10433,396;   -0,763;    0,500
416,038;10092,202;   -2,945;   -0,591
416,628;10018,309;    0,965;    0,409
417,218; 9436,496;   -1,762;    3,318
417,808; 9743,824;    0,965;   -0,409
418,398;10281,503;   -1,035;    2,682
418,988;10285,788;   -2,217;    0,591
419,578;10592,268;    3,601;    1,409
420,168;10987,193;    0,692;   -0,955
420,757;10485,793;    0,964;   -1,500
421,347;10137,991;    1,601;   -0,227
421,937;10339,360;    3,329;    1,409
422,527;10233,935;    2,602;   -0,773
423,116;10020,345;    2,692;   -0,045
423,706;10477,886;    2,965;    0,318
424,296;10440,322;    1,601;    0,682
424,885;10906,959;    1,510;   -3,045
425,475;11223,642;    1,147;   -2,864
426,065;11140,566;   -1,489;   -0,318
426,654;10714,465;    0,329;   -0,318
427,244;10821,712;    1,147;    1,409
427,833;10202,921;    1,056;   -0,500
428,423;10761,785;    0,147;    1,136
429,012;11655,125;    2,420;   -1,136
429,601;11042,923;    2,057;    0,136
430,191;11289,626;    2,511;    4,318
430,780;10860,770;   -1,671;   -0,409
431,369;10814,842;    1,329;   -0,045
431,959;11539,194;    1,693;    0,500
432,548;11305,346;   -1,398;   -0,045
433,137;11466,456;    0,329;   -1,318
433,726;12007,828;    0,148;    0,500
434,315;11333,514;    0,148;    2,409
434,905;11423,734;    0,693;    1,409
435,494;11288,401;    3,148;    0,955
436,083;11856,113;    1,420;   -0,955
436,672;11659,133;    1,148;    0,500
437,261;11189,757;    0,512;   -1,955
437,850;11270,449;   -1,125;    0,682
438,439;11248,211;    2,239;    1,955
439,027;11031,103;    3,421;    1,773
439,616;11520,684;    2,239;    1,227
440,205;11407,749;    0,057;   -2,136
440,794;11465,821;   -0,306;   -0,045
441,383;11752,836;    1,603;   -0,591
441,971;11624,800;   -0,306;    0,591
442,560;11448,781;    0,603;   -1,773
443,149;11233,321;    3,060;   -1,318
443,737;11407,515;    0,968;   -2,318
444,326;11654,809;    0,331;    0,318
444,915;11686,614;   -1,851;    0,864
445,503;12128,149;    0,058;   -0,318
446,092;11359,769;    7,876;    2,136
446,680;11968,634;    1,876;    0,318
447,269;12141,229;   -1,487;   -0,318
447,857;11862,140;    2,240;   -1,773
448,445;12017,966;    2,149;    1,318
449,034;12248,671;    0,876;   -1,136
449,622;12388,680;    1,240;    3,500
450,210;11472,985;    3,149;    2,227
450,799;12091,959;    2,604;   -0,591
451,387;12034,611;    1,786;   -0,591
451,975;11618,419;   -1,305;    0,864
452,563;11712,311;    0,422;    2,318
453,151;11785,396;   -1,032;   -1,227
453,739;11684,013;   -1,577;    0,136
454,328;11495,951;    0,604;   -2,136
454,916;11174,768;    1,150;   -0,136
455,504;11397,027;    3,513;    1,227
456,092;11611,304;    2,150;   -1,591
456,679;11591,662;    0,604;    0,682
457,267;11415,755;    3,604;    1,045
457,855;11649,832;    3,241;    1,409
458,443;11451,144;   -0,304;    1,682
459,031;11530,097;    1,332;    2,409
459,619;12057,308;   -3,577;    2,864
460,206;12210,697;   -0,759;    2,045
460,794;12284,586;   -0,668;   -0,227
461,382;12562,351;    0,878;   -0,864
461,970;12103,011;    0,605;    1,864
462,557;12165,026;    0,878;   -0,682
463,145;12372,255;   -0,304;   -1,682
463,732;12530,368;    2,514;   -1,045
464,320;12441,077;    1,514;   -3,045
464,907;12056,324;    0,423;   -0,773
465,495;11932,915;    2,696;   -1,227
466,082;12116,173;    2,060;   -0,045
466,670;12017,574;    2,605;    1,227
467,257;12466,030;    0,060;    2,045
467,844;12628,510;    1,514;    0,045
468,432;12641,853;   -0,031;    3,500
469,019;12113,077;    1,606;   -1,773
469,606;12616,714;    0,969;    3,682
470,193;12408,467;    2,151;    0,227
470,780;11888,712;    0,333;    0,864
471,368;12256,820;   -1,212;   -0,773
471,955;12031,829;    1,060;   -0,682
472,542;11657,920;   -0,303;   -1,136
473,129;11920,759;   -0,485;    0,136
473,716;11663,934;    0,060;    0,591
474,303;11861,226;    1,333;   -0,864
474,890;12181,237;    2,333;   -0,500
475,477;12197,778;   -0,576;    0,409
476,064;12099,772;    0,697;   -1,591
476,650;12031,624;    2,152;    0,318
477,237;11869,624;    1,879;    0,955
477,824;12039,531;    3,879;    0,864
478,411;12098,221;    0,606;   -0,318
478,997;12300,524;    0,606;   -0,773
479,584;12381,585;   -0,666;   -0,409
480,171;13168,929;    1,243;   -0,773
480,757;12803,575;   -0,848;    0,773
481,344;13092,187;    0,334;    0,409
481,931;12587,809;   -0,393;    1,045
482,517;13660,495;    0,425;    0,318
483,104;14369,824;    1,334;    2,864
483,690;14755,125;    0,243;    0,045
484,276;15231,361;    0,698;    0,227
484,863;14940,332;    2,152;    1,136
485,449;15572,345;    0,152;    0,318
486,035;15624,142;   -0,666;   -0,136
486,622;16071,585;   -2,393;    0,045
487,208;16016,772;    1,334;    1,500
487,794;15876,525;    0,971;    0,318
488,380;15965,417;    0,698;   -1,409
488,967;16037,049;   -1,120;   -0,409
489,553;16099,844;   -1,029;   -1,409
490,139;16230,557;    0,971;    0,773
490,725;15672,421;    0,789;   -0,227
491,311;15162,978;    1,516;    3,045
491,897;14315,551;   -0,665;    1,500
492,483;14059,749;    0,426;    1,227
493,069;13755,463;    5,426;    0,864
493,655;13765,581;    1,789;    0,682
494,241;13673,320;    1,517;   -0,955
494,826;14122,381;    0,335;   -1,045
495,412;13541,414;    0,335;   -0,682
495,998;13696,156;    0,971;   -0,318
496,584;13859,252;    2,244;    1,045
497,169;13891,047;    2,335;   -0,682
497,755;13824,982;    1,244;    1,227
498,341;14384,674;    2,153;    0,318
498,926;13907,788;    2,881;    1,955
499,512;14170,549;   -0,028;    2,955
500,097;14323,418;   -0,574;   -0,318
500,683;14243,307;   -0,028;    2,136
501,268;14624,450;    1,881;   -0,955
501,854;14306,345;   -0,119;    1,227
502,439;14221,058;   -0,573;   -1,773
503,024;14464,931;    1,608;    0,500
503,610;14523,119;    1,335;   -0,682
504,195;14538,072;    1,245;    1,955
504,780;14649,487;    2,335;    1,227
505,366;14460,613;    4,063;    2,864
505,951;14132,800;   -1,119;    1,045
506,536;14183,324;    1,427;   -3,682
507,121;14178,974;    1,699;   -0,318
507,706;14713,456;   -0,392;    1,045
508,291;15151,173;   -2,937;    1,136
508,876;14544,349;   -0,482;    2,591
509,461;13993,701;    1,427;   -0,773
510,046;14426,425;   -0,391;    0,318
510,631;14665,723;   -0,119;   -0,773
511,216;14328,001;   -0,664;   -0,500
511,801;14713,954;   -0,755;    2,591
512,386;15063,400;    0,972;    0,500
512,971;15005,749;    0,427;    0,955
513,555;14459,177;    1,154;   -1,500
514,140;15314,093;    1,336;   -3,136
514,725;15342,627;    1,791;   -1,136
515,309;15519,571;    1,064;    0,318
515,894;14904,983;   -0,300;   -2,227
516,479;15377,894;    1,973;   -0,955
517,063;15218,265;    0,882;    1,227
517,648;15391,666;    0,155;   -1,136
518,232;14995,332;   -1,300;   -1,409
518,817;15326,954;    1,337;    1,682
519,401;15557,229;    0,700;    0,591
519,985;15048,064;    2,700;    1,136
520,570;14892,809;   -0,118;   -1,955
521,154;15233,541;    0,064;    0,591
521,738;15405,889;    1,064;    2,409
522,323;16037,576;   -0,390;    1,682
522,907;15772,556;    2,428;   -0,136
523,491;15483,947;    1,155;    0,955
524,075;15453,296;    0,428;    0,591
524,659;15550,991;    0,973;    0,591
525,243;14928,152;    0,883;    0,409
525,827;15176,999;    0,883;   -0,045
526,411;16127,627;    1,155;   -0,136
526,995;16373,322;    0,337;    1,409
527,579;15913,845;    1,974;   -1,045
528,163;16258,480;    0,428;   -1,500
528,747;16177,525;    1,065;   -0,773
529,331;16511,149;    0,883;   -1,409
529,915;16704,259;    2,338;    0,955
530,499;16636,862;    0,247;    1,227
531,082;16312,008;    1,065;    1,591
531,666;15742,935;    0,520;    0,773
532,250;16489,237;    0,428;    2,682
532,833;16802,037;    0,610;    2,773
533,417;16665,362;    1,247;    0,864
534,001;16635,934;    0,429;   -0,318
534,584;17427,979;    1,974;    0,500
535,168;17233,324;    3,247;    1,409
535,751;17285,523;    4,520;    0,045
536,334;16698,878;    4,520;   -0,409
536,918;17328,611;    1,974;    1,591
537,501;17471,649;    1,520;    1,318
538,085;17430,532;    1,702;    1,045
538,668;17608,517;    0,883;    2,409
539,251;17973,684;    3,156;    3,773
539,834;18010,920;    0,156;    0,773
540,418;17885,029;    3,247;    4,318
541,001;18030,013;    2,702;    1,773
541,584;18100,049;    1,429;    2,227
542,167;17733,281;    0,702;    2,955
542,750;17889,307;    0,793;   -0,773
543,333;17470,395;    1,429;    2,136
543,916;18281,226;   -0,298;    2,500
544,499;18965,285;    2,520;    0,227
545,082;18956,188;    0,248;    3,591
545,665;19122,057;   -0,207;    1,500
546,248;19484,941;    0,520;   -0,318
546,830;19152,680;   -1,752;    1,955
547,413;19587,676;    0,157;   -0,773
547,996;20124,308;    0,157;    0,500
548,579;19903,795;   -0,843;    0,955
549,161;19706,880;    0,884;    2,682
549,744;19521,276;    0,612;    0,409
550,326;20047,022;    0,885;   -1,136
550,909;19763,026;    2,339;    0,591
551,492;20249,694;    0,521;    0,227
552,074;19997,406;   -0,024;   -1,318
552,657;20589,655;    2,430;    0,045
553,239;20373,792;   -3,024;   -0,773
553,821;20268,153;   -1,570;    1,045
554,404;19736,794;   -0,024;    1,136
554,986;20131,995;    2,248;    1,045
555,568;20763,405;    0,430;   -0,955
556,151;19916,663;    4,067;   -0,227
556,733;20145,495;   -1,388;   -0,864
557,315;20648,608;    4,703;    0,500
557,897;20429,537;    0,521;   -0,500
558,479;20589,226;    1,703;    1,318
559,061;20683,138;    1,067;   -0,864
559,643;21079,067;   -0,297;    0,045
560,225;21437,218;   -0,388;    2,864
560,807;21497,612;    0,340;    0,318
561,389;20997,452;   -1,206;    2,318
561,971;21733,984;   -0,660;    2,136
562,553;21556,999;    0,613;    1,591
563,135;21719,005;    1,249;    1,136
563,717;21290,326;    3,158;    1,136
564,298;22019,633;    3,976;   -0,045
564,880;21696,814;    0,340;   -1,409
565,462;21896,996;    1,977;    1,318
566,043;23172,907;   -0,933;    2,318
566,625;22687,262;    4,067;    1,227
567,207;22562,882;    0,704;    1,682
567,788;23743,655;   -0,114;    1,500
568,370;24649,034;   -1,841;   -0,500
568,951;24480,414;   -0,569;    0,227
569,533;25461,799;    0,977;   -0,500
570,114;25967,932;   -0,296;    0,682
570,695;26509,292;   -0,478;   -1,318
571,277;27106,948;   -0,205;   -1,682
571,858;27911,889;    2,704;   -1,136
572,439;28902,009;    0,795;   -1,045
573,021;29094,803;    0,432;   -2,773
573,602;29700,138;    1,795;    0,318
574,183;30680,497;   -0,114;    2,227
574,764;30898,436;    2,068;    0,409
575,345;31485,810;    0,250;   -0,136
575,926;32186,216;    2,704;    0,136
576,507;32185,219;    2,704;   -0,227
577,088;33318,640;    1,704;    1,682
577,669;33393,782;    1,704;    1,955
578,250;34180,860;   -0,750;   -1,045
578,831;34921,504;   -0,841;   -2,227
579,412;35196,767;   -1,205;    0,955
579,993;36196,580;    1,432;    0,227
580,573;36499,713;   -0,023;   -0,955
581,154;35407,188;    1,613;   -0,591
581,735;36342,921;    0,341;    0,773
582,315;35872,830;    0,523;    2,136
582,896;36201,436;   -1,750;    1,227
583,477;35602,566;    0,614;    1,227
584,057;35784,364;    1,159;    0,955
584,638;36086,489;   -2,750;    2,318
585,218;36107,800;    2,886;    2,682
585,799;36216,033;    1,977;   -0,227
586,379;36236,550;    1,250;    1,591
586,959;34955,563;    2,613;    0,318
587,540;34183,467;    0,432;    2,227
588,120;33592,394;   -1,113;   -0,045
588,700;32496,761;    2,977;    2,136
589,281;32832,555;    1,250;   -0,955
589,861;32712,189;   -0,296;   -1,682
590,441;32552,665;   -1,477;   -2,682
591,021;31505,116;    1,432;   -2,591
591,601;31682,791;    0,431;    0,500
592,181;31614,788;   -1,296;   -0,773
592,761;30829,462;    2,250;    1,409
593,341;30741,703;    1,522;    0,045
593,921;30736,062;   -0,569;    1,591
594,501;30568,870;    1,250;    1,318
595,081;30386,713;    0,522;   -0,318
595,661;30765,872;    1,068;    0,955
596,240;31308,188;   -1,023;    0,136
596,820;30949,956;    2,613;    1,955
597,400;31208,968;    1,977;    0,773
597,980;31433,693;   -0,750;    1,045
598,559;31381,304;    0,341;   -0,227
599,139;31068,632;   -0,750;   -1,227
599,718;30970,905;    0,795;   -0,409
600,298;31213,247;   -2,387;    0,682
600,877;31488,539;    4,795;    1,409
601,457;31747,034;    0,340;    1,136
602,036;31661,873;    1,795;    2,045
602,616;31889,230;    2,250;    1,682
603,195;32190,570;    0,431;    3,500
603,774;31733,592;   -0,296;    2,045
604,354;31617,213;    2,522;   -0,500
604,933;31056,854;    0,250;    1,864
605,512;31159,753;    2,340;    0,591
606,091;31247,381;    1,886;    3,773
606,671;32114,737;    0,249;    0,773
607,250;31117,846;    1,431;    3,136
607,829;31348,634;    1,158;    3,227
608,408;31186,239;    4,613;    2,591
608,987;30184,135;    2,704;    3,409
609,566;30439,245;    0,341;   -2,500
610,145;30552,320;    2,885;    0,682
610,723;31048,118;    1,613;    6,864
611,302;30184,325;    1,067;    1,682
611,881;29633,489;    5,158;   11,227
612,460;30453,211;    0,795;    3,955
613,039;30953,878;    1,703;    2,045
613,617;29637,614;    0,886;    4,773
614,196;29803,244;    1,613;    1,227
614,775;30134,736;    1,249;    2,409
615,353;30052,783;   -1,660;    0,864
615,932;29721,868;    0,249;    2,409
616,510;30333,272;    0,158;    0,591
617,089;29866,589;    8,794;   17,591
617,667;29614,604;    4,885;    6,136
618,246;29384,164;   -1,115;    1,318
618,824;29644,985;    1,612;   -0,955
619,402;29091,994;    0,431;   -1,773
619,981;29660,602;    1,067;   -1,045
620,559;29509,304;    0,794;    1,682
621,137;29020,689;    3,067;    1,864
621,715;28986,396;    3,703;   -0,682
622,293;28901,647;    1,885;   -0,773
622,871;29322,517;    0,340;    0,500
623,450;28882,396;    0,430;   -0,864
624,028;28777,237;   -0,388;   -0,955
624,606;28378,806;    2,339;    1,682
625,183;28789,825;   -0,661;   -1,136
625,761;28368,816;    1,885;    1,136
626,339;28711,727;    2,339;    2,591
626,917;29100,168;    0,339;   -0,045
627,495;29145,047;    2,794;    1,318
628,073;28589,215;    5,248;    2,864
628,650;28274,403;    3,067;    2,136
629,228;28645,029;    1,248;    4,409
629,806;27973,148;   -0,024;    1,136
630,383;28245,140;    0,066;   -0,318
630,961;28092,909;   -2,206;   -0,955
631,539;27772,998;   -2,479;    0,227
632,116;26976,818;   12,703;   15,409
632,694;27654,431;    4,885;    6,500
633,271;27899,716;    1,975;    2,682
633,848;27851,299;    1,430;    2,045
634,426;27965,772;    1,521;    1,773
635,003;27054,952;   -0,207;   -0,409
635,580;27328,006;    1,884;    3,682
636,158;27877,504;    3,793;    1,227
636,735;27828,022;    3,339;   -0,500
637,312;27950,857;    0,521;   -0,682
637,889;28071,965;    2,248;   -0,682
638,466;27549,406;    0,066;   -0,409
639,043;27544,536;    1,702;   -1,136
639,620;27893,675;    0,611;   -0,955
640,197;28209,167;    1,612;    1,682
640,774;28328,326;    1,430;    1,136
641,351;28731,031;    0,612;    1,136
641,928;28137,736;    2,794;    1,409
642,505;27812,349;    0,794;   -0,500
643,082;27921,145;    1,885;    1,227
643,658;26893,395;    1,157;    1,500
644,235;27676,009;   -2,479;    2,500
644,812;27882,986;    1,794;    0,773
645,388;27649,327;    1,612;    1,409
645,965;27775,941;    1,521;    1,682
646,542;27818,463;    3,430;   -0,227
647,118;27853,077;    3,703;   -0,955
647,695;28179,509;    0,339;    1,136
648,271;28078,213;   -2,115;    0,500
648,848;28353,554;    0,248;    2,227
649,424;28159,077;    0,976;    1,318
650,000;27926,236;   -0,388;   -1,045
650,577;27792,032;    0,158;   -0,955
651,153;28251,645;   -1,115;    0,955
651,729;29217,077;    0,521;    0,864
652,305;29474,873;    1,339;    2,773
652,881;34294,032;   -1,297;    1,136
653,458;41813,827;    0,249;    0,227
654,034;46158,259;    0,703;    1,591
654,610;47898,691;    0,339;    0,773
655,186;49312,032;    1,612;    3,045
655,762;49039,555;   -1,842;    0,409
656,338;49117,987;    0,703;    0,136
656,913;50111,873;   -0,297;    0,409
657,489;49352,123;    0,249;   -0,318
658,065;49297,191;    0,794;   -1,591
658,641;49919,169;    2,158;   -0,864
659,217;49272,055;    2,067;    0,409
659,792;48586,123;   -1,751;   -0,409
660,368;48887,555;   -0,388;   -0,682
660,944;48533,624;    1,794;    1,227
661,519;43533,328;    0,522;    0,409
662,095;36804,305;   -0,206;    0,591
662,670;31613,283;   -0,206;   -0,136
663,246;30297,351;   -0,660;   -0,409
663,821;29532,328;    0,431;    1,682
664,396;29021,487;    0,613;    1,864
664,972;29295,101;   -0,660;   -0,500
665,547;29615,988;    3,794;    0,136
666,122;29654,783;    1,340;    0,318
666,698;29958,942;    2,431;    0,318
667,273;29199,738;    0,885;    0,136
667,848;30073,806;    0,340;    1,500
668,423;29833,692;    1,795;    2,318
668,998;30442,215;    0,976;   -0,682
669,573;30993,920;    2,067;   -1,500
670,148;30797,624;    1,885;   -0,682
670,723;30644,238;   -0,024;    0,318
671,298;31106,852;   -1,296;    1,045
671,873;31242,374;   -0,296;   -0,136
672,448;31138,534;    1,704;    0,136
673,023;31487,420;    0,249;   -0,227
673,597;31781,215;    2,704;    2,318
674,172;31576,284;    2,431;    0,318
674,747;31040,716;   -0,205;   -1,045
675,321;30905,784;   -0,933;    3,318
675,896;30483,670;    2,158;    1,045
676,471;31480,920;    2,522;    1,591
677,045;31297,170;   -0,296;    0,682
677,620;31369,239;    2,158;    1,136
678,194;31624,398;    0,249;    1,136
678,769;31134,193;    0,886;   -0,318
679,343;31395,625;   -0,023;    1,773
679,917;31245,693;    0,340;    1,955
680,492;31378,852;    0,249;    3,227
681,066;31527,921;    0,613;    0,409
681,640;31534,807;    1,795;   -0,318
682,214;32356,512;    2,340;    0,500
682,788;31866,671;    0,613;   -0,773
683,363;31824,103;    1,977;    1,682
683,937;31464,807;    0,886;   -0,318
684,511;32305,966;   -1,023;   -0,591
685,085;31979,035;   -1,478;    0,318
685,659;31683,012;    1,431;    0,864
686,232;31951,171;    1,159;   -0,318
686,806;31728,876;    2,159;    0,409
687,380;32393,489;   -1,932;    0,591
687,954;32628,558;    2,432;    1,136
688,528;32271,444;    2,613;    1,955
689,101;33123,330;    0,432;    1,045
689,675;32635,399;    0,886;   -0,136
690,249;31967,194;    3,432;    0,409
690,822;32332,808;    1,159;    0,318
691,396;32428,058;    2,068;    1,227
691,969;31883,490;    2,523;    0,136
692,543;32357,012;   -0,568;   -1,955
693,116;31952,263;   -0,659;   -1,409
693,690;31696,876;   -0,296;    0,500
694,263;32338,308;    2,341;    2,955
694,836;32341,194;    2,795;    3,591
695,410;30962,535;    1,159;    1,773
695,983;31474,422;    1,614;    0,591
696,556;31417,490;   -0,750;   -1,045
697,129;31842,286;   -1,114;    1,409
697,703;31456,717;    1,341;    1,955
698,276;31483,240;    1,705;   -0,773
698,849;31221,490;   -1,023;    1,409
699,422;31623,831;    1,250;    0,591
699,995;31291,809;   -0,659;    0,136
700,568;31837,604;   -0,204;    3,045
701,140;31810,400;   -1,841;    1,682
701,713;31507,650;    0,341;    2,409
702,286;31297,172;    0,796;    0,864
702,859;31104,241;    0,614;   -0,591
703,432;30218,400;   -0,841;    0,682
704,004;30789,559;    1,978;    0,318
704,577;30621,354;    1,068;    0,136
705,150;31194,695;    0,887;    2,500
705,722;30986,582;    1,523;   -3,227
706,295;30765,650;    1,432;   -0,591
706,867;30585,264;    0,250;    1,955
707,440;30790,332;   -0,113;   -0,409
708,012;31072,855;   -0,022;    0,591
708,584;31003,196;    2,705;    0,227
709,157;31273,355;    1,160;   -0,591
709,729;30919,605;    1,069;    2,045
710,301;31834,764;   -1,204;    0,045
710,874;31846,559;    0,341;   -0,227
711,446;30668,809;   -0,295;    0,864
712,018;30541,878;   -3,022;    0,500
712,590;30265,400;   -0,204;    1,682
713,162;30809,469;   -0,477;    1,318
713,734;31044,810;    1,796;   -2,045
714,306;30914,878;    0,342;   -0,409
714,878;29566,128;   -0,295;    0,864
715,450;30437,287;   -0,113;    0,864
716,022;30768,446;    2,433;    1,318
716,593;30920,969;    0,978;    0,591
717,165;30819,946;    1,796;   -1,227
717,737;30521,378;    0,796;    0,409
718,309;30235,083;    1,160;   -0,045
718,880;30102,333;   -1,295;   -1,409
719,452;30372,492;    0,887;   -1,591
720,024;29869,560;    1,705;   -0,591
720,595;30392,265;    2,978;    0,955
721,167;29951,969;    1,160;   -2,045
721,738;29443,219;    2,069;   -1,045
722,309;29354,197;    1,251;   -1,227
722,881;29120,810;    2,705;    0,773
723,452;29827,424;    1,251;    2,864
724,023;30014,856;    1,524;    2,682
724,595;29766,379;    2,342;    0,682
725,166;29465,083;    1,524;   -0,409
725,737;29116,697;    1,887;    0,227
726,308;29236,220;    0,797;    0,318
726,879;29653,470;    1,069;    1,227
727,450;29539,993;   -2,022;   -0,045
728,021;29510,879;    1,069;    0,682
728,592;29302,584;    1,160;    0,500
729,163;29649,925;    1,433;   -0,136
729,734;29593,538;    2,160;   -0,227
730,305;29956,516;    0,615;    0,136
730,876;30321,766;    0,888;    2,955
731,447;30040,470;    0,797;    2,682
732,017;30164,720;   -0,840;    1,864
732,588;29644,788;   -0,021;    1,227
733,159;29876,493;    3,615;   -1,045
733,729;29659,016;    1,251;    0,409
734,300;28899,357;    0,160;    0,864
734,870;29312,698;   -1,385;    0,591
735,441;29841,766;    0,888;   -0,591
736,011;29612,834;    1,070;   -1,591
736,582;29607,811;    1,251;    0,045
737,152;29057,243;    0,979;   -2,045
737,722;29535,766;    1,070;   -0,682
738,293;29241,471;   -2,021;    1,318
738,863;29108,175;    1,797;    2,318
739,433;28867,425;    4,524;    0,318
740,003;29526,312;    1,524;   -0,682
740,573;28885,380;    2,252;   -1,591
741,143;28889,812;    3,615;    0,318
741,713;29648,062;    0,252;   -0,500
742,283;29284,676;    1,706;    1,591
742,853;29035,107;    0,524;    1,591
743,423;28540,721;    0,161;    0,045
743,993;28669,698;    1,070;    1,500
744,563;27948,767;    2,524;   -0,864
745,133;27957,653;   -0,112;   -0,864
745,702;28668,085;    2,797;    1,773
746,272;27842,971;    0,434;    0,591
746,842;27596,585;   -0,748;   -0,591
747,411;28076,017;   -0,839;   -0,318
747,981;28198,631;   -0,930;    0,500
748,551;28265,062;   -0,021;   -1,045
749,120;28115,767;   -0,112;   -0,227
749,690;28534,381;    2,161;    2,409
750,259;28856,631;    0,979;    2,955
750,828;28730,881;    4,070;   -1,955
751,398;28975,585;   -0,112;   -0,045
751,967;28450,472;    2,888;    0,409
752,536;28696,449;    1,161;   -0,227
753,105;29133,790;   -1,384;    0,227
753,675;28861,495;   -0,112;    1,773
754,244;28819,108;    0,888;    3,591
754,813;28912,358;    0,979;    1,227
755,382;28535,245;    0,798;    0,955
755,951;29025,858;   -0,112;    3,682
756,520;28554,199;    2,525;    1,864
757,089;29113,813;    1,888;    0,500
757,658;29266,245;    2,434;    1,227
758,227;29262,677;   -1,111;    0,318
758,795;29590,836;   -1,021;    1,136
759,364;29817,632;    0,525;   -0,591
759,933;28823,700;    1,343;   -0,045
760,501;28368,586;    0,252;   -1,318
761,070;28848,927;   -0,293;   -1,409
761,639;29598,723;    1,434;    1,318
762,207;28863,609;    0,889;   -0,955
762,776;28785,677;    2,889;    0,864
763,344;28722,018;    0,071;    0,591
763,913;27840,632;    1,616;    1,409
764,481;28614,700;    1,980;   -0,136
765,049;28396,496;    0,616;    1,409
765,618;28258,837;    1,434;    0,318
766,186;28309,996;    2,434;    0,136
766,754;28501,973;    1,798;    1,864
767,322;27477,678;    1,162;    0,409
767,890;27509,382;    0,525;   -1,773
768,459;27891,541;    2,616;   -0,318
769,027;28062,064;    2,525;    3,409
769,595;27084,041;    2,616;    2,591
770,163;27472,746;    3,344;    2,955
770,730;27218,451;    2,525;   -0,136
771,298;27047,973;    1,162;   -1,409
771,866;27165,314;    0,253;    4,955
772,434;27427,019;    1,162;   -1,864
773,002;27576,451;    2,616;    0,682
773,569;27231,428;    1,071;    1,682
774,137;27057,315;    0,889;   -0,045
774,705;27854,474;   -0,747;   -0,136
775,272;27268,542;    0,253;    0,682
775,840;27087,065;   -0,111;    2,682
776,407;26555,678;   -0,293;    1,955
776,975;26106,110;    1,162;    0,318
777,542;27197,360;    2,162;   -0,045
778,110;27056,065;    0,707;   -0,045
778,677;26674,042;    1,071;   -0,864
779,244;26427,383;   -1,020;    1,045
779,812;26519,815;    0,980;    0,864
780,379;26381,701;    2,435;    1,136
780,946;26661,133;    2,617;   -0,773
781,513;26953,383;   -0,565;    0,318
782,080;26289,633;    1,253;    2,864
782,647;27012,883;    1,708;    3,045
783,214;26616,952;   -0,201;    3,864
783,781;26187,656;    1,708;   -0,682
784,348;26105,543;    0,253;    1,500
784,915;26571,520;   -1,474;    0,318
785,482;26335,679;    2,708;    2,591
786,049;26818,747;    1,071;   -0,591
786,615;26868,816;    1,708;   -0,955
787,182;26638,702;   -3,201;   -0,682
787,749;26349,225;   -2,201;    1,409
788,315;25585,475;    0,253;   -0,409
788,882;25892,998;    0,981;   -1,227
789,448;26577,611;    1,435;   -0,955
790,015;26559,316;    1,799;    3,227
790,581;26153,475;    0,708;    0,227
791,148;26056,089;    1,344;    1,045
791,714;26297,793;   -1,019;    3,136
792,280;26000,861;    3,708;    1,591
792,847;25547,566;   -0,928;    2,500
793,413;26083,452;   -0,110;   -0,318
793,979;25560,157;    1,526;   -1,318
794,545;25628,771;    2,981;    2,682
795,111;25032,657;    2,435;    1,318
795,678;25199,362;    3,526;   -1,682
796,244;24833,521;    2,799;    0,136
796,810;25411,862;    0,799;    0,773
797,375;25074,203;   -0,292;   -2,136
797,941;25092,089;   -1,110;    0,591
798,507;25206,521;    0,254;   -0,955
799,073;24802,862;    2,708;    0,591
799,639;24878,567;    1,435;    3,136
800,205;24922,544;   -1,565;    2,682
800,770;24475,976;    1,345;    1,773
801,336;24450,499;    2,981;   -0,955
801,901;24163,021;    6,072;    3,136
802,467;24785,544;    0,526;    2,045
803,033;24084,703;   -0,019;    0,864
803,598;24299,226;    1,072;   -1,045
804,163;24286,022;    0,708;   -0,318
804,729;24239,090;   -0,110;    1,136
805,294;24681,340;    1,072;    2,227
805,859;24460,953;    0,890;   -0,409
806,425;23931,385;    3,890;    2,682
806,990;23630,544;    1,890;    4,318
807,555;24154,976;   -0,110;    2,591
808,120;24003,135;   -1,292;   -0,409
808,685;24054,476;    1,072;   -2,500
809,250;23491,272;    2,072;   -0,500
809,815;23871,886;   -0,201;    0,682
810,380;24399,863;    0,981;    1,591
810,945;24903,022;    2,890;    2,045
811,510;24106,999;   -0,200;    1,591
812,075;23801,431;    2,800;   -1,409
812,640;23826,772;    3,709;    1,409
813,204;23903,568;    2,163;   -0,227
813,769;24381,545;    0,254;   -0,045
814,334;23730,977;    0,527;    0,864
814,898;23798,681;    1,981;    0,591
815,463;23631,386;    0,981;   -0,773
816,027;23616,636;    1,345;   -2,318
816,592;23699,977;    2,163;   -2,045
817,156;23188,773;   -2,200;    1,136
817,721;22956,295;    0,982;    2,318
818,285;22939,182;    0,618;    1,500
818,849;23631,977;   -0,018;    1,682
819,414;23517,136;    0,073;    2,955
819,978;23070,386;   -0,291;    1,773
820,542;23654,909;    2,891;    0,500
821,106;23414,523;    2,800;    0,682
821,670;23498,955;    2,709;    2,591
822,234;23156,568;    1,073;    1,409
822,798;22533,000;   -0,836;    0,500
823,362;22508,614;    1,527;    4,227
823,926;21812,228;   -0,018;    1,136
824,490;22031,205;    3,527;   -0,682
825,054;22464,364;    2,527;   -1,136
825,618;22065,160;   -1,200;   -1,500
826,181;22000,682;    0,982;   -1,318
826,745;21896,660;   -0,745;   -1,045
827,309;22268,637;    2,255;    1,318
827,872;21650,887;    0,527;    0,955
828,436;22660,046;    1,982;   -0,773
828,999;22735,933;    2,436;    1,227
829,563;21537,183;   -0,654;    1,136
830,126;21354,978;   -0,018;   -0,591
830,690;21333,683;    0,709;    2,864
831,253;20811,660;   -0,473;    2,227
831,816;20983,183;   -0,018;    0,500
832,380;20885,797;    1,164;    0,864
832,943;21107,047;    3,073;   -0,500
833,506;20593,024;    0,255;   -1,227
834,069;21412,910;    2,164;   -0,955
834,632;21437,797;   -2,200;    1,318
835,195;21333,865;    1,346;    0,955
835,758;20524,388;    0,709;    1,955
836,321;20357,274;    1,073;   -1,045
836,884;20448,342;   -1,291;   -0,955
837,447;20477,865;    0,528;    1,773
838,010;20707,842;    1,800;    3,227
838,573;21014,002;    0,528;    0,773
839,135;20989,888;   -0,109;   -0,955
839,698;20441,956;    2,528;    0,409
840,261;19963,115;    0,255;   -0,227
840,823;19834,002;   -0,927;    0,864
841,386;20100,797;   -0,018;   -2,409
841,948;19967,775;    0,255;    1,773
842,511;19690,206;    0,255;    1,682
843,073;19825,275;    2,982;    0,227
843,636;19627,343;    0,619;   -0,227
844,198;19564,138;    1,255;    0,591
844,760;19693,479;    0,619;    1,955
845,322;19292,002;    0,164;    1,136
845,885;19751,343;   -0,290;    0,591
846,447;20173,411;    0,710;    0,227
847,009;19705,934;    3,983;   -0,682
847,571;20091,184;    1,346;   -2,045
848,133;20209,798;   -0,199;   -1,864
848,695;20012,048;    2,346;    1,409
849,257;19492,389;    1,346;   -1,682
849,819;19706,821;    2,983;   -0,409
850,381;19775,343;    1,801;   -0,864
850,942;20156,684;    1,892;   -0,591
851,504;20051,753;    0,983;    0,227
852,066;20082,457;    1,619;   -1,591
852,628;19605,980;    0,165;    1,955
853,189;19180,957;    0,256;    2,682
853,751;19336,480;   -0,654;    1,409
854,312;19145,548;    1,256;   -1,682
854,874;19666,798;   -0,108;   -0,773
855,435;20107,503;    0,528;   -1,682
855,997;20295,753;    3,983;   -0,136
856,558;19508,912;    0,801;    1,773
857,119;19647,526;   -0,744;    2,864
857,681;19345,958;   -0,108;    0,318
858,242;19358,662;    1,347;   -2,136
858,803;19805,185;    1,074;   -0,773
859,364;20387,344;    0,892;   -4,773
859,925;19711,231;   -0,290;   -0,955
860,486;19597,844;    0,529;   -0,955
861,047;19278,003;    0,165;   -1,227
861,608;19113,890;    0,165;   -0,773
862,169;19288,231;   -0,562;   -0,045
862,730;19004,390;   -0,290;    1,409
863,291;19246,367;    0,438;   -0,500
863,852;19582,708;   -0,926;    1,955
864,412;19067,413;   -1,835;   -0,864
864,973;17621,663;    1,892;    0,500
865,534;17440,458;    2,074;    0,227
866,094;18995,981;    2,620;    0,227
866,655;18618,413;    4,711;    3,318
867,215;18924,027;    0,074;    0,136
867,776;18756,277;   -1,199;   -0,136
868,336;18858,163;    1,529;    0,136
868,897;18309,050;    3,438;    1,682
869,457;18091,027;    3,256;    0,318
870,017;18332,004;    2,438;   -1,227
870,578;18885,800;    1,893;    0,773
871,138;18495,777;    2,620;   -0,955
871,698;17982,209;   -0,562;   -1,318
872,258;17843,277;    0,711;   -2,864
872,818;18252,436;    2,347;    0,045
873,378;18200,050;   -2,198;    1,045
873,938;17807,027;    4,984;    0,500
874,498;18120,550;    1,256;   -1,955
875,058;17974,800;    4,347;    1,773
875,618;17817,505;    1,438;   -2,682
876,177;17758,027;   -0,471;    0,136
876,737;17347,641;   -0,289;    1,955
877,297;17341,255;    2,711;    1,955
877,856;17336,505;    2,529;    0,318
878,416;17256,209;    2,438;   -0,136
878,976;17500,732;    3,438;    0,409
879,535;17684,710;    4,529;    3,136
880,095;17430,050;    1,347;    0,045
880,654;17535,664;    0,347;    1,318
881,213;17617,460;    2,347;    1,500
881,773;17281,073;    1,984;    2,682
882,332;17630,142;    6,075;    5,136
882,891;17491,301;    0,711;    2,136
883,451;17978,642;   -2,016;    1,682
884,010;17397,437;   -1,107;   -0,409
884,569;17514,778;   -2,289;   -0,045
885,128;17619,846;   -0,743;   -1,864
885,687;17680,278;   -0,743;    0,682
886,246;17327,074;    2,620;    2,136
886,805;17086,778;    1,620;    2,045
887,364;17439,756;    1,166;   -0,500
887,922;17848,551;   -0,016;    0,045
888,481;17323,710;    1,530;    0,591
889,040;17632,869;    3,711;    2,136
889,599;18298,392;    2,166;    1,409
890,157;18401,370;    2,166;    2,409
890,716;18081,801;    2,166;    0,227
891,274;17842,233;    0,075;   -1,136
891,833;18241,120;    1,166;    0,864
892,391;18126,915;    1,802;    0,500
892,950;18232,802;    0,166;   -0,773
893,508;18590,052;    0,984;   -0,409
894,067;17935,029;   -0,379;    0,136
894,625;17870,915;   -1,016;   -1,500
895,183;18100,984;   -0,198;   -0,682
895,741;17993,688;    2,257;   -1,773
896,299;17840,756;    1,621;   -2,409
896,858;18010,825;    1,530;   -1,591
897,416;18116,893;    0,166;   -1,318
897,974;17843,234;   -2,197;    0,318
898,532;17988,847;    6,530;    2,682
899,089;17883,370;    0,621;   -0,682
899,647;17957,257;    0,530;    1,318
900,205;17669,870;    0,257;    1,045
900,763;17846,939;    2,166;    0,227
901,321;17869,461;    3,530;   -1,409
901,878;17308,620;    3,257;   -0,773
902,436;17159,871;    0,257;    1,318
902,994;17534,030;    6,712;    3,682
903,551;16937,189;    1,439;    0,409
904,109;17353,984;    1,530;   -1,409
904,666;16966,780;    1,439;    1,045
905,224;16787,212;    3,894;   -0,409
905,781;16488,644;   -0,470;   -0,318
906,338;16541,712;    0,167;    1,045
906,895;16472,325;    1,894;    2,045
907,453;16412,666;    2,348;    1,136
908,010;16422,553;    3,348;    0,409
908,567;16044,803;   -0,561;    0,591
909,124;15584,871;    2,439;   -1,500
909,681;15643,848;   -1,288;    0,682
910,238;15763,553;   -0,106;   -1,318
910,795;16092,167;   -1,561;   -1,136
911,352;15733,439;   -0,379;   -2,682
911,909;15138,076;    2,803;   -0,864
912,466;15619,258;    1,985;    1,500
913,022;15136,712;   -0,924;    0,500
913,579;15525,167;   -0,470;    2,045
914,136;15229,167;   -2,561;    0,955
914,692;15565,167;    1,530;   -1,227
915,249;15129,894;    0,530;    0,409
915,806;15355,530;    1,803;    1,955
916,362;15057,985;    0,894;    1,864
916,918;14606,348;    2,439;    1,045
917,475;14602,076;    1,621;    0,955
918,031;14707,712;    0,076;   -0,045
918,587;14112,803;    0,621;   -0,318
919,144;14355,894;   -0,379;    0,227
919,700;14655,348;    0,167;    0,773
920,256;14258,348;    0,439;    0,045
920,812;13851,258;    1,439;   -1,045
921,368;13815,530;    1,348;   -1,045
921,924;13464,712;    0,439;   -0,136
922,480;13034,167;    0,076;    1,227
923,036;13673,985;   -0,652;    1,955
923,592;13628,985;    0,621;    0,318
924,148;13514,076;    1,894;   -0,955
924,704;12821,712;    0,258;   -0,409
925,259;13122,712;   -0,561;    0,591
925,815;12825,985;    3,803;    0,500
926,371;12387,258;    3,530;    1,409
926,926;12255,621;    1,621;    0,591
927,482;11836,439;    1,621;    0,773
928,037;11706,621;   -0,833;    2,045
928,593;11989,076;    0,258;    1,045
929,148;11810,348;    1,167;   -1,500
929,704;11335,712;    2,439;   -0,500
930,259;11549,258;    0,894;   -0,136
930,814;10587,621;    1,803;    1,955
931,369;10278,167;    0,258;   -0,773
931,925;10154,439;   -1,924;    0,136
932,480;10014,167;    3,076;   -2,591
933,035; 9894,621;    3,985;   -0,318
933,590; 9651,985;   -1,742;   -1,773
934,145; 9338,621;   -1,288;   -0,318
934,700; 9685,258;    0,348;   -0,591
935,255; 9478,803;    4,803;    0,045
935,809; 8713,348;    6,258;    0,864
936,364; 7832,076;    2,167;   -0,136
936,919; 7780,439;    2,348;   -1,773
937,474; 7667,167;    1,348;    0,136
938,028; 7410,985;    3,076;    1,136
938,583; 6845,167;    6,348;    4,682
939,138; 7142,621;    0,167;    2,136
939,692; 6609,894;   -1,015;   -1,136
940,247; 6258,258;    1,167;   -1,045
940,801; 5774,348;    0,621;    0,227
941,355; 5683,621;    0,439;    2,591
941,910; 5358,621;    0,712;   -2,136
942,464; 5454,167;    2,712;   -0,318
943,018; 5214,985;    3,258;   -0,227
943,572; 5138,439;    2,803;   -0,682
944,126; 4524,621;   -0,924;   -0,409
944,681; 4417,530;    0,712;    0,227
945,235; 4402,258;    2,167;   -0,591
945,789; 4356,985;    1,258;   -1,864
946,342; 4438,712;   -0,561;   -0,591
946,896; 4259,348;    0,348;    0,955
947,450; 4010,621;   -0,561;   -0,227
948,004; 4186,621;    1,076;   -0,045
948,558; 4218,167;    1,258;   -0,864
949,111; 4118,167;   -1,197;   -0,318
949,665; 4113,439;   -0,106;   -0,682
950,219; 4000,167;    0,621;   -1,045
950,772; 4089,621;    0,258;    1,864
951,326; 4009,803;   -1,106;   -0,955
951,879; 4103,439;    1,076;   -2,318
952,433; 4136,258;    1,348;    2,227
952,986; 3979,076;    0,348;    0,682
953,539; 3909,985;    1,530;    0,591
954,093; 3868,894;    0,985;   -1,318
954,646; 3988,803;   -0,288;    1,318
955,199; 3797,439;    1,258;   -0,500
955,752; 3660,803;    1,985;    1,773
956,305; 3600,621;    0,894;    2,955
956,858; 3783,803;    0,621;   -0,318
957,411; 3980,258;    3,621;    2,136
957,964; 3797,985;    2,076;    2,136
958,517; 3796,167;    0,985;    3,136
959,070; 3604,439;   -1,197;    1,955
959,623; 3669,530;    1,076;    1,500
960,176; 3435,985;    0,712;    2,045
960,728; 3406,894;    1,712;    0,773
961,281; 3488,530;    2,258;    0,500
961,834; 3515,076;   -0,833;    0,864
962,386; 3429,167;    1,258;    1,045
962,939; 3348,712;    3,439;   -0,318
963,491; 3522,076;    2,621;    1,136
964,043; 3372,894;    0,076;    2,409
964,596; 3509,712;    1,712;    2,227
965,148; 3324,167;   -0,379;    1,773
965,700; 3262,894;   -0,015;   -0,227
966,253; 3432,439;   -0,833;    0,318
966,805; 3246,167;    1,894;    0,773
967,357; 3294,439;    0,439;   -1,500
967,909; 3230,621;    1,167;   -1,227
968,461; 3362,985;    0,894;    3,136
969,013; 3270,894;   -1,561;   -0,864
969,565; 3365,258;    1,803;   -1,136
970,117; 3424,258;    3,803;    1,045
970,669; 3255,530;    3,258;   -0,136
971,220; 3119,530;    2,167;   -1,500
971,772; 3028,894;    1,348;   -0,318
972,324; 3146,621;   -1,197;   -0,500
972,876; 3106,803;    0,167;   -0,045
973,427; 3222,258;   -1,197;   -1,045
973,979; 3211,712;    0,076;   -2,500
974,530; 3267,076;    0,803;    1,318
975,082; 3273,985;    2,167;    1,682
975,633; 3144,985;    2,894;    1,682
976,184; 3296,712;    2,076;    0,773
976,736; 3081,894;    0,348;    0,227
977,287; 2838,076;    0,258;   -0,500
977,838; 3047,894;   -0,924;   -0,318
978,389; 3115,530;    0,803;   -0,500
978,940; 2989,712;    1,258;   -0,409
979,491; 3029,439;    2,258;   -0,500
980,042; 2962,985;   -0,652;    3,045
980,593; 3024,985;    1,894;    0,227
981,144; 3080,621;    3,530;   -0,500
981,695; 3048,621;   -0,470;    1,500
982,246; 3008,439;   -1,833;    1,045
982,797; 3169,894;   -0,561;    0,682
983,347; 3287,530;    2,167;    0,591
983,898; 3431,803;    4,167;    0,409
984,449; 3263,530;    2,530;    0,773
984,999; 3206,621;    1,894;   -1,136
985,550; 2945,530;    3,167;   -0,318
986,100; 2979,621;    0,712;   -0,318
986,651; 3019,439;    0,258;    0,045
987,201; 3007,621;    0,894;   -0,591
987,751; 3093,258;   -0,288;    2,864
988,302; 3072,439;   -0,379;    1,500
988,852; 3112,621;    1,985;   -1,136
989,402; 3124,439;    0,985;    0,682
989,952; 3028,712;    1,621;    0,864
990,502; 3147,803;    1,076;    0,682
991,052; 3118,985;   -0,106;    0,045
991,602; 2964,712;    1,167;    1,318
992,152; 2973,348;    2,803;    0,682
992,702; 2954,621;    1,167;   -0,045
993,252; 2853,348;    0,076;   -0,500
993,802; 2951,167;    1,167;    1,318
994,352; 3217,803;   -0,742;    1,136
994,901; 3317,348;    1,076;    3,227
995,451; 3216,167;   -1,197;    0,318
996,000; 3313,530;    1,076;    0,318
996,550; 2998,167;    2,894;    0,227
997,100; 3010,258;   -0,561;   -0,045
997,649; 3297,076;   -0,197;    0,955
998,198; 2914,348;   -0,288;   -1,500
998,748; 3092,985;    0,348;   -2,318
999,297; 3012,621;    0,985;   -0,409
999,846; 3094,167;    1,894;   -0,773
1000,395; 3146,803;    1,530;    0,500
1000,945; 3072,621;    1,076;   -0,773
1001,494; 3155,985;    0,167;    0,682
1002,043; 3149,621;    0,712;    0,864
1002,592; 3010,076;    3,439;    1,955
1003,141; 3156,076;    2,439;   -0,682
1003,690; 2977,439;    1,258;    0,500
1004,238; 3062,803;   -0,106;   -0,045
1004,787; 2678,439;   -1,288;    1,227
1005,336; 2909,985;    1,621;    0,682
1005,885; 3078,439;   -0,197;   -2,773
1006,433; 3246,167;   -0,470;    0,955
1006,982; 3289,894;    2,167;    1,682
1007,531; 3201,985;    2,712;   -0,227
1008,079; 3155,621;    0,258;    0,500
1008,627; 3315,712;    1,621;    0,409
1009,176; 3027,258;    0,076;   -1,955
1009,724; 3089,894;   -2,742;    0,864
1010,273; 3122,621;    1,076;    0,500
1010,821; 3243,894;    1,076;    1,409
1011,369; 2975,621;    0,076;    1,318
1011,917; 2966,985;   -0,833;   -0,591
1012,465; 3280,803;    2,530;   -1,591
1013,013; 3391,258;    0,439;   -1,682
1013,561; 3234,894;   -1,288;   -0,773
1014,109; 3264,621;   -0,833;    1,682
1014,657; 3155,439;    1,348;    0,591
1015,205; 3265,167;    0,894;   -0,955
1015,753; 3313,985;    0,258;   -1,409
1016,301; 3354,985;    2,621;    3,045
1016,848; 3367,167;    2,167;    0,409
1017,396; 3398,167;    1,621;    0,045
1017,944; 3534,530;    2,621;    1,864
1018,491; 3296,803;   -0,197;    1,409
1019,039; 3423,258;   -0,652;    0,591
1019,586; 3338,985;    0,076;    1,682
1020,134; 3429,076;    0,712;    1,500
1020,681; 3449,621;    2,894;   -1,136
1021,228; 3475,985;   -0,561;   -2,227
1021,776; 3323,712;   -0,833;   -1,136
1022,323; 3529,894;    0,803;    0,773
1022,870; 3471,439;   -0,470;   -0,045
1023,417; 3362,712;    2,076;    1,864
1023,964; 3494,530;    0,621;    1,227
1024,511; 3323,530;   -0,652;    0,773
1025,058; 3130,894;    0,439;   -0,045
1025,605; 3186,712;   -1,742;    3,136
1026,152; 3373,894;   -0,106;   -0,591
1026,699; 3116,621;    0,167;    1,318
1027,245; 3306,803;    2,439;    0,318
1027,792; 3544,167;    0,712;    1,409
1028,339; 3396,076;    4,076;   -0,045
1028,885; 3240,439;    3,621;   -0,227
1029,432; 3187,167;   -0,106;    0,227
1029,978; 3257,803;    1,348;   -1,591
1030,525; 3154,621;    1,621;    0,409
1031,071; 3410,439;    0,348;    1,136
1031,618; 3469,712;    1,258;    1,682
1032,164; 3262,803;    2,076;    3,045
1032,710; 3323,985;    0,076;   -1,500
1033,256; 3248,621;    0,712;   -0,136
1033,803; 3247,076;   -0,288;    1,500
1034,349; 2961,258;    1,803;    0,136
1034,895; 3122,985;    2,621;   -0,318
1035,441; 3106,439;    0,439;    0,318
1035,987; 3119,712;   -2,288;   -0,682
1036,533; 3111,076;   -0,197;   -0,955
1037,078; 3302,258;    4,712;    1,682
1037,624; 3116,803;    2,439;   -0,955
1038,170; 3152,712;    1,712;   -0,318
1038,716; 3035,167;    2,167;   -0,409
1039,261; 2969,803;    2,167;   -0,773
1039,807; 2890,985;   -0,015;    3,409
1040,352; 2953,439;   -1,288;   -0,318
1040,898; 3001,348;    0,167;   -0,682
1041,443; 2919,258;    0,803;   -2,591
1041,989; 2915,258;    3,621;    1,591
1042,534; 2796,348;    0,985;    2,591
1043,079; 2962,530;    1,985;    0,955
1043,625; 2703,985;    0,258;    0,500
1044,170; 2728,530;    2,439;    1,045
1044,715; 3011,258;    0,167;    0,955
1045,260; 2816,712;   -0,833;   -0,955
1045,805; 2878,803;    0,258;   -0,591
1046,350; 2839,167;    0,530;   -0,409
1046,895; 2779,894;    0,803;    1,591
1047,440; 2718,621;    1,530;    0,409
1047,985; 2630,894;   -1,197;   -0,955
1048,530; 2543,712;    1,348;    1,227
1049,074; 2612,530;    2,803;    0,318
1049,619; 2581,076;   -0,924;    1,955
1050,164; 2359,894;    1,076;    0,227
1050,708; 2425,076;    2,621;    0,045
1051,253; 2775,439;    3,258;   -2,227
1051,797; 2494,258;   -0,197;   -1,318
1052,342; 2531,348;    1,348;    1,045
1052,886; 2497,621;    1,803;   -1,409
1053,430; 2393,894;    2,167;    0,136
1053,975; 2413,167;    0,894;   -0,318
1054,519; 2388,985;    1,803;    3,227
1055,063; 2395,712;    3,621;    1,318
1055,607; 2273,803;    1,348;    0,227
1056,151; 2291,985;    0,530;    1,682
1056,695; 2223,712;   -1,833;   -1,136
1057,239; 2280,803;   -1,197;   -0,682
1057,783; 2277,530;    2,258;   -1,500
1058,327; 2224,985;    3,076;    1,409
1058,871; 2450,167;    3,985;    1,318
1059,415; 2156,712;   -0,561;   -0,045
1059,958; 2401,530;    2,985;    2,591
1060,502; 2143,258;    1,348;   -0,773
1061,046; 2055,348;    1,712;   -0,955
1061,589; 2021,348;    2,803;   -1,136
1062,133; 1905,348;    0,985;    1,864
1062,676; 1839,530;    1,439;    0,864
1063,220; 1844,985;    0,985;    0,500
1063,763; 1856,894;    2,985;    1,136
1064,306; 1924,803;    0,985;    1,864
1064,849; 1819,530;    2,076;    0,591
1065,393; 1832,348;    2,894;   -1,500
1065,936; 1966,167;    2,530;   -0,409
1066,479; 1847,167;    2,621;    1,318
1067,022; 1856,167;    1,894;   -0,227
1067,565; 1763,167;   -1,197;   -1,318
1068,108; 1797,076;    1,258;   -0,591
1068,651; 1777,167;   -2,470;    1,409
1069,194; 1703,894;   -1,106;   -1,682
1069,736; 1681,167;    3,803;    0,955
1070,279; 1671,803;   -1,652;   -0,500
1070,822; 1712,530;    1,530;   -0,318
1071,364; 1769,076;    0,530;    1,318
1071,907; 1591,258;    0,348;    3,227
1072,450; 1540,076;    0,258;   -0,045
1072,992; 1521,985;   -0,561;    3,136
1073,535; 1653,712;    0,167;    2,136
1074,077; 1452,712;    2,985;    2,045
1074,619; 1427,803;    0,985;    0,591
1075,161; 1437,258;   -0,561;    1,500
1075,704; 1606,985;    0,258;    1,227
1076,246; 1421,439;    1,530;    0,682
1076,788; 1340,621;   -1,015;    1,773
1077,330; 1435,076;   -2,106;    2,136
1077,872; 1377,712;   -1,924;    0,955
1078,414; 1611,803;    3,712;    0,773
1078,956; 1340,803;    0,167;   -0,227
1079,498; 1588,985;    0,439;    0,318
1080,040; 1286,167;    0,985;   -1,318
1080,581; 1251,894;    0,621;   -0,318
1081,123; 1189,167;   -0,106;   -0,773
1081,665; 1224,621;    3,803;   -0,955
1082,206; 1493,712;    3,258;   -0,500
1082,748; 1373,530;    3,258;    2,045
1083,289; 1269,712;    0,167;    1,318
1083,831; 1170,894;    0,258;    0,227
1084,372; 1190,803;    0,894;    0,591
1084,913; 1189,348;    3,348;    0,864
1085,455; 1170,621;    1,530;   -2,045
1085,996; 1124,712;    0,530;    0,136
1086,537; 1153,621;    0,985;    0,864
1087,078; 1183,803;    0,439;   -2,136
1087,619; 1223,076;   -1,652;    0,227
1088,160; 1135,712;    1,439;    1,318
1088,701; 1121,712;   -0,742;    0,682
1089,242; 1071,076;   -0,561;   -2,227
1089,783; 1153,985;   -0,561;    1,409
1090,324; 1125,803;   -0,833;    0,682
1090,865; 1013,348;   -1,924;   -0,409
1091,405;  994,348;   -0,561;    2,227
1091,946; 1023,985;   -0,197;   -0,955
1092,487;  949,530;   -1,288;   -1,409
1093,027; 1099,167;    1,803;   -1,500
1093,568;  956,439;    2,258;    1,227
1094,108; 1028,167;    0,621;    1,773
1094,649;  981,803;   -0,470;    0,136
1095,189;  920,712;    1,167;   -0,682
1095,729;  867,985;    0,712;    0,955
1096,269;  884,348;    1,258;   -0,955
1096,810; 1196,439;   -0,197;    0,500
1097,350; 1014,985;   -0,561;   -0,773
1097,890;  914,712;    2,985;    1,227
1098,430; 1156,621;    4,985;    2,864
1098,970; 1029,985;    1,894;    1,682
1099,510;  915,894;   -0,833;   -2,318
1100,050;  846,803;    0,258;   -1,591
1100,589;  798,712;    0,076;   -0,318
1101,129;  912,803;    0,894;   -0,955
1101,669; 1046,803;    2,803;    2,136
1102,209;  880,712;    1,530;    2,227
1102,748;  837,530;    3,439;    0,955
1103,288;  836,167;    0,712;   -1,227
1103,827;  856,167;    3,530;   -2,227
1104,367;  729,348;    1,712;   -2,409
1104,906;  702,530;   -1,015;   -1,136
1105,445;  765,530;    0,985;   -1,136
1105,985;  703,439;   -0,652;    1,500
1106,524;  754,076;    1,530;   -0,682
1107,063;  737,985;    1,167;    1,409
1107,602;  712,530;    1,894;   -1,500
1108,141;  638,530;    1,621;    1,500
1108,680;  727,258;    3,985;   -0,591
1109,219;  670,258;    0,167;   -0,500
1109,758;  685,530;    4,167;    0,682
1110,297;  648,167;   -1,106;   -0,682
1110,836;  598,439;    1,439;    0,955
1111,375;  752,712;    0,348;    0,409
1111,913;  746,621;    0,985;    0,773
1112,452;  693,530;    0,894;    0,136
1112,991;  597,348;    1,076;    1,955
1113,529;  561,530;    0,167;   -0,045
1114,068;  617,167;    0,439;    2,955
1114,606;  517,439;   -0,561;   -0,955
1115,144;  672,985;    1,530;    1,045
1115,683;  608,712;    1,985;    0,318
1116,221;  672,621;    2,076;   -0,864
1116,759;  577,621;    1,621;   -0,864
1117,297;  759,621;    1,621;    1,864
1117,836;  573,258;    1,985;   -1,227
1118,374;  576,621;    0,258;   -0,682
1118,912;  530,803;    0,439;    2,682
1119,450;  509,985;    0,985;    0,864
1119,988;  564,894;    3,348;    2,136
1120,525;  996,712;    7,258;    3,318
1121,063;  693,894;    0,530;    1,864
1121,601;  518,348;    1,076;   -1,227
1122,139;  480,348;    1,076;   -2,045
1122,676;  662,621;   -1,652;    2,773
1123,214;  603,076;    0,712;    4,409
1123,751;  427,439;    0,621;    2,227
1124,289;  551,076;    0,894;   -0,409
1124,826;  426,530;   -0,379;    0,227
1125,364;  358,530;    0,712;   -0,955
1125,901;  531,894;    6,258;    1,227
1126,438;  625,803;    3,530;    0,955
1126,975;  366,894;    2,985;   -0,773
1127,513;  429,803;    2,621;    2,136
1128,050;  358,167;   -0,561;   -0,682
1128,587;  442,258;    1,348;   -0,227
1129,124;  479,985;   -0,015;    1,318
1129,661;  356,894;   -1,924;    0,227
1130,198;  515,167;    2,439;    0,773
1130,734;  458,530;   -0,379;    1,409
1131,271;  327,985;   -1,197;    0,864
1131,808;  495,712;    1,621;    3,045
1132,345;  364,167;    4,530;    0,318
1132,881;  246,258;   -0,561;   -1,864
1133,418;  375,076;    0,348;   -1,136
1133,954;  320,621;    0,712;   -2,682
1134,491;  386,348;    1,712;   -0,773
1135,027;  296,985;    2,167;    0,864
1135,564;  366,348;    1,439;    2,955
1136,100;  358,530;   -0,742;    2,136
1136,636;  260,439;   -1,015;   -1,045
1137,172;  337,985;    0,894;   -1,045
1137,708;  269,712;   -1,561;   -1,045
1138,245;  278,621;    0,803;   -1,227
1138,781;  234,712;    1,803;   -3,318
1139,317;  291,258;    1,894;   -1,409
1139,852;  282,712;    3,076;    0,136
1140,388;  392,530;    2,076;   -0,409
1140,924;  273,530;    1,076;   -2,227
1141,460;  215,894;   -0,288;    0,136
1141,996;  165,803;   -0,652;    2,682
1142,531;  200,258;    1,076;    3,318
1143,067;  401,530;    1,167;    1,045
1143,602;  452,894;    3,439;   -0,318
1144,138;  315,530;    0,803;    1,045
1144,673;  193,985;    1,621;    1,409
1145,209;  256,076;    2,894;   -0,318
1145,744;  173,894;    0,803;    0,864
1146,279;  290,439;    1,530;   -0,136
1146,815;  219,076;    1,530;   -2,682
1147,350;  259,985;   -0,924;    0,045
1147,885;  177,530;   -1,924;   -1,318
1148,420;  182,530;    2,439;    0,773
1148,955;  160,621;   -1,470;    1,864
1149,490;  181,076;   -1,106;   -1,591
1150,025;  167,894;   -1,106;   -1,773
1150,560;  275,530;   -0,288;   -0,955
1151,094;  238,712;    0,258;   -0,591
1151,629;  238,803;   -3,742;    0,864
1152,164;  177,712;   -1,288;    1,318
1152,698;  146,439;    1,258;   -0,136
1153,233;   98,894;   -1,379;   -0,682
1153,767;  147,348;   -0,288;   -2,318
1154,302;  187,076;   -0,379;    1,773
1154,836;  192,439;    0,803;   -2,136
1155,371;  234,530;    2,258;    3,682
1155,905;  190,167;    1,985;    1,682
1156,439;  159,803;    0,530;   -0,500
1156,973;  198,530;    0,439;    0,318
1157,507;  135,076;   -1,742;    0,682
1158,042;  160,712;   -0,652;    1,045
1158,576;  193,894;   -0,561;    1,773
1159,110;  181,076;    0,076;    2,409
1159,643;  171,439;   -2,470;   -0,045
1160,177;  113,985;   -2,015;    1,500

