
Integration time [ms]:   0,040
Averaging Nr. [scans]: 11
Smoothing Nr. [pixels]: 0
Data measured with spectrometer [name]: 7318044SP
Wave   ;Sample   ;Dark     ;Reference
[nm]   ;[counts] ;[counts] ;[counts] 

186,757;   27,788;   38,161;    1,318
187,357;   51,564;   26,706;    0,955
187,958;   33,729;   17,252;   -1,591
188,558;   72,376;   12,979;   -1,227
189,159;   45,228;   10,070;   -4,500
189,759;   25,589;    5,797;   -3,591
190,360;   23,292;    6,797;   -2,136
190,960;   47,606;    5,706;   -4,136
191,560;   59,063;    2,614;   -6,591
192,161;  282,668;    5,885;   -3,500
192,761;  136,815;    5,520;   -3,227
193,361;   96,512;    3,065;   -3,773
193,962;  143,666;    1,612;   -2,682
194,562;   72,282;   -0,114;   -3,955
195,162;  104,054;   -0,567;   -2,227
195,762;  258,013;    2,433;   -0,045
196,362;  207,214;    1,706;   -2,500
196,963;   78,606;    1,706;   -0,864
197,563;  150,991;    1,252;   -0,955
198,163;   94,457;   -0,111;   -0,682
198,763;  117,930;   -0,020;   -0,500
199,363;  211,571;    3,616;   -0,500
199,963;  180,259;    2,162;    0,409
200,563;  156,189;    6,344;   -1,409
201,163;  131,511;    5,435;   -0,227
201,763;  219,980;    1,435;    0,318
202,363;  157,039;    0,980;    1,500
202,963;  256,839;    1,526;    1,045
203,563;  364,640;    0,344;    0,500
204,162;  225,374;    1,889;   -1,864
204,762;  207,284;    2,071;    0,591
205,362;  178,983;    0,708;    1,955
205,962;  269,532;    3,435;    1,955
206,562;  267,015;    1,889;    2,318
207,161;  222,664;    1,708;    0,318
207,761;  386,856;    4,435;    2,409
208,361;  262,968;    1,889;    1,409
208,960;  355,439;    2,889;    1,500
209,560;  416,766;    0,435;    1,591
210,160;  405,243;    5,071;    1,864
210,759;  360,296;    0,708;    1,227
211,359;  365,085;   -0,474;    1,045
211,958;  611,998;    3,526;    2,045
212,558;  686,397;    0,799;    1,864
213,157;  529,123;   -0,929;    1,500
213,757;  957,595;    5,617;   -0,227
214,356;  659,956;    1,708;   -0,409
214,956;  977,182;    3,526;    0,409
215,555;  627,035;    0,617;    2,136
216,154;  570,967;   -0,292;   -0,591
216,754;  568,827;    1,253;    0,773
217,353;  686,248;   -0,383;   -1,045
217,952;  547,477;    2,072;    0,318
218,552;  776,638;    0,254;   -0,773
219,151;  667,407;   -1,110;    0,955
219,750;  655,053;    0,890;   -0,227
220,349;  745,509;   -2,292;    1,045
220,948;  860,486;    1,163;    1,136
221,548;  845,128;    0,617;    1,227
222,147;  935,984;   -1,292;   -0,409
222,746; 1212,731;    1,254;   -0,955
223,345; 1092,262;   -1,019;    0,500
223,944; 1094,367;    1,163;    0,773
224,543; 1239,369;    4,072;   -1,409
225,142; 1356,361;    1,345;    0,136
225,741; 1263,469;    1,163;    1,045
226,340; 1281,841;    1,254;   -0,955
226,939; 1693,299;    2,708;   -0,136
227,538; 1599,192;    1,163;   -0,773
228,137; 1767,627;    0,435;    0,864
228,735; 1859,193;    0,435;    1,227
229,334; 1640,872;   -0,474;   -0,227
229,933; 2011,240;    0,799;    0,591
230,532; 2111,675;   -1,201;   -0,409
231,131; 2168,140;    1,253;    0,318
231,729; 2273,527;    1,163;   -2,318
232,328; 2354,476;    0,435;   -1,500
232,927; 2408,971;    4,526;   -0,500
233,525; 2498,925;    0,981;    0,045
234,124; 2711,288;    1,890;   -1,591
234,723; 2713,483;    1,617;   -1,045
235,321; 2848,849;    1,163;    0,136
235,920; 3028,961;    2,526;   -1,227
236,518; 3300,418;    1,072;    0,318
237,117; 3408,629;    2,890;   -0,227
237,715; 3568,827;    1,163;   -0,500
238,314; 3610,521;    1,708;   -2,318
238,912; 3715,635;    0,526;   -1,409
239,510; 3746,719;    1,162;   -1,227
240,109; 3920,799;   -0,474;    3,773
240,707; 3937,761;   -0,474;    1,227
241,305; 4246,546;   -0,383;    0,136
241,904; 4433,637;   -0,292;   -2,045
242,502; 4410,573;    3,253;   -0,227
243,100; 4360,324;    3,344;   -0,955
243,698; 4568,614;    2,799;    1,682
244,297; 4732,942;   -0,656;    0,682
244,895; 4606,255;   -0,474;   -2,318
245,493; 4884,748;    2,981;   -0,591
246,091; 4904,172;    5,163;   -1,318
246,689; 4880,284;    2,163;    0,591
247,287; 5008,282;   -0,019;   -1,136
247,885; 5273,769;   -1,019;    1,227
248,483; 5370,189;   -0,201;   -0,500
249,081; 5458,981;    0,981;    1,591
249,679; 5611,179;   -1,019;    1,682
250,277; 5843,553;   -2,292;    0,864
250,875; 5828,212;    0,617;   -1,045
251,473; 5847,086;   -0,019;    0,500
252,071; 6017,280;   -0,383;    1,045
252,669; 6165,276;   -1,565;    0,318
253,267; 6384,922;    1,618;    0,773
253,864; 6329,191;    0,617;    0,682
254,462; 6242,287;    1,526;    1,591
255,060; 6172,847;    0,072;    1,318
255,658; 6479,458;   -3,292;   -0,136
256,255; 6866,576;   -0,201;   -2,045
256,853; 6736,405;    2,345;    1,409
257,451; 6739,244;    1,981;    1,864
258,048; 6990,259;    2,072;    1,864
258,646; 6734,763;    0,436;   -1,045
259,243; 6918,496;    2,981;    2,227
259,841; 6985,050;    1,799;    0,318
260,438; 6860,906;    0,254;    0,864
261,036; 7509,398;    0,617;    1,409
261,633; 7431,598;    1,526;    2,227
262,231; 7204,181;   -0,110;   -0,045
262,828; 7285,001;   -0,383;    1,136
263,425; 7299,029;   -1,928;   -0,591
264,023; 7547,756;    1,436;    0,045
264,620; 7135,896;    1,526;   -0,318
265,217; 7466,164;    2,890;    3,136
265,815; 7557,023;    2,527;    2,136
266,412; 7368,940;    0,072;    0,136
267,009; 7384,811;    0,526;    0,773
267,606; 7315,399;    0,345;   -0,955
268,203; 7300,337;   -0,383;   -0,591
268,801; 7577,775;   -0,474;    0,591
269,398; 7861,274;   -0,564;    2,500
269,995; 7807,819;    0,890;    1,591
270,592; 7598,986;    0,799;   -0,500
271,189; 7789,570;    1,981;    0,409
271,786; 7885,031;    2,072;    1,227
272,383; 7755,811;   -0,383;    0,227
272,980; 7927,200;    1,617;    0,318
273,577; 8370,694;    2,162;    1,227
274,174; 7961,269;    1,435;    2,591
274,771; 7941,458;    1,890;   -0,773
275,367; 8091,442;    3,253;    1,409
275,964; 8053,235;   -0,565;   -0,500
276,561; 8126,486;   -2,474;   -1,045
277,158; 8287,179;    1,799;   -1,773
277,755; 8432,344;   -0,110;    0,409
278,351; 7884,420;    0,436;   -1,500
278,948; 8148,433;   -0,201;    0,045
279,545; 8144,346;    0,527;    2,318
280,141; 8753,874;    1,254;   -2,045
280,738; 8583,591;    2,435;   -0,136
281,334; 8796,820;   -0,383;    0,591
281,931; 8216,372;    2,890;   -1,318
282,528; 8345,865;    4,072;   -0,500
283,124; 8997,287;    3,345;   -0,500
283,721; 8882,184;    0,709;    1,409
284,317; 8723,307;    0,163;    2,500
284,913; 9251,573;   -0,110;    0,591
285,510; 9423,755;    2,890;   -0,318
286,106; 9431,370;    2,345;   -0,955
286,703; 9044,291;    0,072;    1,955
287,299; 9232,050;    1,254;   -0,591
287,895; 9416,283;    0,890;   -1,045
288,491; 9944,911;    0,163;    2,136
289,088; 9678,515;    0,163;    2,409
289,684; 9736,276;    2,890;    1,500
290,280; 9749,574;    1,890;    0,682
290,876; 9832,712;    0,163;    5,500
291,472; 9711,294;    2,163;    2,227
292,068; 9803,327;    1,254;    0,227
292,665; 9537,504;   -0,564;    0,773
293,261; 9210,801;   -1,292;    2,136
293,857; 9583,344;    4,072;    2,136
294,453; 9523,352;   -0,928;    0,955
295,049; 9409,378;    0,253;    1,955
295,644; 9452,764;   -1,292;    0,136
296,240; 9344,099;    0,162;   -0,136
296,836; 9387,019;   -0,747;    0,318
297,432; 9647,968;    2,980;   -0,500
298,028; 9671,469;    0,435;    0,773
298,624;10015,592;    0,889;    1,864
299,220;10240,758;    0,435;    0,591
299,815; 9952,733;    0,526;   -0,409
300,411; 9762,196;    0,435;    1,773
301,007; 9761,805;    1,889;    0,227
301,602; 9795,317;    2,071;   -2,318
302,198; 9942,834;    1,435;   -0,773
302,794;10249,889;    1,526;   -0,500
303,389;10330,462;    1,071;    1,045
303,985;10420,012;    1,253;    1,409
304,580;10364,092;    0,889;    1,591
305,176;10363,628;    0,344;    0,136
305,771;10300,188;   -0,929;   -1,227
306,367;10184,017;    3,071;    0,136
306,962;10490,317;    2,889;    1,500
307,558;10217,452;    2,435;    0,136
308,153;10149,425;   -0,383;   -1,136
308,748;10343,983;    0,162;    1,682
309,344;10371,313;    0,253;   -1,318
309,939;10492,345;    2,071;   -1,318
310,534;10728,192;   -2,020;   -1,682
311,130;10626,190;   -0,656;   -2,500
311,725;10353,930;    0,526;   -0,500
312,320;10691,797;    1,253;    0,045
312,915;10575,989;    2,890;   -1,045
313,510;10613,569;    0,526;   -0,500
314,105;11070,084;   -3,565;    1,409
314,700;10501,551;   -1,656;   -1,045
315,295;10157,820;   -0,020;    0,045
315,890; 9773,541;   -0,292;    0,864
316,485;10128,615;    0,253;   -0,318
317,080;10218,456;   -0,929;    1,591
317,675;10738,776;    3,071;   -0,682
318,270;10179,910;    6,889;    3,318
318,865;10193,477;    2,435;    3,045
319,460;10020,203;   -1,565;    0,591
320,055;10222,553;   -2,565;   -1,227
320,650; 9911,726;   -1,838;   -0,591
321,244; 9947,993;    0,889;   -1,409
321,839;10856,215;    0,980;   -0,227
322,434;10726,433;   -0,111;   -1,591
323,029;10402,464;   -0,474;    1,591
323,623;10262,528;    0,798;    0,773
324,218;10093,249;    2,707;    1,409
324,812; 9981,050;    0,889;    1,591
325,407; 9793,293;   -0,929;    2,045
326,002; 9754,228;    0,526;   -0,409
326,596;10064,342;   -0,656;    1,318
327,191;10198,243;   -0,383;   -1,045
327,785; 9826,069;   -0,747;   -0,227
328,379;10066,266;   -0,383;    0,136
328,974; 9849,198;    1,798;   -3,955
329,568;10090,689;    2,889;   -2,409
330,163; 9927,991;    2,435;    1,045
330,757;10279,892;    0,253;    1,591
331,351; 9643,511;   -0,292;    0,682
331,945; 9933,911;   -0,383;    1,409
332,540; 9548,672;    1,617;   -0,591
333,134; 9676,736;    3,344;    0,773
333,728; 9890,012;    2,799;    0,318
334,322;10218,331;    0,889;   -0,864
334,916; 9517,753;    0,344;    0,955
335,510; 9831,759;   -0,111;   -0,136
336,105;10037,515;   -0,929;    1,591
336,699; 9763,245;   -1,292;    0,591
337,293; 9707,317;    1,071;    0,318
337,887; 9828,184;    0,071;    1,955
338,481; 9928,626;    2,980;    0,591
339,074;10094,319;    2,071;    2,682
339,668; 9896,311;   -0,110;    1,227
340,262;10150,920;    7,708;    3,227
340,856; 9638,427;    1,708;   -0,682
341,450; 9053,487;    0,708;    1,864
342,044; 9897,045;    1,799;    0,136
342,637; 9662,799;    1,162;   -2,136
343,231; 9495,018;   -1,474;    0,682
343,825; 9454,448;   -0,747;   -0,591
344,419; 9434,602;   -0,474;    0,500
345,012; 9251,361;    2,889;    4,045
345,606; 9253,919;   -0,656;    1,591
346,199; 9143,399;   -0,111;   -0,227
346,793; 8724,390;    2,525;    2,045
347,386; 8929,412;    0,889;   -1,136
347,980; 8904,212;   -0,838;   -0,045
348,573; 8707,436;   -1,748;    0,409
349,167; 8442,702;    6,161;    4,773
349,760; 8765,228;    2,252;    2,682
350,354; 8734,972;    1,616;    1,136
350,947; 8532,279;    2,798;    1,682
351,540; 8235,617;    0,616;   -1,409
352,134; 8188,615;   -1,111;    1,136
352,727; 8247,045;   -0,657;    1,136
353,320; 8059,260;    2,343;    0,591
353,913; 7901,430;   -1,929;    1,864
354,507; 8109,233;    0,434;   -1,227
355,100; 8113,269;    0,071;    0,864
355,693; 7436,959;    4,798;    2,409
356,286; 7465,909;    0,980;    2,773
356,879; 7828,913;   -0,475;    1,227
357,472; 7452,419;    0,980;    1,500
358,065; 7644,915;    3,161;    2,500
358,658; 7556,026;    0,798;    2,318
359,251; 7240,074;    0,252;   -0,591
359,844; 6803,070;    0,343;   -1,136
360,437; 6966,840;    0,252;    0,045
361,030; 7223,687;    0,525;   -0,682
361,623; 6828,372;    0,434;    0,318
362,215; 6890,729;    0,979;    2,045
362,808; 6725,784;   -2,293;   -1,682
363,401; 6921,972;    0,798;    0,136
363,994; 6700,502;    3,252;   -1,500
364,586; 6637,411;    0,888;   -1,500
365,179; 6817,451;   -0,203;   -1,136
365,772; 6338,809;   -0,930;    2,045
366,364; 6599,536;    1,524;   -3,227
366,957; 6808,507;    1,342;   -0,045
367,549; 6809,693;   -0,203;   -0,864
368,142; 6503,858;    0,978;   -1,500
368,734; 6696,573;    2,523;   -2,136
369,327; 6659,247;    2,341;   -0,500
369,919; 6589,194;   -1,659;    0,409
370,512; 6399,958;   -1,023;   -0,500
371,104; 6205,570;    2,704;    1,591
371,696; 6320,838;    1,703;   -0,955
372,289; 6393,873;    0,157;    1,136
372,881; 6508,146;    1,156;    1,318
373,473; 6435,292;    4,064;    1,136
374,066; 6268,149;    1,336;    0,500
374,658; 6151,874;    0,879;    1,136
375,250; 6461,003;   -1,668;   -1,409
375,842; 6323,199;   -0,124;   -0,045
376,434; 6209,183;   -2,762;   -0,409
377,026; 6745,892;   -1,855;   -2,500
377,618; 6630,938;    0,779;   -0,682
378,210; 6484,553;    3,141;   -1,955
378,802; 6327,070;    3,412;   -0,591
379,394; 6316,497;    3,411;    0,682
379,986; 6848,089;    1,138;   -0,955
380,578; 6918,566;    1,410;    0,773
381,170; 6339,722;    0,320;    0,045
381,762; 6283,907;   -0,224;    1,409
382,354; 6462,699;   -0,223;   -1,318
382,945; 6538,178;    0,870;    0,318
383,537; 6672,393;    1,144;   -1,955
384,129; 6702,517;    0,963;   -1,136
384,721; 6851,108;    0,418;    0,955
385,312; 6765,489;   -1,399;   -0,955
385,904; 6863,372;   -0,945;    1,591
386,496; 6261,636;    0,691;    1,045
387,087; 6425,379;    0,418;    2,500
387,679; 6488,719;   -0,401;    0,045
388,270; 6621,296;   -2,401;    2,045
388,862; 6693,890;   -0,401;   -0,318
389,453; 6548,738;    1,054;    1,045
390,045; 6798,896;    3,236;   -2,682
390,636; 6751,898;    0,144;   -0,591
391,227; 6608,543;    2,054;   -0,045
391,819; 6688,911;    0,781;    0,773
392,410; 6741,199;    0,600;    0,045
393,001; 6725,632;    1,600;   -1,591
393,593; 6968,611;    0,600;   -0,045
394,184; 6836,590;    0,873;   -0,409
394,775; 6729,865;    1,146;    2,136
395,366; 6935,238;    1,782;    0,773
395,957; 6911,999;   -2,400;    0,136
396,548; 7180,995;    1,054;    2,682
397,139; 7479,022;    2,236;    0,591
397,730; 7225,712;    0,873;    0,955
398,321; 7277,750;    0,509;    0,955
398,912; 7279,695;   -0,764;    0,136
399,503; 7354,034;   -1,945;   -1,409
400,094; 6832,355;   -1,582;    1,682
400,685; 6701,767;    3,600;    0,045
401,276; 6778,663;   -0,400;   -0,955
401,867; 7053,262;   -1,127;    0,773
402,458; 7169,319;    1,509;   -2,318
403,048; 7144,296;    0,146;    0,591
403,639; 6783,769;    1,509;    0,864
404,230; 7045,277;    0,691;    0,318
404,821; 6978,216;   -0,127;    0,045
405,411; 7070,040;   -0,763;   -2,591
406,002; 6702,277;    3,237;   -1,136
406,592; 6600,294;    2,691;    0,045
407,183; 6831,166;    0,328;   -1,500
407,774; 6762,781;    1,419;   -0,136
408,364; 7066,130;    2,600;    0,409
408,954; 6723,692;   -0,036;    1,227
409,545; 6760,937;    1,873;    1,045
410,135; 6306,073;   -1,581;    0,500
410,726; 6463,313;    0,783;    0,318
411,316; 6816,050;    2,237;    0,773
411,906; 6511,336;    0,146;   -0,409
412,497; 6055,414;   -0,490;   -0,045
413,087; 6613,236;    0,783;   -0,227
413,677; 6976,064;   -2,490;    3,864
414,267; 6848,307;   -1,035;    1,409
414,857; 6807,544;    0,419;    4,227
415,448; 7098,881;   -0,763;    0,500
416,038; 6820,708;   -2,945;   -0,591
416,628; 6777,763;    0,965;    0,409
417,218; 6315,626;   -1,762;    3,318
417,808; 6533,772;    0,965;   -0,409
418,398; 6926,502;   -1,035;    2,682
418,988; 6947,009;   -2,217;    0,591
419,578; 7168,277;    3,601;    1,409
420,168; 7472,385;    0,692;   -0,955
420,757; 7090,086;    0,964;   -1,500
421,347; 6767,635;    1,601;   -0,227
421,937; 6912,177;    3,329;    1,409
422,527; 6881,175;    2,602;   -0,773
423,116; 6696,728;    2,692;   -0,045
423,706; 7025,794;    2,965;    0,318
424,296; 6982,200;    1,601;    0,682
424,885; 7385,927;    1,510;   -3,045
425,475; 7624,701;    1,147;   -2,864
426,065; 7536,948;   -1,489;   -0,318
426,654; 7196,311;    0,329;   -0,318
427,244; 7309,458;    1,147;    1,409
427,833; 6814,878;    1,056;   -0,500
428,423; 7221,883;    0,147;    1,136
429,012; 7897,495;    2,420;   -1,136
429,601; 7436,222;    2,057;    0,136
430,191; 7653,613;    2,511;    4,318
430,780; 7308,818;   -1,671;   -0,409
431,369; 7262,656;    1,329;   -0,045
431,959; 7839,846;    1,693;    0,500
432,548; 7630,261;   -1,398;   -0,045
433,137; 7749,189;    0,329;   -1,318
433,726; 8243,288;    0,148;    0,500
434,315; 7642,347;    0,148;    2,409
434,905; 7760,162;    0,693;    1,409
435,494; 7658,699;    3,148;    0,955
436,083; 8087,068;    1,420;   -0,955
436,672; 7917,542;    1,148;    0,500
437,261; 7590,145;    0,512;   -1,955
437,850; 7706,060;   -1,125;    0,682
438,439; 7649,983;    2,239;    1,955
439,027; 7516,723;    3,421;    1,773
439,616; 7866,960;    2,239;    1,227
440,205; 7695,156;    0,057;   -2,136
440,794; 7729,218;   -0,306;   -0,045
441,383; 7952,667;    1,603;   -0,591
441,971; 7829,842;   -0,306;    0,591
442,560; 7692,540;    0,603;   -1,773
443,149; 7418,971;    3,060;   -1,318
443,737; 7567,958;    0,968;   -2,318
444,326; 7822,295;    0,331;    0,318
444,915; 7853,788;   -1,851;    0,864
445,503; 8202,202;    0,058;   -0,318
446,092; 7550,487;    7,876;    2,136
446,680; 8044,898;    1,876;    0,318
447,269; 8189,321;   -1,487;   -0,318
447,857; 7997,353;    2,240;   -1,773
448,445; 8112,592;    2,149;    1,318
449,034; 8307,560;    0,876;   -1,136
449,622; 8406,175;    1,240;    3,500
450,210; 7714,449;    3,149;    2,227
450,799; 8198,210;    2,604;   -0,591
451,387; 8156,155;    1,786;   -0,591
451,975; 7853,660;   -1,305;    0,864
452,563; 7942,472;    0,422;    2,318
453,151; 7983,496;   -1,032;   -1,227
453,739; 7898,243;   -1,577;    0,136
454,328; 7752,040;    0,604;   -2,136
454,916; 7496,543;    1,150;   -0,136
455,504; 7690,610;    3,513;    1,227
456,092; 7858,817;    2,150;   -1,591
456,679; 7824,367;    0,604;    0,682
457,267; 7779,672;    3,604;    1,045
457,855; 7883,486;    3,241;    1,409
458,443; 7643,797;   -0,304;    1,682
459,031; 7795,569;    1,332;    2,409
459,619; 8197,820;   -3,577;    2,864
460,206; 8291,562;   -0,759;    2,045
460,794; 8365,290;   -0,668;   -0,227
461,382; 8567,589;    0,878;   -0,864
461,970; 8198,542;    0,605;    1,864
462,557; 8234,880;    0,878;   -0,682
463,145; 8407,726;   -0,304;   -1,682
463,732; 8514,868;    2,514;   -1,045
464,320; 8434,566;    1,514;   -3,045
464,907; 8165,733;    0,423;   -0,773
465,495; 8038,059;    2,696;   -1,227
466,082; 8174,198;    2,060;   -0,045
466,670; 8060,386;    2,605;    1,227
467,257; 8490,448;    0,060;    2,045
467,844; 8630,645;    1,514;    0,045
468,432; 8682,584;   -0,031;    3,500
469,019; 8219,423;    1,606;   -1,773
469,606; 8626,829;    0,969;    3,682
470,193; 8451,136;    2,151;    0,227
470,780; 8084,635;    0,333;    0,864
471,368; 8414,732;   -1,212;   -0,773
471,955; 8195,650;    1,060;   -0,682
472,542; 7860,942;   -0,303;   -1,136
473,129; 8067,227;   -0,485;    0,136
473,716; 7835,533;    0,060;    0,591
474,303; 7999,400;    1,333;   -0,864
474,890; 8276,067;    2,333;   -0,500
475,477; 8265,224;   -0,576;    0,409
476,064; 8191,884;    0,697;   -1,591
476,650; 8129,888;    2,152;    0,318
477,237; 7988,524;    1,879;    0,955
477,824; 8113,421;    3,879;    0,864
478,411; 8127,869;    0,606;   -0,318
478,997; 8297,383;    0,606;   -0,773
479,584; 8366,271;   -0,666;   -0,409
480,171; 8994,252;    1,243;   -0,773
480,757; 8667,341;   -0,848;    0,773
481,344; 8939,096;    0,334;    0,409
481,931; 8440,907;   -0,393;    1,045
482,517; 9328,261;    0,425;    0,318
483,104; 9783,066;    1,334;    2,864
483,690; 9998,821;    0,243;    0,045
484,276;10316,471;    0,698;    0,227
484,863;10099,109;    2,152;    1,136
485,449;10634,909;    0,152;    0,318
486,035;10613,847;   -0,666;   -0,136
486,622;10960,836;   -2,393;    0,045
487,208;10914,517;    1,334;    1,500
487,794;10809,321;    0,971;    0,318
488,380;10889,607;    0,698;   -1,409
488,967;10977,056;   -1,120;   -0,409
489,553;10992,235;   -1,029;   -1,409
490,139;11192,079;    0,971;    0,773
490,725;10685,609;    0,789;   -0,227
491,311;10346,964;    1,516;    3,045
491,897; 9769,083;   -0,665;    1,500
492,483; 9628,846;    0,426;    1,227
493,069; 9455,157;    5,426;    0,864
493,655; 9417,506;    1,789;    0,682
494,241; 9309,407;    1,517;   -0,955
494,826; 9671,347;    0,335;   -1,045
495,412; 9191,098;    0,335;   -0,682
495,998; 9339,111;    0,971;   -0,318
496,584; 9443,227;    2,244;    1,045
497,169; 9403,244;    2,335;   -0,682
497,755; 9358,461;    1,244;    1,227
498,341; 9886,175;    2,153;    0,318
498,926; 9466,268;    2,881;    1,955
499,512; 9631,986;   -0,028;    2,955
500,097; 9687,523;   -0,574;   -0,318
500,683; 9652,321;   -0,028;    2,136
501,268;10003,302;    1,881;   -0,955
501,854; 9754,935;   -0,119;    1,227
502,439; 9683,252;   -0,573;   -1,773
503,024; 9834,561;    1,608;    0,500
503,610; 9894,466;    1,335;   -0,682
504,195; 9907,438;    1,245;    1,955
504,780;10027,218;    2,335;    1,227
505,366; 9865,254;    4,063;    2,864
505,951; 9615,338;   -1,119;    1,045
506,536; 9662,942;    1,427;   -3,682
507,121; 9640,673;    1,699;   -0,318
507,706;10060,337;   -0,392;    1,045
508,291;10399,498;   -2,937;    1,136
508,876; 9897,087;   -0,482;    2,591
509,461; 9431,440;    1,427;   -0,773
510,046; 9838,366;   -0,391;    0,318
510,631;10021,361;   -0,119;   -0,773
511,216; 9720,042;   -0,664;   -0,500
511,801;10060,037;   -0,755;    2,591
512,386;10301,169;    0,972;    0,500
512,971;10236,941;    0,427;    0,955
513,555; 9840,501;    1,154;   -1,500
514,140;10565,104;    1,336;   -3,136
514,725;10497,223;    1,791;   -1,136
515,309;10623,440;    1,064;    0,318
515,894;10159,165;   -0,300;   -2,227
516,479;10542,227;    1,973;   -0,955
517,063;10358,235;    0,882;    1,227
517,648;10496,242;    0,155;   -1,136
518,232;10150,775;   -1,300;   -1,409
518,817;10447,983;    1,337;    1,682
519,401;10688,813;    0,700;    0,591
519,985;10210,982;    2,700;    1,136
520,570;10099,353;   -0,118;   -1,955
521,154;10343,215;    0,064;    0,591
521,738;10481,624;    1,064;    2,409
522,323;11048,979;   -0,390;    1,682
522,907;10779,846;    2,428;   -0,136
523,491;10503,146;    1,155;    0,955
524,075;10529,444;    0,428;    0,591
524,659;10616,099;    0,973;    0,591
525,243;10142,765;    0,883;    0,409
525,827;10343,764;    0,883;   -0,045
526,411;11050,008;    1,155;   -0,136
526,995;11207,956;    0,337;    1,409
527,579;10866,174;    1,974;   -1,045
528,163;11179,405;    0,428;   -1,500
528,747;11095,874;    1,065;   -0,773
529,331;11362,185;    0,883;   -1,409
529,915;11515,204;    2,338;    0,955
530,499;11442,545;    0,247;    1,227
531,082;11183,489;    1,065;    1,591
531,666;10670,970;    0,520;    0,773
532,250;11228,991;    0,428;    2,682
532,833;11526,507;    0,610;    2,773
533,417;11453,397;    1,247;    0,864
534,001;11379,564;    0,429;   -0,318
534,584;12005,508;    1,974;    0,500
535,168;11871,005;    3,247;    1,409
535,751;11888,427;    4,520;    0,045
536,334;11355,237;    4,520;   -0,409
536,918;11902,960;    1,974;    1,591
537,501;11992,573;    1,520;    1,318
538,085;11988,243;    1,702;    1,045
538,668;12102,723;    0,883;    2,409
539,251;12403,021;    3,156;    3,773
539,834;12439,379;    0,156;    0,773
540,418;12357,538;    3,247;    4,318
541,001;12410,047;    2,702;    1,773
541,584;12389,122;    1,429;    2,227
542,167;12094,658;    0,702;    2,955
542,750;12217,128;    0,793;   -0,773
543,333;11835,044;    1,429;    2,136
543,916;12518,532;   -0,298;    2,500
544,499;13038,934;    2,520;    0,227
545,082;13052,665;    0,248;    3,591
545,665;13178,676;   -0,207;    1,500
546,248;13435,317;    0,520;   -0,318
546,830;13141,763;   -1,752;    1,955
547,413;13488,072;    0,157;   -0,773
547,996;13967,774;    0,157;    0,500
548,579;13750,755;   -0,843;    0,955
549,161;13569,214;    0,884;    2,682
549,744;13338,832;    0,612;    0,409
550,326;13798,153;    0,885;   -1,136
550,909;13617,834;    2,339;    0,591
551,492;13948,643;    0,521;    0,227
552,074;13758,688;   -0,024;   -1,318
552,657;14248,644;    2,430;    0,045
553,239;14052,175;   -3,024;   -0,773
553,821;13912,688;   -1,570;    1,045
554,404;13470,005;   -0,024;    1,136
554,986;13836,570;    2,248;    1,045
555,568;14375,555;    0,430;   -0,955
556,151;13682,035;    4,067;   -0,227
556,733;13833,858;   -1,388;   -0,864
557,315;14252,636;    4,703;    0,500
557,897;14016,061;    0,521;   -0,500
558,479;14105,951;    1,703;    1,318
559,061;14248,045;    1,067;   -0,864
559,643;14578,045;   -0,297;    0,045
560,225;14852,196;   -0,388;    2,864
560,807;14859,863;    0,340;    0,318
561,389;14428,895;   -1,206;    2,318
561,971;15061,819;   -0,660;    2,136
562,553;14888,138;    0,613;    1,591
563,135;14996,497;    1,249;    1,136
563,717;14574,040;    3,158;    1,136
564,298;15206,216;    3,976;   -0,045
564,880;14925,466;    0,340;   -1,409
565,462;15101,830;    1,977;    1,318
566,043;16115,005;   -0,933;    2,318
566,625;15652,390;    4,067;    1,227
567,207;15494,919;    0,704;    1,682
567,788;16376,358;   -0,114;    1,500
568,370;17099,716;   -1,841;   -0,500
568,951;16895,642;   -0,569;    0,227
569,533;17638,330;    0,977;   -0,500
570,114;18008,474;   -0,296;    0,682
570,695;18397,742;   -0,478;   -1,318
571,277;18746,488;   -0,205;   -1,682
571,858;19390,450;    2,704;   -1,136
572,439;20087,065;    0,795;   -1,045
573,021;20178,696;    0,432;   -2,773
573,602;20597,789;    1,795;    0,318
574,183;21399,945;   -0,114;    2,227
574,764;21417,349;    2,068;    0,409
575,345;21845,026;    0,250;   -0,136
575,926;22345,008;    2,704;    0,136
576,507;22286,537;    2,704;   -0,227
577,088;23288,150;    1,704;    1,682
577,669;23257,726;    1,704;    1,955
578,250;23897,218;   -0,750;   -1,045
578,831;24343,113;   -0,841;   -2,227
579,412;24537,024;   -1,205;    0,955
579,993;25368,119;    1,432;    0,227
580,573;25681,212;   -0,023;   -0,955
581,154;24727,000;    1,613;   -0,591
581,735;25476,542;    0,341;    0,773
582,315;24998,360;    0,523;    2,136
582,896;25276,804;   -1,750;    1,227
583,477;24797,115;    0,614;    1,227
584,057;24955,823;    1,159;    0,955
584,638;25220,028;   -2,750;    2,318
585,218;25214,047;    2,886;    2,682
585,799;25394,239;    1,977;   -0,227
586,379;25440,332;    1,250;    1,591
586,959;24352,901;    2,613;    0,318
587,540;23784,925;    0,432;    2,227
588,120;23375,811;   -1,113;   -0,045
588,700;22580,502;    2,977;    2,136
589,281;22882,893;    1,250;   -0,955
589,861;22784,698;   -0,296;   -1,682
590,441;22626,850;   -1,477;   -2,682
591,021;21716,595;    1,432;   -2,591
591,601;21975,049;    0,431;    0,500
592,181;22050,338;   -1,296;   -0,773
592,761;21390,809;    2,250;    1,409
593,341;21347,535;    1,522;    0,045
593,921;21350,581;   -0,569;    1,591
594,501;21245,561;    1,250;    1,318
595,081;21069,283;    0,522;   -0,318
595,661;21431,755;    1,068;    0,955
596,240;21924,526;   -1,023;    0,136
596,820;21472,224;    2,613;    1,955
597,400;21631,933;    1,977;    0,773
597,980;21876,991;   -0,750;    1,045
598,559;21880,723;    0,341;   -0,227
599,139;21628,506;   -0,750;   -1,227
599,718;21495,142;    0,795;   -0,409
600,298;21781,019;   -2,387;    0,682
600,877;21977,837;    4,795;    1,409
601,457;22252,989;    0,340;    1,136
602,036;22162,252;    1,795;    2,045
602,616;22331,558;    2,250;    1,682
603,195;22646,192;    0,431;    3,500
603,774;22162,951;   -0,296;    2,045
604,354;22016,340;    2,522;   -0,500
604,933;21600,294;    0,250;    1,864
605,512;21703,253;    2,340;    0,591
606,091;21842,771;    1,886;    3,773
606,671;22537,854;    0,249;    0,773
607,250;21691,630;    1,431;    3,136
607,829;21883,388;    1,158;    3,227
608,408;21780,335;    4,613;    2,591
608,987;20925,445;    2,704;    3,409
609,566;21165,370;    0,341;   -2,500
610,145;21341,155;    2,885;    0,682
610,723;21699,821;    1,613;    6,864
611,302;21028,180;    1,067;    1,682
611,881;20570,193;    5,158;   11,227
612,460;21323,834;    0,795;    3,955
613,039;21653,370;    1,703;    2,045
613,617;20531,600;    0,886;    4,773
614,196;20663,221;    1,613;    1,227
614,775;21000,571;    1,249;    2,409
615,353;20958,326;   -1,660;    0,864
615,932;20721,057;    0,249;    2,409
616,510;21268,683;    0,158;    0,591
617,089;20865,607;    8,794;   17,591
617,667;20671,491;    4,885;    6,136
618,246;20580,131;   -1,115;    1,318
618,824;20711,296;    1,612;   -0,955
619,402;20286,093;    0,431;   -1,773
619,981;20684,277;    1,067;   -1,045
620,559;20584,171;    0,794;    1,682
621,137;20154,021;    3,067;    1,864
621,715;20159,051;    3,703;   -0,682
622,293;20092,382;    1,885;   -0,773
622,871;20557,000;    0,340;    0,500
623,450;20179,849;    0,430;   -0,864
624,028;20046,124;   -0,388;   -0,955
624,606;19696,107;    2,339;    1,682
625,183;20088,471;   -0,661;   -1,136
625,761;19726,765;    1,885;    1,136
626,339;20039,069;    2,339;    2,591
626,917;20376,026;    0,339;   -0,045
627,495;20447,623;    2,794;    1,318
628,073;19904,963;    5,248;    2,864
628,650;19628,342;    3,067;    2,136
629,228;20046,230;    1,248;    4,409
629,806;19513,663;   -0,024;    1,136
630,383;19722,453;    0,066;   -0,318
630,961;19572,595;   -2,206;   -0,955
631,539;19311,563;   -2,479;    0,227
632,116;18724,050;   12,703;   15,409
632,694;19271,411;    4,885;    6,500
633,271;19500,110;    1,975;    2,682
633,848;19453,542;    1,430;    2,045
634,426;19481,571;    1,521;    1,773
635,003;18705,490;   -0,207;   -0,409
635,580;18957,483;    1,884;    3,682
636,158;19483,596;    3,793;    1,227
636,735;19444,224;    3,339;   -0,500
637,312;19549,686;    0,521;   -0,682
637,889;19573,381;    2,248;   -0,682
638,466;19176,883;    0,066;   -0,409
639,043;19192,428;    1,702;   -1,136
639,620;19430,971;    0,611;   -0,955
640,197;19695,924;    1,612;    1,682
640,774;19845,553;    1,430;    1,136
641,351;20186,181;    0,612;    1,136
641,928;19713,083;    2,794;    1,409
642,505;19388,712;    0,794;   -0,500
643,082;19492,977;    1,885;    1,227
643,658;18629,515;    1,157;    1,500
644,235;19259,235;   -2,479;    2,500
644,812;19476,773;    1,794;    0,773
645,388;19271,674;    1,612;    1,409
645,965;19351,212;    1,521;    1,682
646,542;19391,296;    3,430;   -0,227
647,118;19448,288;    3,703;   -0,955
647,695;19677,553;    0,339;    1,136
648,271;19565,364;   -2,115;    0,500
648,848;19828,720;    0,248;    2,227
649,424;19751,622;    0,976;    1,318
650,000;19452,341;   -0,388;   -1,045
650,577;19287,243;    0,158;   -0,955
651,153;19664,963;   -1,115;    0,955
651,729;20521,864;    0,521;    0,864
652,305;20601,675;    1,339;    2,773
652,881;23953,395;   -1,297;    1,136
653,458;29327,660;    0,249;    0,227
654,034;32407,198;    0,703;    1,591
654,610;33578,372;    0,339;    0,773
655,186;34670,455;    1,612;    3,045
655,762;34335,993;   -1,842;    0,409
656,338;34436,986;    0,703;    0,136
656,913;35382,160;   -0,297;    0,409
657,489;34735,698;    0,249;   -0,318
658,065;34676,236;    0,794;   -1,591
658,641;35227,592;    2,158;   -0,864
659,217;34674,221;    2,067;    0,409
659,792;34153,941;   -1,751;   -0,409
660,368;34459,024;   -0,388;   -0,682
660,944;34370,471;    1,794;    1,227
661,519;30762,736;    0,522;    0,409
662,095;25985,820;   -0,206;    0,591
662,670;22192,903;   -0,206;   -0,136
663,246;21275,986;   -0,660;   -0,409
663,821;20716,070;    0,431;    1,682
664,396;20211,880;    0,613;    1,864
664,972;20399,418;   -0,660;   -0,500
665,547;20746,774;    3,794;    0,136
666,122;20786,858;    1,340;    0,318
666,698;21000,123;    2,431;    0,318
667,273;20374,752;    0,885;    0,136
667,848;21077,472;    0,340;    1,500
668,423;20869,464;    1,795;    2,318
668,998;21290,275;    0,976;   -0,682
669,573;21802,358;    2,067;   -1,500
670,148;21681,987;    1,885;   -0,682
670,723;21442,070;   -0,024;    0,318
671,298;21767,063;   -1,296;    1,045
671,873;21838,328;   -0,296;   -0,136
672,448;21807,684;    1,704;    0,136
673,023;22118,858;    0,249;   -0,227
673,597;22380,033;    2,704;    2,318
674,172;22214,934;    2,431;    0,318
674,747;21759,381;   -0,205;   -1,045
675,321;21543,828;   -0,933;    3,318
675,896;21209,094;    2,158;    1,045
676,471;22077,177;    2,522;    1,591
677,045;21840,624;   -0,296;    0,682
677,620;21864,162;    2,158;    1,136
678,194;22174,154;    0,249;    1,136
678,769;21784,965;    0,886;   -0,318
679,343;22030,503;   -0,023;    1,773
679,917;21874,132;    0,340;    1,955
680,492;21875,306;    0,249;    3,227
681,066;21992,298;    0,613;    0,409
681,640;22107,473;    1,795;   -0,318
682,214;22789,920;    2,340;    0,500
682,788;22355,276;    0,613;   -0,773
683,363;22282,087;    1,977;    1,682
683,937;22003,715;    0,886;   -0,318
684,511;22675,072;   -1,023;   -0,591
685,085;22393,246;   -1,478;    0,318
685,659;22175,784;    1,431;    0,864
686,232;22446,231;    1,159;   -0,318
686,806;22169,132;    2,159;    0,409
687,380;22739,761;   -1,932;    0,591
687,954;22956,390;    2,432;    1,136
688,528;22617,201;    2,613;    1,955
689,101;23315,466;    0,432;    1,045
689,675;22987,095;    0,886;   -0,136
690,249;22374,269;    3,432;    0,409
690,822;22649,534;    1,159;    0,318
691,396;22804,345;    2,068;    1,227
691,969;22320,065;    2,523;    0,136
692,543;22747,602;   -0,568;   -1,955
693,116;22388,049;   -0,659;   -1,409
693,690;22268,315;   -0,296;    0,500
694,263;22826,307;    2,341;    2,955
694,836;22818,572;    2,795;    3,591
695,410;21558,201;    1,159;    1,773
695,983;21947,739;    1,614;    0,591
696,556;21918,004;   -0,750;   -1,045
697,129;22325,360;   -1,114;    1,409
697,703;21985,898;    1,341;    1,955
698,276;21973,164;    1,705;   -0,773
698,849;21828,338;   -1,023;    1,409
699,422;22154,058;    1,250;    0,591
699,995;21913,959;   -0,659;    0,136
700,568;22281,406;   -0,204;    3,045
701,140;22333,671;   -1,841;    1,682
701,713;22117,209;    0,341;    2,409
702,286;21910,020;    0,796;    0,864
702,859;21793,103;    0,614;   -0,591
703,432;21079,732;   -0,841;    0,682
704,004;21467,997;    1,978;    0,318
704,577;21320,990;    1,068;    0,136
705,150;21833,255;    0,887;    2,500
705,722;21679,884;    1,523;   -3,227
706,295;21477,331;    1,432;   -0,591
706,867;21336,051;    0,250;    1,955
707,440;21561,498;   -0,113;   -0,409
708,012;21818,399;   -0,022;    0,591
708,584;21685,392;    2,705;    0,227
709,157;21940,566;    1,160;   -0,591
709,729;21674,286;    1,069;    2,045
710,301;22462,642;   -1,204;    0,045
710,874;22463,453;    0,341;   -0,227
711,446;21380,809;   -0,295;    0,864
712,018;21294,256;   -3,022;    0,500
712,590;21073,157;   -0,204;    1,682
713,162;21504,695;   -0,477;    1,318
713,734;21739,051;    1,796;   -2,045
714,306;21691,044;    0,342;   -0,409
714,878;20526,491;   -0,295;    0,864
715,450;21318,120;   -0,113;    0,864
716,022;21576,657;    2,433;    1,318
716,593;21712,286;    0,978;    0,591
717,165;21596,097;    1,796;   -1,227
717,737;21343,908;    0,796;    0,409
718,309;21051,082;    1,160;   -0,045
718,880;20989,256;   -1,295;   -1,409
719,452;21217,521;    0,887;   -1,591
720,024;20861,332;    1,705;   -0,591
720,595;21400,688;    2,978;    0,955
721,167;20996,953;    1,160;   -2,045
721,738;20546,764;    2,069;   -1,045
722,309;20526,302;    1,251;   -1,227
722,881;20335,294;    2,705;    0,773
723,452;20889,014;    1,251;    2,864
724,023;21116,461;    1,524;    2,682
724,595;20935,454;    2,342;    0,682
725,166;20678,810;    1,524;   -0,409
725,737;20313,257;    1,887;    0,227
726,308;20398,067;    0,797;    0,318
726,879;20794,696;    1,069;    1,227
727,450;20603,871;   -2,022;   -0,045
728,021;20602,590;    1,069;    0,682
728,592;20454,765;    1,160;    0,500
729,163;20789,212;    1,433;   -0,136
729,734;20759,931;    2,160;   -0,227
730,305;21032,106;    0,615;    0,136
730,876;21363,371;    0,888;    2,955
731,447;21108,454;    0,797;    2,682
732,017;21152,083;   -0,840;    1,864
732,588;20768,894;   -0,021;    1,227
733,159;20898,886;    3,615;   -1,045
733,729;20677,879;    1,251;    0,409
734,300;20068,144;    0,160;    0,864
734,870;20459,136;   -1,385;    0,591
735,441;20975,038;    0,888;   -0,591
736,011;20755,394;    1,070;   -1,591
736,582;20706,387;    1,251;    0,045
737,152;20195,470;    0,979;   -2,045
737,722;20684,826;    1,070;   -0,682
738,293;20380,273;   -2,021;    1,318
738,863;20270,811;    1,797;    2,318
739,433;20139,803;    4,524;    0,318
740,003;20722,614;    1,524;   -0,682
740,573;20149,152;    2,252;   -1,591
741,143;20135,963;    3,615;    0,318
741,713;20815,682;    0,252;   -0,500
742,283;20592,766;    1,706;    1,591
742,853;20401,758;    0,524;    1,591
743,423;19918,660;    0,161;    0,045
743,993;20023,834;    1,070;    1,500
744,563;19474,099;    2,524;   -0,864
745,133;19382,455;   -0,112;   -0,864
745,702;20061,902;    2,797;    1,773
746,272;19320,077;    0,434;    0,591
746,842;19138,796;   -0,748;   -0,591
747,411;19526,243;   -0,839;   -0,318
747,981;19656,600;   -0,930;    0,500
748,551;19740,047;   -0,021;   -1,045
749,120;19579,766;   -0,112;   -0,227
749,690;19891,395;    2,161;    2,409
750,259;20223,115;    0,979;    2,955
750,828;20140,107;    4,070;   -1,955
751,398;20388,282;   -0,112;   -0,045
751,967;19921,547;    2,888;    0,409
752,536;20121,903;    1,161;   -0,227
753,105;20542,259;   -1,384;    0,227
753,675;20266,343;   -0,112;    1,773
754,244;20206,244;    0,888;    3,591
754,813;20222,509;    0,979;    1,227
755,382;19843,411;    0,798;    0,955
755,951;20335,676;   -0,112;    3,682
756,520;19949,850;    2,525;    1,864
757,089;20408,843;    1,888;    0,500
757,658;20515,926;    2,434;    1,227
758,227;20577,555;   -1,111;    0,318
758,795;20808,093;   -1,021;    1,136
759,364;21067,813;    0,525;   -0,591
759,933;20159,260;    1,343;   -0,045
760,501;19766,434;    0,252;   -1,318
761,070;20117,245;   -0,293;   -1,409
761,639;20809,964;    1,434;    1,318
762,207;20186,775;    0,889;   -0,955
762,776;20122,131;    2,889;    0,864
763,344;20072,487;    0,071;    0,591
763,913;19228,116;    1,616;    1,409
764,481;19949,745;    1,980;   -0,136
765,049;19805,647;    0,616;    1,409
765,618;19661,457;    1,434;    0,318
766,186;19758,904;    2,434;    0,136
766,754;19956,078;    1,798;    1,864
767,322;19060,616;    1,162;    0,409
767,890;19022,609;    0,525;   -1,773
768,459;19467,601;    2,616;   -0,318
769,027;19569,048;    2,525;    3,409
769,595;18623,132;    2,616;    2,591
770,163;19065,942;    3,344;    2,955
770,730;18856,389;    2,525;   -0,136
771,298;18731,746;    1,162;   -1,409
771,866;18857,556;    0,253;    4,955
772,434;19153,276;    1,162;   -1,864
773,002;19296,996;    2,616;    0,682
773,569;18983,988;    1,071;    1,682
774,137;18810,253;    0,889;   -0,045
774,705;19544,791;   -0,747;   -0,136
775,272;19099,511;    0,253;    0,682
775,840;18903,776;   -0,111;    2,682
776,407;18462,860;   -0,293;    1,955
776,975;18119,034;    1,162;    0,318
777,542;19036,663;    2,162;   -0,045
778,110;18947,837;    0,707;   -0,045
778,677;18641,284;    1,071;   -0,864
779,244;18412,095;   -1,020;    1,045
779,812;18488,996;    0,980;    0,864
780,379;18326,352;    2,435;    1,136
780,946;18566,345;    2,617;   -0,773
781,513;18832,519;   -0,565;    0,318
782,080;18257,330;    1,253;    2,864
782,647;18898,686;    1,708;    3,045
783,214;18596,587;   -0,201;    3,864
783,781;18246,398;    1,708;   -0,682
784,348;18132,027;    0,253;    1,500
784,915;18526,019;   -1,474;    0,318
785,482;18340,194;    2,708;    2,591
786,049;18766,459;    1,071;   -0,591
786,615;18867,360;    1,708;   -0,955
787,182;18625,898;   -3,201;   -0,682
787,749;18382,255;   -2,201;    1,409
788,315;17742,520;    0,253;   -0,409
788,882;17998,967;    0,981;   -1,227
789,448;18625,868;    1,435;   -0,955
790,015;18626,315;    1,799;    3,227
790,581;18217,490;    0,708;    0,227
791,148;18144,028;    1,344;    1,045
791,714;18349,475;   -1,019;    3,136
792,280;18074,194;    3,708;    1,591
792,847;17733,732;   -0,928;    2,500
793,413;18151,088;   -0,110;   -0,318
793,979;17796,444;    1,526;   -1,318
794,545;17909,437;    2,981;    2,682
795,111;17424,975;    2,435;    1,318
795,678;17577,513;    3,526;   -1,682
796,244;17235,960;    2,799;    0,136
796,810;17703,407;    0,799;    0,773
797,375;17454,036;   -0,292;   -2,136
797,941;17441,574;   -1,110;    0,591
798,507;17585,293;    0,254;   -0,955
799,073;17194,013;    2,708;    0,591
799,639;17287,915;    1,435;    3,136
800,205;17368,453;   -1,565;    2,682
800,770;16931,536;    1,345;    1,773
801,336;16967,347;    2,981;   -0,955
801,901;16730,339;    6,072;    3,136
802,467;17259,422;    0,526;    2,045
803,033;16668,415;   -0,019;    0,864
803,598;16831,862;    1,072;   -1,045
804,163;16883,854;    0,708;   -0,318
804,729;16865,301;   -0,110;    1,136
805,294;17152,112;    1,072;    2,227
805,859;17016,105;    0,890;   -0,409
806,425;16561,552;    3,890;    2,682
806,990;16274,271;    1,890;    4,318
807,555;16674,809;   -0,110;    2,591
808,120;16641,620;   -1,292;   -0,409
808,685;16694,976;    1,072;   -2,500
809,250;16244,241;    2,072;   -0,500
809,815;16493,416;   -0,201;    0,682
810,380;16932,863;    0,981;    1,591
810,945;17397,219;    2,890;    2,045
811,510;16750,302;   -0,200;    1,591
812,075;16441,385;    2,800;   -1,409
812,640;16454,014;    3,709;    1,409
813,204;16540,552;    2,163;   -0,227
813,769;17000,726;    0,254;   -0,045
814,334;16471,901;    0,527;    0,864
814,898;16555,802;    1,981;    0,591
815,463;16381,158;    0,981;   -0,773
816,027;16344,424;    1,345;   -2,318
816,592;16480,780;    2,163;   -2,045
817,156;16087,590;   -2,200;    1,136
817,721;15936,128;    0,982;    2,318
818,285;15900,303;    0,618;    1,500
818,849;16465,113;   -0,018;    1,682
819,414;16389,378;    0,073;    2,955
819,978;16012,189;   -0,291;    1,773
820,542;16541,818;    2,891;    0,500
821,106;16324,720;    2,800;    0,682
821,670;16380,803;    2,709;    2,591
822,234;16157,432;    1,073;    1,409
822,798;15634,151;   -0,836;    0,500
823,362;15647,417;    1,527;    4,227
823,926;15026,955;   -0,018;    1,136
824,490;15208,402;    3,527;   -0,682
825,054;15603,121;    2,527;   -1,136
825,618;15337,296;   -1,200;   -1,500
826,181;15293,561;    0,982;   -1,318
826,745;15213,008;   -0,745;   -1,045
827,309;15496,000;    2,255;    1,318
827,872;15008,538;    0,527;    0,955
828,436;15872,076;    1,982;   -0,773
828,999;15989,250;    2,436;    1,227
829,563;14990,061;   -0,654;    1,136
830,126;14807,326;   -0,018;   -0,591
830,690;14870,410;    0,709;    2,864
831,253;14379,857;   -0,473;    2,227
831,816;14484,940;   -0,018;    0,500
832,380;14445,751;    1,164;    0,864
832,943;14677,289;    3,073;   -0,500
833,506;14225,008;    0,255;   -1,227
834,069;14913,455;    2,164;   -0,955
834,632;15022,266;   -2,200;    1,318
835,195;14938,440;    1,346;    0,955
835,758;14193,069;    0,709;    1,955
836,321;14039,425;    1,073;   -1,045
836,884;14168,145;   -1,291;   -0,955
837,447;14237,228;    0,528;    1,773
838,010;14462,857;    1,800;    3,227
838,573;14724,759;    0,528;    0,773
839,135;14699,206;   -0,109;   -0,955
839,698;14170,017;    2,528;    0,409
840,261;13791,191;    0,255;   -0,227
840,823;13655,729;   -0,927;    0,864
841,386;13943,630;   -0,018;   -2,409
841,948;13852,623;    0,255;    1,773
842,511;13585,070;    0,255;    1,682
843,073;13731,062;    2,982;    0,227
843,636;13578,509;    0,619;   -0,227
844,198;13511,229;    1,255;    0,591
844,760;13646,676;    0,619;    1,955
845,322;13317,578;    0,164;    1,136
845,885;13666,661;   -0,290;    0,591
846,447;14064,472;    0,710;    0,227
847,009;13716,010;    3,983;   -0,682
847,571;13972,638;    1,346;   -2,045
848,133;14028,813;   -0,199;   -1,864
848,695;13888,532;    2,346;    1,409
849,257;13508,616;    1,346;   -1,682
849,819;13684,517;    2,983;   -0,409
850,381;13694,964;    1,801;   -0,864
850,942;13991,593;    1,892;   -0,591
851,504;13899,586;    0,983;    0,227
852,066;13956,942;    1,619;   -1,591
852,628;13573,025;    0,165;    1,955
853,189;13156,472;    0,256;    2,682
853,751;13310,374;   -0,654;    1,409
854,312;13166,457;    1,256;   -1,682
854,874;13532,359;   -0,108;   -0,773
855,435;13964,624;    0,528;   -1,682
855,997;14145,435;    3,983;   -0,136
856,558;13496,063;    0,801;    1,773
857,119;13593,420;   -0,744;    2,864
857,681;13332,685;   -0,108;    0,318
858,242;13364,041;    1,347;   -2,136
858,803;13759,761;    1,074;   -0,773
859,364;14293,844;    0,892;   -4,773
859,925;13767,382;   -0,290;   -0,955
860,486;13634,374;    0,529;   -0,955
861,047;13346,185;    0,165;   -1,227
861,608;13186,450;    0,165;   -0,773
862,169;13355,534;   -0,562;   -0,045
862,730;13112,799;   -0,290;    1,409
863,291;13369,700;    0,438;   -0,500
863,852;13689,966;   -0,926;    1,955
864,412;13218,140;   -1,835;   -0,864
864,973;11982,951;    1,892;    0,500
865,534;11864,307;    2,074;    0,227
866,094;13158,026;    2,620;    0,227
866,655;12841,383;    4,711;    3,318
867,215;13128,284;    0,074;    0,136
867,776;13034,186;   -1,199;   -0,136
868,336;13088,542;    1,529;    0,136
868,897;12689,898;    3,438;    1,682
869,457;12493,981;    3,256;    0,318
870,017;12721,610;    2,438;   -1,227
870,578;13135,784;    1,893;    0,773
871,138;12727,413;    2,620;   -0,955
871,698;12366,769;   -0,562;   -1,318
872,258;12290,580;    0,711;   -2,864
872,818;12664,391;    2,347;    0,045
873,378;12635,110;   -2,198;    1,045
873,938;12242,739;    4,984;    0,500
874,498;12497,459;    1,256;   -1,955
875,058;12409,906;    4,347;    1,773
875,618;12285,444;    1,438;   -2,682
876,177;12219,982;   -0,471;    0,136
876,737;11894,974;   -0,289;    1,955
877,297;11926,149;    2,711;    1,955
877,856;11922,141;    2,529;    0,318
878,416;11931,224;    2,438;   -0,136
878,976;12112,035;    3,438;    0,409
879,535;12278,391;    4,529;    3,136
880,095;12062,929;    1,347;    0,045
880,654;12158,740;    0,347;    1,318
881,213;12267,369;    2,347;    1,500
881,773;11910,452;    1,984;    2,682
882,332;12258,263;    6,075;    5,136
882,891;12113,255;    0,711;    2,136
883,451;12512,520;   -2,016;    1,682
884,010;12006,331;   -1,107;   -0,409
884,569;12105,505;   -2,289;   -0,045
885,128;12224,498;   -0,743;   -1,864
885,687;12284,672;   -0,743;    0,682
886,246;12020,301;    2,620;    2,136
886,805;11779,930;    1,620;    2,045
887,364;11995,740;    1,166;   -0,500
887,922;12335,915;   -0,016;    0,045
888,481;11898,271;    1,530;    0,591
889,040;12140,718;    3,711;    2,136
889,599;12701,347;    2,166;    1,409
890,157;12763,703;    2,166;    2,409
890,716;12409,968;    2,166;    0,227
891,274;12231,597;    0,075;   -1,136
891,833;12616,862;    1,166;    0,864
892,391;12482,673;    1,802;    0,500
892,950;12563,392;    0,166;   -0,773
893,508;12898,930;    0,984;   -0,409
894,067;12284,650;   -0,379;    0,136
894,625;12219,370;   -1,016;   -1,500
895,183;12418,726;   -0,198;   -0,682
895,741;12329,809;    2,257;   -1,773
896,299;12185,074;    1,621;   -2,409
896,858;12338,431;    1,530;   -1,591
897,416;12506,696;    0,166;   -1,318
897,974;12245,506;   -2,197;    0,318
898,532;12419,499;    6,530;    2,682
899,089;12314,037;    0,621;   -0,682
899,647;12435,302;    0,530;    1,318
900,205;12215,749;    0,257;    1,045
900,763;12369,560;    2,166;    0,227
901,321;12406,189;    3,530;   -1,409
901,878;11878,181;    3,257;   -0,773
902,436;11811,264;    0,257;    1,318
902,994;12209,439;    6,712;    3,682
903,551;11676,795;    1,439;    0,409
904,109;12028,696;    1,530;   -1,409
904,666;11675,962;    1,439;    1,045
905,224;11533,045;    3,894;   -0,409
905,781;11324,219;   -0,470;   -0,318
906,338;11395,030;    0,167;    1,045
906,895;11381,841;    1,894;    2,045
907,453;11317,469;    2,348;    1,136
908,010;11321,644;    3,348;    0,409
908,567;11028,273;   -0,561;    0,591
909,124;10597,629;    2,439;   -1,500
909,681;10675,894;   -1,288;    0,682
910,238;10852,523;   -0,106;   -1,318
910,795;11148,333;   -1,561;   -1,136
911,352;10833,333;   -0,379;   -2,682
911,909;10312,970;    2,803;   -0,864
912,466;10750,606;    1,985;    1,500
913,022;10367,788;   -0,924;    0,500
913,579;10714,515;   -0,470;    2,045
914,136;10465,242;   -2,561;    0,955
914,692;10774,424;    1,530;   -1,227
915,249;10395,879;    0,530;    0,409
915,806;10614,424;    1,803;    1,955
916,362;10442,061;    0,894;    1,864
916,918;10033,879;    2,439;    1,045
917,475;10053,970;    1,621;    0,955
918,031;10130,606;    0,076;   -0,045
918,587; 9717,515;    0,621;   -0,318
919,144; 9932,152;   -0,379;    0,227
919,700;10140,152;    0,167;    0,773
920,256; 9764,333;    0,439;    0,045
920,812; 9479,788;    1,439;   -1,045
921,368; 9529,333;    1,348;   -1,045
921,924; 9232,697;    0,439;   -0,136
922,480; 8868,788;    0,076;    1,227
923,036; 9427,788;   -0,652;    1,955
923,592; 9407,333;    0,621;    0,318
924,148; 9309,606;    1,894;   -0,955
924,704; 8740,606;    0,258;   -0,409
925,259; 9069,879;   -0,561;    0,591
925,815; 8863,242;    3,803;    0,500
926,371; 8443,242;    3,530;    1,409
926,926; 8388,879;    1,621;    0,591
927,482; 8087,970;    1,621;    0,773
928,037; 8028,061;   -0,833;    2,045
928,593; 8306,333;    0,258;    1,045
929,148; 8150,424;    1,167;   -1,500
929,704; 7758,333;    2,439;   -0,500
930,259; 7931,424;    0,894;   -0,136
930,814; 7206,970;    1,803;    1,955
931,369; 6953,424;    0,258;   -0,773
931,925; 6873,333;   -1,924;    0,136
932,480; 6781,333;    3,076;   -2,591
933,035; 6777,879;    3,985;   -0,318
933,590; 6610,788;   -1,742;   -1,773
934,145; 6333,970;   -1,288;   -0,318
934,700; 6619,788;    0,348;   -0,591
935,255; 6492,515;    4,803;    0,045
935,809; 5963,788;    6,258;    0,864
936,364; 5257,697;    2,167;   -0,136
936,919; 5298,152;    2,348;   -1,773
937,474; 5224,970;    1,348;    0,136
938,028; 5062,424;    3,076;    1,136
938,583; 4715,152;    6,348;    4,682
939,138; 4915,515;    0,167;    2,136
939,692; 4456,970;   -1,015;   -1,136
940,247; 4249,242;    1,167;   -1,045
940,801; 3964,515;    0,621;    0,227
941,355; 3905,242;    0,439;    2,591
941,910; 3608,424;    0,712;   -2,136
942,464; 3711,424;    2,712;   -0,318
943,018; 3637,515;    3,258;   -0,227
943,572; 3564,970;    2,803;   -0,682
944,126; 3148,879;   -0,924;   -0,409
944,681; 3032,970;    0,712;    0,227
945,235; 2993,424;    2,167;   -0,591
945,789; 2953,788;    1,258;   -1,864
946,342; 3153,242;   -0,561;   -0,591
946,896; 2908,788;    0,348;    0,955
947,450; 2701,879;   -0,561;   -0,227
948,004; 2948,061;    1,076;   -0,045
948,558; 2907,242;    1,258;   -0,864
949,111; 2838,788;   -1,197;   -0,318
949,665; 2946,242;   -0,106;   -0,682
950,219; 2843,788;    0,621;   -1,045
950,772; 2849,515;    0,258;    1,864
951,326; 2806,333;   -1,106;   -0,955
951,879; 2852,152;    1,076;   -2,318
952,433; 2889,242;    1,348;    2,227
952,986; 2715,515;    0,348;    0,682
953,539; 2675,333;    1,530;    0,591
954,093; 2632,606;    0,985;   -1,318
954,646; 2765,697;   -0,288;    1,318
955,199; 2592,606;    1,258;   -0,500
955,752; 2578,061;    1,985;    1,773
956,305; 2495,697;    0,894;    2,955
956,858; 2631,788;    0,621;   -0,318
957,411; 2773,333;    3,621;    2,136
957,964; 2604,788;    2,076;    2,136
958,517; 2586,424;    0,985;    3,136
959,070; 2461,333;   -1,197;    1,955
959,623; 2626,061;    1,076;    1,500
960,176; 2436,606;    0,712;    2,045
960,728; 2407,515;    1,712;    0,773
961,281; 2456,515;    2,258;    0,500
961,834; 2456,879;   -0,833;    0,864
962,386; 2395,788;    1,258;    1,045
962,939; 2333,152;    3,439;   -0,318
963,491; 2442,242;    2,621;    1,136
964,043; 2333,515;    0,076;    2,409
964,596; 2463,061;    1,712;    2,227
965,148; 2301,424;   -0,379;    1,773
965,700; 2240,606;   -0,015;   -0,227
966,253; 2391,424;   -0,833;    0,318
966,805; 2278,697;    1,894;    0,773
967,357; 2281,606;    0,439;   -1,500
967,909; 2282,424;    1,167;   -1,227
968,461; 2316,061;    0,894;    3,136
969,013; 2260,152;   -1,561;   -0,864
969,565; 2357,333;    1,803;   -1,136
970,117; 2546,515;    3,803;    1,045
970,669; 2289,697;    3,258;   -0,136
971,220; 2119,879;    2,167;   -1,500
971,772; 2080,333;    1,348;   -0,318
972,324; 2231,697;   -1,197;   -0,500
972,876; 2147,061;    0,167;   -0,045
973,427; 2301,152;   -1,197;   -1,045
973,979; 2304,515;    0,076;   -2,500
974,530; 2245,424;    0,803;    1,318
975,082; 2260,606;    2,167;    1,682
975,633; 2176,515;    2,894;    1,682
976,184; 2317,970;    2,076;    0,773
976,736; 2174,970;    0,348;    0,227
977,287; 2033,333;    0,258;   -0,500
977,838; 2153,515;   -0,924;   -0,318
978,389; 2192,879;    0,803;   -0,500
978,940; 2059,606;    1,258;   -0,409
979,491; 2074,697;    2,258;   -0,500
980,042; 2086,879;   -0,652;    3,045
980,593; 2103,152;    1,894;    0,227
981,144; 2187,242;    3,530;   -0,500
981,695; 2205,788;   -0,470;    1,500
982,246; 2153,515;   -1,833;    1,045
982,797; 2196,061;   -0,561;    0,682
983,347; 2337,424;    2,167;    0,591
983,898; 2527,333;    4,167;    0,409
984,449; 2373,152;    2,530;    0,773
984,999; 2221,970;    1,894;   -1,136
985,550; 2085,515;    3,167;   -0,318
986,100; 2053,333;    0,712;   -0,318
986,651; 2061,242;    0,258;    0,045
987,201; 2079,788;    0,894;   -0,591
987,751; 2150,333;   -0,288;    2,864
988,302; 2140,061;   -0,379;    1,500
988,852; 2158,242;    1,985;   -1,136
989,402; 2238,515;    0,985;    0,682
989,952; 2179,242;    1,621;    0,864
990,502; 2210,424;    1,076;    0,682
991,052; 2140,970;   -0,106;    0,045
991,602; 2045,606;    1,167;    1,318
992,152; 2063,152;    2,803;    0,682
992,702; 2052,061;    1,167;   -0,045
993,252; 1987,061;    0,076;   -0,500
993,802; 2107,333;    1,167;    1,318
994,352; 2259,333;   -0,742;    1,136
994,901; 2297,152;    1,076;    3,227
995,451; 2234,152;   -1,197;    0,318
996,000; 2303,879;    1,076;    0,318
996,550; 2086,061;    2,894;    0,227
997,100; 2090,242;   -0,561;   -0,045
997,649; 2348,242;   -0,197;    0,955
998,198; 2046,333;   -0,288;   -1,500
998,748; 2228,242;    0,348;   -2,318
999,297; 2116,242;    0,985;   -0,409
999,846; 2216,152;    1,894;   -0,773
1000,395; 2212,879;    1,530;    0,500
1000,945; 2233,697;    1,076;   -0,773
1001,494; 2287,152;    0,167;    0,682
1002,043; 2267,697;    0,712;    0,864
1002,592; 2086,061;    3,439;    1,955
1003,141; 2220,606;    2,439;   -0,682
1003,690; 2156,242;    1,258;    0,500
1004,238; 2152,424;   -0,106;   -0,045
1004,787; 1861,606;   -1,288;    1,227
1005,336; 2120,697;    1,621;    0,682
1005,885; 2177,970;   -0,197;   -2,773
1006,433; 2254,515;   -0,470;    0,955
1006,982; 2410,061;    2,167;    1,682
1007,531; 2274,152;    2,712;   -0,227
1008,079; 2202,697;    0,258;    0,500
1008,627; 2289,879;    1,621;    0,409
1009,176; 2088,697;    0,076;   -1,955
1009,724; 2118,061;   -2,742;    0,864
1010,273; 2254,333;    1,076;    0,500
1010,821; 2273,606;    1,076;    1,409
1011,369; 2056,333;    0,076;    1,318
1011,917; 2045,333;   -0,833;   -0,591
1012,465; 2293,697;    2,530;   -1,591
1013,013; 2368,697;    0,439;   -1,682
1013,561; 2308,152;   -1,288;   -0,773
1014,109; 2389,152;   -0,833;    1,682
1014,657; 2246,152;    1,348;    0,591
1015,205; 2300,606;    0,894;   -0,955
1015,753; 2301,697;    0,258;   -1,409
1016,301; 2342,242;    2,621;    3,045
1016,848; 2362,970;    2,167;    0,409
1017,396; 2422,242;    1,621;    0,045
1017,944; 2498,970;    2,621;    1,864
1018,491; 2273,424;   -0,197;    1,409
1019,039; 2540,515;   -0,652;    0,591
1019,586; 2356,879;    0,076;    1,682
1020,134; 2403,424;    0,712;    1,500
1020,681; 2470,606;    2,894;   -1,136
1021,228; 2424,333;   -0,561;   -2,227
1021,776; 2295,242;   -0,833;   -1,136
1022,323; 2553,424;    0,803;    0,773
1022,870; 2468,515;   -0,470;   -0,045
1023,417; 2424,879;    2,076;    1,864
1023,964; 2460,788;    0,621;    1,227
1024,511; 2363,242;   -0,652;    0,773
1025,058; 2200,333;    0,439;   -0,045
1025,605; 2234,606;   -1,742;    3,136
1026,152; 2482,424;   -0,106;   -0,591
1026,699; 2211,152;    0,167;    1,318
1027,245; 2329,515;    2,439;    0,318
1027,792; 2462,152;    0,712;    1,409
1028,339; 2448,242;    4,076;   -0,045
1028,885; 2313,879;    3,621;   -0,227
1029,432; 2242,152;   -0,106;    0,227
1029,978; 2331,333;    1,348;   -1,591
1030,525; 2245,788;    1,621;    0,409
1031,071; 2375,061;    0,348;    1,136
1031,618; 2579,061;    1,258;    1,682
1032,164; 2345,970;    2,076;    3,045
1032,710; 2392,788;    0,076;   -1,500
1033,256; 2298,152;    0,712;   -0,136
1033,803; 2222,424;   -0,288;    1,500
1034,349; 2019,606;    1,803;    0,136
1034,895; 2159,242;    2,621;   -0,318
1035,441; 2163,061;    0,439;    0,318
1035,987; 2189,697;   -2,288;   -0,682
1036,533; 2209,515;   -0,197;   -0,955
1037,078; 2431,242;    4,712;    1,682
1037,624; 2241,515;    2,439;   -0,955
1038,170; 2218,515;    1,712;   -0,318
1038,716; 2175,333;    2,167;   -0,409
1039,261; 2056,879;    2,167;   -0,773
1039,807; 2022,606;   -0,015;    3,409
1040,352; 2112,697;   -1,288;   -0,318
1040,898; 2135,242;    0,167;   -0,682
1041,443; 2036,333;    0,803;   -2,591
1041,989; 2181,697;    3,621;    1,591
1042,534; 1993,697;    0,985;    2,591
1043,079; 2052,788;    1,985;    0,955
1043,625; 1933,242;    0,258;    0,500
1044,170; 2001,970;    2,439;    1,045
1044,715; 2241,788;    0,167;    0,955
1045,260; 2081,606;   -0,833;   -0,955
1045,805; 2054,697;    0,258;   -0,591
1046,350; 1980,788;    0,530;   -0,409
1046,895; 2046,970;    0,803;    1,591
1047,440; 2012,970;    1,530;    0,409
1047,985; 1877,879;   -1,197;   -0,955
1048,530; 1810,515;    1,348;    1,227
1049,074; 1879,242;    2,803;    0,318
1049,619; 1841,152;   -0,924;    1,955
1050,164; 1698,333;    1,076;    0,227
1050,708; 1762,242;    2,621;    0,045
1051,253; 2154,970;    3,258;   -2,227
1051,797; 1851,879;   -0,197;   -1,318
1052,342; 1789,333;    1,348;    1,045
1052,886; 1821,061;    1,803;   -1,409
1053,430; 1685,879;    2,167;    0,136
1053,975; 1728,879;    0,894;   -0,318
1054,519; 1720,697;    1,803;    3,227
1055,063; 1782,061;    3,621;    1,318
1055,607; 1694,788;    1,348;    0,227
1056,151; 1706,333;    0,530;    1,682
1056,695; 1600,879;   -1,833;   -1,136
1057,239; 1643,515;   -1,197;   -0,682
1057,783; 1670,606;    2,258;   -1,500
1058,327; 1685,333;    3,076;    1,409
1058,871; 1915,606;    3,985;    1,318
1059,415; 1647,061;   -0,561;   -0,045
1059,958; 1921,515;    2,985;    2,591
1060,502; 1620,152;    1,348;   -0,773
1061,046; 1493,152;    1,712;   -0,955
1061,589; 1450,424;    2,803;   -1,136
1062,133; 1361,606;    0,985;    1,864
1062,676; 1359,606;    1,439;    0,864
1063,220; 1379,879;    0,985;    0,500
1063,763; 1411,879;    2,985;    1,136
1064,306; 1477,242;    0,985;    1,864
1064,849; 1395,424;    2,076;    0,591
1065,393; 1386,697;    2,894;   -1,500
1065,936; 1462,697;    2,530;   -0,409
1066,479; 1350,152;    2,621;    1,318
1067,022; 1367,333;    1,894;   -0,227
1067,565; 1287,606;   -1,197;   -1,318
1068,108; 1298,879;    1,258;   -0,591
1068,651; 1269,697;   -2,470;    1,409
1069,194; 1219,879;   -1,106;   -1,682
1069,736; 1242,970;    3,803;    0,955
1070,279; 1200,879;   -1,652;   -0,500
1070,822; 1279,970;    1,530;   -0,318
1071,364; 1395,061;    0,530;    1,318
1071,907; 1203,424;    0,348;    3,227
1072,450; 1072,515;    0,258;   -0,045
1072,992; 1109,152;   -0,561;    3,136
1073,535; 1259,424;    0,167;    2,136
1074,077; 1064,515;    2,985;    2,045
1074,619; 1044,061;    0,985;    0,591
1075,161; 1089,152;   -0,561;    1,500
1075,704; 1271,242;    0,258;    1,227
1076,246; 1050,152;    1,530;    0,682
1076,788;  971,515;   -1,015;    1,773
1077,330; 1031,061;   -2,106;    2,136
1077,872; 1038,061;   -1,924;    0,955
1078,414; 1260,697;    3,712;    0,773
1078,956; 1013,879;    0,167;   -0,227
1079,498; 1287,515;    0,439;    0,318
1080,040;  995,152;    0,985;   -1,318
1080,581;  930,333;    0,621;   -0,318
1081,123;  852,788;   -0,106;   -0,773
1081,665;  887,333;    3,803;   -0,955
1082,206; 1191,970;    3,258;   -0,500
1082,748; 1055,333;    3,258;    2,045
1083,289;  930,788;    0,167;    1,318
1083,831;  872,970;    0,258;    0,227
1084,372;  919,333;    0,894;    0,591
1084,913;  917,061;    3,348;    0,864
1085,455;  860,606;    1,530;   -2,045
1085,996;  853,333;    0,530;    0,136
1086,537;  887,515;    0,985;    0,864
1087,078;  903,606;    0,439;   -2,136
1087,619;  964,061;   -1,652;    0,227
1088,160;  874,424;    1,439;    1,318
1088,701;  857,424;   -0,742;    0,682
1089,242;  801,424;   -0,561;   -2,227
1089,783;  902,515;   -0,561;    1,409
1090,324;  883,333;   -0,833;    0,682
1090,865;  761,970;   -1,924;   -0,409
1091,405;  710,061;   -0,561;    2,227
1091,946;  747,970;   -0,197;   -0,955
1092,487;  672,061;   -1,288;   -1,409
1093,027;  856,606;    1,803;   -1,500
1093,568;  719,970;    2,258;    1,227
1094,108;  811,152;    0,621;    1,773
1094,649;  745,697;   -0,470;    0,136
1095,189;  695,242;    1,167;   -0,682
1095,729;  654,061;    0,712;    0,955
1096,269;  653,424;    1,258;   -0,955
1096,810;  956,697;   -0,197;    0,500
1097,350;  807,879;   -0,561;   -0,773
1097,890;  703,697;    2,985;    1,227
1098,430;  951,970;    4,985;    2,864
1098,970;  837,970;    1,894;    1,682
1099,510;  681,333;   -0,833;   -2,318
1100,050;  632,788;    0,258;   -1,591
1100,589;  613,515;    0,076;   -0,318
1101,129;  724,879;    0,894;   -0,955
1101,669;  878,333;    2,803;    2,136
1102,209;  714,515;    1,530;    2,227
1102,748;  671,879;    3,439;    0,955
1103,288;  660,970;    0,712;   -1,227
1103,827;  668,061;    3,530;   -2,227
1104,367;  569,788;    1,712;   -2,409
1104,906;  537,515;   -1,015;   -1,136
1105,445;  608,515;    0,985;   -1,136
1105,985;  563,970;   -0,652;    1,500
1106,524;  612,152;    1,530;   -0,682
1107,063;  588,152;    1,167;    1,409
1107,602;  539,424;    1,894;   -1,500
1108,141;  477,515;    1,621;    1,500
1108,680;  592,333;    3,985;   -0,591
1109,219;  543,152;    0,167;   -0,500
1109,758;  524,788;    4,167;    0,682
1110,297;  499,333;   -1,106;   -0,682
1110,836;  463,788;    1,439;    0,955
1111,375;  612,970;    0,348;    0,409
1111,913;  633,061;    0,985;    0,773
1112,452;  558,061;    0,894;    0,136
1112,991;  451,152;    1,076;    1,955
1113,529;  422,788;    0,167;   -0,045
1114,068;  493,970;    0,439;    2,955
1114,606;  407,333;   -0,561;   -0,955
1115,144;  554,879;    1,530;    1,045
1115,683;  488,242;    1,985;    0,318
1116,221;  529,879;    2,076;   -0,864
1116,759;  449,061;    1,621;   -0,864
1117,297;  630,970;    1,621;    1,864
1117,836;  448,879;    1,985;   -1,227
1118,374;  455,333;    0,258;   -0,682
1118,912;  424,424;    0,439;    2,682
1119,450;  409,333;    0,985;    0,864
1119,988;  452,333;    3,348;    2,136
1120,525;  879,152;    7,258;    3,318
1121,063;  600,606;    0,530;    1,864
1121,601;  419,879;    1,076;   -1,227
1122,139;  381,879;    1,076;   -2,045
1122,676;  569,788;   -1,652;    2,773
1123,214;  500,333;    0,712;    4,409
1123,751;  328,061;    0,621;    2,227
1124,289;  447,061;    0,894;   -0,409
1124,826;  339,515;   -0,379;    0,227
1125,364;  260,697;    0,712;   -0,955
1125,901;  447,152;    6,258;    1,227
1126,438;  542,152;    3,530;    0,955
1126,975;  284,879;    2,985;   -0,773
1127,513;  351,606;    2,621;    2,136
1128,050;  274,788;   -0,561;   -0,682
1128,587;  364,697;    1,348;   -0,227
1129,124;  396,152;   -0,015;    1,318
1129,661;  279,333;   -1,924;    0,227
1130,198;  433,879;    2,439;    0,773
1130,734;  377,515;   -0,379;    1,409
1131,271;  254,970;   -1,197;    0,864
1131,808;  407,879;    1,621;    3,045
1132,345;  302,242;    4,530;    0,318
1132,881;  188,242;   -0,561;   -1,864
1133,418;  319,152;    0,348;   -1,136
1133,954;  250,515;    0,712;   -2,682
1134,491;  327,788;    1,712;   -0,773
1135,027;  233,970;    2,167;    0,864
1135,564;  309,788;    1,439;    2,955
1136,100;  292,697;   -0,742;    2,136
1136,636;  205,697;   -1,015;   -1,045
1137,172;  288,242;    0,894;   -1,045
1137,708;  221,970;   -1,561;   -1,045
1138,245;  223,242;    0,803;   -1,227
1138,781;  182,606;    1,803;   -3,318
1139,317;  241,333;    1,894;   -1,409
1139,852;  234,424;    3,076;    0,136
1140,388;  329,333;    2,076;   -0,409
1140,924;  226,061;    1,076;   -2,227
1141,460;  171,515;   -0,288;    0,136
1141,996;  112,788;   -0,652;    2,682
1142,531;  152,515;    1,076;    3,318
1143,067;  356,061;    1,167;    1,045
1143,602;  410,333;    3,439;   -0,318
1144,138;  266,424;    0,803;    1,045
1144,673;  152,242;    1,621;    1,409
1145,209;  206,515;    2,894;   -0,318
1145,744;  139,424;    0,803;    0,864
1146,279;  263,970;    1,530;   -0,136
1146,815;  185,697;    1,530;   -2,682
1147,350;  218,697;   -0,924;    0,045
1147,885;  146,515;   -1,924;   -1,318
1148,420;  139,606;    2,439;    0,773
1148,955;  129,788;   -1,470;    1,864
1149,490;  150,333;   -1,106;   -1,591
1150,025;  137,152;   -1,106;   -1,773
1150,560;  234,879;   -0,288;   -0,955
1151,094;  202,333;    0,258;   -0,591
1151,629;  206,697;   -3,742;    0,864
1152,164;  144,424;   -1,288;    1,318
1152,698;  109,970;    1,258;   -0,136
1153,233;   77,606;   -1,379;   -0,682
1153,767;  121,152;   -0,288;   -2,318
1154,302;  165,879;   -0,379;    1,773
1154,836;  163,424;    0,803;   -2,136
1155,371;  204,061;    2,258;    3,682
1155,905;  163,242;    1,985;    1,682
1156,439;  137,879;    0,530;   -0,500
1156,973;  162,970;    0,439;    0,318
1157,507;  109,424;   -1,742;    0,682
1158,042;  136,697;   -0,652;    1,045
1158,576;  174,333;   -0,561;    1,773
1159,110;  167,333;    0,076;    2,409
1159,643;  138,606;   -2,470;   -0,045
1160,177;   87,606;   -2,015;    1,500

