
Integration time [ms]:   0,040
Averaging Nr. [scans]: 11
Smoothing Nr. [pixels]: 0
Data measured with spectrometer [name]: 7318044SP
Wave   ;Sample   ;Dark     ;Reference
[nm]   ;[counts] ;[counts] ;[counts] 

186,757;   33,581;   38,161;    1,318
187,357;   53,717;   26,706;    0,955
187,958;   28,246;   17,252;   -1,591
188,558;   72,805;   12,979;   -1,227
189,159;   47,745;   10,070;   -4,500
189,759;   23,651;    5,797;   -3,591
190,360;   19,895;    6,797;   -2,136
190,960;   55,113;    5,706;   -4,136
191,560;   60,831;    2,614;   -6,591
192,161;  282,684;    5,885;   -3,500
192,761;  146,444;    5,520;   -3,227
193,361;  101,866;    3,065;   -3,773
193,962;  154,306;    1,612;   -2,682
194,562;   79,953;   -0,114;   -3,955
195,162;  111,467;   -0,567;   -2,227
195,762;  255,161;    2,433;   -0,045
196,362;  199,454;    1,706;   -2,500
196,963;   82,575;    1,706;   -0,864
197,563;  146,784;    1,252;   -0,955
198,163;   99,435;   -0,111;   -0,682
198,763;  120,816;   -0,020;   -0,500
199,363;  222,457;    3,616;   -0,500
199,963;  185,694;    2,162;    0,409
200,563;  155,353;    6,344;   -1,409
201,163;  138,313;    5,435;   -0,227
201,763;  220,964;    1,435;    0,318
202,363;  152,024;    0,980;    1,500
202,963;  255,916;    1,526;    1,045
203,563;  371,807;    0,344;    0,500
204,162;  222,996;    1,889;   -1,864
204,762;  213,275;    2,071;    0,591
205,362;  185,699;    0,708;    1,955
205,962;  274,880;    3,435;    1,955
206,562;  268,821;    1,889;    2,318
207,161;  243,111;    1,708;    0,318
207,761;  396,935;    4,435;    2,409
208,361;  269,317;    1,889;    1,409
208,960;  357,336;    2,889;    1,500
209,560;  415,030;    0,435;    1,591
210,160;  401,869;    5,071;    1,864
210,759;  366,830;    0,708;    1,227
211,359;  369,442;   -0,474;    1,045
211,958;  631,715;    3,526;    2,045
212,558;  703,932;    0,799;    1,864
213,157;  544,205;   -0,929;    1,500
213,757;  966,770;    5,617;   -0,227
214,356;  669,766;    1,708;   -0,409
214,956;  986,261;    3,526;    0,409
215,555;  625,756;    0,617;    2,136
216,154;  557,507;   -0,292;   -0,591
216,754;  566,003;    1,253;    0,773
217,353;  686,239;   -0,383;   -1,045
217,952;  548,565;    2,072;    0,318
218,552;  779,998;    0,254;   -0,773
219,151;  667,133;   -1,110;    0,955
219,750;  676,326;    0,890;   -0,227
220,349;  753,234;   -2,292;    1,045
220,948;  846,121;    1,163;    1,136
221,548;  845,852;    0,617;    1,227
222,147;  952,253;   -1,292;   -0,409
222,746; 1226,275;    1,254;   -0,955
223,345; 1089,534;   -1,019;    0,500
223,944; 1093,364;    1,163;    0,773
224,543; 1234,001;    4,072;   -1,409
225,142; 1359,000;    1,345;    0,136
225,741; 1261,739;    1,163;    1,045
226,340; 1280,112;    1,254;   -0,955
226,939; 1692,749;    2,708;   -0,136
227,538; 1602,826;    1,163;   -0,773
228,137; 1767,530;    0,435;    0,864
228,735; 1865,097;    0,435;    1,227
229,334; 1646,411;   -0,474;   -0,227
229,933; 2016,052;    0,799;    0,591
230,532; 2127,486;   -1,201;   -0,409
231,131; 2191,223;    1,253;    0,318
231,729; 2274,612;    1,163;   -2,318
232,328; 2356,924;    0,435;   -1,500
232,927; 2401,780;    4,526;   -0,500
233,525; 2509,012;    0,981;    0,045
234,124; 2732,736;    1,890;   -1,591
234,723; 2748,749;    1,617;   -1,045
235,321; 2860,845;    1,163;    0,136
235,920; 3049,500;    2,526;   -1,227
236,518; 3304,322;    1,072;    0,318
237,117; 3423,716;    2,890;   -0,227
237,715; 3569,367;    1,163;   -0,500
238,314; 3602,241;    1,708;   -2,318
238,912; 3707,265;    0,526;   -1,409
239,510; 3748,985;    1,162;   -1,227
240,109; 3911,790;   -0,474;    3,773
240,707; 3923,298;   -0,474;    1,227
241,305; 4233,174;   -0,383;    0,136
241,904; 4453,265;   -0,292;   -2,045
242,502; 4427,657;    3,253;   -0,227
243,100; 4352,773;    3,344;   -0,955
243,698; 4555,787;    2,799;    1,682
244,297; 4743,390;   -0,656;    0,682
244,895; 4618,432;   -0,474;   -2,318
245,493; 4885,744;    2,981;   -0,591
246,091; 4891,532;    5,163;   -1,318
246,689; 4892,553;    2,163;    0,591
247,287; 5034,551;   -0,019;   -1,136
247,885; 5306,404;   -1,019;    1,227
248,483; 5390,730;   -0,201;   -0,500
249,081; 5490,072;    0,981;    1,591
249,679; 5620,998;   -1,019;    1,682
250,277; 5882,187;   -2,292;    0,864
250,875; 5845,752;    0,617;   -1,045
251,473; 5875,719;   -0,019;    0,500
252,071; 6043,367;   -0,383;    1,045
252,669; 6190,273;   -1,565;    0,318
253,267; 6401,923;    1,618;    0,773
253,864; 6338,733;    0,617;    0,682
254,462; 6260,103;    1,526;    1,591
255,060; 6218,208;    0,072;    1,318
255,658; 6481,273;   -3,292;   -0,136
256,255; 6888,299;   -0,201;   -2,045
256,853; 6764,404;    2,345;    1,409
257,451; 6768,423;    1,981;    1,864
258,048; 7012,891;    2,072;    1,864
258,646; 6756,397;    0,436;   -1,045
259,243; 6921,313;    2,981;    2,227
259,841; 6976,774;    1,799;    0,318
260,438; 6872,632;    0,254;    0,864
261,036; 7542,575;    0,617;    1,409
261,633; 7471,413;    1,526;    2,227
262,231; 7240,541;   -0,110;   -0,045
262,828; 7284,722;   -0,383;    1,136
263,425; 7333,115;   -1,928;   -0,591
264,023; 7588,844;    1,436;    0,045
264,620; 7155,075;    1,526;   -0,318
265,217; 7480,616;    2,890;    3,136
265,815; 7583,569;    2,527;    2,136
266,412; 7406,665;    0,072;    0,136
267,009; 7443,625;    0,526;    0,773
267,606; 7368,306;    0,345;   -0,955
268,203; 7316,787;   -0,383;   -0,591
268,801; 7593,590;   -0,474;    0,591
269,398; 7870,637;   -0,564;    2,500
269,995; 7828,540;    0,890;    1,591
270,592; 7637,162;    0,799;   -0,500
271,189; 7819,751;    1,981;    0,409
271,786; 7929,299;    2,072;    1,227
272,383; 7781,533;   -0,383;    0,227
272,980; 7944,651;    1,617;    0,318
273,577; 8386,232;    2,162;    1,227
274,174; 7980,626;    1,435;    2,591
274,771; 7909,728;    1,890;   -0,773
275,367; 8081,799;    3,253;    1,409
275,964; 8057,684;   -0,565;   -0,500
276,561; 8154,028;   -2,474;   -1,045
277,158; 8334,998;    1,799;   -1,773
277,755; 8483,981;   -0,110;    0,409
278,351; 7898,872;    0,436;   -1,500
278,948; 8193,343;   -0,201;    0,045
279,545; 8161,891;    0,527;    2,318
280,141; 8772,234;    1,254;   -2,045
280,738; 8624,679;    2,435;   -0,136
281,334; 8825,637;   -0,383;    0,591
281,931; 8251,011;    2,890;   -1,318
282,528; 8364,958;    4,072;   -0,500
283,124; 8989,739;    3,345;   -0,500
283,721; 8909,004;    0,709;    1,409
284,317; 8729,219;    0,163;    2,500
284,913; 9260,121;   -0,110;    0,591
285,510; 9420,575;    2,890;   -0,318
286,106; 9416,098;    2,345;   -0,955
286,703; 9042,746;    0,072;    1,955
287,299; 9212,502;    1,254;   -0,591
287,895; 9429,735;    0,890;   -1,045
288,491; 9963,091;    0,163;    2,136
289,088; 9701,879;    0,163;    2,409
289,684; 9785,728;    2,890;    1,500
290,280; 9763,842;    1,890;    0,682
290,876; 9830,073;    0,163;    5,500
291,472; 9755,839;    2,163;    2,227
292,068; 9817,510;    1,254;    0,227
292,665; 9541,320;   -0,564;    0,773
293,261; 9214,709;   -1,292;    2,136
293,857; 9588,703;    4,072;    2,136
294,453; 9530,619;   -0,928;    0,955
295,049; 9398,911;    0,253;    1,955
295,644; 9446,300;   -1,292;    0,136
296,240; 9339,634;    0,162;   -0,136
296,836; 9423,278;   -0,747;    0,318
297,432; 9651,225;    2,980;   -0,500
298,028; 9672,817;    0,435;    0,773
298,624;10073,942;    0,889;    1,864
299,220;10253,380;    0,435;    0,591
299,815; 9951,539;    0,526;   -0,409
300,411; 9771,366;    0,435;    1,773
301,007; 9771,061;    1,889;    0,227
301,602; 9755,031;    2,071;   -2,318
302,198; 9921,181;    1,435;   -0,773
302,794;10289,420;    1,526;   -0,500
303,389;10382,812;    1,071;    1,045
303,985;10443,362;    1,253;    1,409
304,580;10406,259;    0,889;    1,591
305,176;10414,615;    0,344;    0,136
305,771;10352,541;   -0,929;   -1,227
306,367;10202,098;    3,071;    0,136
306,962;10489,394;    2,889;    1,500
307,558;10226,984;    2,435;    0,136
308,153;10192,867;   -0,383;   -1,136
308,748;10380,879;    0,162;    1,682
309,344;10347,121;    0,253;   -1,318
309,939;10464,879;    2,071;   -1,318
310,534;10726,091;   -2,020;   -1,682
311,130;10634,814;   -0,656;   -2,500
311,725;10362,009;    0,526;   -0,500
312,320;10683,693;    1,253;    0,045
312,915;10566,252;    2,890;   -1,045
313,510;10644,557;    0,526;   -0,500
314,105;11093,705;   -3,565;    1,409
314,700;10504,537;   -1,656;   -1,045
315,295;10212,714;   -0,020;    0,045
315,890; 9814,891;   -0,292;    0,864
316,485;10115,422;    0,253;   -0,318
317,080;10200,443;   -0,929;    1,591
317,675;10715,217;    3,071;   -0,682
318,270;10173,803;    6,889;    3,318
318,865;10162,097;    2,435;    3,045
319,460;10029,280;   -1,565;    0,591
320,055;10248,353;   -2,565;   -1,227
320,650; 9911,526;   -1,838;   -0,591
321,244; 9984,430;    0,889;   -1,409
321,839;10870,383;    0,980;   -0,227
322,434;10757,602;   -0,111;   -1,591
323,029;10438,721;   -0,474;    1,591
323,623;10298,879;    0,798;    0,773
324,218;10091,595;    2,707;    1,409
324,812;10012,217;    0,889;    1,591
325,407; 9847,916;   -0,929;    2,045
326,002; 9770,124;    0,526;   -0,409
326,596;10079,872;   -0,656;    1,318
327,191;10237,502;   -0,383;   -1,045
327,785; 9866,145;   -0,747;   -0,227
328,379;10093,707;   -0,383;    0,136
328,974; 9875,275;    1,798;   -3,955
329,568;10118,674;    2,889;   -2,409
330,163; 9959,430;    2,435;    1,045
330,757;10266,063;    0,253;    1,591
331,351; 9627,044;   -0,292;    0,682
331,945; 9938,532;   -0,383;    1,409
332,540; 9556,751;    1,617;   -0,591
333,134; 9692,179;    3,344;    0,773
333,728; 9911,546;    2,799;    0,318
334,322;10199,772;    0,889;   -0,864
334,916; 9540,470;    0,344;    0,955
335,510; 9876,292;   -0,111;   -0,136
336,105;10088,956;   -0,929;    1,591
336,699; 9797,597;   -1,292;    0,591
337,293; 9750,126;    1,071;    0,318
337,887; 9845,989;    0,071;    1,955
338,481; 9947,068;    2,980;    0,591
339,074;10083,128;    2,071;    2,682
339,668; 9920,937;   -0,110;    1,227
340,262;10155,273;    7,708;    3,227
340,856; 9715,692;    1,708;   -0,682
341,450; 9089,388;    0,708;    1,864
342,044; 9902,762;    1,799;    0,136
342,637; 9683,335;    1,162;   -2,136
343,231; 9519,196;   -1,474;    0,682
343,825; 9479,981;   -0,747;   -0,591
344,419; 9452,042;   -0,474;    0,500
345,012; 9304,527;    2,889;    4,045
345,606; 9281,267;   -0,656;    1,591
346,199; 9180,381;   -0,111;   -0,227
346,793; 8756,099;    2,525;    2,045
347,386; 8944,124;    0,889;   -1,136
347,980; 8923,193;   -0,838;   -0,045
348,573; 8749,960;   -1,748;    0,409
349,167; 8468,497;    6,161;    4,773
349,760; 8792,205;    2,252;    2,682
350,354; 8758,216;    1,616;    1,136
350,947; 8508,798;    2,798;    1,682
351,540; 8242,772;    0,616;   -1,409
352,134; 8182,592;   -1,111;    1,136
352,727; 8265,207;   -0,657;    1,136
353,320; 8070,238;    2,343;    0,591
353,913; 7944,317;   -1,929;    1,864
354,507; 8119,212;    0,434;   -1,227
355,100; 8151,610;    0,071;    0,864
355,693; 7451,842;    4,798;    2,409
356,286; 7482,340;    0,980;    2,773
356,879; 7852,799;   -0,475;    1,227
357,472; 7455,851;    0,980;    1,500
358,065; 7674,163;    3,161;    2,500
358,658; 7608,548;    0,798;    2,318
359,251; 7250,142;    0,252;   -0,591
359,844; 6797,590;    0,343;   -1,136
360,437; 6996,363;    0,252;    0,045
361,030; 7251,210;    0,525;   -0,682
361,623; 6846,436;    0,434;    0,318
362,215; 6886,613;    0,979;    2,045
362,808; 6742,396;   -2,293;   -1,682
363,401; 6929,399;    0,798;    0,136
363,994; 6727,838;    3,252;   -1,500
364,586; 6660,470;    0,888;   -1,500
365,179; 6845,962;   -0,203;   -1,136
365,772; 6344,147;   -0,930;    2,045
366,364; 6595,776;    1,524;   -3,227
366,957; 6838,015;    1,342;   -0,045
367,549; 6861,744;   -0,203;   -0,864
368,142; 6511,724;    0,978;   -1,500
368,734; 6688,888;    2,523;   -2,136
369,327; 6634,833;    2,341;   -0,500
369,919; 6560,957;   -1,659;    0,409
370,512; 6402,807;   -1,023;   -0,500
371,104; 6172,681;    2,704;    1,591
371,696; 6350,119;    1,703;   -0,955
372,289; 6402,873;    0,157;    1,136
372,881; 6535,496;    1,156;    1,318
373,473; 6449,995;    4,064;    1,136
374,066; 6296,377;    1,336;    0,500
374,658; 6154,892;    0,879;    1,136
375,250; 6475,268;   -1,668;   -1,409
375,842; 6318,799;   -0,124;   -0,045
376,434; 6180,850;   -2,762;   -0,409
377,026; 6747,255;   -1,855;   -2,500
377,618; 6655,088;    0,779;   -0,682
378,210; 6495,313;    3,141;   -1,955
378,802; 6336,992;    3,412;   -0,591
379,394; 6314,222;    3,411;    0,682
379,986; 6836,166;    1,138;   -0,955
380,578; 6931,640;    1,410;    0,773
381,170; 6339,898;    0,320;    0,045
381,762; 6286,280;   -0,224;    1,409
382,354; 6460,912;   -0,223;   -1,318
382,945; 6572,413;    0,870;    0,318
383,537; 6737,199;    1,144;   -1,955
384,129; 6712,796;    0,963;   -1,136
384,721; 6881,939;    0,418;    0,955
385,312; 6805,416;   -1,399;   -0,955
385,904; 6882,569;   -0,945;    1,591
386,496; 6296,101;    0,691;    1,045
387,087; 6434,382;    0,418;    2,500
387,679; 6482,627;   -0,401;    0,045
388,270; 6599,565;   -2,401;    2,045
388,862; 6668,616;   -0,401;   -0,318
389,453; 6578,371;    1,054;    1,045
390,045; 6844,894;    3,236;   -2,682
390,636; 6765,710;    0,144;   -0,591
391,227; 6615,451;    2,054;   -0,045
391,819; 6744,366;    0,781;    0,773
392,410; 6783,839;    0,600;    0,045
393,001; 6726,280;    1,600;   -1,591
393,593; 6951,807;    0,600;   -0,045
394,184; 6836,511;    0,873;   -0,409
394,775; 6745,877;    1,146;    2,136
395,366; 6934,246;    1,782;    0,773
395,957; 6920,184;   -2,400;    0,136
396,548; 7200,638;    1,054;    2,682
397,139; 7490,660;    2,236;    0,591
397,730; 7231,810;    0,873;    0,955
398,321; 7289,397;    0,509;    0,955
398,912; 7288,979;   -0,764;    0,136
399,503; 7383,772;   -1,945;   -1,409
400,094; 6868,823;   -1,582;    1,682
400,685; 6730,868;    3,600;    0,045
401,276; 6809,218;   -0,400;   -0,955
401,867; 7112,728;   -1,127;    0,773
402,458; 7190,509;    1,509;   -2,318
403,048; 7175,308;    0,146;    0,591
403,639; 6792,686;    1,509;    0,864
404,230; 7041,107;    0,691;    0,318
404,821; 6957,863;   -0,127;    0,045
405,411; 7084,235;   -0,763;   -2,591
406,002; 6703,471;    3,237;   -1,136
406,592; 6603,219;    2,691;    0,045
407,183; 6871,640;    0,328;   -1,500
407,774; 6779,344;    1,419;   -0,136
408,364; 7066,328;    2,600;    0,409
408,954; 6730,346;   -0,036;    1,227
409,545; 6759,500;    1,873;    1,045
410,135; 6359,367;   -1,581;    0,500
410,726; 6495,431;    0,783;    0,318
411,316; 6857,346;    2,237;    0,773
411,906; 6549,907;    0,146;   -0,409
412,497; 6103,253;   -0,490;   -0,045
413,087; 6643,894;    0,783;   -0,227
413,677; 6996,091;   -2,490;    3,864
414,267; 6854,151;   -1,035;    1,409
414,857; 6818,480;    0,419;    4,227
415,448; 7084,448;   -0,763;    0,500
416,038; 6823,912;   -2,945;   -0,591
416,628; 6806,154;    0,965;    0,409
417,218; 6339,564;   -1,762;    3,318
417,808; 6571,801;    0,965;   -0,409
418,398; 6936,440;   -1,035;    2,682
418,988; 6955,493;   -2,217;    0,591
419,578; 7165,123;    3,601;    1,409
420,168; 7458,956;    0,692;   -0,955
420,757; 7120,108;    0,964;   -1,500
421,347; 6793,668;    1,601;   -0,227
421,937; 6934,027;    3,329;    1,409
422,527; 6920,299;    2,602;   -0,773
423,116; 6758,484;    2,692;   -0,045
423,706; 7021,915;    2,965;    0,318
424,296; 6996,503;    1,601;    0,682
424,885; 7415,775;    1,510;   -3,045
425,475; 7644,369;    1,147;   -2,864
426,065; 7580,798;   -1,489;   -0,318
426,654; 7230,529;    0,329;   -0,318
427,244; 7316,309;    1,147;    1,409
427,833; 6830,001;    1,056;   -0,500
428,423; 7225,464;    0,147;    1,136
429,012; 7935,624;    2,420;   -1,136
429,601; 7465,626;    2,057;    0,136
430,191; 7691,923;    2,511;    4,318
430,780; 7320,944;   -1,671;   -0,409
431,369; 7300,514;    1,329;   -0,045
431,959; 7870,524;    1,693;    0,500
432,548; 7644,848;   -1,398;   -0,045
433,137; 7728,777;    0,329;   -1,318
433,726; 8250,785;    0,148;    0,500
434,315; 7664,936;    0,148;    2,409
434,905; 7750,755;    0,693;    1,409
435,494; 7685,017;    3,148;    0,955
436,083; 8104,838;    1,420;   -0,955
436,672; 7962,132;    1,148;    0,500
437,261; 7585,283;    0,512;   -1,955
437,850; 7687,015;   -1,125;    0,682
438,439; 7692,760;    2,239;    1,955
439,027; 7569,774;    3,421;    1,773
439,616; 7835,650;    2,239;    1,227
440,205; 7685,571;    0,057;   -2,136
440,794; 7756,181;   -0,306;   -0,045
441,383; 7989,905;    1,603;   -0,591
441,971; 7846,626;   -0,306;    0,591
442,560; 7691,963;    0,603;   -1,773
443,149; 7450,336;    3,060;   -1,318
443,737; 7581,936;    0,968;   -2,318
444,326; 7846,355;    0,331;    0,318
444,915; 7882,028;   -1,851;    0,864
445,503; 8210,441;    0,058;   -0,318
446,092; 7568,273;    7,876;    2,136
446,680; 8059,049;    1,876;    0,318
447,269; 8169,655;   -1,487;   -0,318
447,857; 7980,871;    2,240;   -1,773
448,445; 8118,929;    2,149;    1,318
449,034; 8321,533;    0,876;   -1,136
449,622; 8441,058;    1,240;    3,500
450,210; 7751,427;    3,149;    2,227
450,799; 8241,280;    2,604;   -0,591
451,387; 8171,772;    1,786;   -0,591
451,975; 7887,185;   -1,305;    0,864
452,563; 7963,358;    0,422;    2,318
453,151; 8008,476;   -1,032;   -1,227
453,739; 7934,137;   -1,577;    0,136
454,328; 7796,205;    0,604;   -2,136
454,916; 7517,256;    1,150;   -0,136
455,504; 7702,867;    3,513;    1,227
456,092; 7873,618;    2,150;   -1,591
456,679; 7840,259;    0,604;    0,682
457,267; 7817,384;    3,604;    1,045
457,855; 7927,563;    3,241;    1,409
458,443; 7673,241;   -0,304;    1,682
459,031; 7810,192;    1,332;    2,409
459,619; 8191,169;   -3,577;    2,864
460,206; 8301,095;   -0,759;    2,045
460,794; 8397,733;   -0,668;   -0,227
461,382; 8613,762;    0,878;   -0,864
461,970; 8201,443;    0,605;    1,864
462,557; 8261,418;    0,878;   -0,682
463,145; 8419,443;   -0,304;   -1,682
463,732; 8534,317;    2,514;   -1,045
464,320; 8474,200;    1,514;   -3,045
464,907; 8193,820;    0,423;   -0,773
465,495; 8066,334;    2,696;   -1,227
466,082; 8212,104;    2,060;   -0,045
466,670; 8108,747;    2,605;    1,227
467,257; 8486,810;    0,060;    2,045
467,844; 8653,372;    1,514;    0,045
468,432; 8675,311;   -0,031;    3,500
469,019; 8218,063;    1,606;   -1,773
469,606; 8638,649;    0,969;    3,682
470,193; 8503,506;    2,151;    0,227
470,780; 8126,273;    0,333;    0,864
471,368; 8427,100;   -1,212;   -0,773
471,955; 8236,744;    1,060;   -0,682
472,542; 7892,221;   -0,303;   -1,136
473,129; 8129,958;   -0,485;    0,136
473,716; 7874,173;    0,060;    0,591
474,303; 8012,949;    1,333;   -0,864
474,890; 8320,076;    2,333;   -0,500
475,477; 8351,598;   -0,576;    0,409
476,064; 8225,898;    0,697;   -1,591
476,650; 8129,444;    2,152;    0,318
477,237; 7977,262;    1,879;    0,955
477,824; 8127,069;    3,879;    0,864
478,411; 8150,244;    0,606;   -0,318
478,997; 8336,942;    0,606;   -0,773
479,584; 8391,380;   -0,666;   -0,409
480,171; 9024,723;    1,243;   -0,773
480,757; 8676,997;   -0,848;    0,773
481,344; 8970,930;    0,334;    0,409
481,931; 8489,933;   -0,393;    1,045
482,517; 9362,283;    0,425;    0,318
483,104; 9823,902;    1,334;    2,864
483,690;10040,930;    0,243;    0,045
484,276;10348,582;    0,698;    0,227
484,863;10089,491;    2,152;    1,136
485,449;10624,931;    0,152;    0,318
486,035;10603,871;   -0,666;   -0,136
486,622;11020,766;   -2,393;    0,045
487,208;10960,449;    1,334;    1,500
487,794;10856,982;    0,971;    0,318
488,380;10948,269;    0,698;   -1,409
488,967;10981,268;   -1,120;   -0,409
489,553;11029,991;   -1,029;   -1,409
490,139;11187,380;    0,971;    0,773
490,725;10726,093;    0,789;   -0,227
491,311;10373,357;    1,516;    3,045
491,897; 9736,657;   -0,665;    1,500
492,483; 9641,876;    0,426;    1,227
493,069; 9511,459;    5,426;    0,864
493,655; 9453,901;    1,789;    0,682
494,241; 9386,892;    1,517;   -0,955
494,826; 9703,648;    0,335;   -1,045
495,412; 9176,126;    0,335;   -0,682
495,998; 9338,146;    0,971;   -0,318
496,584; 9442,442;    2,244;    1,045
497,169; 9415,642;    2,335;   -0,682
497,755; 9404,499;    1,244;    1,227
498,341; 9915,118;    2,153;    0,318
498,926; 9506,031;    2,881;    1,955
499,512; 9640,577;   -0,028;    2,955
500,097; 9723,200;   -0,574;   -0,318
500,683; 9697,089;   -0,028;    2,136
501,268;10014,615;    1,881;   -0,955
501,854; 9754,249;   -0,119;    1,227
502,439; 9697,207;   -0,573;   -1,773
503,024; 9877,149;    1,608;    0,500
503,610; 9917,690;    1,335;   -0,682
504,195; 9922,936;    1,245;    1,955
504,780;10028,713;    2,335;    1,227
505,366; 9889,021;    4,063;    2,864
505,951; 9627,476;   -1,119;    1,045
506,536; 9666,353;    1,427;   -3,682
507,121; 9647,537;    1,699;   -0,318
507,706;10099,383;   -0,392;    1,045
508,291;10436,183;   -2,937;    1,136
508,876; 9907,324;   -0,482;    2,591
509,461; 9424,401;    1,427;   -0,773
510,046; 9823,326;   -0,391;    0,318
510,631;10045,774;   -0,119;   -0,773
511,216; 9746,184;   -0,664;   -0,500
511,801;10092,903;   -0,755;    2,591
512,386;10352,765;    0,972;    0,500
512,971;10281,359;    0,427;    0,955
513,555; 9867,643;    1,154;   -1,500
514,140;10555,702;    1,336;   -3,136
514,725;10525,188;    1,791;   -1,136
515,309;10643,678;    1,064;    0,318
515,894;10163,584;   -0,300;   -2,227
516,479;10572,102;    1,973;   -0,955
517,063;10396,291;    0,882;    1,227
517,648;10539,843;    0,155;   -1,136
518,232;10171,655;   -1,300;   -1,409
518,817;10493,408;    1,337;    1,682
519,401;10707,784;    0,700;    0,591
519,985;10262,952;    2,700;    1,136
520,570;10142,142;   -0,118;   -1,955
521,154;10392,825;    0,064;    0,591
521,738;10528,692;    1,064;    2,409
522,323;11073,133;   -0,390;    1,682
522,907;10799,095;    2,428;   -0,136
523,491;10534,486;    1,155;    0,955
524,075;10537,058;    0,428;    0,591
524,659;10602,165;    0,973;    0,591
525,243;10140,014;    0,883;    0,409
525,827;10349,740;    0,883;   -0,045
526,411;11115,347;    1,155;   -0,136
526,995;11268,841;    0,337;    1,409
527,579;10881,155;    1,974;   -1,045
528,163;11174,660;    0,428;   -1,500
528,747;11114,856;    1,065;   -0,773
529,331;11335,530;    0,883;   -1,409
529,915;11520,278;    2,338;    0,955
530,499;11483,345;    0,247;    1,227
531,082;11206,106;    1,065;    1,591
531,666;10721,319;    0,520;    0,773
532,250;11286,973;    0,428;    2,682
532,833;11579,219;    0,610;    2,773
533,417;11463,200;    1,247;    0,864
534,001;11422,825;    0,429;   -0,318
534,584;12047,589;    1,974;    0,500
535,168;11891,631;    3,247;    1,409
535,751;11920,776;    4,520;    0,045
536,334;11400,496;    4,520;   -0,409
536,918;11945,310;    1,974;    1,591
537,501;11999,925;    1,520;    1,318
538,085;11993,323;    1,702;    1,045
538,668;12098,894;    0,883;    2,409
539,251;12411,011;    3,156;    3,773
539,834;12413,549;    0,156;    0,773
540,418;12332,621;    3,247;    4,318
541,001;12399,038;    2,702;    1,773
541,584;12419,028;    1,429;    2,227
542,167;12136,469;    0,702;    2,955
542,750;12224,940;    0,793;   -0,773
543,333;11840,314;    1,429;    2,136
543,916;12544,436;   -0,298;    2,500
544,499;13055,566;    2,520;    0,227
545,082;13070,207;    0,248;    3,591
545,665;13188,217;   -0,207;    1,500
546,248;13473,133;    0,520;   -0,318
546,830;13136,487;   -1,752;    1,955
547,413;13514,799;    0,157;   -0,773
547,996;14030,957;    0,157;    0,500
548,579;13793,486;   -0,843;    0,955
549,161;13564,036;    0,884;    2,682
549,744;13347,019;    0,612;    0,409
550,326;13818,068;    0,885;   -1,136
550,909;13620,296;    2,339;    0,591
551,492;13970,467;    0,521;    0,227
552,074;13786,061;   -0,024;   -1,318
552,657;14278,289;    2,430;    0,045
553,239;14073,639;   -3,024;   -0,773
553,821;14014,968;   -1,570;    1,045
554,404;13527,650;   -0,024;    1,136
554,986;13855,035;    2,248;    1,045
555,568;14400,839;    0,430;   -0,955
556,151;13710,319;    4,067;   -0,227
556,733;13872,231;   -1,388;   -0,864
557,315;14274,468;    4,703;    0,500
557,897;14068,619;    0,521;   -0,500
558,479;14164,237;    1,703;    1,318
559,061;14299,425;    1,067;   -0,864
559,643;14597,332;   -0,297;    0,045
560,225;14873,298;   -0,388;    2,864
560,807;14913,514;    0,340;    0,318
561,389;14492,092;   -1,206;    2,318
561,971;15062,748;   -0,660;    2,136
562,553;14912,336;    0,613;    1,591
563,135;15018,968;    1,249;    1,136
563,717;14648,693;    3,158;    1,136
564,298;15271,779;    3,976;   -0,045
564,880;14984,398;    0,340;   -1,409
565,462;15100,671;    1,977;    1,318
566,043;16142,115;   -0,933;    2,318
566,625;15687,136;    4,067;    1,227
567,207;15476,757;    0,704;    1,682
567,788;16431,471;   -0,114;    1,500
568,370;17164,559;   -1,841;   -0,500
568,951;16936,482;   -0,569;    0,227
569,533;17659,810;    0,977;   -0,500
570,114;18061,040;   -0,296;    0,682
570,695;18463,312;   -0,478;   -1,318
571,277;18795,241;   -0,205;   -1,682
571,858;19413,475;    2,704;   -1,136
572,439;20148,361;    0,795;   -1,045
573,021;20182,998;    0,432;   -2,773
573,602;20628,089;    1,795;    0,318
574,183;21392,975;   -0,114;    2,227
574,764;21453,924;    2,068;    0,409
575,345;21859,874;    0,250;   -0,136
575,926;22416,672;    2,704;    0,136
576,507;22370,019;    2,704;   -0,227
577,088;23311,633;    1,704;    1,682
577,669;23323,392;    1,704;    1,955
578,250;23927,884;   -0,750;   -1,045
578,831;24409,783;   -0,841;   -2,227
579,412;24562,054;   -1,205;    0,955
579,993;25454,604;    1,432;    0,227
580,573;25707,061;   -0,023;   -0,955
581,154;24738,849;    1,613;   -0,591
581,735;25521,753;    0,341;    0,773
582,315;25053,753;    0,523;    2,136
582,896;25312,560;   -1,750;    1,227
583,477;24852,147;    0,614;    1,227
584,057;25032,126;    1,159;    0,955
584,638;25270,331;   -2,750;    2,318
585,218;25273,895;    2,886;    2,682
585,799;25431,814;    1,977;   -0,227
586,379;25454,178;    1,250;    1,591
586,959;24398,294;    2,613;    0,318
587,540;23847,776;    0,432;    2,227
588,120;23465,393;   -1,113;   -0,045
588,700;22647,627;    2,977;    2,136
589,281;22924,105;    1,250;   -0,955
589,861;22850,093;   -0,296;   -1,682
590,441;22684,790;   -1,477;   -2,682
591,021;21787,443;    1,432;   -2,591
591,601;22054,166;    0,431;    0,500
592,181;22088,274;   -1,296;   -0,773
592,761;21427,480;    2,250;    1,409
593,341;21431,928;    1,522;    0,045
593,921;21401,791;   -0,569;    1,591
594,501;21292,499;    1,250;    1,318
595,081;21127,402;    0,522;   -0,318
595,661;21486,784;    1,068;    0,955
596,240;21938,372;   -1,023;    0,136
596,820;21519,794;    2,613;    1,955
597,400;21634,325;    1,977;    0,773
597,980;21881,199;   -0,750;    1,045
598,559;21936,570;    0,341;   -0,227
599,139;21705,534;   -0,750;   -1,227
599,718;21592,989;    0,795;   -0,409
600,298;21842,411;   -2,387;    0,682
600,877;22036,682;    4,795;    1,409
601,457;22298,013;    0,340;    1,136
602,036;22205,369;    1,795;    2,045
602,616;22329,220;    2,250;    1,682
603,195;22641,216;    0,431;    3,500
603,774;22160,885;   -0,296;    2,045
604,354;22043,365;    2,522;   -0,500
604,933;21641,502;    0,250;    1,864
605,512;21744,733;    2,340;    0,591
606,091;21822,067;    1,886;    3,773
606,671;22570,605;    0,249;    0,773
607,250;21723,927;    1,431;    3,136
607,829;21937,683;    1,158;    3,227
608,408;21817,358;    4,613;    2,591
608,987;20959,828;    2,704;    3,409
609,566;21216,126;    0,341;   -2,500
610,145;21370,084;    2,885;    0,682
610,723;21751,660;    1,613;    6,864
611,302;21057,926;    1,067;    1,682
611,881;20586,758;    5,158;   11,227
612,460;21366,217;    0,795;    3,955
613,039;21753,569;    1,703;    2,045
613,617;20547,804;    0,886;    4,773
614,196;20721,240;    1,613;    1,227
614,775;21034,770;    1,249;    2,409
615,353;20957,705;   -1,660;    0,864
615,932;20778,164;    0,249;    2,409
616,510;21301,882;    0,158;    0,591
617,089;20900,441;    8,794;   17,591
617,667;20711,961;    4,885;    6,136
618,246;20609,146;   -1,115;    1,318
618,824;20722,493;    1,612;   -0,955
619,402;20310,654;    0,431;   -1,773
619,981;20738,290;    1,067;   -1,045
620,559;20618,274;    0,794;    1,682
621,137;20170,034;    3,067;    1,864
621,715;20141,428;    3,703;   -0,682
622,293;20123,395;    1,885;   -0,773
622,871;20576,922;    0,340;    0,500
623,450;20203,860;    0,430;   -0,864
624,028;20118,591;   -0,388;   -0,955
624,606;19793,664;    2,339;    1,682
625,183;20116,207;   -0,661;   -1,136
625,761;19773,865;    1,885;    1,136
626,339;20083,990;    2,339;    2,591
626,917;20423,578;    0,339;   -0,045
627,495;20442,902;    2,794;    1,318
628,073;19938,513;    5,248;    2,864
628,650;19651,350;    3,067;    2,136
629,228;20035,603;    1,248;    4,409
629,806;19526,126;   -0,024;    1,136
630,383;19751,914;    0,066;   -0,318
630,961;19610,513;   -2,206;   -0,955
631,539;19372,933;   -2,479;    0,227
632,116;18782,604;   12,703;   15,409
632,694;19255,872;    4,885;    6,500
633,271;19500,477;    1,975;    2,682
633,848;19508,455;    1,430;    2,045
634,426;19526,027;    1,521;    1,773
635,003;18740,851;   -0,207;   -0,409
635,580;18962,844;    1,884;    3,682
636,158;19489,687;    3,793;    1,227
636,735;19463,227;    3,339;   -0,500
637,312;19573,691;    0,521;   -0,682
637,889;19637,745;    2,248;   -0,682
638,466;19219,515;    0,066;   -0,409
639,043;19180,693;    1,702;   -1,136
639,620;19469,873;    0,611;   -0,955
640,197;19771,291;    1,612;    1,682
640,774;19933,011;    1,430;    1,136
641,351;20249,277;    0,612;    1,136
641,928;19761,997;    2,794;    1,409
642,505;19407,808;    0,794;   -0,500
643,082;19524,982;    1,885;    1,227
643,658;18652,975;    1,157;    1,500
644,235;19261,241;   -2,479;    2,500
644,812;19556,415;    1,794;    0,773
645,388;19320,772;    1,612;    1,409
645,965;19362,946;    1,521;    1,682
646,542;19455,394;    3,430;   -0,227
647,118;19471,750;    3,703;   -0,955
647,695;19669,470;    0,339;    1,136
648,271;19619,099;   -2,115;    0,500
648,848;19831,365;    0,248;    2,227
649,424;19741,721;    0,976;    1,318
650,000;19493,441;   -0,388;   -1,045
650,577;19318,798;    0,158;   -0,955
651,153;19707,972;   -1,115;    0,955
651,729;20534,783;    0,521;    0,864
652,305;20645,867;    1,339;    2,773
652,881;24023,860;   -1,297;    1,136
653,458;29422,580;    0,249;    0,227
654,034;32407,027;    0,703;    1,591
654,610;33594,202;    0,339;    0,773
655,186;34732,649;    1,612;    3,045
655,762;34385,642;   -1,842;    0,409
656,338;34458,907;    0,703;    0,136
656,913;35381,536;   -0,297;    0,409
657,489;34767,893;    0,249;   -0,318
658,065;34752,431;    0,794;   -1,591
658,641;35360,787;    2,158;   -0,864
659,217;34706,326;    2,067;    0,409
659,792;34175,136;   -1,751;   -0,409
660,368;34590,038;   -0,388;   -0,682
660,944;34453,031;    1,794;    1,227
661,519;30832,660;    0,522;    0,409
662,095;25987,744;   -0,206;    0,591
662,670;22251,464;   -0,206;   -0,136
663,246;21381,184;   -0,660;   -0,409
663,821;20779,359;    0,431;    1,682
664,396;20274,988;    0,613;    1,864
664,972;20480,344;   -0,660;   -0,500
665,547;20761,519;    3,794;    0,136
666,122;20816,421;    1,340;    0,318
666,698;21051,595;    2,431;    0,318
667,273;20424,861;    0,885;    0,136
667,848;21134,672;    0,340;    1,500
668,423;20939,574;    1,795;    2,318
668,998;21321,657;    0,976;   -0,682
669,573;21807,832;    2,067;   -1,500
670,148;21703,461;    1,885;   -0,682
670,723;21466,908;   -0,024;    0,318
671,298;21814,537;   -1,296;    1,045
671,873;21904,803;   -0,296;   -0,136
672,448;21830,887;    1,704;    0,136
673,023;22159,061;    0,249;   -0,227
673,597;22503,599;    2,704;    2,318
674,172;22300,228;    2,431;    0,318
674,747;21803,767;   -0,205;   -1,045
675,321;21588,305;   -0,933;    3,318
675,896;21236,389;    2,158;    1,045
676,471;22123,745;    2,522;    1,591
677,045;21872,192;   -0,296;    0,682
677,620;21899,185;    2,158;    1,136
678,194;22220,360;    0,249;    1,136
678,769;21860,171;    0,886;   -0,318
679,343;22073,436;   -0,023;    1,773
679,917;21941,338;    0,340;    1,955
680,492;21938,058;    0,249;    3,227
681,066;22085,960;    0,613;    0,409
681,640;22151,225;    1,795;   -0,318
682,214;22850,218;    2,340;    0,500
682,788;22371,302;    0,613;   -0,773
683,363;22261,840;    1,977;    1,682
683,937;22025,651;    0,886;   -0,318
684,511;22699,007;   -1,023;   -0,591
685,085;22453,273;   -1,478;    0,318
685,659;22228,993;    1,431;    0,864
686,232;22457,804;    1,159;   -0,318
686,806;22165,615;    2,159;    0,409
687,380;22735,790;   -1,932;    0,591
687,954;22975,328;    2,432;    1,136
688,528;22678,684;    2,613;    1,955
689,101;23380,131;    0,432;    1,045
689,675;23000,761;    0,886;   -0,136
690,249;22399,208;    3,432;    0,409
690,822;22725,564;    1,159;    0,318
691,396;22845,557;    2,068;    1,227
691,969;22335,277;    2,523;    0,136
692,543;22780,361;   -0,568;   -1,955
693,116;22450,172;   -0,659;   -1,409
693,690;22325,165;   -0,296;    0,500
694,263;22807,066;    2,341;    2,955
694,836;22840,696;    2,795;    3,591
695,410;21562,870;    1,159;    1,773
695,983;21971,045;    1,614;    0,591
696,556;22042,765;   -0,750;   -1,045
697,129;22355,394;   -1,114;    1,409
697,703;22004,478;    1,341;    1,955
698,276;22004,743;    1,705;   -0,773
698,849;21819,827;   -1,023;    1,409
699,422;22177,365;    1,250;    0,591
699,995;21935,267;   -0,659;    0,136
700,568;22354,987;   -0,204;    3,045
701,140;22324,525;   -1,841;    1,682
701,713;22159,518;    0,341;    2,409
702,286;21953,783;    0,796;    0,864
702,859;21815,958;    0,614;   -0,591
703,432;21137,951;   -0,841;    0,682
704,004;21528,034;    1,978;    0,318
704,577;21369,118;    1,068;    0,136
705,150;21872,656;    0,887;    2,500
705,722;21714,740;    1,523;   -3,227
706,295;21523,642;    1,432;   -0,591
706,867;21349,816;    0,250;    1,955
707,440;21617,809;   -0,113;   -0,409
708,012;21839,802;   -0,022;    0,591
708,584;21686,249;    2,705;    0,227
709,157;21946,697;    1,160;   -0,591
709,729;21666,780;    1,069;    2,045
710,301;22437,046;   -1,204;    0,045
710,874;22477,584;    0,341;   -0,227
711,446;21473,759;   -0,295;    0,864
712,018;21344,115;   -3,022;    0,500
712,590;21098,562;   -0,204;    1,682
713,162;21582,646;   -0,477;    1,318
713,734;21777,639;    1,796;   -2,045
714,306;21705,541;    0,342;   -0,409
714,878;20501,079;   -0,295;    0,864
715,450;21307,799;   -0,113;    0,864
716,022;21580,701;    2,433;    1,318
716,593;21696,239;    0,978;    0,591
717,165;21648,050;    1,796;   -1,227
717,737;21374,225;    0,796;    0,409
718,309;21057,763;    1,160;   -0,045
718,880;21073,119;   -1,295;   -1,409
719,452;21265,112;    0,887;   -1,591
720,024;20904,105;    1,705;   -0,591
720,595;21476,188;    2,978;    0,955
721,167;21041,636;    1,160;   -2,045
721,738;20641,810;    2,069;   -1,045
722,309;20611,985;    1,251;   -1,227
722,881;20394,069;    2,705;    0,773
723,452;20933,334;    1,251;    2,864
724,023;21075,963;    1,524;    2,682
724,595;20940,138;    2,342;    0,682
725,166;20682,494;    1,524;   -0,409
725,737;20312,669;    1,887;    0,227
726,308;20413,389;    0,797;    0,318
726,879;20789,927;    1,069;    1,227
727,450;20649,284;   -2,022;   -0,045
728,021;20633,185;    1,069;    0,682
728,592;20556,815;    1,160;    0,500
729,163;20866,625;    1,433;   -0,136
729,734;20796,436;    2,160;   -0,227
730,305;21080,520;    0,615;    0,136
730,876;21368,240;    0,888;    2,955
731,447;21152,960;    0,797;    2,682
732,017;21211,862;   -0,840;    1,864
732,588;20796,309;   -0,021;    1,227
733,159;20917,939;    3,615;   -1,045
733,729;20750,840;    1,251;    0,409
734,300;20102,288;    0,160;    0,864
734,870;20505,917;   -1,385;    0,591
735,441;20993,091;    0,888;   -0,591
736,011;20787,357;    1,070;   -1,591
736,582;20766,259;    1,251;    0,045
737,152;20232,706;    0,979;   -2,045
737,722;20689,881;    1,070;   -0,682
738,293;20444,783;   -2,021;    1,318
738,863;20336,957;    1,797;    2,318
739,433;20190,314;    4,524;    0,318
740,003;20792,397;    1,524;   -0,682
740,573;20233,390;    2,252;   -1,591
741,143;20202,928;    3,615;    0,318
741,713;20871,921;    0,252;   -0,500
742,283;20645,096;    1,706;    1,591
742,853;20439,361;    0,524;    1,591
743,423;19972,808;    0,161;    0,045
743,993;20065,801;    1,070;    1,500
744,563;19456,067;    2,524;   -0,864
745,133;19449,150;   -0,112;   -0,864
745,702;20076,689;    2,797;    1,773
746,272;19379,409;    0,434;    0,591
746,842;19181,220;   -0,748;   -0,591
747,411;19563,940;   -0,839;   -0,318
747,981;19692,841;   -0,930;    0,500
748,551;19733,834;   -0,021;   -1,045
749,120;19612,100;   -0,112;   -0,227
749,690;19935,002;    2,161;    2,409
750,259;20207,813;    0,979;    2,955
750,828;20100,533;    4,070;   -1,955
751,398;20314,980;   -0,112;   -0,045
751,967;19895,245;    2,888;    0,409
752,536;20129,147;    1,161;   -0,227
753,105;20491,776;   -1,384;    0,227
753,675;20292,587;   -0,112;    1,773
754,244;20211,762;    0,888;    3,591
754,813;20235,664;    0,979;    1,227
755,382;19854,657;    0,798;    0,955
755,951;20363,468;   -0,112;    3,682
756,520;19963,369;    2,525;    1,864
757,089;20412,999;    1,888;    0,500
757,658;20548,537;    2,434;    1,227
758,227;20549,439;   -1,111;    0,318
758,795;20813,068;   -1,021;    1,136
759,364;21085,061;    0,525;   -0,591
759,933;20167,144;    1,343;   -0,045
760,501;19739,410;    0,252;   -1,318
761,070;20156,675;   -0,293;   -1,409
761,639;20835,577;    1,434;    1,318
762,207;20194,843;    0,889;   -0,955
762,776;20148,199;    2,889;    0,864
763,344;20105,374;    0,071;    0,591
763,913;19247,821;    1,616;    1,409
764,481;19961,359;    1,980;   -0,136
765,049;19826,716;    0,616;    1,409
765,618;19692,436;    1,434;    0,318
766,186;19807,337;    2,434;    0,136
766,754;19996,421;    1,798;    1,864
767,322;19073,141;    1,162;    0,409
767,890;19039,589;    0,525;   -1,773
768,459;19437,309;    2,616;   -0,318
769,027;19582,120;    2,525;    3,409
769,595;18696,385;    2,616;    2,591
770,163;19135,469;    3,344;    2,955
770,730;18933,371;    2,525;   -0,136
771,298;18817,636;    1,162;   -1,409
771,866;18902,538;    0,253;    4,955
772,434;19181,349;    1,162;   -1,864
773,002;19336,796;    2,616;    0,682
773,569;19049,153;    1,071;    1,682
774,137;18819,327;    0,889;   -0,045
774,705;19513,138;   -0,747;   -0,136
775,272;19134,949;    0,253;    0,682
775,840;18965,942;   -0,111;    2,682
776,407;18535,116;   -0,293;    1,955
776,975;18123,473;    1,162;    0,318
777,542;19070,375;    2,162;   -0,045
778,110;18956,458;    0,707;   -0,045
778,677;18647,724;    1,071;   -0,864
779,244;18431,262;   -1,020;    1,045
779,812;18502,982;    0,980;    0,864
780,379;18375,429;    2,435;    1,136
780,946;18626,695;    2,617;   -0,773
781,513;18919,415;   -0,565;    0,318
782,080;18325,317;    1,253;    2,864
782,647;18966,310;    1,708;    3,045
783,214;18637,121;   -0,201;    3,864
783,781;18288,932;    1,708;   -0,682
784,348;18134,561;    0,253;    1,500
784,915;18559,463;   -1,474;    0,318
785,482;18349,364;    2,708;    2,591
786,049;18811,994;    1,071;   -0,591
786,615;18938,986;    1,708;   -0,955
787,182;18651,979;   -3,201;   -0,682
787,749;18373,426;   -2,201;    1,409
788,315;17791,874;    0,253;   -0,409
788,882;18074,321;    0,981;   -1,227
789,448;18681,132;    1,435;   -0,955
790,015;18720,216;    1,799;    3,227
790,581;18321,572;    0,708;    0,227
791,148;18198,019;    1,344;    1,045
791,714;18406,830;   -1,019;    3,136
792,280;18133,278;    3,708;    1,591
792,847;17771,180;   -0,928;    2,500
793,413;18207,809;   -0,110;   -0,318
793,979;17867,529;    1,526;   -1,318
794,545;17934,340;    2,981;    2,682
795,111;17402,332;    2,435;    1,318
795,678;17559,053;    3,526;   -1,682
796,244;17271,682;    2,799;    0,136
796,810;17750,311;    0,799;    0,773
797,375;17524,394;   -0,292;   -2,136
797,941;17513,842;   -1,110;    0,591
798,507;17652,016;    0,254;   -0,955
799,073;17250,555;    2,708;    0,591
799,639;17327,002;    1,435;    3,136
800,205;17385,995;   -1,565;    2,682
800,770;16972,987;    1,345;    1,773
801,336;17001,617;    2,981;   -0,955
801,901;16767,337;    6,072;    3,136
802,467;17306,875;    0,526;    2,045
803,033;16694,140;   -0,019;    0,864
803,598;16886,133;    1,072;   -1,045
804,163;16942,762;    0,708;   -0,318
804,729;16882,119;   -0,110;    1,136
805,294;17208,839;    1,072;    2,227
805,859;17038,104;    0,890;   -0,409
806,425;16584,733;    3,890;    2,682
806,990;16274,999;    1,890;    4,318
807,555;16664,628;   -0,110;    2,591
808,120;16630,803;   -1,292;   -0,409
808,685;16680,159;    1,072;   -2,500
809,250;16293,243;    2,072;   -0,500
809,815;16524,235;   -0,201;    0,682
810,380;16990,501;    0,981;    1,591
810,945;17441,494;    2,890;    2,045
811,510;16741,032;   -0,200;    1,591
812,075;16491,388;    2,800;   -1,409
812,640;16533,745;    3,709;    1,409
813,204;16582,192;    2,163;   -0,227
813,769;17068,821;    0,254;   -0,045
814,334;16521,541;    0,527;    0,864
814,898;16538,079;    1,981;    0,591
815,463;16393,345;    0,981;   -0,773
816,027;16391,338;    1,345;   -2,318
816,592;16495,603;    2,163;   -2,045
817,156;16077,596;   -2,200;    1,136
817,721;15978,680;    0,982;    2,318
818,285;15947,218;    0,618;    1,500
818,849;16517,665;   -0,018;    1,682
819,414;16448,840;    0,073;    2,955
819,978;16068,014;   -0,291;    1,773
820,542;16563,553;    2,891;    0,500
821,106;16380,000;    2,800;    0,682
821,670;16420,629;    2,709;    2,591
822,234;16149,258;    1,073;    1,409
822,798;15643,069;   -0,836;    0,500
823,362;15661,426;    1,527;    4,227
823,926;15078,964;   -0,018;    1,136
824,490;15223,229;    3,527;   -0,682
825,054;15659,949;    2,527;   -1,136
825,618;15343,306;   -1,200;   -1,500
826,181;15337,208;    0,982;   -1,318
826,745;15252,109;   -0,745;   -1,045
827,309;15575,648;    2,255;    1,318
827,872;15050,459;    0,527;    0,955
828,436;15921,179;    1,982;   -0,773
828,999;16017,262;    2,436;    1,227
829,563;14972,982;   -0,654;    1,136
830,126;14822,702;   -0,018;   -0,591
830,690;14839,695;    0,709;    2,864
831,253;14397,506;   -0,473;    2,227
831,816;14574,135;   -0,018;    0,500
832,380;14499,583;    1,164;    0,864
832,943;14693,303;    3,073;   -0,500
833,506;14209,114;    0,255;   -1,227
834,069;14940,016;    2,164;   -0,955
834,632;15011,281;   -2,200;    1,318
835,195;14942,547;    1,346;    0,955
835,758;14253,176;    0,709;    1,955
836,321;14074,532;    1,073;   -1,045
836,884;14183,979;   -1,291;   -0,955
837,447;14224,699;    0,528;    1,773
838,010;14454,965;    1,800;    3,227
838,573;14694,140;    0,528;    0,773
839,135;14721,496;   -0,109;   -0,955
839,698;14238,761;    2,528;    0,409
840,261;13819,391;    0,255;   -0,227
840,823;13716,474;   -0,927;    0,864
841,386;13956,376;   -0,018;   -2,409
841,948;13838,096;    0,255;    1,773
842,511;13616,816;    0,255;    1,682
843,073;13733,900;    2,982;    0,227
843,636;13606,620;    0,619;   -0,227
844,198;13503,976;    1,255;    0,591
844,760;13633,878;    0,619;    1,955
845,322;13317,416;    0,164;    1,136
845,885;13680,136;   -0,290;    0,591
846,447;14068,220;    0,710;    0,227
847,009;13759,758;    3,983;   -0,682
847,571;13988,297;    1,346;   -2,045
848,133;14084,744;   -0,199;   -1,864
848,695;13927,918;    2,346;    1,409
849,257;13536,275;    1,346;   -1,682
849,819;13686,631;    2,983;   -0,409
850,381;13729,806;    1,801;   -0,864
850,942;14032,435;    1,892;   -0,591
851,504;13911,701;    0,983;    0,227
852,066;13959,330;    1,619;   -1,591
852,628;13599,777;    0,165;    1,955
853,189;13158,952;    0,256;    2,682
853,751;13293,763;   -0,654;    1,409
854,312;13123,573;    1,256;   -1,682
854,874;13585,203;   -0,108;   -0,773
855,435;13995,923;    0,528;   -1,682
855,997;14185,552;    3,983;   -0,136
856,558;13542,090;    0,801;    1,773
857,119;13631,992;   -0,744;    2,864
857,681;13365,439;   -0,108;    0,318
858,242;13381,796;    1,347;   -2,136
858,803;13779,152;    1,074;   -0,773
859,364;14314,690;    0,892;   -4,773
859,925;13752,047;   -0,290;   -0,955
860,486;13629,585;    0,529;   -0,955
861,047;13394,214;    0,165;   -1,227
861,608;13221,207;    0,165;   -0,773
862,169;13391,109;   -0,562;   -0,045
862,730;13140,556;   -0,290;    1,409
863,291;13381,640;    0,438;   -0,500
863,852;13687,178;   -0,926;    1,955
864,412;13222,534;   -1,835;   -0,864
864,973;12009,982;    1,892;    0,500
865,534;11901,247;    2,074;    0,227
866,094;13205,876;    2,620;    0,227
866,655;12904,687;    4,711;    3,318
867,215;13169,407;    0,074;    0,136
867,776;13050,945;   -1,199;   -0,136
868,336;13129,302;    1,529;    0,136
868,897;12701,931;    3,438;    1,682
869,457;12459,378;    3,256;    0,318
870,017;12716,553;    2,438;   -1,227
870,578;13164,818;    1,893;    0,773
871,138;12814,720;    2,620;   -0,955
871,698;12433,804;   -0,562;   -1,318
872,258;12298,160;    0,711;   -2,864
872,818;12670,244;    2,347;    0,045
873,378;12693,873;   -2,198;    1,045
873,938;12258,957;    4,984;    0,500
874,498;12521,404;    1,256;   -1,955
875,058;12464,761;    4,347;    1,773
875,618;12297,662;    1,438;   -2,682
876,177;12257,746;   -0,471;    0,136
876,737;11908,466;   -0,289;    1,955
877,297;11967,368;    2,711;    1,955
877,856;11956,452;    2,529;    0,318
878,416;11905,354;    2,438;   -0,136
878,976;12079,165;    3,438;    0,409
879,535;12288,794;    4,529;    3,136
880,095;12091,514;    1,347;    0,045
880,654;12185,143;    0,347;    1,318
881,213;12283,681;    2,347;    1,500
881,773;11927,765;    1,984;    2,682
882,332;12262,030;    6,075;    5,136
882,891;12134,114;    0,711;    2,136
883,451;12509,107;   -2,016;    1,682
884,010;12002,736;   -1,107;   -0,409
884,569;12111,729;   -2,289;   -0,045
885,128;12241,267;   -0,743;   -1,864
885,687;12294,623;   -0,743;    0,682
886,246;12015,525;    2,620;    2,136
886,805;11786,063;    1,620;    2,045
887,364;12021,238;    1,166;   -0,500
887,922;12323,867;   -0,016;    0,045
888,481;11861,860;    1,530;    0,591
889,040;12153,671;    3,711;    2,136
889,599;12719,391;    2,166;    1,409
890,157;12784,020;    2,166;    2,409
890,716;12393,558;    2,166;    0,227
891,274;12276,642;    0,075;   -1,136
891,833;12613,453;    1,166;    0,864
892,391;12477,809;    1,802;    0,500
892,950;12569,620;    0,166;   -0,773
893,508;12939,522;    0,984;   -0,409
894,067;12304,515;   -0,379;    0,136
894,625;12244,417;   -1,016;   -1,500
895,183;12435,955;   -0,198;   -0,682
895,741;12377,311;    2,257;   -1,773
896,299;12243,850;    1,621;   -2,409
896,858;12378,842;    1,530;   -1,591
897,416;12504,653;    0,166;   -1,318
897,974;12289,010;   -2,197;    0,318
898,532;12423,093;    6,530;    2,682
899,089;12353,268;    0,621;   -0,682
899,647;12407,988;    0,530;    1,318
900,205;12224,072;    0,257;    1,045
900,763;12384,246;    2,166;    0,227
901,321;12419,421;    3,530;   -1,409
901,878;11900,414;    3,257;   -0,773
902,436;11817,225;    0,257;    1,318
902,994;12183,036;    6,712;    3,682
903,551;11664,483;    1,439;    0,409
904,109;12030,203;    1,530;   -1,409
904,666;11713,923;    1,439;    1,045
905,224;11588,098;    3,894;   -0,409
905,781;11354,545;   -0,470;   -0,318
906,338;11390,629;    0,167;    1,045
906,895;11392,167;    1,894;    2,045
907,453;11333,705;    2,348;    1,136
908,010;11337,607;    3,348;    0,409
908,567;11054,691;   -0,561;    0,591
909,124;10594,047;    2,439;   -1,500
909,681;10671,131;   -1,288;    0,682
910,238;10898,305;   -0,106;   -1,318
910,795;11178,025;   -1,561;   -1,136
911,352;10845,025;   -0,379;   -2,682
911,909;10367,298;    2,803;   -0,864
912,466;10828,753;    1,985;    1,500
913,022;10396,389;   -0,924;    0,500
913,579;10726,480;   -0,470;    2,045
914,136;10495,025;   -2,561;    0,955
914,692;10799,389;    1,530;   -1,227
915,249;10406,298;    0,530;    0,409
915,806;10588,934;    1,803;    1,955
916,362;10444,207;    0,894;    1,864
916,918;10055,389;    2,439;    1,045
917,475;10082,753;    1,621;    0,955
918,031;10132,843;    0,076;   -0,045
918,587; 9674,389;    0,621;   -0,318
919,144; 9943,298;   -0,379;    0,227
919,700;10148,025;    0,167;    0,773
920,256; 9782,753;    0,439;    0,045
920,812; 9515,116;    1,439;   -1,045
921,368; 9573,934;    1,348;   -1,045
921,924; 9260,025;    0,439;   -0,136
922,480; 8887,843;    0,076;    1,227
923,036; 9418,298;   -0,652;    1,955
923,592; 9417,662;    0,621;    0,318
924,148; 9379,843;    1,894;   -0,955
924,704; 8801,662;    0,258;   -0,409
925,259; 9094,480;   -0,561;    0,591
925,815; 8857,298;    3,803;    0,500
926,371; 8422,116;    3,530;    1,409
926,926; 8381,934;    1,621;    0,591
927,482; 8086,480;    1,621;    0,773
928,037; 8018,207;   -0,833;    2,045
928,593; 8303,571;    0,258;    1,045
929,148; 8165,389;    1,167;   -1,500
929,704; 7771,298;    2,439;   -0,500
930,259; 7922,934;    0,894;   -0,136
930,814; 7193,207;    1,803;    1,955
931,369; 6954,843;    0,258;   -0,773
931,925; 6897,389;   -1,924;    0,136
932,480; 6807,116;    3,076;   -2,591
933,035; 6771,298;    3,985;   -0,318
933,590; 6610,207;   -1,742;   -1,773
934,145; 6347,025;   -1,288;   -0,318
934,700; 6642,116;    0,348;   -0,591
935,255; 6484,025;    4,803;    0,045
935,809; 5990,207;    6,258;    0,864
936,364; 5281,207;    2,167;   -0,136
936,919; 5320,662;    2,348;   -1,773
937,474; 5243,207;    1,348;    0,136
938,028; 5055,480;    3,076;    1,136
938,583; 4703,571;    6,348;    4,682
939,138; 4913,116;    0,167;    2,136
939,692; 4476,571;   -1,015;   -1,136
940,247; 4253,662;    1,167;   -1,045
940,801; 3974,207;    0,621;    0,227
941,355; 3902,025;    0,439;    2,591
941,910; 3612,934;    0,712;   -2,136
942,464; 3720,480;    2,712;   -0,318
943,018; 3620,389;    3,258;   -0,227
943,572; 3560,662;    2,803;   -0,682
944,126; 3143,389;   -0,924;   -0,409
944,681; 3043,207;    0,712;    0,227
945,235; 3031,116;    2,167;   -0,591
945,789; 2960,843;    1,258;   -1,864
946,342; 3151,298;   -0,561;   -0,591
946,896; 2904,753;    0,348;    0,955
947,450; 2716,843;   -0,561;   -0,227
948,004; 2953,389;    1,076;   -0,045
948,558; 2919,753;    1,258;   -0,864
949,111; 2847,025;   -1,197;   -0,318
949,665; 2951,207;   -0,106;   -0,682
950,219; 2839,116;    0,621;   -1,045
950,772; 2870,207;    0,258;    1,864
951,326; 2794,207;   -1,106;   -0,955
951,879; 2828,207;    1,076;   -2,318
952,433; 2899,753;    1,348;    2,227
952,986; 2720,571;    0,348;    0,682
953,539; 2676,025;    1,530;    0,591
954,093; 2634,480;    0,985;   -1,318
954,646; 2769,298;   -0,288;    1,318
955,199; 2586,298;    1,258;   -0,500
955,752; 2567,662;    1,985;    1,773
956,305; 2511,298;    0,894;    2,955
956,858; 2645,298;    0,621;   -0,318
957,411; 2788,843;    3,621;    2,136
957,964; 2630,207;    2,076;    2,136
958,517; 2607,843;    0,985;    3,136
959,070; 2468,843;   -1,197;    1,955
959,623; 2620,116;    1,076;    1,500
960,176; 2442,207;    0,712;    2,045
960,728; 2422,571;    1,712;    0,773
961,281; 2458,662;    2,258;    0,500
961,834; 2453,753;   -0,833;    0,864
962,386; 2385,389;    1,258;    1,045
962,939; 2314,116;    3,439;   -0,318
963,491; 2443,480;    2,621;    1,136
964,043; 2336,025;    0,076;    2,409
964,596; 2474,207;    1,712;    2,227
965,148; 2337,480;   -0,379;    1,773
965,700; 2251,480;   -0,015;   -0,227
966,253; 2391,753;   -0,833;    0,318
966,805; 2288,207;    1,894;    0,773
967,357; 2280,207;    0,439;   -1,500
967,909; 2302,389;    1,167;   -1,227
968,461; 2318,480;    0,894;    3,136
969,013; 2263,753;   -1,561;   -0,864
969,565; 2352,571;    1,803;   -1,136
970,117; 2549,298;    3,803;    1,045
970,669; 2307,480;    3,258;   -0,136
971,220; 2130,571;    2,167;   -1,500
971,772; 2101,934;    1,348;   -0,318
972,324; 2221,025;   -1,197;   -0,500
972,876; 2147,934;    0,167;   -0,045
973,427; 2309,298;   -1,197;   -1,045
973,979; 2294,025;    0,076;   -2,500
974,530; 2261,480;    0,803;    1,318
975,082; 2254,025;    2,167;    1,682
975,633; 2184,298;    2,894;    1,682
976,184; 2324,480;    2,076;    0,773
976,736; 2176,753;    0,348;    0,227
977,287; 2038,116;    0,258;   -0,500
977,838; 2165,025;   -0,924;   -0,318
978,389; 2214,298;    0,803;   -0,500
978,940; 2073,116;    1,258;   -0,409
979,491; 2089,116;    2,258;   -0,500
980,042; 2091,389;   -0,652;    3,045
980,593; 2116,753;    1,894;    0,227
981,144; 2213,207;    3,530;   -0,500
981,695; 2215,843;   -0,470;    1,500
982,246; 2171,389;   -1,833;    1,045
982,797; 2215,571;   -0,561;    0,682
983,347; 2333,571;    2,167;    0,591
983,898; 2529,934;    4,167;    0,409
984,449; 2390,116;    2,530;    0,773
984,999; 2219,025;    1,894;   -1,136
985,550; 2090,934;    3,167;   -0,318
986,100; 2048,934;    0,712;   -0,318
986,651; 2077,025;    0,258;    0,045
987,201; 2087,025;    0,894;   -0,591
987,751; 2144,571;   -0,288;    2,864
988,302; 2155,934;   -0,379;    1,500
988,852; 2158,843;    1,985;   -1,136
989,402; 2248,934;    0,985;    0,682
989,952; 2180,753;    1,621;    0,864
990,502; 2214,753;    1,076;    0,682
991,052; 2133,843;   -0,106;    0,045
991,602; 2051,662;    1,167;    1,318
992,152; 2081,934;    2,803;    0,682
992,702; 2059,934;    1,167;   -0,045
993,252; 1994,116;    0,076;   -0,500
993,802; 2103,571;    1,167;    1,318
994,352; 2260,298;   -0,742;    1,136
994,901; 2295,025;    1,076;    3,227
995,451; 2245,934;   -1,197;    0,318
996,000; 2313,662;    1,076;    0,318
996,550; 2079,843;    2,894;    0,227
997,100; 2102,662;   -0,561;   -0,045
997,649; 2361,116;   -0,197;    0,955
998,198; 2052,298;   -0,288;   -1,500
998,748; 2235,298;    0,348;   -2,318
999,297; 2116,662;    0,985;   -0,409
999,846; 2223,753;    1,894;   -0,773
1000,395; 2212,480;    1,530;    0,500
1000,945; 2242,571;    1,076;   -0,773
1001,494; 2307,753;    0,167;    0,682
1002,043; 2270,116;    0,712;    0,864
1002,592; 2095,116;    3,439;    1,955
1003,141; 2207,207;    2,439;   -0,682
1003,690; 2131,480;    1,258;    0,500
1004,238; 2140,843;   -0,106;   -0,045
1004,787; 1863,843;   -1,288;    1,227
1005,336; 2137,753;    1,621;    0,682
1005,885; 2197,843;   -0,197;   -2,773
1006,433; 2281,480;   -0,470;    0,955
1006,982; 2421,571;    2,167;    1,682
1007,531; 2284,480;    2,712;   -0,227
1008,079; 2209,662;    0,258;    0,500
1008,627; 2291,843;    1,621;    0,409
1009,176; 2109,480;    0,076;   -1,955
1009,724; 2130,662;   -2,742;    0,864
1010,273; 2253,934;    1,076;    0,500
1010,821; 2285,480;    1,076;    1,409
1011,369; 2067,843;    0,076;    1,318
1011,917; 2050,753;   -0,833;   -0,591
1012,465; 2295,025;    2,530;   -1,591
1013,013; 2344,662;    0,439;   -1,682
1013,561; 2296,298;   -1,288;   -0,773
1014,109; 2389,934;   -0,833;    1,682
1014,657; 2257,843;    1,348;    0,591
1015,205; 2307,116;    0,894;   -0,955
1015,753; 2290,116;    0,258;   -1,409
1016,301; 2348,753;    2,621;    3,045
1016,848; 2366,934;    2,167;    0,409
1017,396; 2430,934;    1,621;    0,045
1017,944; 2497,753;    2,621;    1,864
1018,491; 2277,207;   -0,197;    1,409
1019,039; 2552,662;   -0,652;    0,591
1019,586; 2377,025;    0,076;    1,682
1020,134; 2440,207;    0,712;    1,500
1020,681; 2469,480;    2,894;   -1,136
1021,228; 2424,025;   -0,561;   -2,227
1021,776; 2289,116;   -0,833;   -1,136
1022,323; 2552,662;    0,803;    0,773
1022,870; 2472,571;   -0,470;   -0,045
1023,417; 2422,571;    2,076;    1,864
1023,964; 2463,298;    0,621;    1,227
1024,511; 2362,207;   -0,652;    0,773
1025,058; 2192,116;    0,439;   -0,045
1025,605; 2225,025;   -1,742;    3,136
1026,152; 2474,116;   -0,106;   -0,591
1026,699; 2224,480;    0,167;    1,318
1027,245; 2338,480;    2,439;    0,318
1027,792; 2468,207;    0,712;    1,409
1028,339; 2458,389;    4,076;   -0,045
1028,885; 2319,571;    3,621;   -0,227
1029,432; 2237,389;   -0,106;    0,227
1029,978; 2327,025;    1,348;   -1,591
1030,525; 2240,753;    1,621;    0,409
1031,071; 2383,662;    0,348;    1,136
1031,618; 2590,116;    1,258;    1,682
1032,164; 2358,389;    2,076;    3,045
1032,710; 2397,480;    0,076;   -1,500
1033,256; 2292,480;    0,712;   -0,136
1033,803; 2244,571;   -0,288;    1,500
1034,349; 2034,298;    1,803;    0,136
1034,895; 2164,753;    2,621;   -0,318
1035,441; 2156,116;    0,439;    0,318
1035,987; 2192,934;   -2,288;   -0,682
1036,533; 2224,843;   -0,197;   -0,955
1037,078; 2432,480;    4,712;    1,682
1037,624; 2246,571;    2,439;   -0,955
1038,170; 2217,207;    1,712;   -0,318
1038,716; 2203,116;    2,167;   -0,409
1039,261; 2069,934;    2,167;   -0,773
1039,807; 2031,843;   -0,015;    3,409
1040,352; 2117,662;   -1,288;   -0,318
1040,898; 2145,934;    0,167;   -0,682
1041,443; 2047,298;    0,803;   -2,591
1041,989; 2184,116;    3,621;    1,591
1042,534; 2015,843;    0,985;    2,591
1043,079; 2052,662;    1,985;    0,955
1043,625; 1943,571;    0,258;    0,500
1044,170; 2004,571;    2,439;    1,045
1044,715; 2261,389;    0,167;    0,955
1045,260; 2070,025;   -0,833;   -0,955
1045,805; 2053,025;    0,258;   -0,591
1046,350; 1993,843;    0,530;   -0,409
1046,895; 2037,389;    0,803;    1,591
1047,440; 2026,753;    1,530;    0,409
1047,985; 1896,298;   -1,197;   -0,955
1048,530; 1811,116;    1,348;    1,227
1049,074; 1881,934;    2,803;    0,318
1049,619; 1842,207;   -0,924;    1,955
1050,164; 1698,116;    1,076;    0,227
1050,708; 1757,934;    2,621;    0,045
1051,253; 2152,025;    3,258;   -2,227
1051,797; 1851,843;   -0,197;   -1,318
1052,342; 1796,389;    1,348;    1,045
1052,886; 1829,025;    1,803;   -1,409
1053,430; 1692,934;    2,167;    0,136
1053,975; 1719,843;    0,894;   -0,318
1054,519; 1729,116;    1,803;    3,227
1055,063; 1784,389;    3,621;    1,318
1055,607; 1694,843;    1,348;    0,227
1056,151; 1708,025;    0,530;    1,682
1056,695; 1599,025;   -1,833;   -1,136
1057,239; 1655,389;   -1,197;   -0,682
1057,783; 1687,389;    2,258;   -1,500
1058,327; 1681,480;    3,076;    1,409
1058,871; 1906,934;    3,985;    1,318
1059,415; 1636,753;   -0,561;   -0,045
1059,958; 1910,934;    2,985;    2,591
1060,502; 1626,934;    1,348;   -0,773
1061,046; 1498,480;    1,712;   -0,955
1061,589; 1460,025;    2,803;   -1,136
1062,133; 1389,843;    0,985;    1,864
1062,676; 1364,480;    1,439;    0,864
1063,220; 1382,389;    0,985;    0,500
1063,763; 1409,934;    2,985;    1,136
1064,306; 1484,116;    0,985;    1,864
1064,849; 1393,025;    2,076;    0,591
1065,393; 1390,571;    2,894;   -1,500
1065,936; 1471,753;    2,530;   -0,409
1066,479; 1347,843;    2,621;    1,318
1067,022; 1375,207;    1,894;   -0,227
1067,565; 1295,662;   -1,197;   -1,318
1068,108; 1300,389;    1,258;   -0,591
1068,651; 1266,571;   -2,470;    1,409
1069,194; 1213,480;   -1,106;   -1,682
1069,736; 1235,753;    3,803;    0,955
1070,279; 1210,753;   -1,652;   -0,500
1070,822; 1295,207;    1,530;   -0,318
1071,364; 1414,480;    0,530;    1,318
1071,907; 1216,662;    0,348;    3,227
1072,450; 1083,116;    0,258;   -0,045
1072,992; 1117,934;   -0,561;    3,136
1073,535; 1265,843;    0,167;    2,136
1074,077; 1073,843;    2,985;    2,045
1074,619; 1055,116;    0,985;    0,591
1075,161; 1089,207;   -0,561;    1,500
1075,704; 1268,753;    0,258;    1,227
1076,246; 1051,753;    1,530;    0,682
1076,788;  982,207;   -1,015;    1,773
1077,330; 1028,753;   -2,106;    2,136
1077,872; 1023,298;   -1,924;    0,955
1078,414; 1284,207;    3,712;    0,773
1078,956; 1020,116;    0,167;   -0,227
1079,498; 1274,389;    0,439;    0,318
1080,040;  999,116;    0,985;   -1,318
1080,581;  935,389;    0,621;   -0,318
1081,123;  854,389;   -0,106;   -0,773
1081,665;  896,480;    3,803;   -0,955
1082,206; 1208,662;    3,258;   -0,500
1082,748; 1063,934;    3,258;    2,045
1083,289;  935,662;    0,167;    1,318
1083,831;  872,389;    0,258;    0,227
1084,372;  928,753;    0,894;    0,591
1084,913;  914,662;    3,348;    0,864
1085,455;  872,480;    1,530;   -2,045
1085,996;  857,298;    0,530;    0,136
1086,537;  889,480;    0,985;    0,864
1087,078;  925,298;    0,439;   -2,136
1087,619;  967,389;   -1,652;    0,227
1088,160;  863,843;    1,439;    1,318
1088,701;  847,025;   -0,742;    0,682
1089,242;  812,389;   -0,561;   -2,227
1089,783;  908,389;   -0,561;    1,409
1090,324;  876,480;   -0,833;    0,682
1090,865;  764,025;   -1,924;   -0,409
1091,405;  728,116;   -0,561;    2,227
1091,946;  756,934;   -0,197;   -0,955
1092,487;  681,662;   -1,288;   -1,409
1093,027;  861,298;    1,803;   -1,500
1093,568;  737,480;    2,258;    1,227
1094,108;  814,480;    0,621;    1,773
1094,649;  754,480;   -0,470;    0,136
1095,189;  698,934;    1,167;   -0,682
1095,729;  663,843;    0,712;    0,955
1096,269;  648,389;    1,258;   -0,955
1096,810;  953,753;   -0,197;    0,500
1097,350;  804,389;   -0,561;   -0,773
1097,890;  708,207;    2,985;    1,227
1098,430;  958,207;    4,985;    2,864
1098,970;  838,480;    1,894;    1,682
1099,510;  685,207;   -0,833;   -2,318
1100,050;  624,662;    0,258;   -1,591
1100,589;  614,207;    0,076;   -0,318
1101,129;  731,389;    0,894;   -0,955
1101,669;  889,843;    2,803;    2,136
1102,209;  720,025;    1,530;    2,227
1102,748;  672,571;    3,439;    0,955
1103,288;  666,571;    0,712;   -1,227
1103,827;  684,934;    3,530;   -2,227
1104,367;  580,025;    1,712;   -2,409
1104,906;  551,116;   -1,015;   -1,136
1105,445;  623,480;    0,985;   -1,136
1105,985;  572,843;   -0,652;    1,500
1106,524;  614,025;    1,530;   -0,682
1107,063;  588,480;    1,167;    1,409
1107,602;  554,298;    1,894;   -1,500
1108,141;  493,571;    1,621;    1,500
1108,680;  596,116;    3,985;   -0,591
1109,219;  533,753;    0,167;   -0,500
1109,758;  526,389;    4,167;    0,682
1110,297;  510,116;   -1,106;   -0,682
1110,836;  463,571;    1,439;    0,955
1111,375;  601,753;    0,348;    0,409
1111,913;  618,480;    0,985;    0,773
1112,452;  565,753;    0,894;    0,136
1112,991;  453,207;    1,076;    1,955
1113,529;  433,843;    0,167;   -0,045
1114,068;  493,662;    0,439;    2,955
1114,606;  405,207;   -0,561;   -0,955
1115,144;  551,207;    1,530;    1,045
1115,683;  487,662;    1,985;    0,318
1116,221;  534,389;    2,076;   -0,864
1116,759;  453,571;    1,621;   -0,864
1117,297;  638,934;    1,621;    1,864
1117,836;  460,571;    1,985;   -1,227
1118,374;  472,116;    0,258;   -0,682
1118,912;  417,571;    0,439;    2,682
1119,450;  412,116;    0,985;    0,864
1119,988;  456,934;    3,348;    2,136
1120,525;  894,662;    7,258;    3,318
1121,063;  612,298;    0,530;    1,864
1121,601;  431,753;    1,076;   -1,227
1122,139;  381,389;    1,076;   -2,045
1122,676;  576,753;   -1,652;    2,773
1123,214;  506,571;    0,712;    4,409
1123,751;  337,025;    0,621;    2,227
1124,289;  452,298;    0,894;   -0,409
1124,826;  350,753;   -0,379;    0,227
1125,364;  273,571;    0,712;   -0,955
1125,901;  448,025;    6,258;    1,227
1126,438;  538,480;    3,530;    0,955
1126,975;  293,116;    2,985;   -0,773
1127,513;  351,753;    2,621;    2,136
1128,050;  279,571;   -0,561;   -0,682
1128,587;  370,571;    1,348;   -0,227
1129,124;  409,571;   -0,015;    1,318
1129,661;  284,934;   -1,924;    0,227
1130,198;  430,116;    2,439;    0,773
1130,734;  392,025;   -0,379;    1,409
1131,271;  263,571;   -1,197;    0,864
1131,808;  419,298;    1,621;    3,045
1132,345;  302,116;    4,530;    0,318
1132,881;  190,934;   -0,561;   -1,864
1133,418;  318,207;    0,348;   -1,136
1133,954;  258,025;    0,712;   -2,682
1134,491;  327,298;    1,712;   -0,773
1135,027;  233,116;    2,167;    0,864
1135,564;  320,662;    1,439;    2,955
1136,100;  300,480;   -0,742;    2,136
1136,636;  202,571;   -1,015;   -1,045
1137,172;  285,389;    0,894;   -1,045
1137,708;  220,753;   -1,561;   -1,045
1138,245;  216,389;    0,803;   -1,227
1138,781;  178,480;    1,803;   -3,318
1139,317;  238,389;    1,894;   -1,409
1139,852;  235,753;    3,076;    0,136
1140,388;  335,298;    2,076;   -0,409
1140,924;  231,207;    1,076;   -2,227
1141,460;  174,116;   -0,288;    0,136
1141,996;  118,662;   -0,652;    2,682
1142,531;  165,843;    1,076;    3,318
1143,067;  352,934;    1,167;    1,045
1143,602;  410,207;    3,439;   -0,318
1144,138;  269,571;    0,803;    1,045
1144,673;  155,662;    1,621;    1,409
1145,209;  211,934;    2,894;   -0,318
1145,744;  134,843;    0,803;    0,864
1146,279;  261,934;    1,530;   -0,136
1146,815;  186,753;    1,530;   -2,682
1147,350;  230,389;   -0,924;    0,045
1147,885;  151,753;   -1,924;   -1,318
1148,420;  153,934;    2,439;    0,773
1148,955;  132,389;   -1,470;    1,864
1149,490;  149,207;   -1,106;   -1,591
1150,025;  132,389;   -1,106;   -1,773
1150,560;  232,571;   -0,288;   -0,955
1151,094;  205,843;    0,258;   -0,591
1151,629;  210,662;   -3,742;    0,864
1152,164;  153,662;   -1,288;    1,318
1152,698;  110,571;    1,258;   -0,136
1153,233;   72,753;   -1,379;   -0,682
1153,767;  119,843;   -0,288;   -2,318
1154,302;  159,025;   -0,379;    1,773
1154,836;  154,571;    0,803;   -2,136
1155,371;  206,753;    2,258;    3,682
1155,905;  161,571;    1,985;    1,682
1156,439;  139,389;    0,530;   -0,500
1156,973;  169,298;    0,439;    0,318
1157,507;  102,753;   -1,742;    0,682
1158,042;  128,025;   -0,652;    1,045
1158,576;  173,207;   -0,561;    1,773
1159,110;  160,662;    0,076;    2,409
1159,643;  134,662;   -2,470;   -0,045
1160,177;   90,934;   -2,015;    1,500

