
Integration time [ms]:   0,040
Averaging Nr. [scans]: 11
Smoothing Nr. [pixels]: 0
Data measured with spectrometer [name]: 7318044SP
Wave   ;Sample   ;Dark     ;Reference
[nm]   ;[counts] ;[counts] ;[counts] 

186,757;   36,441;   38,161;    1,318
187,357;   62,218;   26,706;    0,955
187,958;   39,382;   17,252;   -1,591
188,558;   73,938;   12,979;   -1,227
189,159;   45,700;   10,070;   -4,500
189,759;   28,334;    5,797;   -3,591
190,360;   20,766;    6,797;   -2,136
190,960;   58,627;    5,706;   -4,136
191,560;   70,723;    2,614;   -6,591
192,161;  278,244;    5,885;   -3,500
192,761;  149,033;    5,520;   -3,227
193,361;  101,276;    3,065;   -3,773
193,962;  147,609;    1,612;   -2,682
194,562;   75,489;   -0,114;   -3,955
195,162;  106,257;   -0,567;   -2,227
195,762;  257,214;    2,433;   -0,045
196,362;  209,415;    1,706;   -2,500
196,963;   87,715;    1,706;   -0,864
197,563;  152,281;    1,252;   -0,955
198,163;  102,654;   -0,111;   -0,682
198,763;  125,765;   -0,020;   -0,500
199,363;  216,496;    3,616;   -0,500
199,963;  177,910;    2,162;    0,409
200,563;  159,386;    6,344;   -1,409
201,163;  138,434;    5,435;   -0,227
201,763;  212,176;    1,435;    0,318
202,363;  154,053;    0,980;    1,500
202,963;  255,670;    1,526;    1,045
203,563;  368,381;    0,344;    0,500
204,162;  226,205;    1,889;   -1,864
204,762;  214,296;    2,071;    0,591
205,362;  177,087;    0,708;    1,955
205,962;  275,910;    3,435;    1,955
206,562;  272,482;    1,889;    2,318
207,161;  240,313;    1,708;    0,318
207,761;  390,869;    4,435;    2,409
208,361;  269,890;    1,889;    1,409
208,960;  358,180;    2,889;    1,500
209,560;  423,869;    0,435;    1,591
210,160;  410,165;    5,071;    1,864
210,759;  360,127;    0,708;    1,227
211,359;  365,006;   -0,474;    1,045
211,958;  627,374;    3,526;    2,045
212,558;  695,592;    0,799;    1,864
213,157;  541,135;   -0,929;    1,500
213,757;  963,788;    5,617;   -0,227
214,356;  666,150;    1,708;   -0,409
214,956;  980,831;    3,526;    0,409
215,555;  623,046;    0,617;    2,136
216,154;  562,524;   -0,292;   -0,591
216,754;  563,293;    1,253;    0,773
217,353;  688,714;   -0,383;   -1,045
217,952;  544,488;    2,072;    0,318
218,552;  779,739;    0,254;   -0,773
219,151;  674,418;   -1,110;    0,955
219,750;  665,062;    0,890;   -0,227
220,349;  746,701;   -2,292;    1,045
220,948;  835,859;    1,163;    1,136
221,548;  834,230;    0,617;    1,227
222,147;  938,813;   -1,292;   -0,409
222,746; 1214,468;    1,254;   -0,955
223,345; 1080,544;   -1,019;    0,500
223,944; 1104,650;    1,163;    0,773
224,543; 1248,653;    4,072;   -1,409
225,142; 1367,553;    1,345;    0,136
225,741; 1274,297;    1,163;    1,045
226,340; 1284,033;    1,254;   -0,955
226,939; 1704,492;    2,708;   -0,136
227,538; 1599,929;    1,163;   -0,773
228,137; 1767,092;    0,435;    0,864
228,735; 1874,659;    0,435;    1,227
229,334; 1648,974;   -0,474;   -0,227
229,933; 2008,160;    0,799;    0,591
230,532; 2119,687;   -1,201;   -0,409
231,131; 2172,152;    1,253;    0,318
231,729; 2271,266;    1,163;   -2,318
232,328; 2344,306;    0,435;   -1,500
232,927; 2393,801;    4,526;   -0,500
233,525; 2513,390;    0,981;    0,045
234,124; 2709,027;    1,890;   -1,591
234,723; 2709,312;    1,617;   -1,045
235,321; 2843,769;    1,163;    0,136
235,920; 3035,154;    2,526;   -1,227
236,518; 3291,065;    1,072;    0,318
237,117; 3435,913;    2,890;   -0,227
237,715; 3572,021;    1,163;   -0,500
238,314; 3601,350;    1,708;   -2,318
238,912; 3729,556;    0,526;   -1,409
239,510; 3745,458;    1,162;   -1,227
240,109; 3910,175;   -0,474;    3,773
240,707; 3934,319;   -0,474;    1,227
241,305; 4232,740;   -0,383;    0,136
241,904; 4436,467;   -0,292;   -2,045
242,502; 4410,858;    3,253;   -0,227
243,100; 4340,336;    3,344;   -0,955
243,698; 4574,262;    2,799;    1,682
244,297; 4707,135;   -0,656;    0,682
244,895; 4591,448;   -0,474;   -2,318
245,493; 4870,758;    2,981;   -0,591
246,091; 4902,729;    5,163;   -1,318
246,689; 4872,204;    2,163;    0,591
247,287; 5031,020;   -0,019;   -1,136
247,885; 5286,779;   -1,019;    1,227
248,483; 5386,291;   -0,201;   -0,500
249,081; 5477,899;    0,981;    1,591
249,679; 5630,007;   -1,019;    1,682
250,277; 5860,745;   -2,292;    0,864
250,875; 5826,133;    0,617;   -1,045
251,473; 5835,096;   -0,019;    0,500
252,071; 5998,564;   -0,383;    1,045
252,669; 6146,196;   -1,565;    0,318
253,267; 6380,386;    1,618;    0,773
253,864; 6321,111;    0,617;    0,682
254,462; 6208,115;    1,526;    1,591
255,060; 6187,130;    0,072;    1,318
255,658; 6465,287;   -3,292;   -0,136
256,255; 6840,223;   -0,201;   -2,045
256,853; 6728,234;    2,345;    1,409
257,451; 6732,619;    1,981;    1,864
258,048; 6979,997;    2,072;    1,864
258,646; 6734,318;    0,436;   -1,045
259,243; 6924,416;    2,981;    2,227
259,841; 6969,788;    1,799;    0,318
260,438; 6861,098;    0,254;    0,864
261,036; 7508,228;    0,617;    1,409
261,633; 7435,335;    1,526;    2,227
262,231; 7196,828;   -0,110;   -0,045
262,828; 7266,285;   -0,383;    1,136
263,425; 7302,039;   -1,928;   -0,591
264,023; 7565,585;    1,436;    0,045
264,620; 7125,088;    1,526;   -0,318
265,217; 7489,538;    2,890;    3,136
265,815; 7569,942;    2,527;    2,136
266,412; 7373,223;    0,072;    0,136
267,009; 7392,094;    0,526;    0,773
267,606; 7302,318;    0,345;   -0,955
268,203; 7314,348;   -0,383;   -0,591
268,801; 7561,877;   -0,474;    0,591
269,398; 7821,284;   -0,564;    2,500
269,995; 7770,285;    0,890;    1,591
270,592; 7597,452;    0,799;   -0,500
271,189; 7774,217;    1,981;    0,409
271,786; 7893,314;    2,072;    1,227
272,383; 7749,004;   -0,383;    0,227
272,980; 7930,756;    1,617;    0,318
273,577; 8368,978;    2,162;    1,227
274,174; 7939,826;    1,435;    2,591
274,771; 7906,741;    1,890;   -0,773
275,367; 8039,272;    3,253;    1,409
275,964; 8022,701;   -0,565;   -0,500
276,561; 8110,587;   -2,474;   -1,045
277,158; 8315,735;    1,799;   -1,773
277,755; 8439,263;   -0,110;    0,409
278,351; 7856,612;    0,436;   -1,500
278,948; 8141,716;   -0,201;    0,045
279,545; 8131,811;    0,527;    2,318
280,141; 8733,158;    1,254;   -2,045
280,738; 8589,784;    2,435;   -0,136
281,334; 8805,103;   -0,383;    0,591
281,931; 8193,199;    2,890;   -1,318
282,528; 8340,419;    4,072;   -0,500
283,124; 8981,115;    3,345;   -0,500
283,721; 8864,284;    0,709;    1,409
284,317; 8689,043;    0,163;    2,500
284,913; 9174,764;   -0,110;    0,591
285,510; 9376,673;    2,890;   -0,318
286,106; 9398,470;    2,345;   -0,955
286,703; 8989,574;    0,072;    1,955
287,299; 9217,424;    1,254;   -0,591
287,895; 9443,657;    0,890;   -1,045
288,491; 9949,739;    0,163;    2,136
289,088; 9685,343;    0,163;    2,409
289,684; 9737,196;    2,890;    1,500
290,280; 9712,312;    1,890;    0,682
290,876; 9800,813;    0,163;    5,500
291,472; 9730,212;    2,163;    2,227
292,068; 9806,155;    1,254;    0,227
292,665; 9527,606;   -0,564;    0,773
293,261; 9213,447;   -1,292;    2,136
293,857; 9558,173;    4,072;    2,136
294,453; 9517,454;   -0,928;    0,955
295,049; 9418,755;    0,253;    1,955
295,644; 9447,139;   -1,292;    0,136
296,240; 9321,930;    0,162;   -0,136
296,836; 9393,214;   -0,747;    0,318
297,432; 9636,254;    2,980;   -0,500
298,028; 9661,846;    0,435;    0,773
298,624;10023,150;    0,889;    1,864
299,220;10249,863;    0,435;    0,591
299,815; 9922,837;    0,526;   -0,409
300,411; 9721,209;    0,435;    1,773
301,007; 9729,091;    1,889;    0,227
301,602; 9733,057;    2,071;   -2,318
302,198; 9939,939;    1,435;   -0,773
302,794;10251,358;    1,526;   -0,500
303,389;10299,931;    1,071;    1,045
303,985;10367,480;    1,253;    1,409
304,580;10387,652;    0,889;    1,591
305,176;10372,277;    0,344;    0,136
305,771;10295,383;   -0,929;   -1,227
306,367;10161,302;    3,071;    0,136
306,962;10478,057;    2,889;    1,500
307,558;10170,465;    2,435;    0,136
308,153;10091,892;   -0,383;   -1,136
308,748;10340,996;    0,162;    1,682
309,344;10345,507;    0,253;   -1,318
309,939;10438,630;    2,071;   -1,318
310,534;10686,023;   -2,020;   -1,682
311,130;10620,749;   -0,656;   -2,500
311,725;10377,943;    0,526;   -0,500
312,320;10694,719;    1,253;    0,045
312,915;10558,457;    2,890;   -1,045
313,510;10629,581;    0,526;   -0,500
314,105;11094,643;   -3,565;    1,409
314,700;10481,110;   -1,656;   -1,045
315,295;10160,015;   -0,020;    0,045
315,890; 9771,100;   -0,292;    0,864
316,485;10093,264;    0,253;   -0,318
317,080;10204,742;   -0,929;    1,591
317,675;10679,880;    3,071;   -0,682
318,270;10121,106;    6,889;    3,318
318,865;10159,127;    2,435;    3,045
319,460; 9998,670;   -1,565;    0,591
320,055;10222,658;   -2,565;   -1,227
320,650; 9889,650;   -1,838;   -0,591
321,244; 9976,734;    0,889;   -1,409
321,839;10838,229;    0,980;   -0,227
322,434;10696,537;   -0,111;   -1,591
323,029;10379,569;   -0,474;    1,591
323,623;10246,996;    0,798;    0,773
324,218;10047,081;    2,707;    1,409
324,812; 9917,791;    0,889;    1,591
325,407; 9788,489;   -0,929;    2,045
326,002; 9735,423;    0,526;   -0,409
326,596;10055,992;   -0,656;    1,318
327,191;10246,802;   -0,383;   -1,045
327,785; 9872,447;   -0,747;   -0,227
328,379;10066,279;   -0,383;    0,136
328,974; 9851,575;    1,798;   -3,955
329,568;10072,430;    2,889;   -2,409
330,163; 9907,732;    2,435;    1,045
330,757;10256,359;    0,253;    1,591
331,351; 9612,706;   -0,292;    0,682
331,945; 9924,197;   -0,383;    1,409
332,540; 9545,867;    1,617;   -0,591
333,134; 9667,748;    3,344;    0,773
333,728; 9890,753;    2,799;    0,318
334,322;10181,890;    0,889;   -0,864
334,916; 9513,492;    0,344;    0,955
335,510; 9817,590;   -0,111;   -0,136
336,105;10058,256;   -0,929;    1,591
336,699; 9764,803;   -1,292;    0,591
337,293; 9702,966;    1,071;    0,318
337,887; 9801,924;    0,071;    1,955
338,481; 9918,457;    2,980;    0,591
339,074;10053,877;    2,071;    2,682
339,668; 9878,414;   -0,110;    1,227
340,262;10130,023;    7,708;    3,227
340,856; 9634,167;    1,708;   -0,682
341,450; 9049,953;    0,708;    1,864
342,044; 9870,784;    1,799;    0,136
342,637; 9656,994;    1,162;   -2,136
343,231; 9500,847;   -1,474;    0,682
343,825; 9432,552;   -0,747;   -0,591
344,419; 9448,797;   -0,474;    0,500
345,012; 9263,647;    2,889;    4,045
345,606; 9290,660;   -0,656;    1,591
346,199; 9143,686;   -0,111;   -0,227
346,793; 8702,223;    2,525;    2,045
347,386; 8895,971;    0,889;   -1,136
347,980; 8897,863;   -0,838;   -0,045
348,573; 8725,361;   -1,748;    0,409
349,167; 8435,900;    6,161;    4,773
349,760; 8751,699;    2,252;    2,682
350,354; 8717,262;    1,616;    1,136
350,947; 8493,023;    2,798;    1,682
351,540; 8226,452;    0,616;   -1,409
352,134; 8160,086;   -1,111;    1,136
352,727; 8231,969;   -0,657;    1,136
353,320; 8054,549;    2,343;    0,591
353,913; 7913,900;   -1,929;    1,864
354,507; 8076,339;    0,434;   -1,227
355,100; 8087,557;    0,071;    0,864
355,693; 7430,158;    4,798;    2,409
356,286; 7465,652;    0,980;    2,773
356,879; 7819,020;   -0,475;    1,227
357,472; 7469,435;    0,980;    1,500
358,065; 7634,750;    3,161;    2,500
358,658; 7553,951;    0,798;    2,318
359,251; 7254,636;    0,252;   -0,591
359,844; 6817,268;    0,343;   -1,136
360,437; 6990,219;    0,252;    0,045
361,030; 7240,703;    0,525;   -0,682
361,623; 6845,752;    0,434;    0,318
362,215; 6897,018;    0,979;    2,045
362,808; 6731,255;   -2,293;   -1,682
363,401; 6923,353;    0,798;    0,136
363,994; 6716,247;    3,252;   -1,500
364,586; 6631,157;    0,888;   -1,500
365,179; 6826,924;   -0,203;   -1,136
365,772; 6349,735;   -0,930;    2,045
366,364; 6611,645;    1,524;   -3,227
366,957; 6812,073;    1,342;   -0,045
367,549; 6786,713;   -0,203;   -0,864
368,142; 6475,606;    0,978;   -1,500
368,734; 6642,869;    2,523;   -2,136
369,327; 6624,543;    2,341;   -0,500
369,919; 6554,036;   -1,659;    0,409
370,512; 6418,711;   -1,023;   -0,500
371,104; 6171,144;    2,704;    1,591
371,696; 6337,052;    1,703;   -0,955
372,289; 6419,543;    0,157;    1,136
372,881; 6559,638;    1,156;    1,318
373,473; 6456,605;    4,064;    1,136
374,066; 6278,377;    1,336;    0,500
374,658; 6130,382;    0,879;    1,136
375,250; 6435,336;   -1,668;   -1,409
375,842; 6314,995;   -0,124;   -0,045
376,434; 6191,348;   -2,762;   -0,409
377,026; 6715,702;   -1,855;   -2,500
377,618; 6605,574;    0,779;   -0,682
378,210; 6486,560;    3,141;   -1,955
378,802; 6327,992;    3,412;   -0,591
379,394; 6329,241;    3,411;    0,682
379,986; 6863,200;    1,138;   -0,955
380,578; 6915,132;    1,410;    0,773
381,170; 6327,467;    0,320;    0,045
381,762; 6267,011;   -0,224;    1,409
382,354; 6467,979;   -0,223;   -1,318
382,945; 6530,634;    0,870;    0,318
383,537; 6685,025;    1,144;   -1,955
384,129; 6725,780;    0,963;   -1,136
384,721; 6865,187;    0,418;    0,955
385,312; 6777,113;   -1,399;   -0,955
385,904; 6871,815;   -0,945;    1,591
386,496; 6271,534;    0,691;    1,045
387,087; 6438,370;    0,418;    2,500
387,679; 6450,438;   -0,401;    0,045
388,270; 6604,652;   -2,401;    2,045
388,862; 6674,609;   -0,401;   -0,318
389,453; 6543,821;    1,054;    1,045
390,045; 6802,070;    3,236;   -2,682
390,636; 6743,982;    0,144;   -0,591
391,227; 6593,263;    2,054;   -0,045
391,819; 6683,176;    0,781;    0,773
392,410; 6771,554;    0,600;    0,045
393,001; 6701,348;    1,600;   -1,591
393,593; 6959,417;    0,600;   -0,045
394,184; 6805,033;    0,873;   -0,409
394,775; 6685,671;    1,146;    2,136
395,366; 6900,410;    1,782;    0,773
395,957; 6871,080;   -2,400;    0,136
396,548; 7151,712;    1,054;    2,682
397,139; 7442,467;    2,236;    0,591
397,730; 7206,338;    0,873;    0,955
398,321; 7244,194;    0,509;    0,955
398,912; 7269,593;   -0,764;    0,136
399,503; 7364,295;   -1,945;   -1,409
400,094; 6857,253;   -1,582;    1,682
400,685; 6718,392;    3,600;    0,045
401,276; 6771,925;   -0,400;   -0,955
401,867; 7077,342;   -1,127;    0,773
402,458; 7164,944;    1,509;   -2,318
403,048; 7120,921;    0,146;    0,591
403,639; 6768,304;    1,509;    0,864
404,230; 7031,265;    0,691;    0,318
404,821; 6982,841;   -0,127;    0,045
405,411; 7095,392;   -0,763;   -2,591
406,002; 6677,993;    3,237;   -1,136
406,592; 6584,100;    2,691;    0,045
407,183; 6839,334;    0,328;   -1,500
407,774; 6771,222;    1,419;   -0,136
408,364; 7072,481;    2,600;    0,409
408,954; 6732,770;   -0,036;    1,227
409,545; 6753,561;    1,873;    1,045
410,135; 6333,605;   -1,581;    0,500
410,726; 6477,116;    0,783;    0,318
411,316; 6816,854;    2,237;    0,773
411,906; 6518,685;    0,146;   -0,409
412,497; 6079,491;   -0,490;   -0,045
413,087; 6630,495;    0,783;   -0,227
413,677; 6971,503;   -2,490;    3,864
414,267; 6806,019;   -1,035;    1,409
414,857; 6799,074;    0,419;    4,227
415,448; 7088,412;   -0,763;    0,500
416,038; 6801,057;   -2,945;   -0,591
416,628; 6735,112;    0,965;    0,409
417,218; 6302,701;   -1,762;    3,318
417,808; 6546,120;    0,965;   -0,409
418,398; 6932,667;   -1,035;    2,682
418,988; 6904,720;   -2,217;    0,591
419,578; 7131,080;    3,601;    1,409
420,168; 7446,824;    0,692;   -0,955
420,757; 7078,708;    0,964;   -1,500
421,347; 6769,437;    1,601;   -0,227
421,937; 6919,069;    3,329;    1,409
422,527; 6890,339;    2,602;   -0,773
423,116; 6711,166;    2,692;   -0,045
423,706; 7056,414;    2,965;    0,318
424,296; 7006,729;    1,601;    0,682
424,885; 7389,001;    1,510;   -3,045
425,475; 7634,684;    1,147;   -2,864
426,065; 7539,750;   -1,489;   -0,318
426,654; 7196,292;    0,329;   -0,318
427,244; 7333,532;    1,147;    1,409
427,833; 6812,952;    1,056;   -0,500
428,423; 7199,229;    0,147;    1,136
429,012; 7906,567;    2,420;   -1,136
429,601; 7437,567;    2,057;    0,136
430,191; 7664,140;    2,511;    4,318
430,780; 7323,982;   -1,671;   -0,409
431,369; 7266,909;    1,329;   -0,045
431,959; 7831,554;    1,693;    0,500
432,548; 7617,423;   -1,398;   -0,045
433,137; 7734,715;    0,329;   -1,318
433,726; 8210,723;    0,148;    0,500
434,315; 7609,964;    0,148;    2,409
434,905; 7712,777;    0,693;    1,409
435,494; 7639,133;    3,148;    0,955
436,083; 8064,594;    1,420;   -0,955
436,672; 7929,795;    1,148;    0,500
437,261; 7562,397;    0,512;   -1,955
437,850; 7670,767;   -1,125;    0,682
438,439; 7616,052;    2,239;    1,955
439,027; 7475,792;    3,421;    1,773
439,616; 7827,847;    2,239;    1,227
440,205; 7661,953;    0,057;   -2,136
440,794; 7695,650;   -0,306;   -0,045
441,383; 7927,007;    1,603;   -0,591
441,971; 7822,819;   -0,306;    0,591
442,560; 7706,880;    0,603;   -1,773
443,149; 7445,574;    3,060;   -1,318
443,737; 7560,841;    0,968;   -2,318
444,326; 7798,180;    0,331;    0,318
444,915; 7846,036;   -1,851;    0,864
445,503; 8213,087;    0,058;   -0,318
446,092; 7563,736;    7,876;    2,136
446,680; 8054,873;    1,876;    0,318
447,269; 8201,023;   -1,487;   -0,318
447,857; 7999,146;    2,240;   -1,773
448,445; 8069,021;    2,149;    1,318
449,034; 8261,989;    0,876;   -1,136
449,622; 8400,059;    1,240;    3,500
450,210; 7727,149;    3,149;    2,227
450,799; 8208,910;    2,604;   -0,591
451,387; 8148,583;    1,786;   -0,591
451,975; 7828,179;   -1,305;    0,864
452,563; 7926,264;    0,422;    2,318
453,151; 7962,468;   -1,032;   -1,227
453,739; 7902,305;   -1,577;    0,136
454,328; 7784,921;    0,604;   -2,136
454,916; 7518,333;    1,150;   -0,136
455,504; 7686,582;    3,513;    1,227
456,092; 7816,790;    2,150;   -1,591
456,679; 7797,885;    0,604;    0,682
457,267; 7764,552;    3,604;    1,045
457,855; 7882,821;    3,241;    1,409
458,443; 7631,313;   -0,304;    1,682
459,031; 7789,903;    1,332;    2,409
459,619; 8183,155;   -3,577;    2,864
460,206; 8291,988;   -0,759;    2,045
460,794; 8380,442;   -0,668;   -0,227
461,382; 8527,194;    0,878;   -0,864
461,970; 8153,148;    0,605;    1,864
462,557; 8211,486;    0,878;   -0,682
463,145; 8369,059;   -0,304;   -1,682
463,732; 8487,473;    2,514;   -1,045
464,320; 8439,989;    1,514;   -3,045
464,907; 8135,156;    0,423;   -0,773
465,495; 8017,481;    2,696;   -1,227
466,082; 8150,076;    2,060;   -0,045
466,670; 8067,900;    2,605;    1,227
467,257; 8442,507;    0,060;    2,045
467,844; 8601,612;    1,514;    0,045
468,432; 8602,005;   -0,031;    3,500
469,019; 8178,663;    1,606;   -1,773
469,606; 8628,160;    0,969;    3,682
470,193; 8457,102;    2,151;    0,227
470,780; 8090,238;    0,333;    0,864
471,368; 8415,698;   -1,212;   -0,773
471,955; 8210,252;    1,060;   -0,682
472,542; 7841,362;   -0,303;   -1,136
473,129; 8060,557;   -0,485;    0,136
473,716; 7816,682;    0,060;    0,591
474,303; 8004,094;    1,333;   -0,864
474,890; 8252,214;    2,333;   -0,500
475,477; 8292,552;   -0,576;    0,409
476,064; 8192,847;    0,697;   -1,591
476,650; 8097,943;    2,152;    0,318
477,237; 7949,034;    1,879;    0,955
477,824; 8113,476;    3,879;    0,864
478,411; 8117,197;    0,606;   -0,318
478,997; 8289,983;    0,606;   -0,773
479,584; 8361,779;   -0,666;   -0,409
480,171; 8972,579;    1,243;   -0,773
480,757; 8670,940;   -0,848;    0,773
481,344; 8899,331;    0,334;    0,409
481,931; 8435,140;   -0,393;    1,045
482,517; 9300,768;    0,425;    0,318
483,104; 9783,483;    1,334;    2,864
483,690; 9980,147;    0,243;    0,045
484,276;10273,614;    0,698;    0,227
484,863;10034,071;    2,152;    1,136
485,449;10592,415;    0,152;    0,318
486,035;10567,536;   -0,666;   -0,136
486,622;10968,071;   -2,393;    0,045
487,208;10903,751;    1,334;    1,500
487,794;10770,282;    0,971;    0,318
488,380;10875,931;    0,698;   -1,409
488,967;10937,379;   -1,120;   -0,409
489,553;11000,740;   -1,029;   -1,409
490,139;11185,493;    0,971;    0,773
490,725;10700,478;    0,789;   -0,227
491,311;10329,106;    1,516;    3,045
491,897; 9722,679;   -0,665;    1,500
492,483; 9612,078;    0,426;    1,227
493,069; 9462,207;    5,426;    0,864
493,655; 9420,192;    1,789;    0,682
494,241; 9336,911;    1,517;   -0,955
494,826; 9662,307;    0,335;   -1,045
495,412; 9148,330;    0,335;   -0,682
495,998; 9273,524;    0,971;   -0,318
496,584; 9392,186;    2,244;    1,045
497,169; 9377,839;    2,335;   -0,682
497,755; 9358,418;    1,244;    1,227
498,341; 9879,860;    2,153;    0,318
498,926; 9463,680;    2,881;    1,955
499,512; 9633,396;   -0,028;    2,955
500,097; 9690,752;   -0,574;   -0,318
500,683; 9666,369;   -0,028;    2,136
501,268;10001,532;    1,881;   -0,955
501,854; 9744,800;   -0,119;    1,227
502,439; 9675,844;   -0,573;   -1,773
503,024; 9801,608;    1,608;    0,500
503,610; 9870,694;    1,335;   -0,682
504,195; 9886,394;    1,245;    1,955
504,780; 9995,629;    2,335;    1,227
505,366; 9838,665;    4,063;    2,864
505,951; 9597,019;   -1,119;    1,045
506,536; 9599,170;    1,427;   -3,682
507,121; 9612,174;    1,699;   -0,318
507,706;10081,929;   -0,392;    1,045
508,291;10411,544;   -2,937;    1,136
508,876; 9896,858;   -0,482;    2,591
509,461; 9421,211;    1,427;   -0,773
510,046; 9803,046;   -0,391;    0,318
510,631;10027,588;   -0,119;   -0,773
511,216; 9716,359;   -0,664;   -0,500
511,801;10024,174;   -0,755;    2,591
512,386;10275,850;    0,972;    0,500
512,971;10214,349;    0,427;    0,955
513,555; 9798,909;    1,154;   -1,500
514,140;10514,784;    1,336;   -3,136
514,725;10492,720;    1,791;   -1,136
515,309;10619,029;    1,064;    0,318
515,894;10165,300;   -0,300;   -2,227
516,479;10535,634;    1,973;   -0,955
517,063;10371,824;    0,882;    1,227
517,648;10527,376;    0,155;   -1,136
518,232;10154,726;   -1,300;   -1,409
518,817;10498,388;    1,337;    1,682
519,401;10673,582;    0,700;    0,591
519,985;10200,843;    2,700;    1,136
520,570;10104,849;   -0,118;   -1,955
521,154;10357,620;    0,064;    0,591
521,738;10492,482;    1,064;    2,409
522,323;11025,474;   -0,390;    1,682
522,907;10756,704;    2,428;   -0,136
523,491;10524,186;    1,155;    0,955
524,075;10524,212;    0,428;    0,591
524,659;10603,413;    0,973;    0,591
525,243;10111,624;    0,883;    0,409
525,827;10324,804;    0,883;   -0,045
526,411;11071,140;    1,155;   -0,136
526,995;11242,723;    0,337;    1,409
527,579;10867,486;    1,974;   -1,045
528,163;11133,898;    0,428;   -1,500
528,747;11055,459;    1,065;   -0,773
529,331;11336,133;    0,883;   -1,409
529,915;11505,970;    2,338;    0,955
530,499;11444,401;    0,247;    1,227
531,082;11148,619;    1,065;    1,591
531,666;10672,735;    0,520;    0,773
532,250;11264,393;    0,428;    2,682
532,833;11572,000;    0,610;    2,773
533,417;11436,890;    1,247;    0,864
534,001;11359,965;    0,429;   -0,318
534,584;12015,181;    1,974;    0,500
535,168;11859,223;    3,247;    1,409
535,751;11912,737;    4,520;    0,045
536,334;11363,820;    4,520;   -0,409
536,918;11950,088;    1,974;    1,591
537,501;12019,519;    1,520;    1,318
538,085;11982,371;    1,702;    1,045
538,668;12075,851;    0,883;    2,409
539,251;12347,422;    3,156;    3,773
539,834;12369,416;    0,156;    0,773
540,418;12311,574;    3,247;    4,318
541,001;12398,447;    2,702;    1,773
541,584;12390,157;    1,429;    2,227
542,167;12091,331;    0,702;    2,955
542,750;12202,163;    0,793;   -0,773
543,333;11823,988;    1,429;    2,136
543,916;12535,658;   -0,298;    2,500
544,499;13038,787;    2,520;    0,227
545,082;13024,700;    0,248;    3,591
545,665;13153,620;   -0,207;    1,500
546,248;13402,624;    0,520;   -0,318
546,830;13119,979;   -1,752;    1,955
547,413;13483,378;    0,157;   -0,773
547,996;13964,898;    0,157;    0,500
548,579;13762,970;   -0,843;    0,955
549,161;13531,792;    0,884;    2,682
549,744;13330,228;    0,612;    0,409
550,326;13791,549;    0,885;   -1,136
550,909;13590,411;    2,339;    0,591
551,492;13952,312;    0,521;    0,227
552,074;13751,447;   -0,024;   -1,318
552,657;14252,676;    2,430;    0,045
553,239;14077,115;   -3,024;   -0,773
553,821;14012,811;   -1,570;    1,045
554,404;13500,764;   -0,024;    1,136
554,986;13774,238;    2,248;    1,045
555,568;14350,678;    0,430;   -0,955
556,151;13661,521;    4,067;   -0,227
556,733;13834,253;   -1,388;   -0,864
557,315;14242,121;    4,703;    0,500
557,897;13976,364;    0,521;   -0,500
558,479;14132,254;    1,703;    1,318
559,061;14266,711;    1,067;   -0,864
559,643;14551,984;   -0,297;    0,045
560,225;14819,409;   -0,388;    2,864
560,807;14861,347;    0,340;    0,318
561,389;14423,561;   -1,206;    2,318
561,971;15050,666;   -0,660;    2,136
562,553;14870,986;    0,613;    1,591
563,135;14992,072;    1,249;    1,136
563,717;14609,707;    3,158;    1,136
564,298;15180,882;    3,976;   -0,045
564,880;14932,767;    0,340;   -1,409
565,462;15087,494;    1,977;    1,318
566,043;16091,307;   -0,933;    2,318
566,625;15637,237;    4,067;    1,227
567,207;15452,493;    0,704;    1,682
567,788;16407,478;   -0,114;    1,500
568,370;17087,562;   -1,841;   -0,500
568,951;16869,215;   -0,569;    0,227
569,533;17644,538;    0,977;   -0,500
570,114;18037,958;   -0,296;    0,682
570,695;18424,224;   -0,478;   -1,318
571,277;18732,879;   -0,205;   -1,682
571,858;19329,205;    2,704;   -1,136
572,439;20086,002;    0,795;   -1,045
573,021;20146,177;    0,432;   -2,773
573,602;20540,270;    1,795;    0,318
574,183;21399,972;   -0,114;    2,227
574,764;21438,194;    2,068;    0,409
575,345;21803,506;    0,250;   -0,136
575,926;22321,762;    2,704;    0,136
576,507;22298,200;    2,704;   -0,227
577,088;23278,086;    1,704;    1,682
577,669;23200,297;    1,704;    1,955
578,250;23860,881;   -0,750;   -1,045
578,831;24365,320;   -0,841;   -2,227
579,412;24512,777;   -1,205;    0,955
579,993;25331,054;    1,432;    0,227
580,573;25674,420;   -0,023;   -0,955
581,154;24690,663;    1,613;   -0,591
581,735;25451,477;    0,341;    0,773
582,315;24951,749;    0,523;    2,136
582,896;25263,466;   -1,750;    1,227
583,477;24774,322;    0,614;    1,227
584,057;24961,849;    1,159;    0,955
584,638;25252,327;   -2,750;    2,318
585,218;25264,073;    2,886;    2,682
585,799;25404,538;    1,977;   -0,227
586,379;25372,813;    1,250;    1,591
586,959;24354,382;    2,613;    0,318
587,540;23835,950;    0,432;    2,227
588,120;23421,472;   -1,113;   -0,045
588,700;22556,891;    2,977;    2,136
589,281;22902,191;    1,250;   -0,955
589,861;22834,815;   -0,296;   -1,682
590,441;22669,967;   -1,477;   -2,682
591,021;21709,166;    1,432;   -2,591
591,601;21981,712;    0,431;    0,500
592,181;22056,092;   -1,296;   -0,773
592,761;21384,106;    2,250;    1,409
593,341;21343,380;    1,522;    0,045
593,921;21324,426;   -0,569;    1,591
594,501;21257,223;    1,250;    1,318
595,081;21124,674;    0,522;   -0,318
595,661;21423,600;    1,068;    0,955
596,240;21852,644;   -1,023;    0,136
596,820;21448,706;    2,613;    1,955
597,400;21561,686;    1,977;    0,773
597,980;21823,382;   -0,750;    1,045
598,559;21885,841;    0,341;   -0,227
599,139;21607,441;   -0,750;   -1,227
599,718;21516,895;    0,795;   -0,409
600,298;21760,864;   -2,387;    0,682
600,877;21952,773;    4,795;    1,409
601,457;22211,562;    0,340;    1,136
602,036;22146,097;    1,795;    2,045
602,616;22320,040;    2,250;    1,682
603,195;22596,583;    0,431;    3,500
603,774;22112,524;   -0,296;    2,045
604,354;22001,822;    2,522;   -0,500
604,933;21614,593;    0,250;    1,864
605,512;21739,826;    2,340;    0,591
606,091;21786,708;    1,886;    3,773
606,671;22468,518;    0,249;    0,773
607,250;21653,475;    1,431;    3,136
607,829;21887,234;    1,158;    3,227
608,408;21778,091;    4,613;    2,591
608,987;20909,928;    2,704;    3,409
609,566;21144,033;    0,341;   -2,500
610,145;21273,002;    2,885;    0,682
610,723;21689,395;    1,613;    6,864
611,302;20990,028;    1,067;    1,682
611,881;20548,404;    5,158;   11,227
612,460;21313,135;    0,795;    3,955
613,039;21720,309;    1,703;    2,045
613,617;20532,991;    0,886;    4,773
614,196;20656,977;    1,613;    1,227
614,775;20972,055;    1,249;    2,409
615,353;20905,265;   -1,660;    0,864
615,932;20758,451;    0,249;    2,409
616,510;21235,895;    0,158;    0,591
617,089;20865,182;    8,794;   17,591
617,667;20643,248;    4,885;    6,136
618,246;20544,798;   -1,115;    1,318
618,824;20669,417;    1,612;   -0,955
619,402;20256,941;    0,431;   -1,773
619,981;20707,580;    1,067;   -1,045
620,559;20600,293;    0,794;    1,682
621,137;20201,051;    3,067;    1,864
621,715;20151,808;    3,703;   -0,682
622,293;20081,231;    1,885;   -0,773
622,871;20553,758;    0,340;    0,500
623,450;20159,335;    0,430;   -0,864
624,028;20051,428;   -0,388;   -0,955
624,606;19692,866;    2,339;    1,682
625,183;20065,866;   -0,661;   -1,136
625,761;19772,342;    1,885;    1,136
626,339;20041,464;    2,339;    2,591
626,917;20370,149;    0,339;   -0,045
627,495;20420,927;    2,794;    1,318
628,073;19871,632;    5,248;    2,864
628,650;19661,737;    3,067;    2,136
629,228;20005,534;    1,248;    4,409
629,806;19462,240;   -0,024;    1,136
630,383;19749,667;    0,066;   -0,318
630,961;19583,900;   -2,206;   -0,955
631,539;19310,232;   -2,479;    0,227
632,116;18730,627;   12,703;   15,409
632,694;19186,080;    4,885;    6,500
633,271;19486,325;    1,975;    2,682
633,848;19437,484;    1,430;    2,045
634,426;19483,786;    1,521;    1,773
635,003;18708,343;   -0,207;   -0,409
635,580;18971,155;    1,884;    3,682
636,158;19466,357;    3,793;    1,227
636,735;19421,258;    3,339;   -0,500
637,312;19522,627;    0,521;   -0,682
637,889;19590,869;    2,248;   -0,682
638,466;19164,282;    0,066;   -0,409
639,043;19157,464;    1,702;   -1,136
639,620;19397,825;    0,611;   -0,955
640,197;19692,866;    1,612;    1,682
640,774;19888,040;    1,430;    1,136
641,351;20222,305;    0,612;    1,136
641,928;19727,298;    2,794;    1,409
642,505;19363,017;    0,794;   -0,500
643,082;19504,373;    1,885;    1,227
643,658;18621,093;    1,157;    1,500
644,235;19267,722;   -2,479;    2,500
644,812;19486,350;    1,794;    0,773
645,388;19248,888;    1,612;    1,409
645,965;19354,608;    1,521;    1,682
646,542;19460,328;    3,430;   -0,227
647,118;19375,502;    3,703;   -0,955
647,695;19641,222;    0,339;    1,136
648,271;19564,668;   -2,115;    0,500
648,848;19816,570;    0,248;    2,227
649,424;19685,744;    0,976;    1,318
650,000;19403,737;   -0,388;   -1,045
650,577;19267,274;    0,158;   -0,955
651,153;19660,721;   -1,115;    0,955
651,729;20533,714;    0,521;    0,864
652,305;20583,888;    1,339;    2,773
652,881;23945,789;   -1,297;    1,136
653,458;29367,236;    0,249;    0,227
654,034;32358,320;    0,703;    1,591
654,610;33518,767;    0,339;    0,773
655,186;34675,850;    1,612;    3,045
655,762;34371,388;   -1,842;    0,409
656,338;34412,017;    0,703;    0,136
656,913;35373,736;   -0,297;    0,409
657,489;34685,001;    0,249;   -0,318
658,065;34656,085;    0,794;   -1,591
658,641;35205,713;    2,158;   -0,864
659,217;34627,888;    2,067;    0,409
659,792;34103,789;   -1,751;   -0,409
660,368;34473,872;   -0,388;   -0,682
660,944;34388,047;    1,794;    1,227
661,519;30801,403;    0,522;    0,409
662,095;25944,940;   -0,206;    0,591
662,670;22171,751;   -0,206;   -0,136
663,246;21315,198;   -0,660;   -0,409
663,821;20698,645;    0,431;    1,682
664,396;20173,365;    0,613;    1,864
664,972;20416,357;   -0,660;   -0,500
665,547;20724,349;    3,794;    0,136
666,122;20736,433;    1,340;    0,318
666,698;20965,880;    2,431;    0,318
667,273;20298,599;    0,885;    0,136
667,848;21096,319;    0,340;    1,500
668,423;20888,493;    1,795;    2,318
668,998;21266,486;    0,976;   -0,682
669,573;21748,296;    2,067;   -1,500
670,148;21583,925;    1,885;   -0,682
670,723;21395,917;   -0,024;    0,318
671,298;21782,182;   -1,296;    1,045
671,873;21856,720;   -0,296;   -0,136
672,448;21798,258;    1,704;    0,136
673,023;22151,523;    0,249;   -0,227
673,597;22422,334;    2,704;    2,318
674,172;22202,781;    2,431;    0,318
674,747;21734,955;   -0,205;   -1,045
675,321;21552,584;   -0,933;    3,318
675,896;21205,031;    2,158;    1,045
676,471;22069,023;    2,522;    1,591
677,045;21794,924;   -0,296;    0,682
677,620;21847,462;    2,158;    1,136
678,194;22169,909;    0,249;    1,136
678,769;21790,629;    0,886;   -0,318
679,343;21978,440;   -0,023;    1,773
679,917;21843,614;    0,340;    1,955
680,492;21915,697;    0,249;    3,227
681,066;22035,689;    0,613;    0,409
681,640;22011,955;    1,795;   -0,318
682,214;22746,311;    2,340;    0,500
682,788;22310,212;    0,613;   -0,773
683,363;22239,659;    1,977;    1,682
683,937;21974,197;    0,886;   -0,318
684,511;22677,644;   -1,023;   -0,591
685,085;22356,454;   -1,478;    0,318
685,659;22147,992;    1,431;    0,864
686,232;22372,894;    1,159;   -0,318
686,806;22118,250;    2,159;    0,409
687,380;22728,515;   -1,932;    0,591
687,954;22898,416;    2,432;    1,136
688,528;22566,409;    2,613;    1,955
689,101;23310,765;    0,432;    1,045
689,675;22894,303;    0,886;   -0,136
690,249;22304,931;    3,432;    0,409
690,822;22634,560;    1,159;    0,318
691,396;22746,371;    2,068;    1,227
691,969;22277,909;    2,523;    0,136
692,543;22726,083;   -0,568;   -1,955
693,116;22382,075;   -0,659;   -1,409
693,690;22315,886;   -0,296;    0,500
694,263;22755,060;    2,341;    2,955
694,836;22768,598;    2,795;    3,591
695,410;21504,317;    1,159;    1,773
695,983;21959,583;    1,614;    0,591
696,556;21999,757;   -0,750;   -1,045
697,129;22320,022;   -1,114;    1,409
697,703;21959,014;    1,341;    1,955
698,276;22015,643;    1,705;   -0,773
698,849;21765,999;   -1,023;    1,409
699,422;22107,446;    1,250;    0,591
699,995;21908,711;   -0,659;    0,136
700,568;22321,976;   -0,204;    3,045
701,140;22321,514;   -1,841;    1,682
701,713;22131,688;    0,341;    2,409
702,286;21899,681;    0,796;    0,864
702,859;21772,128;    0,614;   -0,591
703,432;21091,575;   -0,841;    0,682
704,004;21465,476;    1,978;    0,318
704,577;21353,832;    1,068;    0,136
705,150;21809,824;    0,887;    2,500
705,722;21601,271;    1,523;   -3,227
706,295;21447,264;    1,432;   -0,591
706,867;21360,347;    0,250;    1,955
707,440;21555,521;   -0,113;   -0,409
708,012;21767,877;   -0,022;    0,591
708,584;21660,870;    2,705;    0,227
709,157;21943,226;    1,160;   -0,591
709,729;21681,036;    1,069;    2,045
710,301;22423,120;   -1,204;    0,045
710,874;22447,385;    0,341;   -0,227
711,446;21398,559;   -0,295;    0,864
712,018;21304,097;   -3,022;    0,500
712,590;21056,271;   -0,204;    1,682
713,162;21488,173;   -0,477;    1,318
713,734;21733,529;    1,796;   -2,045
714,306;21680,248;    0,342;   -0,409
714,878;20464,695;   -0,295;    0,864
715,450;21244,324;   -0,113;    0,864
716,022;21461,316;    2,433;    1,318
716,593;21671,491;    0,978;    0,591
717,165;21626,028;    1,796;   -1,227
717,737;21348,203;    0,796;    0,409
718,309;21052,831;    1,160;   -0,045
718,880;20965,460;   -1,295;   -1,409
719,452;21189,998;    0,887;   -1,591
720,024;20870,809;    1,705;   -0,591
720,595;21392,710;    2,978;    0,955
721,167;20964,975;    1,160;   -2,045
721,738;20544,786;    2,069;   -1,045
722,309;20548,687;    1,251;   -1,227
722,881;20341,225;    2,705;    0,773
723,452;20911,763;    1,251;    2,864
724,023;21071,846;    1,524;    2,682
724,595;20868,475;    2,342;    0,682
725,166;20598,831;    1,524;   -0,409
725,737;20305,823;    1,887;    0,227
726,308;20416,361;    0,797;    0,318
726,879;20755,990;    1,069;    1,227
727,450;20616,801;   -2,022;   -0,045
728,021;20602,793;    1,069;    0,682
728,592;20407,058;    1,160;    0,500
729,163;20751,960;    1,433;   -0,136
729,734;20717,770;    2,160;   -0,227
730,305;21033,217;    0,615;    0,136
730,876;21331,755;    0,888;    2,955
731,447;21066,747;    0,797;    2,682
732,017;21144,649;   -0,840;    1,864
732,588;20724,459;   -0,021;    1,227
733,159;20880,088;    3,615;   -1,045
733,729;20676,717;    1,251;    0,409
734,300;20055,255;    0,160;    0,864
734,870;20478,974;   -1,385;    0,591
735,441;20975,058;    0,888;   -0,591
736,011;20744,868;    1,070;   -1,591
736,582;20714,406;    1,251;    0,045
737,152;20209,762;    0,979;   -2,045
737,722;20592,118;    1,070;   -0,682
738,293;20359,838;   -2,021;    1,318
738,863;20285,830;    1,797;    2,318
739,433;20122,459;    4,524;    0,318
740,003;20652,633;    1,524;   -0,682
740,573;20136,444;    2,252;   -1,591
741,143;20118,254;    3,615;    0,318
741,713;20827,701;    0,252;   -0,500
742,283;20536,875;    1,706;    1,591
742,853;20389,777;    0,524;    1,591
743,423;19874,406;    0,161;    0,045
743,993;19980,489;    1,070;    1,500
744,563;19414,754;    2,524;   -0,864
745,133;19406,201;   -0,112;   -0,864
745,702;20005,921;    2,797;    1,773
746,272;19278,822;    0,434;    0,591
746,842;19092,724;   -0,748;   -0,591
747,411;19504,534;   -0,839;   -0,318
747,981;19628,436;   -0,930;    0,500
748,551;19684,065;   -0,021;   -1,045
749,120;19546,148;   -0,112;   -0,227
749,690;19910,777;    2,161;    2,409
750,259;20204,769;    0,979;    2,955
750,828;20109,398;    4,070;   -1,955
751,398;20350,117;   -0,112;   -0,045
751,967;19932,473;    2,888;    0,409
752,536;20081,193;    1,161;   -0,227
753,105;20434,004;   -1,384;    0,227
753,675;20210,632;   -0,112;    1,773
754,244;20152,443;    0,888;    3,591
754,813;20234,163;    0,979;    1,227
755,382;19868,882;    0,798;    0,955
755,951;20318,420;   -0,112;    3,682
756,520;19923,503;    2,525;    1,864
757,089;20442,860;    1,888;    0,500
757,658;20521,397;    2,434;    1,227
758,227;20528,208;   -1,111;    0,318
758,795;20766,200;   -1,021;    1,136
759,364;21002,284;    0,525;   -0,591
759,933;20095,640;    1,343;   -0,045
760,501;19719,087;    0,252;   -1,318
761,070;20128,715;   -0,293;   -1,409
761,639;20775,890;    1,434;    1,318
762,207;20143,427;    0,889;   -0,955
762,776;20079,147;    2,889;    0,864
763,344;20079,685;    0,071;    0,591
763,913;19197,950;    1,616;    1,409
764,481;19960,852;    1,980;   -0,136
765,049;19797,571;    0,616;    1,409
765,618;19668,018;    1,434;    0,318
766,186;19754,647;    2,434;    0,136
766,754;19914,730;    1,798;    1,864
767,322;19009,268;    1,162;    0,409
767,890;19028,806;    0,525;   -1,773
768,459;19417,344;    2,616;   -0,318
769,027;19568,700;    2,525;    3,409
769,595;18644,238;    2,616;    2,591
770,163;19048,957;    3,344;    2,955
770,730;18836,950;    2,525;   -0,136
771,298;18759,397;    1,162;   -1,409
771,866;18851,844;    0,253;    4,955
772,434;19116,836;    1,162;   -1,864
773,002;19297,828;    2,616;    0,682
773,569;18977,912;    1,071;    1,682
774,137;18782,359;    0,889;   -0,045
774,705;19514,260;   -0,747;   -0,136
775,272;19066,343;    0,253;    0,682
775,840;18919,881;   -0,111;    2,682
776,407;18462,692;   -0,293;    1,955
776,975;18077,230;    1,162;    0,318
777,542;19020,767;    2,162;   -0,045
778,110;18905,760;    0,707;   -0,045
778,677;18593,843;    1,071;   -0,864
779,244;18398,472;   -1,020;    1,045
779,812;18450,646;    0,980;    0,864
780,379;18311,729;    2,435;    1,136
780,946;18587,540;    2,617;   -0,773
781,513;18860,532;   -0,565;    0,318
782,080;18254,979;    1,253;    2,864
782,647;18916,608;    1,708;    3,045
783,214;18573,873;   -0,201;    3,864
783,781;18280,502;    1,708;   -0,682
784,348;18137,676;    0,253;    1,500
784,915;18528,941;   -1,474;    0,318
785,482;18318,570;    2,708;    2,591
786,049;18738,835;    1,071;   -0,591
786,615;18854,100;    1,708;   -0,955
787,182;18598,002;   -3,201;   -0,682
787,749;18325,903;   -2,201;    1,409
788,315;17703,987;    0,253;   -0,409
788,882;18016,706;    0,981;   -1,227
789,448;18641,244;    1,435;   -0,955
790,015;18635,691;    1,799;    3,227
790,581;18255,865;    0,708;    0,227
791,148;18140,221;    1,344;    1,045
791,714;18356,214;   -1,019;    3,136
792,280;18065,570;    3,708;    1,591
792,847;17756,380;   -0,928;    2,500
793,413;18187,464;   -0,110;   -0,318
793,979;17794,638;    1,526;   -1,318
794,545;17883,176;    2,981;    2,682
795,111;17362,986;    2,435;    1,318
795,678;17524,433;    3,526;   -1,682
796,244;17206,607;    2,799;    0,136
796,810;17696,691;    0,799;    0,773
797,375;17445,956;   -0,292;   -2,136
797,941;17450,221;   -1,110;    0,591
798,507;17590,941;    0,254;   -0,955
799,073;17227,206;    2,708;    0,591
799,639;17275,653;    1,435;    3,136
800,205;17318,372;   -1,565;    2,682
800,770;16925,092;    1,345;    1,773
801,336;16932,812;    2,981;   -0,955
801,901;16711,077;    6,072;    3,136
802,467;17244,433;    0,526;    2,045
803,033;16643,880;   -0,019;    0,864
803,598;16816,690;    1,072;   -1,045
804,163;16883,774;    0,708;   -0,318
804,729;16882,766;   -0,110;    1,136
805,294;17163,213;    1,072;    2,227
805,859;16987,842;    0,890;   -0,409
806,425;16571,380;    3,890;    2,682
806,990;16267,008;    1,890;    4,318
807,555;16643,092;   -0,110;    2,591
808,120;16596,448;   -1,292;   -0,409
808,685;16663,349;    1,072;   -2,500
809,250;16250,432;    2,072;   -0,500
809,815;16464,970;   -0,201;    0,682
810,380;16957,326;    0,981;    1,591
810,945;17400,773;    2,890;    2,045
811,510;16714,857;   -0,200;    1,591
812,075;16453,758;    2,800;   -1,409
812,640;16480,841;    3,709;    1,409
813,204;16593,197;    2,163;   -0,227
813,769;17022,462;    0,254;   -0,045
814,334;16514,637;    0,527;    0,864
814,898;16516,538;    1,981;    0,591
815,463;16383,712;    0,981;   -0,773
816,027;16389,341;    1,345;   -2,318
816,592;16476,243;    2,163;   -2,045
817,156;16018,599;   -2,200;    1,136
817,721;15902,227;    0,982;    2,318
818,285;15915,038;    0,618;    1,500
818,849;16486,576;   -0,018;    1,682
819,414;16398,023;    0,073;    2,955
819,978;16025,015;   -0,291;    1,773
820,542;16528,735;    2,891;    0,500
821,106;16326,909;    2,800;    0,682
821,670;16377,538;    2,709;    2,591
822,234;16108,167;    1,073;    1,409
822,798;15604,977;   -0,836;    0,500
823,362;15615,515;    1,527;    4,227
823,926;15059,053;   -0,018;    1,136
824,490;15213,772;    3,527;   -0,682
825,054;15625,219;    2,527;   -1,136
825,618;15308,485;   -1,200;   -1,500
826,181;15289,659;    0,982;   -1,318
826,745;15182,015;   -0,745;   -1,045
827,309;15517,644;    2,255;    1,318
827,872;15042,454;    0,527;    0,955
828,436;15882,628;    1,982;   -0,773
828,999;15971,257;    2,436;    1,227
829,563;14964,886;   -0,654;    1,136
830,126;14791,151;   -0,018;   -0,591
830,690;14842,598;    0,709;    2,864
831,253;14383,045;   -0,473;    2,227
831,816;14499,310;   -0,018;    0,500
832,380;14426,939;    1,164;    0,864
832,943;14648,840;    3,073;   -0,500
833,506;14198,560;    0,255;   -1,227
834,069;14886,552;    2,164;   -0,955
834,632;14956,090;   -2,200;    1,318
835,195;14904,628;    1,346;    0,955
835,758;14199,620;    0,709;    1,955
836,321;14038,795;    1,073;   -1,045
836,884;14146,151;   -1,291;   -0,955
837,447;14196,688;    0,528;    1,773
838,010;14464,408;    1,800;    3,227
838,573;14672,946;    0,528;    0,773
839,135;14668,575;   -0,109;   -0,955
839,698;14200,931;    2,528;    0,409
840,261;13801,650;    0,255;   -0,227
840,823;13660,006;   -0,927;    0,864
841,386;13947,362;   -0,018;   -2,409
841,948;13876,173;    0,255;    1,773
842,511;13602,529;    0,255;    1,682
843,073;13732,158;    2,982;    0,227
843,636;13576,423;    0,619;   -0,227
844,198;13507,415;    1,255;    0,591
844,760;13601,862;    0,619;    1,955
845,322;13281,127;    0,164;    1,136
845,885;13640,574;   -0,290;    0,591
846,447;14058,112;    0,710;    0,227
847,009;13717,923;    3,983;   -0,682
847,571;13967,279;    1,346;   -2,045
848,133;14026,089;   -0,199;   -1,864
848,695;13868,991;    2,346;    1,409
849,257;13505,983;    1,346;   -1,682
849,819;13662,067;    2,983;   -0,409
850,381;13656,604;    1,801;   -0,864
850,942;13987,869;    1,892;   -0,591
851,504;13924,589;    0,983;    0,227
852,066;13963,218;    1,619;   -1,591
852,628;13580,665;    0,165;    1,955
853,189;13156,657;    0,256;    2,682
853,751;13314,831;   -0,654;    1,409
854,312;13108,460;    1,256;   -1,682
854,874;13553,634;   -0,108;   -0,773
855,435;13994,990;    0,528;   -1,682
855,997;14117,437;    3,983;   -0,136
856,558;13523,521;    0,801;    1,773
857,119;13584,059;   -0,744;    2,864
857,681;13305,324;   -0,108;    0,318
858,242;13342,589;    1,347;   -2,136
858,803;13759,945;    1,074;   -0,773
859,364;14302,664;    0,892;   -4,773
859,925;13740,930;   -0,290;   -0,955
860,486;13617,286;    0,529;   -0,955
861,047;13357,096;    0,165;   -1,227
861,608;13174,452;    0,165;   -0,773
862,169;13360,808;   -0,562;   -0,045
862,730;13158,710;   -0,290;    1,409
863,291;13384,248;    0,438;   -0,500
863,852;13662,240;   -0,926;    1,955
864,412;13203,778;   -1,835;   -0,864
864,973;12027,316;    1,892;    0,500
865,534;11867,126;    2,074;    0,227
866,094;13145,119;    2,620;    0,227
866,655;12861,929;    4,711;    3,318
867,215;13163,103;    0,074;    0,136
867,776;13016,641;   -1,199;   -0,136
868,336;13083,361;    1,529;    0,136
868,897;12671,717;    3,438;    1,682
869,457;12458,891;    3,256;    0,318
870,017;12668,611;    2,438;   -1,227
870,578;13147,149;    1,893;    0,773
871,138;12751,232;    2,620;   -0,955
871,698;12378,315;   -0,562;   -1,318
872,258;12289,853;    0,711;   -2,864
872,818;12641,027;    2,347;    0,045
873,378;12600,292;   -2,198;    1,045
873,938;12176,194;    4,984;    0,500
874,498;12464,005;    1,256;   -1,955
875,058;12432,815;    4,347;    1,773
875,618;12287,262;    1,438;   -2,682
876,177;12247,164;   -0,471;    0,136
876,737;11869,338;   -0,289;    1,955
877,297;11922,603;    2,711;    1,955
877,856;11922,504;    2,529;    0,318
878,416;11874,769;    2,438;   -0,136
878,976;12102,398;    3,438;    0,409
879,535;12253,754;    4,529;    3,136
880,095;12068,383;    1,347;    0,045
880,654;12138,012;    0,347;    1,318
881,213;12262,731;    2,347;    1,500
881,773;11916,906;    1,984;    2,682
882,332;12239,171;    6,075;    5,136
882,891;12135,254;    0,711;    2,136
883,451;12495,246;   -2,016;    1,682
884,010;11941,057;   -1,107;   -0,409
884,569;12086,140;   -2,289;   -0,045
885,128;12186,951;   -0,743;   -1,864
885,687;12276,762;   -0,743;    0,682
886,246;12034,208;    2,620;    2,136
886,805;11794,655;    1,620;    2,045
887,364;12012,102;    1,166;   -0,500
887,922;12333,913;   -0,016;    0,045
888,481;11834,542;    1,530;    0,591
889,040;12146,898;    3,711;    2,136
889,599;12667,345;    2,166;    1,409
890,157;12761,428;    2,166;    2,409
890,716;12399,057;    2,166;    0,227
891,274;12257,049;    0,075;   -1,136
891,833;12613,587;    1,166;    0,864
892,391;12498,307;    1,802;    0,500
892,950;12540,844;    0,166;   -0,773
893,508;12887,110;    0,984;   -0,409
894,067;12266,102;   -0,379;    0,136
894,625;12201,367;   -1,016;   -1,500
895,183;12456,087;   -0,198;   -0,682
895,741;12376,988;    2,257;   -1,773
896,299;12192,162;    1,621;   -2,409
896,858;12334,973;    1,530;   -1,591
897,416;12467,420;    0,166;   -1,318
897,974;12261,321;   -2,197;    0,318
898,532;12428,677;    6,530;    2,682
899,089;12326,215;    0,621;   -0,682
899,647;12418,299;    0,530;    1,318
900,205;12218,018;    0,257;    1,045
900,763;12373,647;    2,166;    0,227
901,321;12392,367;    3,530;   -1,409
901,878;11880,086;    3,257;   -0,773
902,436;11773,715;    0,257;    1,318
902,994;12140,435;    6,712;    3,682
903,551;11679,336;    1,439;    0,409
904,109;12057,329;    1,530;   -1,409
904,666;11731,867;    1,439;    1,045
905,224;11557,768;    3,894;   -0,409
905,781;11369,760;   -0,470;   -0,318
906,338;11402,844;    0,167;    1,045
906,895;11349,200;    1,894;    2,045
907,453;11293,465;    2,348;    1,136
908,010;11330,457;    3,348;    0,409
908,567;11014,631;   -0,561;    0,591
909,124;10588,624;    2,439;   -1,500
909,681;10676,889;   -1,288;    0,682
910,238;10858,700;   -0,106;   -1,318
910,795;11150,510;   -1,561;   -1,136
911,352;10824,237;   -0,379;   -2,682
911,909;10307,692;    2,803;   -0,864
912,466;10761,601;    1,985;    1,500
913,022;10354,146;   -0,924;    0,500
913,579;10726,237;   -0,470;    2,045
914,136;10475,419;   -2,561;    0,955
914,692;10802,237;    1,530;   -1,227
915,249;10448,510;    0,530;    0,409
915,806;10590,692;    1,803;    1,955
916,362;10462,237;    0,894;    1,864
916,918;10061,237;    2,439;    1,045
917,475;10050,328;    1,621;    0,955
918,031;10124,237;    0,076;   -0,045
918,587; 9682,419;    0,621;   -0,318
919,144; 9905,419;   -0,379;    0,227
919,700;10151,510;    0,167;    0,773
920,256; 9807,419;    0,439;    0,045
920,812; 9510,783;    1,439;   -1,045
921,368; 9513,874;    1,348;   -1,045
921,924; 9219,510;    0,439;   -0,136
922,480; 8870,874;    0,076;    1,227
923,036; 9425,419;   -0,652;    1,955
923,592; 9383,783;    0,621;    0,318
924,148; 9348,328;    1,894;   -0,955
924,704; 8801,874;    0,258;   -0,409
925,259; 9089,146;   -0,561;    0,591
925,815; 8867,692;    3,803;    0,500
926,371; 8452,419;    3,530;    1,409
926,926; 8397,237;    1,621;    0,591
927,482; 8103,692;    1,621;    0,773
928,037; 8012,783;   -0,833;    2,045
928,593; 8276,328;    0,258;    1,045
929,148; 8140,692;    1,167;   -1,500
929,704; 7739,601;    2,439;   -0,500
930,259; 7906,965;    0,894;   -0,136
930,814; 7167,874;    1,803;    1,955
931,369; 6945,965;    0,258;   -0,773
931,925; 6852,510;   -1,924;    0,136
932,480; 6829,783;    3,076;   -2,591
933,035; 6791,783;    3,985;   -0,318
933,590; 6607,056;   -1,742;   -1,773
934,145; 6305,510;   -1,288;   -0,318
934,700; 6616,510;    0,348;   -0,591
935,255; 6487,056;    4,803;    0,045
935,809; 5947,510;    6,258;    0,864
936,364; 5277,783;    2,167;   -0,136
936,919; 5288,237;    2,348;   -1,773
937,474; 5212,783;    1,348;    0,136
938,028; 5027,419;    3,076;    1,136
938,583; 4700,692;    6,348;    4,682
939,138; 4897,783;    0,167;    2,136
939,692; 4476,965;   -1,015;   -1,136
940,247; 4249,237;    1,167;   -1,045
940,801; 3970,692;    0,621;    0,227
941,355; 3891,328;    0,439;    2,591
941,910; 3592,328;    0,712;   -2,136
942,464; 3725,419;    2,712;   -0,318
943,018; 3643,056;    3,258;   -0,227
943,572; 3579,237;    2,803;   -0,682
944,126; 3147,056;   -0,924;   -0,409
944,681; 3027,056;    0,712;    0,227
945,235; 3006,510;    2,167;   -0,591
945,789; 2953,419;    1,258;   -1,864
946,342; 3139,328;   -0,561;   -0,591
946,896; 2905,965;    0,348;    0,955
947,450; 2681,056;   -0,561;   -0,227
948,004; 2928,146;    1,076;   -0,045
948,558; 2905,419;    1,258;   -0,864
949,111; 2833,692;   -1,197;   -0,318
949,665; 2953,328;   -0,106;   -0,682
950,219; 2844,874;    0,621;   -1,045
950,772; 2861,146;    0,258;    1,864
951,326; 2792,874;   -1,106;   -0,955
951,879; 2823,874;    1,076;   -2,318
952,433; 2886,419;    1,348;    2,227
952,986; 2724,692;    0,348;    0,682
953,539; 2660,510;    1,530;    0,591
954,093; 2639,328;    0,985;   -1,318
954,646; 2774,419;   -0,288;    1,318
955,199; 2588,146;    1,258;   -0,500
955,752; 2577,874;    1,985;    1,773
956,305; 2505,510;    0,894;    2,955
956,858; 2646,783;    0,621;   -0,318
957,411; 2774,510;    3,621;    2,136
957,964; 2621,146;    2,076;    2,136
958,517; 2584,874;    0,985;    3,136
959,070; 2470,965;   -1,197;    1,955
959,623; 2630,328;    1,076;    1,500
960,176; 2427,146;    0,712;    2,045
960,728; 2402,146;    1,712;    0,773
961,281; 2455,874;    2,258;    0,500
961,834; 2446,510;   -0,833;    0,864
962,386; 2386,874;    1,258;    1,045
962,939; 2324,328;    3,439;   -0,318
963,491; 2426,783;    2,621;    1,136
964,043; 2325,874;    0,076;    2,409
964,596; 2480,237;    1,712;    2,227
965,148; 2323,237;   -0,379;    1,773
965,700; 2245,237;   -0,015;   -0,227
966,253; 2401,692;   -0,833;    0,318
966,805; 2278,874;    1,894;    0,773
967,357; 2277,692;    0,439;   -1,500
967,909; 2292,965;    1,167;   -1,227
968,461; 2321,510;    0,894;    3,136
969,013; 2255,692;   -1,561;   -0,864
969,565; 2359,056;    1,803;   -1,136
970,117; 2553,601;    3,803;    1,045
970,669; 2304,146;    3,258;   -0,136
971,220; 2128,328;    2,167;   -1,500
971,772; 2117,237;    1,348;   -0,318
972,324; 2224,783;   -1,197;   -0,500
972,876; 2143,419;    0,167;   -0,045
973,427; 2315,237;   -1,197;   -1,045
973,979; 2309,783;    0,076;   -2,500
974,530; 2243,237;    0,803;    1,318
975,082; 2252,601;    2,167;    1,682
975,633; 2179,965;    2,894;    1,682
976,184; 2323,328;    2,076;    0,773
976,736; 2171,692;    0,348;    0,227
977,287; 2034,965;    0,258;   -0,500
977,838; 2157,510;   -0,924;   -0,318
978,389; 2208,146;    0,803;   -0,500
978,940; 2067,328;    1,258;   -0,409
979,491; 2083,056;    2,258;   -0,500
980,042; 2077,237;   -0,652;    3,045
980,593; 2097,328;    1,894;    0,227
981,144; 2188,237;    3,530;   -0,500
981,695; 2207,419;   -0,470;    1,500
982,246; 2155,056;   -1,833;    1,045
982,797; 2208,056;   -0,561;    0,682
983,347; 2352,874;    2,167;    0,591
983,898; 2523,692;    4,167;    0,409
984,449; 2398,419;    2,530;    0,773
984,999; 2229,601;    1,894;   -1,136
985,550; 2065,510;    3,167;   -0,318
986,100; 2054,237;    0,712;   -0,318
986,651; 2073,146;    0,258;    0,045
987,201; 2069,965;    0,894;   -0,591
987,751; 2135,328;   -0,288;    2,864
988,302; 2144,056;   -0,379;    1,500
988,852; 2150,601;    1,985;   -1,136
989,402; 2243,874;    0,985;    0,682
989,952; 2178,601;    1,621;    0,864
990,502; 2210,328;    1,076;    0,682
991,052; 2127,419;   -0,106;    0,045
991,602; 2042,601;    1,167;    1,318
992,152; 2068,056;    2,803;    0,682
992,702; 2066,874;    1,167;   -0,045
993,252; 2001,874;    0,076;   -0,500
993,802; 2097,874;    1,167;    1,318
994,352; 2246,692;   -0,742;    1,136
994,901; 2277,783;    1,076;    3,227
995,451; 2234,601;   -1,197;    0,318
996,000; 2300,510;    1,076;    0,318
996,550; 2106,237;    2,894;    0,227
997,100; 2084,056;   -0,561;   -0,045
997,649; 2340,419;   -0,197;    0,955
998,198; 2039,965;   -0,288;   -1,500
998,748; 2220,056;    0,348;   -2,318
999,297; 2109,965;    0,985;   -0,409
999,846; 2213,510;    1,894;   -0,773
1000,395; 2209,783;    1,530;    0,500
1000,945; 2236,965;    1,076;   -0,773
1001,494; 2307,965;    0,167;    0,682
1002,043; 2269,237;    0,712;    0,864
1002,592; 2092,692;    3,439;    1,955
1003,141; 2216,419;    2,439;   -0,682
1003,690; 2137,237;    1,258;    0,500
1004,238; 2134,510;   -0,106;   -0,045
1004,787; 1848,601;   -1,288;    1,227
1005,336; 2130,328;    1,621;    0,682
1005,885; 2195,874;   -0,197;   -2,773
1006,433; 2258,328;   -0,470;    0,955
1006,982; 2420,056;    2,167;    1,682
1007,531; 2278,328;    2,712;   -0,227
1008,079; 2199,783;    0,258;    0,500
1008,627; 2284,146;    1,621;    0,409
1009,176; 2095,874;    0,076;   -1,955
1009,724; 2131,237;   -2,742;    0,864
1010,273; 2228,419;    1,076;    0,500
1010,821; 2280,510;    1,076;    1,409
1011,369; 2057,783;    0,076;    1,318
1011,917; 2047,328;   -0,833;   -0,591
1012,465; 2311,056;    2,530;   -1,591
1013,013; 2361,601;    0,439;   -1,682
1013,561; 2327,328;   -1,288;   -0,773
1014,109; 2414,874;   -0,833;    1,682
1014,657; 2266,965;    1,348;    0,591
1015,205; 2299,965;    0,894;   -0,955
1015,753; 2303,601;    0,258;   -1,409
1016,301; 2351,146;    2,621;    3,045
1016,848; 2367,419;    2,167;    0,409
1017,396; 2409,874;    1,621;    0,045
1017,944; 2507,510;    2,621;    1,864
1018,491; 2276,328;   -0,197;    1,409
1019,039; 2547,692;   -0,652;    0,591
1019,586; 2363,328;    0,076;    1,682
1020,134; 2398,146;    0,712;    1,500
1020,681; 2469,692;    2,894;   -1,136
1021,228; 2430,056;   -0,561;   -2,227
1021,776; 2286,783;   -0,833;   -1,136
1022,323; 2548,601;    0,803;    0,773
1022,870; 2486,237;   -0,470;   -0,045
1023,417; 2417,783;    2,076;    1,864
1023,964; 2454,692;    0,621;    1,227
1024,511; 2361,328;   -0,652;    0,773
1025,058; 2192,328;    0,439;   -0,045
1025,605; 2224,056;   -1,742;    3,136
1026,152; 2479,965;   -0,106;   -0,591
1026,699; 2214,146;    0,167;    1,318
1027,245; 2332,874;    2,439;    0,318
1027,792; 2446,874;    0,712;    1,409
1028,339; 2453,419;    4,076;   -0,045
1028,885; 2303,783;    3,621;   -0,227
1029,432; 2234,510;   -0,106;    0,227
1029,978; 2326,965;    1,348;   -1,591
1030,525; 2226,237;    1,621;    0,409
1031,071; 2376,237;    0,348;    1,136
1031,618; 2577,874;    1,258;    1,682
1032,164; 2347,056;    2,076;    3,045
1032,710; 2382,510;    0,076;   -1,500
1033,256; 2302,237;    0,712;   -0,136
1033,803; 2235,601;   -0,288;    1,500
1034,349; 2013,874;    1,803;    0,136
1034,895; 2149,510;    2,621;   -0,318
1035,441; 2147,237;    0,439;    0,318
1035,987; 2197,783;   -2,288;   -0,682
1036,533; 2220,601;   -0,197;   -0,955
1037,078; 2423,237;    4,712;    1,682
1037,624; 2238,510;    2,439;   -0,955
1038,170; 2219,328;    1,712;   -0,318
1038,716; 2178,783;    2,167;   -0,409
1039,261; 2063,510;    2,167;   -0,773
1039,807; 2024,328;   -0,015;    3,409
1040,352; 2118,419;   -1,288;   -0,318
1040,898; 2135,874;    0,167;   -0,682
1041,443; 2040,056;    0,803;   -2,591
1041,989; 2179,328;    3,621;    1,591
1042,534; 2020,783;    0,985;    2,591
1043,079; 2064,146;    1,985;    0,955
1043,625; 1928,237;    0,258;    0,500
1044,170; 2000,692;    2,439;    1,045
1044,715; 2252,510;    0,167;    0,955
1045,260; 2083,146;   -0,833;   -0,955
1045,805; 2059,146;    0,258;   -0,591
1046,350; 1996,237;    0,530;   -0,409
1046,895; 2050,056;    0,803;    1,591
1047,440; 2020,510;    1,530;    0,409
1047,985; 1886,783;   -1,197;   -0,955
1048,530; 1810,874;    1,348;    1,227
1049,074; 1889,965;    2,803;    0,318
1049,619; 1845,328;   -0,924;    1,955
1050,164; 1693,328;    1,076;    0,227
1050,708; 1749,692;    2,621;    0,045
1051,253; 2150,601;    3,258;   -2,227
1051,797; 1858,237;   -0,197;   -1,318
1052,342; 1784,146;    1,348;    1,045
1052,886; 1807,510;    1,803;   -1,409
1053,430; 1687,692;    2,167;    0,136
1053,975; 1716,965;    0,894;   -0,318
1054,519; 1725,510;    1,803;    3,227
1055,063; 1790,783;    3,621;    1,318
1055,607; 1709,510;    1,348;    0,227
1056,151; 1709,783;    0,530;    1,682
1056,695; 1598,601;   -1,833;   -1,136
1057,239; 1656,328;   -1,197;   -0,682
1057,783; 1680,965;    2,258;   -1,500
1058,327; 1679,237;    3,076;    1,409
1058,871; 1905,328;    3,985;    1,318
1059,415; 1630,237;   -0,561;   -0,045
1059,958; 1910,874;    2,985;    2,591
1060,502; 1617,146;    1,348;   -0,773
1061,046; 1486,874;    1,712;   -0,955
1061,589; 1467,056;    2,803;   -1,136
1062,133; 1384,874;    0,985;    1,864
1062,676; 1366,874;    1,439;    0,864
1063,220; 1384,510;    0,985;    0,500
1063,763; 1406,146;    2,985;    1,136
1064,306; 1479,692;    0,985;    1,864
1064,849; 1401,692;    2,076;    0,591
1065,393; 1394,783;    2,894;   -1,500
1065,936; 1481,419;    2,530;   -0,409
1066,479; 1348,056;    2,621;    1,318
1067,022; 1380,692;    1,894;   -0,227
1067,565; 1283,965;   -1,197;   -1,318
1068,108; 1304,146;    1,258;   -0,591
1068,651; 1266,510;   -2,470;    1,409
1069,194; 1223,419;   -1,106;   -1,682
1069,736; 1248,965;    3,803;    0,955
1070,279; 1217,783;   -1,652;   -0,500
1070,822; 1291,419;    1,530;   -0,318
1071,364; 1416,783;    0,530;    1,318
1071,907; 1216,328;    0,348;    3,227
1072,450; 1076,692;    0,258;   -0,045
1072,992; 1112,419;   -0,561;    3,136
1073,535; 1262,874;    0,167;    2,136
1074,077; 1056,056;    2,985;    2,045
1074,619; 1040,419;    0,985;    0,591
1075,161; 1088,056;   -0,561;    1,500
1075,704; 1272,601;    0,258;    1,227
1076,246; 1050,510;    1,530;    0,682
1076,788;  961,692;   -1,015;    1,773
1077,330; 1025,056;   -2,106;    2,136
1077,872; 1031,146;   -1,924;    0,955
1078,414; 1271,783;    3,712;    0,773
1078,956; 1009,510;    0,167;   -0,227
1079,498; 1274,692;    0,439;    0,318
1080,040; 1003,419;    0,985;   -1,318
1080,581;  934,237;    0,621;   -0,318
1081,123;  843,510;   -0,106;   -0,773
1081,665;  880,056;    3,803;   -0,955
1082,206; 1194,874;    3,258;   -0,500
1082,748; 1060,601;    3,258;    2,045
1083,289;  934,874;    0,167;    1,318
1083,831;  873,146;    0,258;    0,227
1084,372;  926,146;    0,894;    0,591
1084,913;  917,056;    3,348;    0,864
1085,455;  872,419;    1,530;   -2,045
1085,996;  863,874;    0,530;    0,136
1086,537;  896,874;    0,985;    0,864
1087,078;  912,874;    0,439;   -2,136
1087,619;  957,328;   -1,652;    0,227
1088,160;  876,783;    1,439;    1,318
1088,701;  858,237;   -0,742;    0,682
1089,242;  813,783;   -0,561;   -2,227
1089,783;  901,965;   -0,561;    1,409
1090,324;  880,874;   -0,833;    0,682
1090,865;  766,601;   -1,924;   -0,409
1091,405;  714,692;   -0,561;    2,227
1091,946;  750,419;   -0,197;   -0,955
1092,487;  676,692;   -1,288;   -1,409
1093,027;  860,146;    1,803;   -1,500
1093,568;  722,874;    2,258;    1,227
1094,108;  813,328;    0,621;    1,773
1094,649;  754,783;   -0,470;    0,136
1095,189;  696,146;    1,167;   -0,682
1095,729;  659,874;    0,712;    0,955
1096,269;  655,692;    1,258;   -0,955
1096,810;  959,965;   -0,197;    0,500
1097,350;  806,692;   -0,561;   -0,773
1097,890;  707,783;    2,985;    1,227
1098,430;  962,328;    4,985;    2,864
1098,970;  838,328;    1,894;    1,682
1099,510;  687,328;   -0,833;   -2,318
1100,050;  631,146;    0,258;   -1,591
1100,589;  615,237;    0,076;   -0,318
1101,129;  739,510;    0,894;   -0,955
1101,669;  873,419;    2,803;    2,136
1102,209;  708,237;    1,530;    2,227
1102,748;  665,783;    3,439;    0,955
1103,288;  654,419;    0,712;   -1,227
1103,827;  674,328;    3,530;   -2,227
1104,367;  567,146;    1,712;   -2,409
1104,906;  545,965;   -1,015;   -1,136
1105,445;  620,328;    0,985;   -1,136
1105,985;  569,146;   -0,652;    1,500
1106,524;  605,783;    1,530;   -0,682
1107,063;  589,419;    1,167;    1,409
1107,602;  557,328;    1,894;   -1,500
1108,141;  497,783;    1,621;    1,500
1108,680;  593,056;    3,985;   -0,591
1109,219;  523,874;    0,167;   -0,500
1109,758;  535,510;    4,167;    0,682
1110,297;  506,237;   -1,106;   -0,682
1110,836;  466,146;    1,439;    0,955
1111,375;  613,056;    0,348;    0,409
1111,913;  629,146;    0,985;    0,773
1112,452;  570,328;    0,894;    0,136
1112,991;  457,692;    1,076;    1,955
1113,529;  430,601;    0,167;   -0,045
1114,068;  492,237;    0,439;    2,955
1114,606;  401,056;   -0,561;   -0,955
1115,144;  550,783;    1,530;    1,045
1115,683;  498,419;    1,985;    0,318
1116,221;  534,601;    2,076;   -0,864
1116,759;  451,692;    1,621;   -0,864
1117,297;  631,510;    1,621;    1,864
1117,836;  455,692;    1,985;   -1,227
1118,374;  466,146;    0,258;   -0,682
1118,912;  418,237;    0,439;    2,682
1119,450;  412,056;    0,985;    0,864
1119,988;  447,237;    3,348;    2,136
1120,525;  887,601;    7,258;    3,318
1121,063;  601,419;    0,530;    1,864
1121,601;  427,783;    1,076;   -1,227
1122,139;  383,510;    1,076;   -2,045
1122,676;  567,601;   -1,652;    2,773
1123,214;  502,056;    0,712;    4,409
1123,751;  340,419;    0,621;    2,227
1124,289;  450,056;    0,894;   -0,409
1124,826;  344,328;   -0,379;    0,227
1125,364;  269,328;    0,712;   -0,955
1125,901;  445,965;    6,258;    1,227
1126,438;  537,874;    3,530;    0,955
1126,975;  292,692;    2,985;   -0,773
1127,513;  359,056;    2,621;    2,136
1128,050;  279,783;   -0,561;   -0,682
1128,587;  372,237;    1,348;   -0,227
1129,124;  408,510;   -0,015;    1,318
1129,661;  293,965;   -1,924;    0,227
1130,198;  444,237;    2,439;    0,773
1130,734;  385,874;   -0,379;    1,409
1131,271;  259,692;   -1,197;    0,864
1131,808;  412,783;    1,621;    3,045
1132,345;  306,510;    4,530;    0,318
1132,881;  184,237;   -0,561;   -1,864
1133,418;  318,510;    0,348;   -1,136
1133,954;  254,056;    0,712;   -2,682
1134,491;  320,237;    1,712;   -0,773
1135,027;  231,692;    2,167;    0,864
1135,564;  309,237;    1,439;    2,955
1136,100;  304,419;   -0,742;    2,136
1136,636;  204,056;   -1,015;   -1,045
1137,172;  291,965;    0,894;   -1,045
1137,708;  222,783;   -1,561;   -1,045
1138,245;  227,783;    0,803;   -1,227
1138,781;  179,510;    1,803;   -3,318
1139,317;  243,692;    1,894;   -1,409
1139,852;  236,692;    3,076;    0,136
1140,388;  329,692;    2,076;   -0,409
1140,924;  237,510;    1,076;   -2,227
1141,460;  184,419;   -0,288;    0,136
1141,996;  122,783;   -0,652;    2,682
1142,531;  165,965;    1,076;    3,318
1143,067;  357,056;    1,167;    1,045
1143,602;  413,237;    3,439;   -0,318
1144,138;  266,328;    0,803;    1,045
1144,673;  151,419;    1,621;    1,409
1145,209;  201,328;    2,894;   -0,318
1145,744;  139,056;    0,803;    0,864
1146,279;  259,510;    1,530;   -0,136
1146,815;  186,146;    1,530;   -2,682
1147,350;  215,874;   -0,924;    0,045
1147,885;  140,783;   -1,924;   -1,318
1148,420;  137,056;    2,439;    0,773
1148,955;  131,783;   -1,470;    1,864
1149,490;  150,874;   -1,106;   -1,591
1150,025;  132,601;   -1,106;   -1,773
1150,560;  238,692;   -0,288;   -0,955
1151,094;  205,328;    0,258;   -0,591
1151,629;  207,692;   -3,742;    0,864
1152,164;  145,965;   -1,288;    1,318
1152,698;  113,510;    1,258;   -0,136
1153,233;   78,601;   -1,379;   -0,682
1153,767;  117,510;   -0,288;   -2,318
1154,302;  161,601;   -0,379;    1,773
1154,836;  160,692;    0,803;   -2,136
1155,371;  201,056;    2,258;    3,682
1155,905;  165,965;    1,985;    1,682
1156,439;  134,965;    0,530;   -0,500
1156,973;  167,510;    0,439;    0,318
1157,507;  109,328;   -1,742;    0,682
1158,042;  136,237;   -0,652;    1,045
1158,576;  170,601;   -0,561;    1,773
1159,110;  174,056;    0,076;    2,409
1159,643;  143,783;   -2,470;   -0,045
1160,177;   91,692;   -2,015;    1,500

