
Integration time [ms]:   0,040
Averaging Nr. [scans]: 11
Smoothing Nr. [pixels]: 0
Data measured with spectrometer [name]: 7318044SP
Wave   ;Sample   ;Dark     ;Reference
[nm]   ;[counts] ;[counts] ;[counts] 

186,757;   29,351;   38,161;    1,318
187,357;   61,579;   26,706;    0,955
187,958;   33,472;   17,252;   -1,591
188,558;   71,575;   12,979;   -1,227
189,159;   55,516;   10,070;   -4,500
189,759;   24,332;    5,797;   -3,591
190,360;   18,214;    6,797;   -2,136
190,960;   53,616;    5,706;   -4,136
191,560;   60,704;    2,614;   -6,591
192,161;  279,659;    5,885;   -3,500
192,761;  141,157;    5,520;   -3,227
193,361;   96,944;    3,065;   -3,773
193,962;  140,742;    1,612;   -2,682
194,562;   72,010;   -0,114;   -3,955
195,162;  103,790;   -0,567;   -2,227
195,762;  258,753;    2,433;   -0,045
196,362;  205,955;    1,706;   -2,500
196,963;   78,711;    1,706;   -0,864
197,563;  145,827;    1,252;   -0,955
198,163;  100,840;   -0,111;   -0,682
198,763;  123,131;   -0,020;   -0,500
199,363;  219,680;    3,616;   -0,500
199,963;  182,007;    2,162;    0,409
200,563;  159,847;    6,344;   -1,409
201,163;  135,261;    5,435;   -0,227
201,763;  227,275;    1,435;    0,318
202,363;  158,335;    0,980;    1,500
202,963;  253,317;    1,526;    1,045
203,563;  359,572;    0,344;    0,500
204,162;  220,215;    1,889;   -1,864
204,762;  208,855;    2,071;    0,591
205,362;  186,735;    0,708;    1,955
205,962;  272,918;    3,435;    1,955
206,562;  268,221;    1,889;    2,318
207,161;  232,691;    1,708;    0,318
207,761;  387,335;    4,435;    2,409
208,361;  270,719;    1,889;    1,409
208,960;  366,736;    2,889;    1,500
209,560;  423,247;    0,435;    1,591
210,160;  403,178;    5,071;    1,864
210,759;  363,230;    0,708;    1,227
211,359;  375,658;   -0,474;    1,045
211,958;  628,205;    3,526;    2,045
212,558;  701,877;    0,799;    1,864
213,157;  540,694;   -0,929;    1,500
213,757;  957,986;    5,617;   -0,227
214,356;  679,165;    1,708;   -0,409
214,956;  990,388;    3,526;    0,409
215,555;  617,335;    0,617;    2,136
216,154;  561,631;   -0,292;   -0,591
216,754;  565,492;    1,253;    0,773
217,353;  694,183;   -0,383;   -1,045
217,952;  545,415;    2,072;    0,318
218,552;  771,940;    0,254;   -0,773
219,151;  666,619;   -1,110;    0,955
219,750;  673,084;    0,890;   -0,227
220,349;  763,811;   -2,292;    1,045
220,948;  859,244;    1,163;    1,136
221,548;  842,157;    0,617;    1,227
222,147;  936,649;   -1,292;   -0,409
222,746; 1221,943;    1,254;   -0,955
223,345; 1100,656;   -1,019;    0,500
223,944; 1096,397;    1,163;    0,773
224,543; 1240,852;    4,072;   -1,409
225,142; 1357,575;    1,345;    0,136
225,741; 1254,317;    1,163;    1,045
226,340; 1268,962;    1,254;   -0,955
226,939; 1696,146;    2,708;   -0,136
227,538; 1612,221;    1,163;   -0,773
228,137; 1768,291;    0,435;    0,864
228,735; 1868,585;    0,435;    1,227
229,334; 1633,263;   -0,474;   -0,227
229,933; 2013,904;    0,799;    0,591
230,532; 2122,520;   -1,201;   -0,409
231,131; 2174,985;    1,253;    0,318
231,729; 2279,828;    1,163;   -2,318
232,328; 2360,595;    0,435;   -1,500
232,927; 2410,361;    4,526;   -0,500
233,525; 2494,772;    0,981;    0,045
234,124; 2691,497;    1,890;   -1,591
234,723; 2703,692;    1,617;   -1,045
235,321; 2827,059;    1,163;    0,136
235,920; 3031,261;    2,526;   -1,227
236,518; 3290,810;    1,072;    0,318
237,117; 3431,658;    2,890;   -0,227
237,715; 3595,037;    1,163;   -0,500
238,314; 3625,366;    1,708;   -2,318
238,912; 3722,571;    0,526;   -1,409
239,510; 3764,656;    1,162;   -1,227
240,109; 3918,825;   -0,474;    3,773
240,707; 3935,515;   -0,474;    1,227
241,305; 4234,391;   -0,383;    0,136
241,904; 4423,027;   -0,292;   -2,045
242,502; 4411,418;    3,253;   -0,227
243,100; 4356,534;    3,344;   -0,955
243,698; 4569,277;    2,799;    1,682
244,297; 4717,060;   -0,656;    0,682
244,895; 4577,102;   -0,474;   -2,318
245,493; 4887,777;    2,981;   -0,591
246,091; 4899,201;    5,163;   -1,318
246,689; 4913,768;    2,163;    0,591
247,287; 5033,947;   -0,019;   -1,136
247,885; 5307,981;   -1,019;    1,227
248,483; 5379,218;   -0,201;   -0,500
249,081; 5475,467;    0,981;    1,591
249,679; 5596,847;   -1,019;    1,682
250,277; 5832,492;   -2,292;    0,864
250,875; 5814,604;    0,617;   -1,045
251,473; 5830,751;   -0,019;    0,500
252,071; 6011,945;   -0,383;    1,045
252,669; 6153,215;   -1,565;    0,318
253,267; 6411,862;    1,618;    0,773
253,864; 6355,584;    0,617;    0,682
254,462; 6258,589;    1,526;    1,591
255,060; 6207,786;    0,072;    1,318
255,658; 6472,578;   -3,292;   -0,136
256,255; 6866,696;   -0,201;   -2,045
256,853; 6733,981;    2,345;    1,409
257,451; 6719,455;    1,981;    1,864
258,048; 6986,288;    2,072;    1,864
258,646; 6766,883;    0,436;   -1,045
259,243; 6920,435;    2,981;    2,227
259,841; 6966,807;    1,799;    0,318
260,438; 6877,118;    0,254;    0,864
261,036; 7529,154;    0,617;    1,409
261,633; 7434,627;    1,526;    2,227
262,231; 7199,392;   -0,110;   -0,045
262,828; 7300,392;   -0,383;    1,136
263,425; 7336,512;   -1,928;   -0,591
264,023; 7593,422;    1,436;    0,045
264,620; 7123,198;    1,526;   -0,318
265,217; 7457,012;    2,890;    3,136
265,815; 7588,872;    2,527;    2,136
266,412; 7364,242;    0,072;    0,136
267,009; 7407,385;    0,526;    0,773
267,606; 7359,156;    0,345;   -0,955
268,203; 7319,820;   -0,383;   -0,591
268,801; 7586,077;   -0,474;    0,591
269,398; 7843,759;   -0,564;    2,500
269,995; 7819,028;    0,890;    1,591
270,592; 7629,559;    0,799;   -0,500
271,189; 7769,146;    1,981;    0,409
271,786; 7896,787;    2,072;    1,227
272,383; 7785,021;   -0,383;    0,227
272,980; 7936,229;    1,617;    0,318
273,577; 8341,448;    2,162;    1,227
274,174; 7922,751;    1,435;    2,591
274,771; 7900,397;    1,890;   -0,773
275,367; 8058,197;    3,253;    1,409
275,964; 8032,354;   -0,565;   -0,500
276,561; 8147,515;   -2,474;   -1,045
277,158; 8302,665;    1,799;   -1,773
277,755; 8451,012;   -0,110;    0,409
278,351; 7868,995;    0,436;   -1,500
278,948; 8160,646;   -0,201;    0,045
279,545; 8174,558;    0,527;    2,318
280,141; 8756,358;    1,254;   -2,045
280,738; 8597,257;    2,435;   -0,136
281,334; 8784,395;   -0,383;    0,591
281,931; 8225,495;    2,890;   -1,318
282,528; 8351,715;    4,072;   -0,500
283,124; 9011,044;    3,345;   -0,500
283,721; 8909,125;    0,709;    1,409
284,317; 8716,521;    0,163;    2,500
284,913; 9237,332;   -0,110;    0,591
285,510; 9398,423;    2,890;   -0,318
286,106; 9420,947;    2,345;   -0,955
286,703; 9028,959;    0,072;    1,955
287,299; 9227,079;    1,254;   -0,591
287,895; 9414,221;    0,890;   -1,045
288,491; 9945,486;    0,163;    2,136
289,088; 9702,274;    0,163;    2,409
289,684; 9763,306;    2,890;    1,500
290,280; 9783,966;    1,890;    0,682
290,876; 9835,650;    0,163;    5,500
291,472; 9732,688;    2,163;    2,227
292,068; 9827,359;    1,254;    0,227
292,665; 9555,534;   -0,564;    0,773
293,261; 9229,468;   -1,292;    2,136
293,857; 9597,554;    4,072;    2,136
294,453; 9542,743;   -0,928;    0,955
295,049; 9398,312;    0,253;    1,955
295,644; 9459,972;   -1,292;    0,136
296,240; 9328,943;    0,162;   -0,136
296,836; 9408,406;   -0,747;    0,318
297,432; 9633,536;    2,980;   -0,500
298,028; 9669,128;    0,435;    0,773
298,624;10038,616;    0,889;    1,864
299,220;10239,327;    0,435;    0,591
299,815; 9910,576;    0,526;   -0,409
300,411; 9719,312;    0,435;    1,773
301,007; 9732,373;    1,889;    0,227
301,602; 9808,250;    2,071;   -2,318
302,198; 9942,765;    1,435;   -0,773
302,794;10252,185;    1,526;   -0,500
303,389;10331,849;    1,071;    1,045
303,985;10406,036;    1,253;    1,409
304,580;10372,115;    0,889;    1,591
305,176;10368,925;    0,344;    0,136
305,771;10322,122;   -0,929;   -1,227
306,367;10194,679;    3,071;    0,136
306,962;10508,250;    2,889;    1,500
307,558;10191,658;    2,435;    0,136
308,153;10137,086;   -0,383;   -1,136
308,748;10364,098;    0,162;    1,682
309,344;10336,338;    0,253;   -1,318
309,939;10463,824;    2,071;   -1,318
310,534;10726,854;   -2,020;   -1,682
311,130;10653,396;   -0,656;   -2,500
311,725;10383,591;    0,526;   -0,500
312,320;10689,821;    1,253;    0,045
312,915;10551,469;    2,890;   -1,045
313,510;10601,139;    0,526;   -0,500
314,105;11080,561;   -3,565;    1,409
314,700;10519,029;   -1,656;   -1,045
315,295;10183,479;   -0,020;    0,045
315,890; 9790,746;   -0,292;    0,864
316,485;10102,640;    0,253;   -0,318
317,080;10188,571;   -0,929;    1,591
317,675;10679,800;    3,071;   -0,682
318,270;10144,205;    6,889;    3,318
318,865;10178,044;    2,435;    3,045
319,460;10011,863;   -1,565;    0,591
320,055;10218,574;   -2,565;   -1,227
320,650; 9921,838;   -1,838;   -0,591
321,244; 9960,105;    0,889;   -1,409
321,839;10857,511;    0,980;   -0,227
322,434;10745,366;   -0,111;   -1,591
323,029;10391,214;   -0,474;    1,591
323,623;10268,189;    0,798;    0,773
324,218;10075,907;    2,707;    1,409
324,812; 9985,346;    0,889;    1,591
325,407; 9799,317;   -0,929;    2,045
326,002; 9763,706;    0,526;   -0,409
326,596;10069,638;   -0,656;    1,318
327,191;10251,448;   -0,383;   -1,045
327,785; 9832,001;   -0,747;   -0,227
328,379;10099,290;   -0,383;    0,136
328,974; 9863,313;    1,798;   -3,955
329,568;10053,439;    2,889;   -2,409
330,163; 9922,922;    2,435;    1,045
330,757;10264,644;    0,253;    1,591
331,351; 9613,081;   -0,292;    0,682
331,945; 9899,843;   -0,383;    1,409
332,540; 9514,969;    1,617;   -0,591
333,134; 9667,943;    3,344;    0,773
333,728; 9866,491;    2,799;    0,318
334,322;10181,173;    0,889;   -0,864
334,916; 9526,415;    0,344;    0,955
335,510; 9852,601;   -0,111;   -0,136
336,105;10093,266;   -0,929;    1,591
336,699; 9796,815;   -1,292;    0,591
337,293; 9712,252;    1,071;    0,318
337,887; 9834,935;    0,071;    1,955
338,481; 9936,195;    2,980;    0,591
339,074;10066,891;    2,071;    2,682
339,668; 9903,609;   -0,110;    1,227
340,262;10151,854;    7,708;    3,227
340,856; 9680,636;    1,708;   -0,682
341,450; 9082,605;    0,708;    1,864
342,044; 9903,252;    1,799;    0,136
342,637; 9669,007;    1,162;   -2,136
343,231; 9531,138;   -1,474;    0,682
343,825; 9469,018;   -0,747;   -0,591
344,419; 9464,262;   -0,474;    0,500
345,012; 9271,111;    2,889;    4,045
345,606; 9266,760;   -0,656;    1,591
346,199; 9128,784;   -0,111;   -0,227
346,793; 8734,866;    2,525;    2,045
347,386; 8931,071;    0,889;   -1,136
347,980; 8900,051;   -0,838;   -0,045
348,573; 8713,910;   -1,748;    0,409
349,167; 8436,266;    6,161;    4,773
349,760; 8780,611;    2,252;    2,682
350,354; 8773,260;    1,616;    1,136
350,947; 8498,750;    2,798;    1,682
351,540; 8221,179;    0,616;   -1,409
352,134; 8166,634;   -1,111;    1,136
352,727; 8258,429;   -0,657;    1,136
353,320; 8081,825;    2,343;    0,591
353,913; 7934,449;   -1,929;    1,864
354,507; 8110,071;    0,434;   -1,227
355,100; 8114,470;    0,071;    0,864
355,693; 7455,704;    4,798;    2,409
356,286; 7478,746;    0,980;    2,773
356,879; 7787,841;   -0,475;    1,227
357,472; 7418,165;    0,980;    1,500
358,065; 7632,570;    3,161;    2,500
358,658; 7560,408;    0,798;    2,318
359,251; 7247,729;    0,252;   -0,591
359,844; 6787,451;    0,343;   -1,136
360,437; 6989,677;    0,252;    0,045
361,030; 7248,797;    0,525;   -0,682
361,623; 6873,298;    0,434;    0,318
362,215; 6875,201;    0,979;    2,045
362,808; 6741,257;   -2,293;   -1,682
363,401; 6954,261;    0,798;    0,136
363,994; 6719,882;    3,252;   -1,500
364,586; 6646,152;    0,888;   -1,500
365,179; 6827,191;   -0,203;   -1,136
365,772; 6347,918;   -0,930;    2,045
366,364; 6599,186;    1,524;   -3,227
366,957; 6789,882;    1,342;   -0,045
367,549; 6794,430;   -0,203;   -0,864
368,142; 6464,866;    0,978;   -1,500
368,734; 6663,124;    2,523;   -2,136
369,327; 6653,160;    2,341;   -0,500
369,919; 6569,377;   -1,659;    0,409
370,512; 6399,957;   -1,023;   -0,500
371,104; 6176,199;    2,704;    1,591
371,696; 6338,461;    1,703;   -0,955
372,289; 6394,038;    0,157;    1,136
372,881; 6516,212;    1,156;    1,318
373,473; 6431,898;    4,064;    1,136
374,066; 6265,835;    1,336;    0,500
374,658; 6134,181;    0,879;    1,136
375,250; 6468,297;   -1,668;   -1,409
375,842; 6327,659;   -0,124;   -0,045
376,434; 6213,903;   -2,762;   -0,409
377,026; 6759,050;   -1,855;   -2,500
377,618; 6617,625;    0,779;   -0,682
378,210; 6475,862;    3,141;   -1,955
378,802; 6326,460;    3,412;   -0,591
379,394; 6299,060;    3,411;    0,682
379,986; 6841,009;    1,138;   -0,955
380,578; 6917,848;    1,410;    0,773
381,170; 6310,465;    0,320;    0,045
381,762; 6259,022;   -0,224;    1,409
382,354; 6433,098;   -0,223;   -1,318
382,945; 6545,407;    0,870;    0,318
383,537; 6684,181;    1,144;   -1,955
384,129; 6719,042;    0,963;   -1,136
384,721; 6888,364;    0,418;    0,955
385,312; 6804,475;   -1,399;   -0,955
385,904; 6882,175;   -0,945;    1,591
386,496; 6297,345;    0,691;    1,045
387,087; 6428,357;    0,418;    2,500
387,679; 6467,786;   -0,401;    0,045
388,270; 6598,907;   -2,401;    2,045
388,862; 6717,139;   -0,401;   -0,318
389,453; 6571,440;    1,054;    1,045
390,045; 6817,235;    3,236;   -2,682
390,636; 6777,235;    0,144;   -0,591
391,227; 6623,428;    2,054;   -0,045
391,819; 6700,706;    0,781;    0,773
392,410; 6777,450;    0,600;    0,045
393,001; 6740,978;    1,600;   -1,591
393,593; 6972,959;    0,600;   -0,045
394,184; 6844,027;    0,873;   -0,409
394,775; 6736,029;    1,146;    2,136
395,366; 6939,946;    1,782;    0,773
395,957; 6900,431;   -2,400;    0,136
396,548; 7165,157;    1,054;    2,682
397,139; 7461,090;    2,236;    0,591
397,730; 7219,874;    0,873;    0,955
398,321; 7268,641;    0,509;    0,955
398,912; 7285,496;   -0,764;    0,136
399,503; 7400,652;   -1,945;   -1,409
400,094; 6872,702;   -1,582;    1,682
400,685; 6747,203;    3,600;    0,045
401,276; 6783,735;   -0,400;   -0,955
401,867; 7064,154;   -1,127;    0,773
402,458; 7159,118;    1,509;   -2,318
403,048; 7153,188;    0,146;    0,591
403,639; 6770,477;    1,509;    0,864
404,230; 7020,078;    0,691;    0,318
404,821; 6944,107;   -0,127;    0,045
405,411; 7084,206;   -0,763;   -2,591
406,002; 6708,351;    3,237;   -1,136
406,592; 6610,370;    2,691;    0,045
407,183; 6871,880;    0,328;   -1,500
407,774; 6789,494;    1,419;   -0,136
408,364; 7071,297;    2,600;    0,409
408,954; 6736,678;   -0,036;    1,227
409,545; 6783,741;    1,873;    1,045
410,135; 6333,334;   -1,581;    0,500
410,726; 6479,577;    0,783;    0,318
411,316; 6840,857;    2,237;    0,773
411,906; 6535,326;    0,146;   -0,409
412,497; 6085,492;   -0,490;   -0,045
413,087; 6607,951;    0,783;   -0,227
413,677; 6960,509;   -2,490;    3,864
414,267; 6848,843;   -1,035;    1,409
414,857; 6805,353;    0,419;    4,227
415,448; 7083,505;   -0,763;    0,500
416,038; 6799,878;   -2,945;   -0,591
416,628; 6754,663;    0,965;    0,409
417,218; 6335,254;   -1,762;    3,318
417,808; 6547,400;    0,965;   -0,409
418,398; 6928,312;   -1,035;    2,682
418,988; 6943,547;   -2,217;    0,591
419,578; 7159,996;    3,601;    1,409
420,168; 7475,920;    0,692;   -0,955
420,757; 7070,892;    0,964;   -1,500
421,347; 6782,629;    1,601;   -0,227
421,937; 6935,897;    3,329;    1,409
422,527; 6888,987;    2,602;   -0,773
423,116; 6705,720;    2,692;   -0,045
423,706; 7009,332;    2,965;    0,318
424,296; 6963,465;    1,601;    0,682
424,885; 7391,465;    1,510;   -3,045
425,475; 7647,694;    1,147;   -2,864
426,065; 7547,578;   -1,489;   -0,318
426,654; 7227,034;    0,329;   -0,318
427,244; 7345,361;    1,147;    1,409
427,833; 6813,599;    1,056;   -0,500
428,423; 7245,242;    0,147;    1,136
429,012; 7935,946;    2,420;   -1,136
429,601; 7443,857;    2,057;    0,136
430,191; 7678,973;    2,511;    4,318
430,780; 7304,359;   -1,671;   -0,409
431,369; 7285,563;    1,329;   -0,045
431,959; 7837,299;    1,693;    0,500
432,548; 7645,350;   -1,398;   -0,045
433,137; 7749,552;    0,329;   -1,318
433,726; 8227,105;    0,148;    0,500
434,315; 7654,529;    0,148;    2,409
434,905; 7740,528;    0,693;    1,409
435,494; 7662,609;    3,148;    0,955
436,083; 8081,067;    1,420;   -0,955
436,672; 7945,269;    1,148;    0,500
437,261; 7567,328;    0,512;   -1,955
437,850; 7708,243;   -1,125;    0,682
438,439; 7679,168;    2,239;    1,955
439,027; 7537,726;    3,421;    1,773
439,616; 7833,056;    2,239;    1,227
440,205; 7675,705;    0,057;   -2,136
440,794; 7731,950;   -0,306;   -0,045
441,383; 7968,401;    1,603;   -0,591
441,971; 7825,394;   -0,306;    0,591
442,560; 7679,730;    0,603;   -1,773
443,149; 7452,178;    3,060;   -1,318
443,737; 7610,971;    0,968;   -2,318
444,326; 7825,667;    0,331;    0,318
444,915; 7861,614;   -1,851;    0,864
445,503; 8195,209;    0,058;   -0,318
446,092; 7560,950;    7,876;    2,136
446,680; 8034,361;    1,876;    0,318
447,269; 8218,057;   -1,487;   -0,318
447,857; 8008,000;    2,240;   -1,773
448,445; 8109,421;    2,149;    1,318
449,034; 8316,571;    0,876;   -1,136
449,622; 8427,913;    1,240;    3,500
450,210; 7723,462;    3,149;    2,227
450,799; 8222,951;    2,604;   -0,591
451,387; 8192,352;    1,786;   -0,591
451,975; 7880,674;   -1,305;    0,864
452,563; 7953,666;    0,422;    2,318
453,151; 7990,237;   -1,032;   -1,227
453,739; 7909,351;   -1,577;    0,136
454,328; 7786,965;    0,604;   -2,136
454,916; 7513,015;    1,150;   -0,136
455,504; 7695,627;    3,513;    1,227
456,092; 7836,196;    2,150;   -1,591
456,679; 7784,292;    0,604;    0,682
457,267; 7803,143;    3,604;    1,045
457,855; 7894,686;    3,241;    1,409
458,443; 7663,271;   -0,304;    1,682
459,031; 7783,951;    1,332;    2,409
459,619; 8197,201;   -3,577;    2,864
460,206; 8279,126;   -0,759;    2,045
460,794; 8389,854;   -0,668;   -0,227
461,382; 8578,882;    0,878;   -0,864
461,970; 8192,108;    0,605;    1,864
462,557; 8247,901;    0,878;   -0,682
463,145; 8389,018;   -0,304;   -1,682
463,732; 8532,708;    2,514;   -1,045
464,320; 8447,862;    1,514;   -3,045
464,907; 8170,756;    0,423;   -0,773
465,495; 8043,631;    2,696;   -1,227
466,082; 8173,585;    2,060;   -0,045
466,670; 8108,501;    2,605;    1,227
467,257; 8492,654;    0,060;    2,045
467,844; 8628,215;    1,514;    0,045
468,432; 8666,154;   -0,031;    3,500
469,019; 8199,450;    1,606;   -1,773
469,606; 8637,764;    0,969;    3,682
470,193; 8470,073;    2,151;    0,227
470,780; 8064,933;    0,333;    0,864
471,368; 8398,214;   -1,212;   -0,773
471,955; 8219,676;    1,060;   -0,682
472,542; 7856,243;   -0,303;   -1,136
473,129; 8094,618;   -0,485;    0,136
473,716; 7842,924;    0,060;    0,591
474,303; 8004,700;    1,333;   -0,864
474,890; 8309,642;    2,333;   -0,500
475,477; 8340,072;   -0,576;    0,409
476,064; 8230,462;    0,697;   -1,591
476,650; 8142,373;    2,152;    0,318
477,237; 7981,918;    1,879;    0,955
477,824; 8128,906;    3,879;    0,864
478,411; 8122,990;    0,606;   -0,318
478,997; 8309,506;    0,606;   -0,773
479,584; 8375,851;   -0,666;   -0,409
480,171; 9004,649;    1,243;   -0,773
480,757; 8694,286;   -0,848;    0,773
481,344; 8926,584;    0,334;    0,409
481,931; 8473,037;   -0,393;    1,045
482,517; 9338,116;    0,425;    0,318
483,104; 9789,646;    1,334;    2,864
483,690;10011,037;    0,243;    0,045
484,276;10322,597;    0,698;    0,227
484,863;10079,417;    2,152;    1,136
485,449;10590,582;    0,152;    0,318
486,035;10581,885;   -0,666;   -0,136
486,622;10966,327;   -2,393;    0,045
487,208;10926,191;    1,334;    1,500
487,794;10792,996;    0,971;    0,318
488,380;10889,191;    0,698;   -1,409
488,967;10932,460;   -1,120;   -0,409
489,553;10995,457;   -1,029;   -1,409
490,139;11167,573;    0,971;    0,773
490,725;10676,468;    0,789;   -0,227
491,311;10350,368;    1,516;    3,045
491,897; 9747,941;   -0,665;    1,500
492,483; 9613,160;    0,426;    1,227
493,069; 9488,470;    5,426;    0,864
493,655; 9431,912;    1,789;    0,682
494,241; 9343,994;    1,517;   -0,955
494,826; 9687,660;    0,335;   -1,045
495,412; 9162,229;    0,335;   -0,682
495,998; 9337,973;    0,971;   -0,318
496,584; 9413,815;    2,244;    1,045
497,169; 9380,288;    2,335;   -0,682
497,755; 9338,688;    1,244;    1,227
498,341; 9880,400;    2,153;    0,318
498,926; 9476,585;    2,881;    1,955
499,512; 9642,490;   -0,028;    2,955
500,097; 9729,297;   -0,574;   -0,318
500,683; 9670,004;   -0,028;    2,136
501,268;10035,985;    1,881;   -0,955
501,854; 9772,073;   -0,119;    1,227
502,439; 9667,483;   -0,573;   -1,773
503,024; 9840,154;    1,608;    0,500
503,610; 9914,604;    1,335;   -0,682
504,195; 9917,123;    1,245;    1,955
504,780;10028,083;    2,335;    1,227
505,366; 9881,391;    4,063;    2,864
505,951; 9614,024;   -1,119;    1,045
506,536; 9651,356;    1,427;   -3,682
507,121; 9630,359;    1,699;   -0,318
507,706;10083,387;   -0,392;    1,045
508,291;10387,094;   -2,937;    1,136
508,876; 9936,959;   -0,482;    2,591
509,461; 9434,765;    1,427;   -0,773
510,046; 9807,054;   -0,391;    0,318
510,631;10009,049;   -0,119;   -0,773
511,216; 9707,549;   -0,664;   -0,500
511,801;10093,633;   -0,755;    2,591
512,386;10291,493;    0,972;    0,500
512,971;10239,086;    0,427;    0,955
513,555; 9850,553;    1,154;   -1,500
514,140;10557,884;    1,336;   -3,136
514,725;10490,823;    1,791;   -1,136
515,309;10634,404;    1,064;    0,318
515,894;10191,402;   -0,300;   -2,227
516,479;10575,737;    1,973;   -0,955
517,063;10372,290;    0,882;    1,227
517,648;10535,933;    0,155;   -1,136
518,232;10155,561;   -1,300;   -1,409
518,817;10475,131;    1,337;    1,682
519,401;10658,780;    0,700;    0,591
519,985;10204,039;    2,700;    1,136
520,570;10107,047;   -0,118;   -1,955
521,154;10382,366;    0,064;    0,591
521,738;10519,321;    1,064;    2,409
522,323;11030,037;   -0,390;    1,682
522,907;10757,725;    2,428;   -0,136
523,491;10529,207;    1,155;    0,955
524,075;10523,142;    0,428;    0,591
524,659;10614,341;    0,973;    0,591
525,243;10149,735;    0,883;    0,409
525,827;10363,370;    0,883;   -0,045
526,411;11050,250;    1,155;   -0,136
526,995;11247,653;    0,337;    1,409
527,579;10868,783;    1,974;   -1,045
528,163;11164,469;    0,428;   -1,500
528,747;11118,756;    1,065;   -0,773
529,331;11329,976;    0,883;   -1,409
529,915;11490,359;    2,338;    0,955
530,499;11467,427;    0,247;    1,227
531,082;11162,279;    1,065;    1,591
531,666;10694,945;    0,520;    0,773
532,250;11291,054;    0,428;    2,682
532,833;11561,572;    0,610;    2,773
533,417;11433,826;    1,247;    0,864
534,001;11376,995;    0,429;   -0,318
534,584;12005,303;    1,974;    0,500
535,168;11858,254;    3,247;    1,409
535,751;11890,947;    4,520;    0,045
536,334;11356,939;    4,520;   -0,409
536,918;11920,026;    1,974;    1,591
537,501;12030,640;    1,520;    1,318
538,085;12000,674;    1,702;    1,045
538,668;12102,973;    0,883;    2,409
539,251;12430,635;    3,156;    3,773
539,834;12462,810;    0,156;    0,773
540,418;12330,243;    3,247;    4,318
541,001;12442,389;    2,702;    1,773
541,584;12409,285;    1,429;    2,227
542,167;12108,819;    0,702;    2,955
542,750;12202,653;    0,793;   -0,773
543,333;11828,025;    1,429;    2,136
543,916;12522,330;   -0,298;    2,500
544,499;13028,823;    2,520;    0,227
545,082;13043,373;    0,248;    3,591
545,665;13194,383;   -0,207;    1,500
546,248;13429,752;    0,520;   -0,318
546,830;13119,198;   -1,752;    1,955
547,413;13458,236;    0,157;   -0,773
547,996;13970,303;    0,157;    0,500
548,579;13734,285;   -0,843;    0,955
549,161;13535,198;    0,884;    2,682
549,744;13344,635;    0,612;    0,409
550,326;13789,957;    0,885;   -1,136
550,909;13619,730;    2,339;    0,591
551,492;13959,356;    0,521;    0,227
552,074;13772,130;   -0,024;   -1,318
552,657;14295,449;    2,430;    0,045
553,239;14095,162;   -3,024;   -0,773
553,821;14002,401;   -1,570;    1,045
554,404;13484,629;   -0,024;    1,136
554,986;13844,467;    2,248;    1,045
555,568;14355,634;    0,430;   -0,955
556,151;13659,205;    4,067;   -0,227
556,733;13866,027;   -1,388;   -0,864
557,315;14260,626;    4,703;    0,500
557,897;14080,596;    0,521;   -0,500
558,479;14199,031;    1,703;    1,318
559,061;14289,763;    1,067;   -0,864
559,643;14557,762;   -0,297;    0,045
560,225;14837,184;   -0,388;    2,864
560,807;14869,580;    0,340;    0,318
561,389;14450,703;   -1,206;    2,318
561,971;15048,540;   -0,660;    2,136
562,553;14904,129;    0,613;    1,591
563,135;15001,398;    1,249;    1,136
563,717;14582,486;    3,158;    1,136
564,298;15206,844;    3,976;   -0,045
564,880;14951,370;    0,340;   -1,409
565,462;15099,461;    1,977;    1,318
566,043;16101,634;   -0,933;    2,318
566,625;15649,382;    4,067;    1,227
567,207;15487,094;    0,704;    1,682
567,788;16420,080;   -0,114;    1,500
568,370;17122,621;   -1,841;   -0,500
568,951;16874,818;   -0,569;    0,227
569,533;17627,417;    0,977;   -0,500
570,114;18003,195;   -0,296;    0,682
570,695;18378,555;   -0,478;   -1,318
571,277;18751,212;   -0,205;   -1,682
571,858;19372,809;    2,704;   -1,136
572,439;20097,696;    0,795;   -1,045
573,021;20147,876;    0,432;   -2,773
573,602;20577,786;    1,795;    0,318
574,183;21372,944;   -0,114;    2,227
574,764;21409,074;    2,068;    0,409
575,345;21841,025;    0,250;   -0,136
575,926;22346,369;    2,704;    0,136
576,507;22324,444;    2,704;   -0,227
577,088;23338,420;    1,704;    1,682
577,669;23294,088;    1,704;    1,955
578,250;23904,216;   -0,750;   -1,045
578,831;24376,841;   -0,841;   -2,227
579,412;24547,750;   -1,205;    0,955
579,993;25361,845;    1,432;    0,227
580,573;25685,484;   -0,023;   -0,955
581,154;24698,090;    1,613;   -0,591
581,735;25462,904;    0,341;    0,773
582,315;24981,904;    0,523;    2,136
582,896;25298,438;   -1,750;    1,227
583,477;24822,387;    0,614;    1,227
584,057;25020,822;    1,159;    0,955
584,638;25228,936;   -2,750;    2,318
585,218;25240,227;    2,886;    2,682
585,799;25382,692;    1,977;   -0,227
586,379;25400,148;    1,250;    1,591
586,959;24373,536;    2,613;    0,318
587,540;23862,289;    0,432;    2,227
588,120;23476,177;   -1,113;   -0,045
588,700;22583,048;    2,977;    2,136
589,281;22915,982;    1,250;   -0,955
589,861;22878,334;   -0,296;   -1,682
590,441;22642,849;   -1,477;   -2,682
591,021;21751,593;    1,432;   -2,591
591,601;22033,864;    0,431;    0,500
592,181;22094,335;   -1,296;   -0,773
592,761;21389,719;    2,250;    1,409
593,341;21369,261;    1,522;    0,045
593,921;21347,851;   -0,569;    1,591
594,501;21255,013;    1,250;    1,318
595,081;21120,735;    0,522;   -0,318
595,661;21426,935;    1,068;    0,955
596,240;21897,069;   -1,023;    0,136
596,820;21512,310;    2,613;    1,955
597,400;21617,112;    1,977;    0,773
597,980;21834,806;   -0,750;    1,045
598,559;21878,175;    0,341;   -0,227
599,139;21642,867;   -0,750;   -1,227
599,718;21523,867;    0,795;   -0,409
600,298;21801,835;   -2,387;    0,682
600,877;21974,470;    4,795;    1,409
601,457;22182,893;    0,340;    1,136
602,036;22145,885;    1,795;    2,045
602,616;22308,736;    2,250;    1,682
603,195;22609,005;    0,431;    3,500
603,774;22169,310;   -0,296;    2,045
604,354;22075,790;    2,522;   -0,500
604,933;21642,836;    0,250;    1,864
605,512;21679,158;    2,340;    0,591
606,091;21778,766;    1,886;    3,773
606,671;22581,758;    0,249;    0,773
607,250;21739,080;    1,431;    3,136
607,829;21918,291;    1,158;    3,227
608,408;21851,603;    4,613;    2,591
608,987;20971,165;    2,704;    3,409
609,566;21210,277;    0,341;   -2,500
610,145;21350,603;    2,885;    0,682
610,723;21737,360;    1,613;    6,864
611,302;20989,173;    1,067;    1,682
611,881;20561,640;    5,158;   11,227
612,460;21333,372;    0,795;    3,955
613,039;21749,180;    1,703;    2,045
613,617;20549,412;    0,886;    4,773
614,196;20685,123;    1,613;    1,227
614,775;21084,199;    1,249;    2,409
615,353;21000,407;   -1,660;    0,864
615,932;20775,685;    0,249;    2,409
616,510;21315,493;    0,158;    0,591
617,089;20886,780;    8,794;   17,591
617,667;20665,209;    4,885;    6,136
618,246;20549,485;   -1,115;    1,318
618,824;20719,923;    1,612;   -0,955
619,402;20294,538;    0,431;   -1,773
619,981;20695,539;    1,067;   -1,045
620,559;20579,251;    0,794;    1,682
621,137;20186,283;    3,067;    1,864
621,715;20171,859;    3,703;   -0,682
622,293;20111,917;    1,885;   -0,773
622,871;20576,535;    0,340;    0,500
623,450;20180,565;    0,430;   -0,864
624,028;20067,568;   -0,388;   -0,955
624,606;19742,550;    2,339;    1,682
625,183;20059,185;   -0,661;   -1,136
625,761;19769,570;    1,885;    1,136
626,339;20055,240;    2,339;    2,591
626,917;20404,012;    0,339;   -0,045
627,495;20439,700;    2,794;    1,318
628,073;19907,766;    5,248;    2,864
628,650;19666,783;    3,067;    2,136
629,228;20074,309;    1,248;    4,409
629,806;19536,195;   -0,024;    1,136
630,383;19752,621;    0,066;   -0,318
630,961;19585,764;   -2,206;   -0,955
631,539;19321,913;   -2,479;    0,227
632,116;18765,855;   12,703;   15,409
632,694;19295,306;    4,885;    6,500
633,271;19517,731;    1,975;    2,682
633,848;19457,981;    1,430;    2,045
634,426;19480,918;    1,521;    1,773
635,003;18742,107;   -0,207;   -0,409
635,580;18952,646;    1,884;    3,682
636,158;19439,488;    3,793;    1,227
636,735;19421,299;    3,339;   -0,500
637,312;19538,580;    0,521;   -0,682
637,889;19639,273;    2,248;   -0,682
638,466;19234,863;    0,066;   -0,409
639,043;19196,861;    1,702;   -1,136
639,620;19467,313;    0,611;   -0,955
640,197;19742,090;    1,612;    1,682
640,774;19897,537;    1,430;    1,136
641,351;20187,803;    0,612;    1,136
641,928;19646,886;    2,794;    1,409
642,505;19338,061;    0,794;   -0,500
643,082;19504,235;    1,885;    1,227
643,658;18628,046;    1,157;    1,500
644,235;19260,130;   -2,479;    2,500
644,812;19526,304;    1,794;    0,773
645,388;19267,206;    1,612;    1,409
645,965;19339,926;    1,521;    1,682
646,542;19396,100;    3,430;   -0,227
647,118;19413,456;    3,703;   -0,955
647,695;19671,631;    0,339;    1,136
648,271;19614,987;   -2,115;    0,500
648,848;19834,980;    0,248;    2,227
649,424;19706,790;    0,976;    1,318
650,000;19452,056;   -0,388;   -1,045
650,577;19356,230;    0,158;   -0,955
651,153;19714,677;   -1,115;    0,955
651,729;20524,397;    0,521;    0,864
652,305;20620,481;    1,339;    2,773
652,881;24010,928;   -1,297;    1,136
653,458;29397,739;    0,249;    0,227
654,034;32429,277;    0,703;    1,591
654,610;33580,179;    0,339;    0,773
655,186;34709,171;    1,612;    3,045
655,762;34368,164;   -1,842;    0,409
656,338;34386,066;    0,703;    0,136
656,913;35311,967;   -0,297;    0,409
657,489;34711,142;    0,249;   -0,318
658,065;34694,953;    0,794;   -1,591
658,641;35232,491;    2,158;   -0,864
659,217;34644,483;    2,067;    0,409
659,792;34197,931;   -1,751;   -0,409
660,368;34495,196;   -0,388;   -0,682
660,944;34451,189;    1,794;    1,227
661,519;30779,181;    0,522;    0,409
662,095;25969,537;   -0,206;    0,591
662,670;22189,894;   -0,206;   -0,136
663,246;21327,250;   -0,660;   -0,409
663,821;20734,061;    0,431;    1,682
664,396;20212,508;    0,613;    1,864
664,972;20485,955;   -0,660;   -0,500
665,547;20766,766;    3,794;    0,136
666,122;20781,940;    1,340;    0,318
666,698;21018,660;    2,431;    0,318
667,273;20403,744;    0,885;    0,136
667,848;21110,009;    0,340;    1,500
668,423;20901,456;    1,795;    2,318
668,998;21332,176;    0,976;   -0,682
669,573;21834,987;    2,067;   -1,500
670,148;21662,980;    1,885;   -0,682
670,723;21391,245;   -0,024;    0,318
671,298;21770,329;   -1,296;    1,045
671,873;21866,503;   -0,296;   -0,136
672,448;21824,041;    1,704;    0,136
673,023;22140,307;    0,249;   -0,227
673,597;22459,299;    2,704;    2,318
674,172;22243,201;    2,431;    0,318
674,747;21806,375;   -0,205;   -1,045
675,321;21601,459;   -0,933;    3,318
675,896;21225,361;    2,158;    1,045
676,471;22074,081;    2,522;    1,591
677,045;21815,800;   -0,296;    0,682
677,620;21844,157;    2,158;    1,136
678,194;22176,604;    0,249;    1,136
678,769;21830,142;    0,886;   -0,318
679,343;22060,407;   -0,023;    1,773
679,917;21884,218;    0,340;    1,955
680,492;21932,484;    0,249;    3,227
681,066;22008,113;    0,613;    0,409
681,640;22100,014;    1,795;   -0,318
682,214;22811,280;    2,340;    0,500
682,788;22347,727;    0,613;   -0,773
683,363;22238,174;    1,977;    1,682
683,937;21984,076;    0,886;   -0,318
684,511;22638,887;   -1,023;   -0,591
685,085;22403,516;   -1,478;    0,318
685,659;22157,599;    1,431;    0,864
686,232;22400,137;    1,159;   -0,318
686,806;22115,675;    2,159;    0,409
687,380;22696,395;   -1,932;    0,591
687,954;22970,024;    2,432;    1,136
688,528;22653,199;    2,613;    1,955
689,101;23369,646;    0,432;    1,045
689,675;22984,820;    0,886;   -0,136
690,249;22350,722;    3,432;    0,409
690,822;22681,805;    1,159;    0,318
691,396;22818,798;    2,068;    1,227
691,969;22318,427;    2,523;    0,136
692,543;22754,329;   -0,568;   -1,955
693,116;22395,594;   -0,659;   -1,409
693,690;22292,860;   -0,296;    0,500
694,263;22816,489;    2,341;    2,955
694,836;22785,936;    2,795;    3,591
695,410;21609,747;    1,159;    1,773
695,983;22021,557;    1,614;    0,591
696,556;21995,005;   -0,750;   -1,045
697,129;22300,906;   -1,114;    1,409
697,703;22005,444;    1,341;    1,955
698,276;21996,255;    1,705;   -0,773
698,849;21839,520;   -1,023;    1,409
699,422;22194,149;    1,250;    0,591
699,995;21929,869;   -0,659;    0,136
700,568;22354,953;   -0,204;    3,045
701,140;22347,673;   -1,841;    1,682
701,713;22143,120;    0,341;    2,409
702,286;21922,022;    0,796;    0,864
702,859;21763,560;    0,614;   -0,591
703,432;21081,643;   -0,841;    0,682
704,004;21500,454;    1,978;    0,318
704,577;21402,810;    1,068;    0,136
705,150;21860,258;    0,887;    2,500
705,722;21726,978;    1,523;   -3,227
706,295;21521,970;    1,432;   -0,591
706,867;21352,781;    0,250;    1,955
707,440;21557,592;   -0,113;   -0,409
708,012;21770,130;   -0,022;    0,591
708,584;21692,850;    2,705;    0,227
709,157;21956,570;    1,160;   -0,591
709,729;21642,199;    1,069;    2,045
710,301;22434,555;   -1,204;    0,045
710,874;22444,820;    0,341;   -0,227
711,446;21413,267;   -0,295;    0,864
712,018;21270,169;   -3,022;    0,500
712,590;21080,525;   -0,204;    1,682
713,162;21530,791;   -0,477;    1,318
713,734;21752,420;    1,796;   -2,045
714,306;21710,322;    0,342;   -0,409
714,878;20556,405;   -0,295;    0,864
715,450;21285,034;   -0,113;    0,864
716,022;21564,481;    2,433;    1,318
716,593;21652,838;    0,978;    0,591
717,165;21607,921;    1,796;   -1,227
717,737;21383,096;    0,796;    0,409
718,309;21068,179;    1,160;   -0,045
718,880;21031,626;   -1,295;   -1,409
719,452;21268,710;    0,887;   -1,591
720,024;20933,884;    1,705;   -0,591
720,595;21426,968;    2,978;    0,955
721,167;20992,960;    1,160;   -2,045
721,738;20563,499;    2,069;   -1,045
722,309;20530,673;    1,251;   -1,227
722,881;20342,211;    2,705;    0,773
723,452;20906,204;    1,251;    2,864
724,023;21050,469;    1,524;    2,682
724,595;20858,462;    2,342;    0,682
725,166;20662,000;    1,524;   -0,409
725,737;20335,265;    1,887;    0,227
726,308;20430,894;    0,797;    0,318
726,879;20814,432;    1,069;    1,227
727,450;20664,516;   -2,022;   -0,045
728,021;20640,054;    1,069;    0,682
728,592;20486,592;    1,160;    0,500
729,163;20759,766;    1,433;   -0,136
729,734;20732,032;    2,160;   -0,227
730,305;21063,570;    0,615;    0,136
730,876;21381,472;    0,888;    2,955
731,447;21099,646;    0,797;    2,682
732,017;21173,730;   -0,840;    1,864
732,588;20762,449;   -0,021;    1,227
733,159;20904,897;    3,615;   -1,045
733,729;20753,253;    1,251;    0,409
734,300;20119,791;    0,160;    0,864
734,870;20469,693;   -1,385;    0,591
735,441;20959,958;    0,888;   -0,591
736,011;20745,678;    1,070;   -1,591
736,582;20693,125;    1,251;    0,045
737,152;20190,481;    0,979;   -2,045
737,722;20703,201;    1,070;   -0,682
738,293;20419,285;   -2,021;    1,318
738,863;20304,368;    1,797;    2,318
739,433;20184,361;    4,524;    0,318
740,003;20760,445;    1,524;   -0,682
740,573;20189,346;    2,252;   -1,591
741,143;20157,975;    3,615;    0,318
741,713;20833,786;    0,252;   -0,500
742,283;20617,415;    1,706;    1,591
742,853;20452,317;    0,524;    1,591
743,423;19970,855;    0,161;    0,045
743,993;20027,575;    1,070;    1,500
744,563;19445,840;    2,524;   -0,864
745,133;19459,833;   -0,112;   -0,864
745,702;20069,644;    2,797;    1,773
746,272;19310,000;    0,434;    0,591
746,842;19155,356;   -0,748;   -0,591
747,411;19521,894;   -0,839;   -0,318
747,981;19680,978;   -0,930;    0,500
748,551;19685,425;   -0,021;   -1,045
749,120;19576,236;   -0,112;   -0,227
749,690;19961,501;    2,161;    2,409
750,259;20256,948;    0,979;    2,955
750,828;20122,123;    4,070;   -1,955
751,398;20354,297;   -0,112;   -0,045
751,967;19892,926;    2,888;    0,409
752,536;20114,919;    1,161;   -0,227
753,105;20512,093;   -1,384;    0,227
753,675;20256,177;   -0,112;    1,773
754,244;20172,169;    0,888;    3,591
754,813;20207,980;    0,979;    1,227
755,382;19857,337;    0,798;    0,955
755,951;20326,147;   -0,112;    3,682
756,520;19922,049;    2,525;    1,864
757,089;20442,405;    1,888;    0,500
757,658;20579,307;    2,434;    1,227
758,227;20571,027;   -1,111;    0,318
758,795;20825,292;   -1,021;    1,136
759,364;21037,558;    0,525;   -0,591
759,933;20160,187;    1,343;   -0,045
760,501;19769,270;    0,252;   -1,318
761,070;20214,899;   -0,293;   -1,409
761,639;20845,801;    1,434;    1,318
762,207;20184,794;    0,889;   -0,955
762,776;20098,332;    2,889;    0,864
763,344;20128,324;    0,071;    0,591
763,913;19269,771;    1,616;    1,409
764,481;19954,582;    1,980;   -0,136
765,049;19794,575;    0,616;    1,409
765,618;19699,931;    1,434;    0,318
766,186;19801,651;    2,434;    0,136
766,754;19957,916;    1,798;    1,864
767,322;19053,727;    1,162;    0,409
767,890;19027,629;    0,525;   -1,773
768,459;19474,985;    2,616;   -0,318
769,027;19580,069;    2,525;    3,409
769,595;18679,880;    2,616;    2,591
770,163;19095,054;    3,344;    2,955
770,730;18895,592;    2,525;   -0,136
771,298;18784,858;    1,162;   -1,409
771,866;18875,577;    0,253;    4,955
772,434;19134,388;    1,162;   -1,864
773,002;19317,199;    2,616;    0,682
773,569;19036,101;    1,071;    1,682
774,137;18820,457;    0,889;   -0,045
774,705;19553,904;   -0,747;   -0,136
775,272;19128,351;    0,253;    0,682
775,840;18929,253;   -0,111;    2,682
776,407;18470,700;   -0,293;    1,955
776,975;18139,602;    1,162;    0,318
777,542;19072,867;    2,162;   -0,045
778,110;18933,405;    0,707;   -0,045
778,677;18615,762;    1,071;   -0,864
779,244;18404,663;   -1,020;    1,045
779,812;18495,020;    0,980;    0,864
780,379;18387,467;    2,435;    1,136
780,946;18583,369;    2,617;   -0,773
781,513;18855,179;   -0,565;    0,318
782,080;18313,718;    1,253;    2,864
782,647;18932,892;    1,708;    3,045
783,214;18614,703;   -0,201;    3,864
783,781;18236,332;    1,708;   -0,682
784,348;18168,143;    0,253;    1,500
784,915;18556,317;   -1,474;    0,318
785,482;18325,401;    2,708;    2,591
786,049;18763,575;    1,071;   -0,591
786,615;18854,659;    1,708;   -0,955
787,182;18653,197;   -3,201;   -0,682
787,749;18349,644;   -2,201;    1,409
788,315;17746,364;    0,253;   -0,409
788,882;18017,175;    0,981;   -1,227
789,448;18665,258;    1,435;   -0,955
790,015;18680,978;    1,799;    3,227
790,581;18268,698;    0,708;    0,227
791,148;18171,691;    1,344;    1,045
791,714;18373,592;   -1,019;    3,136
792,280;18084,676;    3,708;    1,591
792,847;17740,214;   -0,928;    2,500
793,413;18183,207;   -0,110;   -0,318
793,979;17811,199;    1,526;   -1,318
794,545;17911,283;    2,981;    2,682
795,111;17415,548;    2,435;    1,318
795,678;17541,995;    3,526;   -1,682
796,244;17233,442;    2,799;    0,136
796,810;17724,435;    0,799;    0,773
797,375;17489,155;   -0,292;   -2,136
797,941;17514,057;   -1,110;    0,591
798,507;17607,867;    0,254;   -0,955
799,073;17223,951;    2,708;    0,591
799,639;17299,853;    1,435;    3,136
800,205;17361,027;   -1,565;    2,682
800,770;16972,020;    1,345;    1,773
801,336;16942,194;    2,981;   -0,955
801,901;16735,187;    6,072;    3,136
802,467;17288,907;    0,526;    2,045
803,033;16694,536;   -0,019;    0,864
803,598;16873,438;    1,072;   -1,045
804,163;16909,157;    0,708;   -0,318
804,729;16873,968;   -0,110;    1,136
805,294;17172,234;    1,072;    2,227
805,859;17013,590;    0,890;   -0,409
806,425;16615,673;    3,890;    2,682
806,990;16299,757;    1,890;    4,318
807,555;16652,386;   -0,110;    2,591
808,120;16596,197;   -1,292;   -0,409
808,685;16638,917;    1,072;   -2,500
809,250;16205,000;    2,072;   -0,500
809,815;16507,902;   -0,201;    0,682
810,380;16937,804;    0,981;    1,591
810,945;17402,342;    2,890;    2,045
811,510;16709,698;   -0,200;    1,591
812,075;16469,600;    2,800;   -1,409
812,640;16473,592;    3,709;    1,409
813,204;16580,040;    2,163;   -0,227
813,769;16989,123;    0,254;   -0,045
814,334;16526,752;    0,527;    0,864
814,898;16571,927;    1,981;    0,591
815,463;16419,556;    0,981;   -0,773
816,027;16367,821;    1,345;   -2,318
816,592;16486,541;    2,163;   -2,045
817,156;16074,261;   -2,200;    1,136
817,721;15913,708;    0,982;    2,318
818,285;15959,155;    0,618;    1,500
818,849;16498,875;   -0,018;    1,682
819,414;16406,322;    0,073;    2,955
819,978;16028,224;   -0,291;    1,773
820,542;16562,035;    2,891;    0,500
821,106;16327,573;    2,800;    0,682
821,670;16382,475;    2,709;    2,591
822,234;16142,740;    1,073;    1,409
822,798;15602,187;   -0,836;    0,500
823,362;15646,089;    1,527;    4,227
823,926;15103,718;   -0,018;    1,136
824,490;15245,529;    3,527;   -0,682
825,054;15653,521;    2,527;   -1,136
825,618;15366,059;   -1,200;   -1,500
826,181;15304,052;    0,982;   -1,318
826,745;15222,954;   -0,745;   -1,045
827,309;15542,219;    2,255;    1,318
827,872;15078,393;    0,527;    0,955
828,436;15865,568;    1,982;   -0,773
828,999;15991,833;    2,436;    1,227
829,563;15019,644;   -0,654;    1,136
830,126;14794,455;   -0,018;   -0,591
830,690;14856,720;    0,709;    2,864
831,253;14423,895;   -0,473;    2,227
831,816;14532,887;   -0,018;    0,500
832,380;14502,425;    1,164;    0,864
832,943;14679,145;    3,073;   -0,500
833,506;14234,593;    0,255;   -1,227
834,069;14904,131;    2,164;   -0,955
834,632;14973,123;   -2,200;    1,318
835,195;14886,298;    1,346;    0,955
835,758;14252,654;    0,709;    1,955
836,321;14105,101;    1,073;   -1,045
836,884;14211,639;   -1,291;   -0,955
837,447;14240,086;    0,528;    1,773
838,010;14442,443;    1,800;    3,227
838,573;14692,890;    0,528;    0,773
839,135;14699,792;   -0,109;   -0,955
839,698;14232,148;    2,528;    0,409
840,261;13791,959;    0,255;   -0,227
840,823;13688,951;   -0,927;    0,864
841,386;13927,035;   -0,018;   -2,409
841,948;13894,482;    0,255;    1,773
842,511;13643,384;    0,255;    1,682
843,073;13717,922;    2,982;    0,227
843,636;13536,914;    0,619;   -0,227
844,198;13501,089;    1,255;    0,591
844,760;13629,172;    0,619;    1,955
845,322;13308,347;    0,164;    1,136
845,885;13704,430;   -0,290;    0,591
846,447;14089,423;    0,710;    0,227
847,009;13742,143;    3,983;   -0,682
847,571;13972,045;    1,346;   -2,045
848,133;14067,674;   -0,199;   -1,864
848,695;13934,757;    2,346;    1,409
849,257;13517,295;    1,346;   -1,682
849,819;13681,470;    2,983;   -0,409
850,381;13693,190;    1,801;   -0,864
850,942;13972,910;    1,892;   -0,591
851,504;13924,993;    0,983;    0,227
852,066;13958,258;    1,619;   -1,591
852,628;13584,251;    0,165;    1,955
853,189;13153,335;    0,256;    2,682
853,751;13315,691;   -0,654;    1,409
854,312;13140,229;    1,256;   -1,682
854,874;13561,313;   -0,108;   -0,773
855,435;14040,396;    0,528;   -1,682
855,997;14202,207;    3,983;   -0,136
856,558;13528,745;    0,801;    1,773
857,119;13608,010;   -0,744;    2,864
857,681;13336,639;   -0,108;    0,318
858,242;13396,814;    1,347;   -2,136
858,803;13743,443;    1,074;   -0,773
859,364;14307,799;    0,892;   -4,773
859,925;13731,064;   -0,290;   -0,955
860,486;13615,057;    0,529;   -0,955
861,047;13380,504;    0,165;   -1,227
861,608;13229,042;    0,165;   -0,773
862,169;13374,217;   -0,562;   -0,045
862,730;13132,209;   -0,290;    1,409
863,291;13364,838;    0,438;   -0,500
863,852;13684,558;   -0,926;    1,955
864,412;13232,187;   -1,835;   -0,864
864,973;12022,180;    1,892;    0,500
865,534;11892,536;    2,074;    0,227
866,094;13187,892;    2,620;    0,227
866,655;12865,703;    4,711;    3,318
867,215;13162,060;    0,074;    0,136
867,776;13035,507;   -1,199;   -0,136
868,336;13103,045;    1,529;    0,136
868,897;12686,401;    3,438;    1,682
869,457;12483,848;    3,256;    0,318
870,017;12710,932;    2,438;   -1,227
870,578;13163,561;    1,893;    0,773
871,138;12821,099;    2,620;   -0,955
871,698;12424,001;   -0,562;   -1,318
872,258;12297,357;    0,711;   -2,864
872,818;12637,531;    2,347;    0,045
873,378;12626,888;   -2,198;    1,045
873,938;12233,698;    4,984;    0,500
874,498;12514,873;    1,256;   -1,955
875,058;12439,956;    4,347;    1,773
875,618;12306,949;    1,438;   -2,682
876,177;12224,669;   -0,471;    0,136
876,737;11923,298;   -0,289;    1,955
877,297;11975,927;    2,711;    1,955
877,856;11970,374;    2,529;    0,318
878,416;11903,276;    2,438;   -0,136
878,976;12105,178;    3,438;    0,409
879,535;12277,261;    4,529;    3,136
880,095;12053,890;    1,347;    0,045
880,654;12142,065;    0,347;    1,318
881,213;12220,966;    2,347;    1,500
881,773;11909,777;    1,984;    2,682
882,332;12236,588;    6,075;    5,136
882,891;12082,035;    0,711;    2,136
883,451;12480,119;   -2,016;    1,682
884,010;11985,657;   -1,107;   -0,409
884,569;12080,558;   -2,289;   -0,045
885,128;12210,278;   -0,743;   -1,864
885,687;12290,362;   -0,743;    0,682
886,246;12053,627;    2,620;    2,136
886,805;11784,256;    1,620;    2,045
887,364;12017,885;    1,166;   -0,500
887,922;12330,060;   -0,016;    0,045
888,481;11868,325;    1,530;    0,591
889,040;12138,227;    3,711;    2,136
889,599;12682,765;    2,166;    1,409
890,157;12742,576;    2,166;    2,409
890,716;12400,386;    2,166;    0,227
891,274;12264,470;    0,075;   -1,136
891,833;12647,554;    1,166;    0,864
892,391;12478,364;    1,802;    0,500
892,950;12586,084;    0,166;   -0,773
893,508;12901,259;    0,984;   -0,409
894,067;12299,615;   -0,379;    0,136
894,625;12229,608;   -1,016;   -1,500
895,183;12412,146;   -0,198;   -0,682
895,741;12334,957;    2,257;   -1,773
896,299;12215,767;    1,621;   -2,409
896,858;12348,033;    1,530;   -1,591
897,416;12473,207;    0,166;   -1,318
897,974;12301,836;   -2,197;    0,318
898,532;12450,192;    6,530;    2,682
899,089;12349,276;    0,621;   -0,682
899,647;12412,178;    0,530;    1,318
900,205;12194,443;    0,257;    1,045
900,763;12345,163;    2,166;    0,227
901,321;12383,246;    3,530;   -1,409
901,878;11866,148;    3,257;   -0,773
902,436;11792,595;    0,257;    1,318
902,994;12173,043;    6,712;    3,682
903,551;11683,126;    1,439;    0,409
904,109;12080,573;    1,530;   -1,409
904,666;11721,020;    1,439;    1,045
905,224;11574,104;    3,894;   -0,409
905,781;11396,097;   -0,470;   -0,318
906,338;11402,817;    0,167;    1,045
906,895;11359,536;    1,894;    2,045
907,453;11326,165;    2,348;    1,136
908,010;11319,249;    3,348;    0,409
908,567;11027,787;   -0,561;    0,591
909,124;10615,143;    2,439;   -1,500
909,681;10636,954;   -1,288;    0,682
910,238;10858,219;   -0,106;   -1,318
910,795;11172,939;   -1,561;   -1,136
911,352;10828,030;   -0,379;   -2,682
911,909;10318,848;    2,803;   -0,864
912,466;10790,212;    1,985;    1,500
913,022;10360,939;   -0,924;    0,500
913,579;10694,030;   -0,470;    2,045
914,136;10470,576;   -2,561;    0,955
914,692;10804,030;    1,530;   -1,227
915,249;10417,576;    0,530;    0,409
915,806;10600,485;    1,803;    1,955
916,362;10491,121;    0,894;    1,864
916,918;10064,394;    2,439;    1,045
917,475;10070,576;    1,621;    0,955
918,031;10141,394;    0,076;   -0,045
918,587; 9707,303;    0,621;   -0,318
919,144; 9923,485;   -0,379;    0,227
919,700;10147,394;    0,167;    0,773
920,256; 9796,758;    0,439;    0,045
920,812; 9526,758;    1,439;   -1,045
921,368; 9583,212;    1,348;   -1,045
921,924; 9259,576;    0,439;   -0,136
922,480; 8884,212;    0,076;    1,227
923,036; 9428,212;   -0,652;    1,955
923,592; 9398,212;    0,621;    0,318
924,148; 9341,212;    1,894;   -0,955
924,704; 8768,939;    0,258;   -0,409
925,259; 9055,758;   -0,561;    0,591
925,815; 8834,212;    3,803;    0,500
926,371; 8422,848;    3,530;    1,409
926,926; 8375,758;    1,621;    0,591
927,482; 8066,576;    1,621;    0,773
928,037; 7994,485;   -0,833;    2,045
928,593; 8304,667;    0,258;    1,045
929,148; 8163,939;    1,167;   -1,500
929,704; 7744,030;    2,439;   -0,500
930,259; 7927,212;    0,894;   -0,136
930,814; 7205,121;    1,803;    1,955
931,369; 6980,667;    0,258;   -0,773
931,925; 6911,667;   -1,924;    0,136
932,480; 6816,667;    3,076;   -2,591
933,035; 6779,485;    3,985;   -0,318
933,590; 6612,939;   -1,742;   -1,773
934,145; 6331,576;   -1,288;   -0,318
934,700; 6640,848;    0,348;   -0,591
935,255; 6484,303;    4,803;    0,045
935,809; 5983,485;    6,258;    0,864
936,364; 5260,212;    2,167;   -0,136
936,919; 5297,303;    2,348;   -1,773
937,474; 5234,303;    1,348;    0,136
938,028; 5043,212;    3,076;    1,136
938,583; 4691,939;    6,348;    4,682
939,138; 4937,576;    0,167;    2,136
939,692; 4456,939;   -1,015;   -1,136
940,247; 4258,212;    1,167;   -1,045
940,801; 3970,667;    0,621;    0,227
941,355; 3905,848;    0,439;    2,591
941,910; 3613,030;    0,712;   -2,136
942,464; 3716,576;    2,712;   -0,318
943,018; 3638,576;    3,258;   -0,227
943,572; 3572,667;    2,803;   -0,682
944,126; 3127,848;   -0,924;   -0,409
944,681; 3028,212;    0,712;    0,227
945,235; 3011,212;    2,167;   -0,591
945,789; 2955,667;    1,258;   -1,864
946,342; 3143,303;   -0,561;   -0,591
946,896; 2893,394;    0,348;    0,955
947,450; 2715,848;   -0,561;   -0,227
948,004; 2944,394;    1,076;   -0,045
948,558; 2910,030;    1,258;   -0,864
949,111; 2840,758;   -1,197;   -0,318
949,665; 2940,121;   -0,106;   -0,682
950,219; 2850,576;    0,621;   -1,045
950,772; 2849,667;    0,258;    1,864
951,326; 2792,303;   -1,106;   -0,955
951,879; 2828,394;    1,076;   -2,318
952,433; 2885,939;    1,348;    2,227
952,986; 2719,030;    0,348;    0,682
953,539; 2677,394;    1,530;    0,591
954,093; 2625,212;    0,985;   -1,318
954,646; 2769,667;   -0,288;    1,318
955,199; 2592,758;    1,258;   -0,500
955,752; 2567,848;    1,985;    1,773
956,305; 2503,121;    0,894;    2,955
956,858; 2627,758;    0,621;   -0,318
957,411; 2797,030;    3,621;    2,136
957,964; 2616,485;    2,076;    2,136
958,517; 2578,848;    0,985;    3,136
959,070; 2463,667;   -1,197;    1,955
959,623; 2626,394;    1,076;    1,500
960,176; 2429,212;    0,712;    2,045
960,728; 2412,212;    1,712;    0,773
961,281; 2469,576;    2,258;    0,500
961,834; 2467,848;   -0,833;    0,864
962,386; 2394,576;    1,258;    1,045
962,939; 2327,030;    3,439;   -0,318
963,491; 2435,576;    2,621;    1,136
964,043; 2324,576;    0,076;    2,409
964,596; 2457,848;    1,712;    2,227
965,148; 2313,667;   -0,379;    1,773
965,700; 2249,939;   -0,015;   -0,227
966,253; 2396,758;   -0,833;    0,318
966,805; 2269,576;    1,894;    0,773
967,357; 2279,030;    0,439;   -1,500
967,909; 2302,303;    1,167;   -1,227
968,461; 2319,667;    0,894;    3,136
969,013; 2257,758;   -1,561;   -0,864
969,565; 2347,212;    1,803;   -1,136
970,117; 2553,576;    3,803;    1,045
970,669; 2314,758;    3,258;   -0,136
971,220; 2144,485;    2,167;   -1,500
971,772; 2124,758;    1,348;   -0,318
972,324; 2230,121;   -1,197;   -0,500
972,876; 2153,758;    0,167;   -0,045
973,427; 2309,303;   -1,197;   -1,045
973,979; 2296,030;    0,076;   -2,500
974,530; 2236,212;    0,803;    1,318
975,082; 2249,394;    2,167;    1,682
975,633; 2191,303;    2,894;    1,682
976,184; 2334,303;    2,076;    0,773
976,736; 2194,212;    0,348;    0,227
977,287; 2060,848;    0,258;   -0,500
977,838; 2160,576;   -0,924;   -0,318
978,389; 2199,939;    0,803;   -0,500
978,940; 2062,758;    1,258;   -0,409
979,491; 2095,212;    2,258;   -0,500
980,042; 2095,848;   -0,652;    3,045
980,593; 2106,758;    1,894;    0,227
981,144; 2195,030;    3,530;   -0,500
981,695; 2223,667;   -0,470;    1,500
982,246; 2163,121;   -1,833;    1,045
982,797; 2208,667;   -0,561;    0,682
983,347; 2332,667;    2,167;    0,591
983,898; 2527,303;    4,167;    0,409
984,449; 2383,121;    2,530;    0,773
984,999; 2229,667;    1,894;   -1,136
985,550; 2081,758;    3,167;   -0,318
986,100; 2051,485;    0,712;   -0,318
986,651; 2078,303;    0,258;    0,045
987,201; 2075,303;    0,894;   -0,591
987,751; 2136,121;   -0,288;    2,864
988,302; 2156,212;   -0,379;    1,500
988,852; 2160,848;    1,985;   -1,136
989,402; 2244,848;    0,985;    0,682
989,952; 2176,939;    1,621;    0,864
990,502; 2188,939;    1,076;    0,682
991,052; 2136,939;   -0,106;    0,045
991,602; 2051,394;    1,167;    1,318
992,152; 2071,485;    2,803;    0,682
992,702; 2051,303;    1,167;   -0,045
993,252; 2003,758;    0,076;   -0,500
993,802; 2107,212;    1,167;    1,318
994,352; 2278,303;   -0,742;    1,136
994,901; 2292,667;    1,076;    3,227
995,451; 2228,212;   -1,197;    0,318
996,000; 2305,121;    1,076;    0,318
996,550; 2081,303;    2,894;    0,227
997,100; 2088,394;   -0,561;   -0,045
997,649; 2350,939;   -0,197;    0,955
998,198; 2051,212;   -0,288;   -1,500
998,748; 2240,848;    0,348;   -2,318
999,297; 2118,848;    0,985;   -0,409
999,846; 2210,939;    1,894;   -0,773
1000,395; 2220,667;    1,530;    0,500
1000,945; 2250,485;    1,076;   -0,773
1001,494; 2307,848;    0,167;    0,682
1002,043; 2254,212;    0,712;    0,864
1002,592; 2073,758;    3,439;    1,955
1003,141; 2209,939;    2,439;   -0,682
1003,690; 2134,121;    1,258;    0,500
1004,238; 2147,576;   -0,106;   -0,045
1004,787; 1865,394;   -1,288;    1,227
1005,336; 2130,758;    1,621;    0,682
1005,885; 2195,485;   -0,197;   -2,773
1006,433; 2270,121;   -0,470;    0,955
1006,982; 2423,394;    2,167;    1,682
1007,531; 2290,667;    2,712;   -0,227
1008,079; 2201,939;    0,258;    0,500
1008,627; 2287,667;    1,621;    0,409
1009,176; 2111,303;    0,076;   -1,955
1009,724; 2143,121;   -2,742;    0,864
1010,273; 2237,303;    1,076;    0,500
1010,821; 2276,394;    1,076;    1,409
1011,369; 2061,121;    0,076;    1,318
1011,917; 2044,667;   -0,833;   -0,591
1012,465; 2294,939;    2,530;   -1,591
1013,013; 2358,758;    0,439;   -1,682
1013,561; 2318,121;   -1,288;   -0,773
1014,109; 2398,758;   -0,833;    1,682
1014,657; 2254,758;    1,348;    0,591
1015,205; 2297,030;    0,894;   -0,955
1015,753; 2291,576;    0,258;   -1,409
1016,301; 2336,939;    2,621;    3,045
1016,848; 2372,667;    2,167;    0,409
1017,396; 2392,030;    1,621;    0,045
1017,944; 2487,485;    2,621;    1,864
1018,491; 2260,485;   -0,197;    1,409
1019,039; 2538,667;   -0,652;    0,591
1019,586; 2373,212;    0,076;    1,682
1020,134; 2410,576;    0,712;    1,500
1020,681; 2448,030;    2,894;   -1,136
1021,228; 2422,485;   -0,561;   -2,227
1021,776; 2302,030;   -0,833;   -1,136
1022,323; 2551,303;    0,803;    0,773
1022,870; 2486,394;   -0,470;   -0,045
1023,417; 2423,303;    2,076;    1,864
1023,964; 2451,939;    0,621;    1,227
1024,511; 2369,667;   -0,652;    0,773
1025,058; 2205,848;    0,439;   -0,045
1025,605; 2241,485;   -1,742;    3,136
1026,152; 2483,576;   -0,106;   -0,591
1026,699; 2210,758;    0,167;    1,318
1027,245; 2336,485;    2,439;    0,318
1027,792; 2467,121;    0,712;    1,409
1028,339; 2462,939;    4,076;   -0,045
1028,885; 2308,848;    3,621;   -0,227
1029,432; 2245,576;   -0,106;    0,227
1029,978; 2333,758;    1,348;   -1,591
1030,525; 2242,848;    1,621;    0,409
1031,071; 2387,939;    0,348;    1,136
1031,618; 2596,030;    1,258;    1,682
1032,164; 2360,758;    2,076;    3,045
1032,710; 2387,758;    0,076;   -1,500
1033,256; 2303,394;    0,712;   -0,136
1033,803; 2249,121;   -0,288;    1,500
1034,349; 2041,848;    1,803;    0,136
1034,895; 2182,303;    2,621;   -0,318
1035,441; 2156,758;    0,439;    0,318
1035,987; 2188,030;   -2,288;   -0,682
1036,533; 2224,394;   -0,197;   -0,955
1037,078; 2439,485;    4,712;    1,682
1037,624; 2239,394;    2,439;   -0,955
1038,170; 2227,212;    1,712;   -0,318
1038,716; 2189,848;    2,167;   -0,409
1039,261; 2068,394;    2,167;   -0,773
1039,807; 2034,212;   -0,015;    3,409
1040,352; 2118,212;   -1,288;   -0,318
1040,898; 2134,212;    0,167;   -0,682
1041,443; 2031,667;    0,803;   -2,591
1041,989; 2176,303;    3,621;    1,591
1042,534; 2001,212;    0,985;    2,591
1043,079; 2052,667;    1,985;    0,955
1043,625; 1931,030;    0,258;    0,500
1044,170; 1993,576;    2,439;    1,045
1044,715; 2260,939;    0,167;    0,955
1045,260; 2082,848;   -0,833;   -0,955
1045,805; 2067,030;    0,258;   -0,591
1046,350; 1982,939;    0,530;   -0,409
1046,895; 2038,667;    0,803;    1,591
1047,440; 2025,939;    1,530;    0,409
1047,985; 1895,212;   -1,197;   -0,955
1048,530; 1807,485;    1,348;    1,227
1049,074; 1887,939;    2,803;    0,318
1049,619; 1857,303;   -0,924;    1,955
1050,164; 1697,394;    1,076;    0,227
1050,708; 1754,394;    2,621;    0,045
1051,253; 2139,394;    3,258;   -2,227
1051,797; 1849,758;   -0,197;   -1,318
1052,342; 1783,121;    1,348;    1,045
1052,886; 1827,485;    1,803;   -1,409
1053,430; 1687,667;    2,167;    0,136
1053,975; 1719,758;    0,894;   -0,318
1054,519; 1718,939;    1,803;    3,227
1055,063; 1784,576;    3,621;    1,318
1055,607; 1689,394;    1,348;    0,227
1056,151; 1699,667;    0,530;    1,682
1056,695; 1595,667;   -1,833;   -1,136
1057,239; 1653,939;   -1,197;   -0,682
1057,783; 1690,758;    2,258;   -1,500
1058,327; 1698,758;    3,076;    1,409
1058,871; 1925,667;    3,985;    1,318
1059,415; 1650,212;   -0,561;   -0,045
1059,958; 1918,394;    2,985;    2,591
1060,502; 1634,485;    1,348;   -0,773
1061,046; 1517,212;    1,712;   -0,955
1061,589; 1466,848;    2,803;   -1,136
1062,133; 1387,212;    0,985;    1,864
1062,676; 1357,939;    1,439;    0,864
1063,220; 1388,303;    0,985;    0,500
1063,763; 1420,121;    2,985;    1,136
1064,306; 1485,121;    0,985;    1,864
1064,849; 1401,667;    2,076;    0,591
1065,393; 1391,939;    2,894;   -1,500
1065,936; 1469,758;    2,530;   -0,409
1066,479; 1346,939;    2,621;    1,318
1067,022; 1370,030;    1,894;   -0,227
1067,565; 1281,394;   -1,197;   -1,318
1068,108; 1288,848;    1,258;   -0,591
1068,651; 1270,121;   -2,470;    1,409
1069,194; 1222,303;   -1,106;   -1,682
1069,736; 1247,848;    3,803;    0,955
1070,279; 1204,485;   -1,652;   -0,500
1070,822; 1289,939;    1,530;   -0,318
1071,364; 1415,485;    0,530;    1,318
1071,907; 1215,848;    0,348;    3,227
1072,450; 1083,667;    0,258;   -0,045
1072,992; 1111,848;   -0,561;    3,136
1073,535; 1260,212;    0,167;    2,136
1074,077; 1064,394;    2,985;    2,045
1074,619; 1049,394;    0,985;    0,591
1075,161; 1083,485;   -0,561;    1,500
1075,704; 1273,848;    0,258;    1,227
1076,246; 1060,939;    1,530;    0,682
1076,788;  979,121;   -1,015;    1,773
1077,330; 1031,939;   -2,106;    2,136
1077,872; 1029,667;   -1,924;    0,955
1078,414; 1267,303;    3,712;    0,773
1078,956; 1011,576;    0,167;   -0,227
1079,498; 1284,121;    0,439;    0,318
1080,040; 1000,030;    0,985;   -1,318
1080,581;  931,121;    0,621;   -0,318
1081,123;  848,667;   -0,106;   -0,773
1081,665;  892,848;    3,803;   -0,955
1082,206; 1197,394;    3,258;   -0,500
1082,748; 1066,576;    3,258;    2,045
1083,289;  928,212;    0,167;    1,318
1083,831;  868,667;    0,258;    0,227
1084,372;  926,485;    0,894;    0,591
1084,913;  917,939;    3,348;    0,864
1085,455;  861,848;    1,530;   -2,045
1085,996;  846,848;    0,530;    0,136
1086,537;  889,939;    0,985;    0,864
1087,078;  919,667;    0,439;   -2,136
1087,619;  967,485;   -1,652;    0,227
1088,160;  878,939;    1,439;    1,318
1088,701;  860,212;   -0,742;    0,682
1089,242;  828,485;   -0,561;   -2,227
1089,783;  904,848;   -0,561;    1,409
1090,324;  876,303;   -0,833;    0,682
1090,865;  757,394;   -1,924;   -0,409
1091,405;  708,121;   -0,561;    2,227
1091,946;  752,121;   -0,197;   -0,955
1092,487;  677,394;   -1,288;   -1,409
1093,027;  870,576;    1,803;   -1,500
1093,568;  732,485;    2,258;    1,227
1094,108;  812,303;    0,621;    1,773
1094,649;  760,667;   -0,470;    0,136
1095,189;  698,485;    1,167;   -0,682
1095,729;  656,758;    0,712;    0,955
1096,269;  653,394;    1,258;   -0,955
1096,810;  952,212;   -0,197;    0,500
1097,350;  797,303;   -0,561;   -0,773
1097,890;  704,121;    2,985;    1,227
1098,430;  956,939;    4,985;    2,864
1098,970;  849,030;    1,894;    1,682
1099,510;  691,303;   -0,833;   -2,318
1100,050;  615,121;    0,258;   -1,591
1100,589;  598,939;    0,076;   -0,318
1101,129;  718,394;    0,894;   -0,955
1101,669;  869,394;    2,803;    2,136
1102,209;  699,212;    1,530;    2,227
1102,748;  663,212;    3,439;    0,955
1103,288;  662,394;    0,712;   -1,227
1103,827;  689,121;    3,530;   -2,227
1104,367;  569,758;    1,712;   -2,409
1104,906;  542,030;   -1,015;   -1,136
1105,445;  620,667;    0,985;   -1,136
1105,985;  569,030;   -0,652;    1,500
1106,524;  609,576;    1,530;   -0,682
1107,063;  586,303;    1,167;    1,409
1107,602;  556,121;    1,894;   -1,500
1108,141;  494,121;    1,621;    1,500
1108,680;  598,848;    3,985;   -0,591
1109,219;  533,121;    0,167;   -0,500
1109,758;  533,485;    4,167;    0,682
1110,297;  515,030;   -1,106;   -0,682
1110,836;  466,758;    1,439;    0,955
1111,375;  599,212;    0,348;    0,409
1111,913;  626,394;    0,985;    0,773
1112,452;  558,848;    0,894;    0,136
1112,991;  462,667;    1,076;    1,955
1113,529;  429,121;    0,167;   -0,045
1114,068;  491,939;    0,439;    2,955
1114,606;  398,121;   -0,561;   -0,955
1115,144;  553,485;    1,530;    1,045
1115,683;  493,848;    1,985;    0,318
1116,221;  537,394;    2,076;   -0,864
1116,759;  450,485;    1,621;   -0,864
1117,297;  639,212;    1,621;    1,864
1117,836;  464,394;    1,985;   -1,227
1118,374;  470,394;    0,258;   -0,682
1118,912;  419,667;    0,439;    2,682
1119,450;  409,939;    0,985;    0,864
1119,988;  441,485;    3,348;    2,136
1120,525;  880,394;    7,258;    3,318
1121,063;  598,848;    0,530;    1,864
1121,601;  423,485;    1,076;   -1,227
1122,139;  380,576;    1,076;   -2,045
1122,676;  568,848;   -1,652;    2,773
1123,214;  505,121;    0,712;    4,409
1123,751;  334,030;    0,621;    2,227
1124,289;  453,212;    0,894;   -0,409
1124,826;  350,303;   -0,379;    0,227
1125,364;  272,758;    0,712;   -0,955
1125,901;  456,030;    6,258;    1,227
1126,438;  548,121;    3,530;    0,955
1126,975;  296,485;    2,985;   -0,773
1127,513;  353,576;    2,621;    2,136
1128,050;  280,394;   -0,561;   -0,682
1128,587;  358,394;    1,348;   -0,227
1129,124;  405,030;   -0,015;    1,318
1129,661;  294,848;   -1,924;    0,227
1130,198;  440,667;    2,439;    0,773
1130,734;  382,939;   -0,379;    1,409
1131,271;  256,212;   -1,197;    0,864
1131,808;  418,667;    1,621;    3,045
1132,345;  303,667;    4,530;    0,318
1132,881;  177,121;   -0,561;   -1,864
1133,418;  312,576;    0,348;   -1,136
1133,954;  262,485;    0,712;   -2,682
1134,491;  329,848;    1,712;   -0,773
1135,027;  235,030;    2,167;    0,864
1135,564;  320,485;    1,439;    2,955
1136,100;  308,394;   -0,742;    2,136
1136,636;  207,303;   -1,015;   -1,045
1137,172;  286,394;    0,894;   -1,045
1137,708;  224,758;   -1,561;   -1,045
1138,245;  213,030;    0,803;   -1,227
1138,781;  175,485;    1,803;   -3,318
1139,317;  235,667;    1,894;   -1,409
1139,852;  237,212;    3,076;    0,136
1140,388;  328,394;    2,076;   -0,409
1140,924;  229,303;    1,076;   -2,227
1141,460;  181,030;   -0,288;    0,136
1141,996;  119,848;   -0,652;    2,682
1142,531;  163,848;    1,076;    3,318
1143,067;  351,848;    1,167;    1,045
1143,602;  405,848;    3,439;   -0,318
1144,138;  266,394;    0,803;    1,045
1144,673;  149,758;    1,621;    1,409
1145,209;  211,848;    2,894;   -0,318
1145,744;  140,576;    0,803;    0,864
1146,279;  259,758;    1,530;   -0,136
1146,815;  184,485;    1,530;   -2,682
1147,350;  231,939;   -0,924;    0,045
1147,885;  150,576;   -1,924;   -1,318
1148,420;  143,394;    2,439;    0,773
1148,955;  129,212;   -1,470;    1,864
1149,490;  152,667;   -1,106;   -1,591
1150,025;  134,212;   -1,106;   -1,773
1150,560;  232,667;   -0,288;   -0,955
1151,094;  207,485;    0,258;   -0,591
1151,629;  212,212;   -3,742;    0,864
1152,164;  147,394;   -1,288;    1,318
1152,698;  114,030;    1,258;   -0,136
1153,233;   81,485;   -1,379;   -0,682
1153,767;  120,848;   -0,288;   -2,318
1154,302;  160,939;   -0,379;    1,773
1154,836;  163,030;    0,803;   -2,136
1155,371;  208,030;    2,258;    3,682
1155,905;  159,303;    1,985;    1,682
1156,439;  130,758;    0,530;   -0,500
1156,973;  167,848;    0,439;    0,318
1157,507;  106,848;   -1,742;    0,682
1158,042;  129,939;   -0,652;    1,045
1158,576;  173,848;   -0,561;    1,773
1159,110;  170,121;    0,076;    2,409
1159,643;  144,030;   -2,470;   -0,045
1160,177;   87,121;   -2,015;    1,500

