
Integration time [ms]:   0,050
Averaging Nr. [scans]: 11
Smoothing Nr. [pixels]: 0
Data measured with spectrometer [name]: 7318044SP
Wave   ;Sample   ;Dark     ;Reference
[nm]   ;[counts] ;[counts] ;[counts] 

186,757;   -5,565;   38,161;    1,318
187,357;   36,417;   26,706;    0,955
187,958;   12,509;   17,252;   -1,591
188,558;   51,054;   12,979;   -1,227
189,159;   32,352;   10,070;   -4,500
189,759;    3,765;    5,797;   -3,591
190,360;    6,542;    6,797;   -2,136
190,960;   38,154;    5,706;   -4,136
191,560;   48,250;    2,614;   -6,591
192,161;  277,157;    5,885;   -3,500
192,761;  130,227;    5,520;   -3,227
193,361;   76,914;    3,065;   -3,773
193,962;  135,079;    1,612;   -2,682
194,562;   60,596;   -0,114;   -3,955
195,162;  107,510;   -0,567;   -2,227
195,762;  273,962;    2,433;   -0,045
196,362;  215,884;    1,706;   -2,500
196,963;   77,791;    1,706;   -0,864
197,563;  157,063;    1,252;   -0,955
198,163;  105,217;   -0,111;   -0,682
198,763;  134,194;   -0,020;   -0,500
199,363;  239,187;    3,616;   -0,500
199,963;  194,463;    2,162;    0,409
200,563;  164,609;    6,344;   -1,409
201,163;  152,871;    5,435;   -0,227
201,763;  247,555;    1,435;    0,318
202,363;  189,236;    0,980;    1,500
202,963;  299,986;    1,526;    1,045
203,563;  413,651;    0,344;    0,500
204,162;  259,140;    1,889;   -1,864
204,762;  254,603;    2,071;    0,591
205,362;  226,695;    0,708;    1,955
205,962;  329,680;    3,435;    1,955
206,562;  327,014;    1,889;    2,318
207,161;  298,483;    1,708;    0,318
207,761;  448,048;    4,435;    2,409
208,361;  323,612;    1,889;    1,409
208,960;  422,310;    2,889;    1,500
209,560;  498,447;    0,435;    1,591
210,160;  489,689;    5,071;    1,864
210,759;  471,818;    0,708;    1,227
211,359;  465,031;   -0,474;    1,045
211,958;  734,897;    3,526;    2,045
212,558;  818,482;    0,799;    1,864
213,157;  659,230;   -0,929;    1,500
213,757; 1113,355;    5,617;   -0,227
214,356;  805,978;    1,708;   -0,409
214,956; 1157,239;    3,526;    0,409
215,555;  783,853;    0,617;    2,136
216,154;  713,432;   -0,292;   -0,591
216,754;  735,778;    1,253;    0,773
217,353;  888,200;   -0,383;   -1,045
217,952;  747,910;    2,072;    0,318
218,552;  976,192;    0,254;   -0,773
219,151;  884,510;   -1,110;    0,955
219,750;  888,741;    0,890;   -0,227
220,349; 1072,020;   -2,292;    1,045
220,948; 1110,232;    1,163;    1,136
221,548; 1177,322;    0,617;    1,227
222,147; 1293,312;   -1,292;   -0,409
222,746; 1581,751;    1,254;   -0,955
223,345; 1454,613;   -1,019;    0,500
223,944; 1500,143;    1,163;    0,773
224,543; 1713,394;    4,072;   -1,409
225,142; 1821,570;    1,345;    0,136
225,741; 1737,715;    1,163;    1,045
226,340; 1778,792;    1,254;   -0,955
226,939; 2280,113;    2,708;   -0,136
227,538; 2317,995;    1,163;   -0,773
228,137; 2441,192;    0,435;    0,864
228,735; 2673,638;    0,435;    1,227
229,334; 2394,712;   -0,474;   -0,227
229,933; 2769,250;    0,799;    0,591
230,532; 2938,783;   -1,201;   -0,409
231,131; 2994,292;    1,253;    0,318
231,729; 3186,570;    1,163;   -2,318
232,328; 3412,784;    0,435;   -1,500
232,927; 3544,662;    4,526;   -0,500
233,525; 3704,967;    0,981;    0,045
234,124; 3924,386;    1,890;   -1,591
234,723; 4009,273;    1,617;   -1,045
235,321; 4177,469;    1,163;    0,136
235,920; 4486,579;    2,526;   -1,227
236,518; 4798,957;    1,072;    0,318
237,117; 5064,661;    2,890;   -0,227
237,715; 5240,687;    1,163;   -0,500
238,314; 5304,354;    1,708;   -2,318
238,912; 5389,842;    0,526;   -1,409
239,510; 5449,353;    1,162;   -1,227
240,109; 5677,989;   -0,474;    3,773
240,707; 5742,363;   -0,474;    1,227
241,305; 6230,548;   -0,383;    0,136
241,904; 6498,548;   -0,292;   -2,045
242,502; 6448,573;    3,253;   -0,227
243,100; 6426,579;    3,344;   -0,955
243,698; 6700,878;    2,799;    1,682
244,297; 6911,811;   -0,656;    0,682
244,895; 6717,361;   -0,474;   -2,318
245,493; 7146,778;    2,981;   -0,591
246,091; 7193,164;    5,163;   -1,318
246,689; 7187,883;    2,163;    0,591
247,287; 7386,478;   -0,019;   -1,136
247,885; 7782,196;   -1,019;    1,227
248,483; 7891,527;   -0,201;   -0,500
249,081; 8087,054;    0,981;    1,591
249,679; 8249,416;   -1,019;    1,682
250,277; 8553,135;   -2,292;    0,864
250,875; 8544,133;    0,617;   -1,045
251,473; 8609,157;   -0,019;    0,500
252,071; 8804,072;   -0,383;    1,045
252,669; 8972,506;   -1,565;    0,318
253,267; 9334,073;    1,618;    0,773
253,864; 9328,659;    0,617;    0,682
254,462; 9098,624;    1,526;    1,591
255,060; 9126,036;    0,072;    1,318
255,658; 9526,506;   -3,292;   -0,136
256,255; 9971,196;   -0,201;   -2,045
256,853; 9818,741;    2,345;    1,409
257,451; 9891,851;    1,981;    1,864
258,048;10120,535;    2,072;    1,864
258,646; 9899,525;    0,436;   -1,045
259,243;10127,650;    2,981;    2,227
259,841;10189,300;    1,799;    0,318
260,438;10026,262;    0,254;    0,864
261,036;10907,671;    0,617;    1,409
261,633;10813,342;    1,526;    2,227
262,231;10553,695;   -0,110;   -0,045
262,828;10622,974;   -0,383;    1,136
263,425;10685,154;   -1,928;   -0,591
264,023;10979,672;    1,436;    0,045
264,620;10498,144;    1,526;   -0,318
265,217;10876,515;    2,890;    3,136
265,815;11027,491;    2,527;    2,136
266,412;10781,896;    0,072;    0,136
267,009;10838,388;    0,526;    0,773
267,606;10682,707;    0,345;   -0,955
268,203;10677,648;   -0,383;   -0,591
268,801;11020,531;   -0,474;    0,591
269,398;11343,164;   -0,564;    2,500
269,995;11368,520;    0,890;    1,591
270,592;11108,745;    0,799;   -0,500
271,189;11400,743;    1,981;    0,409
271,786;11525,014;    2,072;    1,227
272,383;11301,234;   -0,383;    0,227
272,980;11586,099;    1,617;    0,318
273,577;12104,368;    2,162;    1,227
274,174;11611,254;    1,435;    2,591
274,771;11587,870;    1,890;   -0,773
275,367;11742,905;    3,253;    1,409
275,964;11712,621;   -0,565;   -0,500
276,561;11851,441;   -2,474;   -1,045
277,158;12143,325;    1,799;   -1,773
277,755;12238,599;   -0,110;    0,409
278,351;11591,243;    0,436;   -1,500
278,948;11967,103;   -0,201;    0,045
279,545;11992,851;    0,527;    2,318
280,141;12629,544;    1,254;   -2,045
280,738;12539,762;    2,435;   -0,136
281,334;12785,255;   -0,383;    0,591
281,931;12156,597;    2,890;   -1,318
282,528;12302,315;    4,072;   -0,500
283,124;13063,897;    3,345;   -0,500
283,721;12973,654;    0,709;    1,409
284,317;12796,309;    0,163;    2,500
284,913;13363,274;   -0,110;    0,591
285,510;13600,820;    2,890;   -0,318
286,106;13672,038;    2,345;   -0,955
286,703;13187,226;    0,072;    1,955
287,299;13425,118;    1,254;   -0,591
287,895;13702,632;    0,890;   -1,045
288,491;14396,709;    0,163;    2,136
289,088;14034,299;    0,163;    2,409
289,684;14105,233;    2,890;    1,500
290,280;14182,973;    1,890;    0,682
290,876;14188,011;    0,163;    5,500
291,472;14114,086;    2,163;    2,227
292,068;14193,328;    1,254;    0,227
292,665;13927,936;   -0,564;    0,773
293,261;13430,760;   -1,292;    2,136
293,857;13871,137;    4,072;    2,136
294,453;13878,332;   -0,928;    0,955
295,049;13731,833;    0,253;    1,955
295,644;13691,768;   -1,292;    0,136
296,240;13629,134;    0,162;   -0,136
296,836;13719,580;   -0,747;    0,318
297,432;13992,276;    2,980;   -0,500
298,028;14014,797;    0,435;    0,773
298,624;14468,697;    0,889;    1,864
299,220;14797,586;    0,435;    0,591
299,815;14406,847;    0,526;   -0,409
300,411;14172,560;    0,435;    1,773
301,007;14232,317;    1,889;    0,227
301,602;14297,292;    2,071;   -2,318
302,198;14450,594;    1,435;   -0,773
302,794;14818,709;    1,526;   -0,500
303,389;14996,826;    1,071;    1,045
303,985;15100,909;    1,253;    1,409
304,580;14966,882;    0,889;    1,591
305,176;14978,345;    0,344;    0,136
305,771;14959,819;   -0,929;   -1,227
306,367;14701,938;    3,071;    0,136
306,962;15108,201;    2,889;    1,500
307,558;14866,680;    2,435;    0,136
308,153;14801,263;   -0,383;   -1,136
308,748;15053,178;    0,162;    1,682
309,344;15009,607;    0,253;   -1,318
309,939;15080,108;    2,071;   -1,318
310,534;15450,903;   -2,020;   -1,682
311,130;15406,253;   -0,656;   -2,500
311,725;15151,594;    0,526;   -0,500
312,320;15491,003;    1,253;    0,045
312,915;15280,730;    2,890;   -1,045
313,510;15292,818;    0,526;   -0,500
314,105;15920,533;   -3,565;    1,409
314,700;15281,239;   -1,656;   -1,045
315,295;14853,155;   -0,020;    0,045
315,890;14355,820;   -0,292;    0,864
316,485;14732,521;    0,253;   -0,318
317,080;14885,491;   -0,929;    1,591
317,675;15442,284;    3,071;   -0,682
318,270;14727,637;    6,889;    3,318
318,865;14786,538;    2,435;    3,045
319,460;14632,531;   -1,565;    0,591
320,055;14894,245;   -2,565;   -1,227
320,650;14533,805;   -1,838;   -0,591
321,244;14587,834;    0,889;   -1,409
321,839;15627,992;    0,980;   -0,227
322,434;15532,094;   -0,111;   -1,591
323,029;15086,259;   -0,474;    1,591
323,623;14929,178;    0,798;    0,773
324,218;14650,017;    2,707;    1,409
324,812;14532,627;    0,889;    1,591
325,407;14290,168;   -0,929;    2,045
326,002;14210,788;    0,526;   -0,409
326,596;14594,576;   -0,656;    1,318
327,191;14869,472;   -0,383;   -1,045
327,785;14361,485;   -0,747;   -0,227
328,379;14603,596;   -0,383;    0,136
328,974;14397,175;    1,798;   -3,955
329,568;14667,305;    2,889;   -2,409
330,163;14471,037;    2,435;    1,045
330,757;14814,513;    0,253;    1,591
331,351;14107,724;   -0,292;    0,682
331,945;14397,246;   -0,383;    1,409
332,540;13933,642;    1,617;   -0,591
333,134;14094,952;    3,344;    0,773
333,728;14329,427;    2,799;    0,318
334,322;14729,521;    0,889;   -0,864
334,916;13975,287;    0,344;    0,955
335,510;14304,013;   -0,111;   -0,136
336,105;14559,654;   -0,929;    1,591
336,699;14221,123;   -1,292;    0,591
337,293;14167,418;    1,071;    0,318
337,887;14335,400;    0,071;    1,955
338,481;14381,576;    2,980;    0,591
339,074;14547,551;    2,071;    2,682
339,668;14317,020;   -0,110;    1,227
340,262;14568,994;    7,708;    3,227
340,856;14068,794;    1,708;   -0,682
341,450;13367,384;    0,708;    1,864
342,044;14363,600;    1,799;    0,136
342,637;14094,535;    1,162;   -2,136
343,231;13925,281;   -1,474;    0,682
343,825;13845,296;   -0,747;   -0,591
344,419;13750,025;   -0,474;    0,500
345,012;13433,889;    2,889;    4,045
345,606;13452,714;   -0,656;    1,591
346,199;13305,544;   -0,111;   -0,227
346,793;12769,376;    2,525;    2,045
347,386;13024,676;    0,889;   -1,136
347,980;13001,942;   -0,838;   -0,045
348,573;12759,771;   -1,748;    0,409
349,167;12332,673;    6,161;    4,773
349,760;12698,633;    2,252;    2,682
350,354;12717,078;    1,616;    1,136
350,947;12424,656;    2,798;    1,682
351,540;12063,672;    0,616;   -1,409
352,134;11996,120;   -1,111;    1,136
352,727;12041,263;   -0,657;    1,136
353,320;11794,833;    2,343;    0,591
353,913;11656,554;   -1,929;    1,864
354,507;11834,870;    0,434;   -1,227
355,100;11813,364;    0,071;    0,864
355,693;10929,408;    4,798;    2,409
356,286;10990,657;    0,980;    2,773
356,879;11404,104;   -0,475;    1,227
357,472;10961,345;    0,980;    1,500
358,065;11143,719;    3,161;    2,500
358,658;11065,005;    0,798;    2,318
359,251;10675,295;    0,252;   -0,591
359,844;10058,148;    0,343;   -1,136
360,437;10215,075;    0,252;    0,045
361,030;10550,989;    0,525;   -0,682
361,623;10071,607;    0,434;    0,318
362,215;10115,636;    0,979;    2,045
362,808; 9956,142;   -2,293;   -1,682
363,401;10138,323;    0,798;    0,136
363,994; 9818,212;    3,252;   -1,500
364,586; 9729,450;    0,888;   -1,500
365,179; 9973,418;   -0,203;   -1,136
365,772; 9444,972;   -0,930;    2,045
366,364; 9740,901;    1,524;   -3,227
366,957; 9927,140;    1,342;   -0,045
367,549; 9985,343;   -0,203;   -0,864
368,142; 9563,490;    0,978;   -1,500
368,734; 9772,092;    2,523;   -2,136
369,327; 9716,928;    2,341;   -0,500
369,919; 9652,791;   -1,659;    0,409
370,512; 9377,410;   -1,023;   -0,500
371,104; 9068,089;    2,704;    1,591
371,696; 9238,605;    1,703;   -0,955
372,289; 9373,391;    0,157;    1,136
372,881; 9549,382;    1,156;    1,318
373,473; 9461,852;    4,064;    1,136
374,066; 9250,622;    1,336;    0,500
374,658; 9047,926;    0,879;    1,136
375,250; 9492,143;   -1,668;   -1,409
375,842; 9300,473;   -0,124;   -0,045
376,434; 9163,310;   -2,762;   -0,409
377,026; 9840,013;   -1,855;   -2,500
377,618; 9726,207;    0,779;   -0,682
378,210; 9550,380;    3,141;   -1,955
378,802; 9369,337;    3,412;   -0,591
379,394; 9247,421;    3,411;    0,682
379,986; 9965,360;    1,138;   -0,955
380,578;10083,721;    1,410;    0,773
381,170; 9300,046;    0,320;    0,045
381,762; 9252,070;   -0,224;    1,409
382,354; 9542,278;   -0,223;   -1,318
382,945; 9647,999;    0,870;    0,318
383,537; 9860,951;    1,144;   -1,955
384,129; 9802,532;    0,963;   -1,136
384,721;10002,355;    0,418;    0,955
385,312; 9946,543;   -1,399;   -0,955
385,904;10011,614;   -0,945;    1,591
386,496; 9341,957;    0,691;    1,045
387,087; 9500,521;    0,418;    2,500
387,679; 9552,998;   -0,401;    0,045
388,270; 9679,436;   -2,401;    2,045
388,862; 9825,335;   -0,401;   -0,318
389,453; 9716,521;    1,054;    1,045
390,045; 9994,488;    3,236;   -2,682
390,636; 9945,494;    0,144;   -0,591
391,227; 9807,242;    2,054;   -0,045
391,819; 9878,116;    0,781;    0,773
392,410; 9923,200;    0,600;    0,045
393,001; 9899,664;    1,600;   -1,591
393,593;10207,099;    0,600;   -0,045
394,184;10036,045;    0,873;   -0,409
394,775; 9947,814;    1,146;    2,136
395,366;10153,924;    1,782;    0,773
395,957;10213,432;   -2,400;    0,136
396,548;10558,747;    1,054;    2,682
397,139;10886,493;    2,236;    0,591
397,730;10584,147;    0,873;    0,955
398,321;10654,172;    0,509;    0,955
398,912;10665,365;   -0,764;    0,136
399,503;10787,654;   -1,945;   -1,409
400,094;10159,825;   -1,582;    1,682
400,685;10006,898;    3,600;    0,045
401,276;10111,011;   -0,400;   -0,955
401,867;10438,175;   -1,127;    0,773
402,458;10529,324;    1,509;   -2,318
403,048;10521,326;    0,146;    0,591
403,639;10095,059;    1,509;    0,864
404,230;10293,468;    0,691;    0,318
404,821;10209,745;   -0,127;    0,045
405,411;10364,024;   -0,763;   -2,591
406,002; 9904,013;    3,237;   -1,136
406,592; 9705,138;    2,691;    0,045
407,183;10091,547;    0,328;   -1,500
407,774; 9962,856;    1,419;   -0,136
408,364;10346,745;    2,600;    0,409
408,954; 9884,898;   -0,036;    1,227
409,545; 9955,418;    1,873;    1,045
410,135; 9391,205;   -1,581;    0,500
410,726; 9616,761;    0,783;    0,318
411,316;10051,144;    2,237;    0,773
411,906; 9661,640;    0,146;   -0,409
412,497; 9084,990;   -0,490;   -0,045
413,087; 9793,528;    0,783;   -0,227
413,677;10226,067;   -2,490;    3,864
414,267;10014,999;   -1,035;    1,409
414,857;10083,051;    0,419;    4,227
415,448;10362,059;   -0,763;    0,500
416,038;10005,044;   -2,945;   -0,591
416,628; 9963,950;    0,965;    0,409
417,218; 9356,856;   -1,762;    3,318
417,808; 9681,635;    0,965;   -0,409
418,398;10204,858;   -1,035;    2,682
418,988;10218,323;   -2,217;    0,591
419,578;10509,358;    3,601;    1,409
420,168;10896,475;    0,692;   -0,955
420,757;10418,274;    0,964;   -1,500
421,347;10063,058;    1,601;   -0,227
421,937;10252,975;    3,329;    1,409
422,527;10165,633;    2,602;   -0,773
423,116; 9952,247;    2,692;   -0,045
423,706;10407,053;    2,965;    0,318
424,296;10379,581;    1,601;    0,682
424,885;10804,672;    1,510;   -3,045
425,475;11138,529;    1,147;   -2,864
426,065;11057,363;   -1,489;   -0,318
426,654;10660,147;    0,329;   -0,318
427,244;10739,869;    1,147;    1,409
427,833;10161,900;    1,056;   -0,500
428,423;10711,292;    0,147;    1,136
429,012;11537,979;    2,420;   -1,136
429,601;10940,861;    2,057;    0,136
430,191;11234,397;    2,511;    4,318
430,780;10795,730;   -1,671;   -0,409
431,369;10712,415;    1,329;   -0,045
431,959;11457,309;    1,693;    0,500
432,548;11231,641;   -1,398;   -0,045
433,137;11384,927;    0,329;   -1,318
433,726;11933,031;    0,148;    0,500
434,315;11227,166;    0,148;    2,409
434,905;11338,636;    0,693;    1,409
435,494;11234,496;    3,148;    0,955
436,083;11734,768;    1,420;   -0,955
436,672;11595,599;    1,148;    0,500
437,261;11132,665;    0,512;   -1,955
437,850;11220,545;   -1,125;    0,682
438,439;11192,104;    2,239;    1,955
439,027;10973,264;    3,421;    1,773
439,616;11397,016;    2,239;    1,227
440,205;11291,546;    0,057;   -2,136
440,794;11402,422;   -0,306;   -0,045
441,383;11656,423;    1,603;   -0,591
441,971;11541,934;   -0,306;    0,591
442,560;11363,356;    0,603;   -1,773
443,149;11149,916;    3,060;   -1,318
443,737;11323,046;    0,968;   -2,318
444,326;11562,564;    0,331;    0,318
444,915;11609,281;   -1,851;    0,864
445,503;12048,005;    0,058;   -0,318
446,092;11248,710;    7,876;    2,136
446,680;11862,567;    1,876;    0,318
447,269;12064,975;   -1,487;   -0,318
447,857;11807,693;    2,240;   -1,773
448,445;11902,514;    2,149;    1,318
449,034;12191,314;    0,876;   -1,136
449,622;12343,959;    1,240;    3,500
450,210;11413,330;    3,149;    2,227
450,799;12028,118;    2,604;   -0,591
451,387;11957,856;    1,786;   -0,591
451,975;11508,761;   -1,305;    0,864
452,563;11621,027;    0,422;    2,318
453,151;11695,369;   -1,032;   -1,227
453,739;11606,144;   -1,577;    0,136
454,328;11419,908;    0,604;   -2,136
454,916;11125,897;    1,150;   -0,136
455,504;11289,528;    3,513;    1,227
456,092;11507,540;    2,150;   -1,591
456,679;11507,442;    0,604;    0,682
457,267;11325,705;    3,604;    1,045
457,855;11564,503;    3,241;    1,409
458,443;11350,438;   -0,304;    1,682
459,031;11461,217;    1,332;    2,409
459,619;11984,435;   -3,577;    2,864
460,206;12126,274;   -0,759;    2,045
460,794;12238,519;   -0,668;   -0,227
461,382;12520,629;    0,878;   -0,864
461,970;12054,381;    0,605;    1,864
462,557;12060,851;    0,878;   -0,682
463,145;12294,814;   -0,304;   -1,682
463,732;12424,727;    2,514;   -1,045
464,320;12364,694;    1,514;   -3,045
464,907;11982,674;    0,423;   -0,773
465,495;11860,419;    2,696;   -1,227
466,082;12034,793;    2,060;   -0,045
466,670;11943,464;    2,605;    1,227
467,257;12341,095;    0,060;    2,045
467,844;12538,843;    1,514;    0,045
468,432;12565,001;   -0,031;    3,500
469,019;12037,392;    1,606;   -1,773
469,606;12502,948;    0,969;    3,682
470,193;12323,953;    2,151;    0,227
470,780;11825,760;    0,333;    0,864
471,368;12197,858;   -1,212;   -0,773
471,955;11998,325;    1,060;   -0,682
472,542;11573,038;   -0,303;   -1,136
473,129;11824,253;   -0,485;    0,136
473,716;11577,614;    0,060;    0,591
474,303;11766,995;    1,333;   -0,864
474,890;12102,798;    2,333;   -0,500
475,477;12072,513;   -0,576;    0,409
476,064;12006,491;    0,697;   -1,591
476,650;11931,448;    2,152;    0,318
477,237;11782,903;    1,879;    0,955
477,824;11954,897;    3,879;    0,864
478,411;12007,317;    0,606;   -0,318
478,997;12214,879;    0,606;   -0,773
479,584;12290,923;   -0,666;   -0,409
480,171;13061,638;    1,243;   -0,773
480,757;12707,177;   -0,848;    0,773
481,344;13030,258;    0,334;    0,409
481,931;12514,924;   -0,393;    1,045
482,517;13556,813;    0,425;    0,318
483,104;14242,981;    1,334;    2,864
483,690;14652,007;    0,243;    0,045
484,276;15083,866;    0,698;    0,227
484,863;14858,027;    2,152;    1,136
485,449;15493,385;    0,152;    0,318
486,035;15471,362;   -0,666;   -0,136
486,622;15943,453;   -2,393;    0,045
487,208;15879,359;    1,334;    1,500
487,794;15748,466;    0,971;    0,318
488,380;15893,080;    0,698;   -1,409
488,967;15969,872;   -1,120;   -0,409
489,553;16000,494;   -1,029;   -1,409
490,139;16187,932;    0,971;    0,773
490,725;15601,885;    0,789;   -0,227
491,311;15086,445;    1,516;    3,045
491,897;14237,471;   -0,665;    1,500
492,483;13999,937;    0,426;    1,227
493,069;13657,108;    5,426;    0,864
493,655;13652,487;    1,789;    0,682
494,241;13584,229;    1,517;   -0,955
494,826;14012,485;    0,335;   -1,045
495,412;13457,609;    0,335;   -0,682
495,998;13640,413;    0,971;   -0,318
496,584;13755,880;    2,244;    1,045
497,169;13753,487;    2,335;   -0,682
497,755;13702,128;    1,244;    1,227
498,341;14261,933;    2,153;    0,318
498,926;13805,402;    2,881;    1,955
499,512;14046,844;   -0,028;    2,955
500,097;14197,914;   -0,574;   -0,318
500,683;14111,083;   -0,028;    2,136
501,268;14531,497;    1,881;   -0,955
501,854;14235,477;   -0,119;    1,227
502,439;14176,991;   -0,573;   -1,773
503,024;14378,422;    1,608;    0,500
503,610;14436,338;    1,335;   -0,682
504,195;14448,648;    1,245;    1,955
504,780;14548,714;    2,335;    1,227
505,366;14372,662;    4,063;    2,864
505,951;14078,901;   -1,119;    1,045
506,536;14081,610;    1,427;   -3,682
507,121;14102,358;    1,699;   -0,318
507,706;14628,747;   -0,392;    1,045
508,291;15051,819;   -2,937;    1,136
508,876;14481,691;   -0,482;    2,591
509,461;13937,873;    1,427;   -0,773
510,046;14344,963;   -0,391;    0,318
510,631;14610,725;   -0,119;   -0,773
511,216;14263,176;   -0,664;   -0,500
511,801;14616,330;   -0,755;    2,591
512,386;14950,125;    0,972;    0,500
512,971;14887,185;    0,427;    0,955
513,555;14434,624;    1,154;   -1,500
514,140;15287,808;    1,336;   -3,136
514,725;15276,324;    1,791;   -1,136
515,309;15440,818;    1,064;    0,318
515,894;14849,412;   -0,300;   -2,227
516,479;15258,590;    1,973;   -0,955
517,063;15123,330;    0,882;    1,227
517,648;15257,092;    0,155;   -1,136
518,232;14885,094;   -1,300;   -1,409
518,817;15207,078;    1,337;    1,682
519,401;15456,811;    0,700;    0,591
519,985;14905,742;    2,700;    1,136
520,570;14789,203;   -0,118;   -1,955
521,154;15148,473;    0,064;    0,591
521,738;15314,805;    1,064;    2,409
522,323;15944,966;   -0,390;    1,682
522,907;15681,110;    2,428;   -0,136
523,491;15349,318;    1,155;    0,955
524,075;15355,756;    0,428;    0,591
524,659;15438,552;    0,973;    0,591
525,243;14824,710;    0,883;    0,409
525,827;15074,641;    0,883;   -0,045
526,411;15979,915;    1,155;   -0,136
526,995;16279,150;    0,337;    1,409
527,579;15813,379;    1,974;   -1,045
528,163;16159,914;    0,428;   -1,500
528,747;16081,507;    1,065;   -0,773
529,331;16354,224;    0,883;   -1,409
529,915;16567,328;    2,338;    0,955
530,499;16517,659;    0,247;    1,227
531,082;16199,271;    1,065;    1,591
531,666;15609,808;    0,520;    0,773
532,250;16367,128;    0,428;    2,682
532,833;16743,732;    0,610;    2,773
533,417;16591,600;    1,247;    0,864
534,001;16546,525;    0,429;   -0,318
534,584;17296,194;    1,974;    0,500
535,168;17133,722;    3,247;    1,409
535,751;17186,668;    4,520;    0,045
536,334;16587,564;    4,520;   -0,409
536,918;17259,571;    1,974;    1,591
537,501;17351,783;    1,520;    1,318
538,085;17317,298;    1,702;    1,045
538,668;17498,373;    0,883;    2,409
539,251;17865,630;    3,156;    3,773
539,834;17905,232;    0,156;    0,773
540,418;17799,598;    3,247;    4,318
541,001;17956,314;    2,702;    1,773
541,584;17954,777;    1,429;    2,227
542,167;17581,938;    0,702;    2,955
542,750;17737,231;    0,793;   -0,773
543,333;17345,119;    1,429;    2,136
543,916;18193,053;   -0,298;    2,500
544,499;18847,561;    2,520;    0,227
545,082;18863,008;    0,248;    3,591
545,665;19005,699;   -0,207;    1,500
546,248;19358,937;    0,520;   -0,318
546,830;18999,224;   -1,752;    1,955
547,413;19482,572;    0,157;   -0,773
547,996;20049,105;    0,157;    0,500
548,579;19806,583;   -0,843;    0,955
549,161;19598,848;    0,884;    2,682
549,744;19377,780;    0,612;    0,409
550,326;19927,524;    0,885;   -1,136
550,909;19666,158;    2,339;    0,591
551,492;20100,836;    0,521;    0,227
552,074;19867,805;   -0,024;   -1,318
552,657;20460,599;    2,430;    0,045
553,239;20235,642;   -3,024;   -0,773
553,821;20120,288;   -1,570;    1,045
554,404;19578,557;   -0,024;    1,136
554,986;19973,479;    2,248;    1,045
555,568;20597,977;    0,430;   -0,955
556,151;19717,961;    4,067;   -0,227
556,733;19976,708;   -1,388;   -0,864
557,315;20491,621;    4,703;    0,500
557,897;20270,099;    0,521;   -0,500
558,479;20427,331;    1,703;    1,318
559,061;20589,317;    1,067;   -0,864
559,643;20959,436;   -0,297;    0,045
560,225;21333,606;   -0,388;    2,864
560,807;21366,163;    0,340;    0,318
561,389;20830,273;   -1,206;    2,318
561,971;21601,601;   -0,660;    2,136
562,553;21380,723;    0,613;    1,591
563,135;21546,821;    1,249;    1,136
563,717;21111,143;    3,158;    1,136
564,298;21866,626;    3,976;   -0,045
564,880;21613,237;    0,340;   -1,409
565,462;21780,510;    1,977;    1,318
566,043;23010,712;   -0,933;    2,318
566,625;22564,249;    4,067;    1,227
567,207;22444,496;    0,704;    1,682
567,788;23607,902;   -0,114;    1,500
568,370;24505,994;   -1,841;   -0,500
568,951;24333,475;   -0,569;    0,227
569,533;25308,206;    0,977;   -0,500
570,114;25808,642;   -0,296;    0,682
570,695;26312,615;   -0,478;   -1,318
571,277;26919,900;   -0,205;   -1,682
571,858;27716,665;    2,704;   -1,136
572,439;28715,429;    0,795;   -1,045
573,021;28901,829;    0,432;   -2,773
573,602;29427,171;    1,795;    0,318
574,183;30458,796;   -0,114;    2,227
574,764;30660,918;    2,068;    0,409
575,345;31241,104;    0,250;   -0,136
575,926;31962,707;    2,704;    0,136
576,507;31931,981;    2,704;   -0,227
577,088;33091,220;    1,704;    1,682
577,669;33132,897;    1,704;    1,955
578,250;33934,432;   -0,750;   -1,045
578,831;34655,692;   -0,841;   -2,227
579,412;34972,244;   -1,205;    0,955
579,993;35905,782;    1,432;    0,227
580,573;36278,279;   -0,023;   -0,955
581,154;35185,666;    1,613;   -0,591
581,735;36075,764;    0,341;    0,773
582,315;35567,855;    0,523;    2,136
582,896;35966,009;   -1,750;    1,227
583,477;35394,762;    0,614;    1,227
584,057;35533,204;    1,159;    0,955
584,638;35814,510;   -2,750;    2,318
585,218;35826,732;    2,886;    2,682
585,799;35981,514;    1,977;   -0,227
586,379;35925,220;    1,250;    1,591
586,959;34664,953;    2,613;    0,318
587,540;33919,567;    0,432;    2,227
588,120;33336,024;   -1,113;   -0,045
588,700;32252,222;    2,977;    2,136
589,281;32529,031;    1,250;   -0,955
589,861;32469,570;   -0,296;   -1,682
590,441;32290,048;   -1,477;   -2,682
591,021;31189,501;    1,432;   -2,591
591,601;31446,920;    0,431;    0,500
592,181;31433,919;   -1,296;   -0,773
592,761;30652,282;    2,250;    1,409
593,341;30513,547;    1,522;    0,045
593,921;30468,642;   -0,569;    1,591
594,501;30383,895;    1,250;    1,318
595,081;30178,567;    0,522;   -0,318
595,661;30552,992;    1,068;    0,955
596,240;31110,681;   -1,023;    0,136
596,820;30774,641;    2,613;    1,955
597,400;30972,363;    1,977;    0,773
597,980;31194,281;   -0,750;    1,045
598,559;31204,428;    0,341;   -0,227
599,139;30852,934;   -0,750;   -1,227
599,718;30780,662;    0,795;   -0,409
600,298;31040,552;   -2,387;    0,682
600,877;31304,125;    4,795;    1,409
601,457;31575,267;    0,340;    1,136
602,036;31462,548;    1,795;    2,045
602,616;31652,272;    2,250;    1,682
603,195;31989,804;    0,431;    3,500
603,774;31548,004;   -0,296;    2,045
604,354;31398,807;    2,522;   -0,500
604,933;30855,622;    0,250;    1,864
605,512;31022,981;    2,340;    0,591
606,091;31065,074;    1,886;    3,773
606,671;31880,333;    0,249;    0,773
607,250;30822,442;    1,431;    3,136
607,829;31104,607;    1,158;    3,227
608,408;30968,660;    4,613;    2,591
608,987;29981,847;    2,704;    3,409
609,566;30311,001;    0,341;   -2,500
610,145;30358,121;    2,885;    0,682
610,723;30793,007;    1,613;    6,864
611,302;30003,769;    1,067;    1,682
611,881;29428,747;    5,158;   11,227
612,460;30298,376;    0,795;    3,955
613,039;30740,327;    1,703;    2,045
613,617;29398,765;    0,886;    4,773
614,196;29580,500;    1,613;    1,227
614,775;29954,550;    1,249;    2,409
615,353;29927,603;   -1,660;    0,864
615,932;29588,232;    0,249;    2,409
616,510;30231,632;    0,158;    0,591
617,089;29721,498;    8,794;   17,591
617,667;29439,787;    4,885;    6,136
618,246;29196,262;   -1,115;    1,318
618,824;29424,627;    1,612;   -0,955
619,402;28947,999;    0,431;   -1,773
619,981;29433,887;    1,067;   -1,045
620,559;29324,048;    0,794;    1,682
621,137;28863,885;    3,067;    1,864
621,715;28797,226;    3,703;   -0,682
622,293;28700,843;    1,885;   -0,773
622,871;29161,621;    0,340;    0,500
623,450;28726,423;    0,430;   -0,864
624,028;28634,800;   -0,388;   -0,955
624,606;28204,102;    2,339;    1,682
625,183;28617,948;   -0,661;   -1,136
625,761;28220,939;    1,885;    1,136
626,339;28570,385;    2,339;    2,591
626,917;28930,394;    0,339;   -0,045
627,495;28986,635;    2,794;    1,318
628,073;28392,630;    5,248;    2,864
628,650;28073,077;    3,067;    2,136
629,228;28535,239;    1,248;    4,409
629,806;27876,458;   -0,024;    1,136
630,383;28155,187;    0,066;   -0,318
630,961;27874,400;   -2,206;   -0,955
631,539;27585,136;   -2,479;    0,227
632,116;26770,673;   12,703;   15,409
632,694;27455,204;    4,885;    6,500
633,271;27815,961;    1,975;    2,682
633,848;27701,536;    1,430;    2,045
634,426;27750,568;    1,521;    1,773
635,003;26873,043;   -0,207;   -0,409
635,580;27146,735;    1,884;    3,682
636,158;27729,308;    3,793;    1,227
636,735;27704,994;    3,339;   -0,500
637,312;27885,273;    0,521;   -0,682
637,889;27979,765;    2,248;   -0,682
638,466;27402,956;    0,066;   -0,409
639,043;27422,194;    1,702;   -1,136
639,620;27721,515;    0,611;   -0,955
640,197;28064,862;    1,612;    1,682
640,774;28186,474;    1,430;    1,136
641,351;28598,541;    0,612;    1,136
641,928;28030,335;    2,794;    1,409
642,505;27665,947;    0,794;   -0,500
643,082;27713,014;    1,885;    1,227
643,658;26706,172;    1,157;    1,500
644,235;27530,511;   -2,479;    2,500
644,812;27763,214;    1,794;    0,773
645,388;27518,645;    1,612;    1,409
645,965;27546,893;    1,521;    1,682
646,542;27664,415;    3,430;   -0,227
647,118;27656,936;    3,703;   -0,955
647,695;27946,458;    0,339;    1,136
648,271;27867,252;   -2,115;    0,500
648,848;28191,409;    0,248;    2,227
649,424;28033,476;    0,976;    1,318
650,000;27740,088;   -0,388;   -1,045
650,577;27604,610;    0,158;   -0,955
651,153;28115,586;   -1,115;    0,955
651,729;29098,834;    0,521;    0,864
652,305;29336,628;    1,339;    2,773
652,881;34087,059;   -1,297;    1,136
653,458;41553,035;    0,249;    0,227
654,034;45826,465;    0,703;    1,591
654,610;47480,986;    0,339;    0,773
655,186;48881,235;    1,612;    3,045
655,762;48646,756;   -1,842;    0,409
656,338;48699,187;    0,703;    0,136
656,913;49769,253;   -0,297;    0,409
657,489;49075,048;    0,249;   -0,318
658,065;48989,387;    0,794;   -1,591
658,641;49553,090;    2,158;   -0,864
659,217;48805,430;    2,067;    0,409
659,792;48248,678;   -1,751;   -0,409
660,368;48617,200;   -0,388;   -0,682
660,944;48244,357;    1,794;    1,227
661,519;43277,333;    0,522;    0,409
662,095;36557,673;   -0,206;    0,591
662,670;31397,012;   -0,206;   -0,136
663,246;30138,443;   -0,660;   -0,409
663,821;29356,328;    0,431;    1,682
664,396;28816,940;    0,613;    1,864
664,972;29094,189;   -0,660;   -0,500
665,547;29461,892;    3,794;    0,136
666,122;29492,959;    1,340;    0,318
666,698;29748,298;    2,431;    0,318
667,273;29047,365;    0,885;    0,136
667,848;29896,795;    0,340;    1,500
668,423;29631,589;    1,795;    2,318
668,998;30268,929;    0,976;   -0,682
669,573;30846,177;    2,067;   -1,500
670,148;30600,426;    1,885;   -0,682
670,723;30427,402;   -0,024;    0,318
671,298;30921,832;   -1,296;    1,045
671,873;31006,626;   -0,296;   -0,136
672,448;30983,966;    1,704;    0,136
673,023;31328,305;    0,249;   -0,227
673,597;31678,827;    2,704;    2,318
674,172;31374,530;    2,431;    0,318
674,747;30807,688;   -0,205;   -1,045
675,321;30716,845;   -0,933;    3,318
675,896;30265,094;    2,158;    1,045
676,471;31257,343;    2,522;    1,591
677,045;31069,864;   -0,296;    0,682
677,620;31090,749;    2,158;    1,136
678,194;31416,907;    0,249;    1,136
678,769;30940,973;    0,886;   -0,318
679,343;31215,404;   -0,023;    1,773
679,917;31095,562;    0,340;    1,955
680,492;31187,537;    0,249;    3,227
681,066;31310,059;    0,613;    0,409
681,640;31330,762;    1,795;   -0,318
682,214;32110,738;    2,340;    0,500
682,788;31654,077;    0,613;   -0,773
683,363;31609,690;    1,977;    1,682
683,937;31277,484;    0,886;   -0,318
684,511;32134,096;   -1,023;   -0,591
685,085;31809,435;   -1,478;    0,318
685,659;31537,411;    1,431;    0,864
686,232;31729,660;    1,159;   -0,318
686,806;31491,909;    2,159;    0,409
687,380;32222,794;   -1,932;    0,591
687,954;32453,860;    2,432;    1,136
688,528;32105,291;    2,613;    1,955
689,101;32880,721;    0,432;    1,045
689,675;32420,061;    0,886;   -0,136
690,249;31693,855;    3,432;    0,409
690,822;32054,831;    1,159;    0,318
691,396;32178,352;    2,068;    1,227
691,969;31603,146;    2,523;    0,136
692,543;32163,849;   -0,568;   -1,955
693,116;31788,916;   -0,659;   -1,409
693,690;31551,892;   -0,296;    0,500
694,263;32173,504;    2,341;    2,955
694,836;32187,571;    2,795;    3,591
695,410;30777,456;    1,159;    1,773
695,983;31281,250;    1,614;    0,591
696,556;31207,408;   -0,750;   -1,045
697,129;31694,293;   -1,114;    1,409
697,703;31225,541;    1,341;    1,955
698,276;31257,517;    1,705;   -0,773
698,849;31037,129;   -1,023;    1,409
699,422;31428,560;    1,250;    0,591
699,995;31069,172;   -0,659;    0,136
700,568;31632,693;   -0,204;    3,045
701,140;31661,487;   -1,841;    1,682
701,713;31314,918;    0,341;    2,409
702,286;31086,166;    0,796;    0,864
702,859;30969,051;    0,614;   -0,591
703,432;30057,300;   -0,841;    0,682
704,004;30581,731;    1,978;    0,318
704,577;30455,797;    1,068;    0,136
705,150;31023,319;    0,887;    2,500
705,722;30817,476;    1,523;   -3,227
706,295;30606,543;    1,432;   -0,591
706,867;30437,428;    0,250;    1,955
707,440;30673,768;   -0,113;   -0,409
708,012;30893,380;   -0,022;    0,591
708,584;30816,628;    2,705;    0,227
709,157;31152,059;    1,160;   -0,591
709,729;30826,580;    1,069;    2,045
710,301;31635,556;   -1,204;    0,045
710,874;31638,714;    0,341;   -0,227
711,446;30501,326;   -0,295;    0,864
712,018;30394,757;   -3,022;    0,500
712,590;30117,551;   -0,204;    1,682
713,162;30642,163;   -0,477;    1,318
713,734;30891,321;    1,796;   -2,045
714,306;30748,478;    0,342;   -0,409
714,878;29448,545;   -0,295;    0,864
715,450;30227,430;   -0,113;    0,864
716,022;30526,406;    2,433;    1,318
716,593;30677,291;    0,978;    0,591
717,165;30618,994;    1,796;   -1,227
717,737;30329,606;    0,796;    0,409
718,309;29996,946;    1,160;   -0,045
718,880;29930,467;   -1,295;   -1,409
719,452;30148,625;    0,887;   -1,591
720,024;29741,237;    1,705;   -0,591
720,595;30240,758;    2,978;    0,955
721,167;29724,643;    1,160;   -2,045
721,738;29292,165;    2,069;   -1,045
722,309;29198,050;    1,251;   -1,227
722,881;28980,662;    2,705;    0,773
723,452;29705,911;    1,251;    2,864
724,023;29837,523;    1,524;    2,682
724,595;29594,408;    2,342;    0,682
725,166;29315,111;    1,524;   -0,409
725,737;28954,178;    1,887;    0,227
726,308;29070,063;    0,797;    0,318
726,879;29463,493;    1,069;    1,227
727,450;29324,378;   -2,022;   -0,045
728,021;29270,172;    1,069;    0,682
728,592;29114,966;    1,160;    0,500
729,163;29458,033;    1,433;   -0,136
729,734;29390,736;    2,160;   -0,227
730,305;29790,258;    0,615;    0,136
730,876;30173,415;    0,888;    2,955
731,447;29881,118;    0,797;    2,682
732,017;30031,640;   -0,840;    1,864
732,588;29489,525;   -0,021;    1,227
733,159;29663,319;    3,615;   -1,045
733,729;29494,749;    1,251;    0,409
734,300;28744,089;    0,160;    0,864
734,870;29150,065;   -1,385;    0,591
735,441;29672,495;    0,888;   -0,591
736,011;29428,380;    1,070;   -1,591
736,582;29405,720;    1,251;    0,045
737,152;28877,786;    0,979;   -2,045
737,722;29342,035;    1,070;   -0,682
738,293;29026,829;   -2,021;    1,318
738,863;28885,259;    1,797;    2,318
739,433;28718,417;    4,524;    0,318
740,003;29365,666;    1,524;   -0,682
740,573;28701,823;    2,252;   -1,591
741,143;28681,254;    3,615;    0,318
741,713;29449,684;    0,252;   -0,500
742,283;29129,297;    1,706;    1,591
742,853;28826,454;    0,524;    1,591
743,423;28377,521;    0,161;    0,045
743,993;28505,770;    1,070;    1,500
744,563;27823,564;    2,524;   -0,864
745,133;27749,176;   -0,112;   -0,864
745,702;28448,970;    2,797;    1,773
746,272;27649,673;    0,434;    0,591
746,842;27451,195;   -0,748;   -0,591
747,411;27908,898;   -0,839;   -0,318
747,981;28066,237;   -0,930;    0,500
748,551;28121,486;   -0,021;   -1,045
749,120;27938,007;   -0,112;   -0,227
749,690;28286,983;    2,161;    2,409
750,259;28646,232;    0,979;    2,955
750,828;28561,389;    4,070;   -1,955
751,398;28775,274;   -0,112;   -0,045
751,967;28231,341;    2,888;    0,409
752,536;28512,590;    1,161;   -0,227
753,105;28885,838;   -1,384;    0,227
753,675;28742,360;   -0,112;    1,773
754,244;28712,245;    0,888;    3,591
754,813;28713,039;    0,979;    1,227
755,382;28351,651;    0,798;    0,955
755,951;28877,354;   -0,112;    3,682
756,520;28400,421;    2,525;    1,864
757,089;29010,306;    1,888;    0,500
757,658;29113,191;    2,434;    1,227
758,227;29121,530;   -1,111;    0,318
758,795;29446,961;   -1,021;    1,136
759,364;29659,391;    0,525;   -0,591
759,933;28666,731;    1,343;   -0,045
760,501;28173,070;    0,252;   -1,318
761,070;28637,955;   -0,293;   -1,409
761,639;29409,568;    1,434;    1,318
762,207;28640,180;    0,889;   -0,955
762,776;28619,337;    2,889;    0,864
763,344;28523,677;    0,071;    0,591
763,913;27654,653;    1,616;    1,409
764,481;28439,083;    1,980;   -0,136
765,049;28190,877;    0,616;    1,409
765,618;28025,308;    1,434;    0,318
766,186;28157,920;    2,434;    0,136
766,754;28333,350;    1,798;    1,864
767,322;27275,781;    1,162;    0,409
767,890;27354,030;    0,525;   -1,773
768,459;27711,460;    2,616;   -0,318
769,027;27829,981;    2,525;    3,409
769,595;26845,684;    2,616;    2,591
770,163;27315,933;    3,344;    2,955
770,730;27007,273;    2,525;   -0,136
771,298;26847,248;    1,162;   -1,409
771,866;26969,952;    0,253;    4,955
772,434;27249,837;    1,162;   -1,864
773,002;27484,903;    2,616;    0,682
773,569;27080,607;    1,071;    1,682
774,137;26868,492;    0,889;   -0,045
774,705;27649,013;   -0,747;   -0,136
775,272;27133,171;    0,253;    0,682
775,840;26917,510;   -0,111;    2,682
776,407;26381,759;   -0,293;    1,955
776,975;25971,553;    1,162;    0,318
777,542;27040,529;    2,162;   -0,045
778,110;26949,595;    0,707;   -0,045
778,677;26543,299;    1,071;   -0,864
779,244;26258,911;   -1,020;    1,045
779,812;26393,796;    0,980;    0,864
780,379;26234,499;    2,435;    1,136
780,946;26480,838;    2,617;   -0,773
781,513;26812,269;   -0,565;    0,318
782,080;26141,245;    1,253;    2,864
782,647;26871,675;    1,708;    3,045
783,214;26460,106;   -0,201;    3,864
783,781;26058,082;    1,708;   -0,682
784,348;25957,512;    0,253;    1,500
784,915;26404,670;   -1,474;    0,318
785,482;26134,555;    2,708;    2,591
786,049;26623,349;    1,071;   -0,591
786,615;26710,779;    1,708;   -0,955
787,182;26474,846;   -3,201;   -0,682
787,749;26140,640;   -2,201;    1,409
788,315;25445,798;    0,253;   -0,409
788,882;25761,774;    0,981;   -1,227
789,448;26401,840;    1,435;   -0,955
790,015;26458,453;    1,799;    3,227
790,581;26012,883;    0,708;    0,227
791,148;25923,041;    1,344;    1,045
791,714;26133,289;   -1,019;    3,136
792,280;25832,902;    3,708;    1,591
792,847;25355,150;   -0,928;    2,500
793,413;25928,490;   -0,110;   -0,318
793,979;25458,647;    1,526;   -1,318
794,545;25510,260;    2,981;    2,682
795,111;24877,508;    2,435;    1,318
795,678;25085,302;    3,526;   -1,682
796,244;24711,096;    2,799;    0,136
796,810;25294,163;    0,799;    0,773
797,375;25017,775;   -0,292;   -2,136
797,941;25003,660;   -1,110;    0,591
798,507;25075,182;    0,254;   -0,955
799,073;24620,158;    2,708;    0,591
799,639;24757,952;    1,435;    3,136
800,205;24794,200;   -1,565;    2,682
800,770;24271,994;    1,345;    1,773
801,336;24365,607;    2,981;   -0,955
801,901;24030,855;    6,072;    3,136
802,467;24585,468;    0,526;    2,045
803,033;23921,262;   -0,019;    0,864
803,598;24135,692;    1,072;   -1,045
804,163;24178,304;    0,708;   -0,318
804,729;24120,462;   -0,110;    1,136
805,294;24511,165;    1,072;    2,227
805,859;24342,596;    0,890;   -0,409
806,425;23774,481;    3,890;    2,682
806,990;23421,638;    1,890;    4,318
807,555;23966,887;   -0,110;    2,591
808,120;23854,772;   -1,292;   -0,409
808,685;23904,839;    1,072;   -2,500
809,250;23383,905;    2,072;   -0,500
809,815;23735,336;   -0,201;    0,682
810,380;24261,130;    0,981;    1,591
810,945;24807,560;    2,890;    2,045
811,510;23986,445;   -0,200;    1,591
812,075;23599,785;    2,800;   -1,409
812,640;23692,488;    3,709;    1,409
813,204;23722,737;    2,163;   -0,227
813,769;24191,712;    0,254;   -0,045
814,334;23593,870;    0,527;    0,864
814,898;23670,573;    1,981;    0,591
815,463;23481,458;    0,981;   -0,773
816,027;23501,707;    1,345;   -2,318
816,592;23541,592;    2,163;   -2,045
817,156;23015,022;   -2,200;    1,136
817,721;22810,453;    0,982;    2,318
818,285;22783,792;    0,618;    1,500
818,849;23492,859;   -0,018;    1,682
819,414;23364,199;    0,073;    2,955
819,978;22884,174;   -0,291;    1,773
820,542;23507,878;    2,891;    0,500
821,106;23254,763;    2,800;    0,682
821,670;23340,738;    2,709;    2,591
822,234;23025,623;    1,073;    1,409
822,798;22380,054;   -0,836;    0,500
823,362;22392,666;    1,527;    4,227
823,926;21661,006;   -0,018;    1,136
824,490;21924,800;    3,527;   -0,682
825,054;22417,412;    2,527;   -1,136
825,618;22005,297;   -1,200;   -1,500
826,181;21899,455;    0,982;   -1,318
826,745;21809,612;   -0,745;   -1,045
827,309;22173,861;    2,255;    1,318
827,872;21476,019;    0,527;    0,955
828,436;22534,176;    1,982;   -0,773
828,999;22563,698;    2,436;    1,227
829,563;21385,401;   -0,654;    1,136
830,126;21221,195;   -0,018;   -0,591
830,690;21194,262;    0,709;    2,864
831,253;20694,510;   -0,473;    2,227
831,816;20851,213;   -0,018;    0,500
832,380;20750,189;    1,164;    0,864
832,943;20980,893;    3,073;   -0,500
833,506;20468,505;    0,255;   -1,227
834,069;21293,844;    2,164;   -0,955
834,632;21347,911;   -2,200;    1,318
835,195;21241,705;    1,346;    0,955
835,758;20434,590;    0,709;    1,955
836,321;20237,839;    1,073;   -1,045
836,884;20315,815;   -1,291;   -0,955
837,447;20327,518;    0,528;    1,773
838,010;20597,494;    1,800;    3,227
838,573;20943,379;    0,528;    0,773
839,135;20895,718;   -0,109;   -0,955
839,698;20312,149;    2,528;    0,409
840,261;19825,761;    0,255;   -0,227
840,823;19707,464;   -0,927;    0,864
841,386;19985,076;   -0,018;   -2,409
841,948;19826,234;    0,255;    1,773
842,511;19568,483;    0,255;    1,682
843,073;19698,458;    2,982;    0,227
843,636;19534,525;    0,619;   -0,227
844,198;19422,319;    1,255;    0,591
844,760;19549,386;    0,619;    1,955
845,322;19163,998;    0,164;    1,136
845,885;19652,338;   -0,290;    0,591
846,447;20090,223;    0,710;    0,227
847,009;19549,290;    3,983;   -0,682
847,571;19954,175;    1,346;   -2,045
848,133;20044,241;   -0,199;   -1,864
848,695;19871,308;    2,346;    1,409
849,257;19379,375;    1,346;   -1,682
849,819;19589,896;    2,983;   -0,409
850,381;19621,418;    1,801;   -0,864
850,942;20062,848;    1,892;   -0,591
851,504;19944,097;    0,983;    0,227
852,066;19986,073;    1,619;   -1,591
852,628;19493,503;    0,165;    1,955
853,189;19031,843;    0,256;    2,682
853,751;19204,455;   -0,654;    1,409
854,312;18996,976;    1,256;   -1,682
854,874;19505,588;   -0,108;   -0,773
855,435;20036,564;    0,528;   -1,682
855,997;20138,631;    3,983;   -0,136
856,558;19376,152;    0,801;    1,773
857,119;19544,310;   -0,744;    2,864
857,681;19216,831;   -0,108;    0,318
858,242;19245,535;    1,347;   -2,136
858,803;19679,965;    1,074;   -0,773
859,364;20298,577;    0,892;   -4,773
859,925;19628,917;   -0,290;   -0,955
860,486;19516,893;    0,529;   -0,955
861,047;19246,505;    0,165;   -1,227
861,608;19026,481;    0,165;   -0,773
862,169;19157,911;   -0,562;   -0,045
862,730;18912,069;   -0,290;    1,409
863,291;19147,681;    0,438;   -0,500
863,852;19487,112;   -0,926;    1,955
864,412;18977,087;   -1,835;   -0,864
864,973;17525,427;    1,892;    0,500
865,534;17356,767;    2,074;    0,227
866,094;18882,197;    2,620;    0,227
866,655;18563,082;    4,711;    3,318
867,215;18850,603;    0,074;    0,136
867,776;18678,761;   -1,199;   -0,136
868,336;18763,464;    1,529;    0,136
868,897;18210,349;    3,438;    1,682
869,457;17939,143;    3,256;    0,318
870,017;18220,392;    2,438;   -1,227
870,578;18747,731;    1,893;    0,773
871,138;18429,162;    2,620;   -0,955
871,698;17954,592;   -0,562;   -1,318
872,258;17791,295;    0,711;   -2,864
872,818;18120,817;    2,347;    0,045
873,378;18077,429;   -2,198;    1,045
873,938;17671,768;    4,984;    0,500
874,498;18030,199;    1,256;   -1,955
875,058;17880,902;    4,347;    1,773
875,618;17691,151;    1,438;   -2,682
876,177;17667,490;   -0,471;    0,136
876,737;17262,648;   -0,289;    1,955
877,297;17237,896;    2,711;    1,955
877,856;17234,054;    2,529;    0,318
878,416;17140,030;    2,438;   -0,136
878,976;17394,279;    3,438;    0,409
879,535;17615,709;    4,529;    3,136
880,095;17282,140;    1,347;    0,045
880,654;17422,570;    0,347;    1,318
881,213;17531,000;    2,347;    1,500
881,773;17178,067;    1,984;    2,682
882,332;17507,679;    6,075;    5,136
882,891;17368,110;    0,711;    2,136
883,451;17861,722;   -2,016;    1,682
884,010;17348,153;   -1,107;   -0,409
884,569;17420,674;   -2,289;   -0,045
885,128;17569,104;   -0,743;   -1,864
885,687;17584,444;   -0,743;    0,682
886,246;17292,874;    2,620;    2,136
886,805;17011,123;    1,620;    2,045
887,364;17361,644;    1,166;   -0,500
887,922;17746,347;   -0,016;    0,045
888,481;17236,778;    1,530;    0,591
889,040;17572,390;    3,711;    2,136
889,599;18243,366;    2,166;    1,409
890,157;18327,069;    2,166;    2,409
890,716;17940,045;    2,166;    0,227
891,274;17764,657;    0,075;   -1,136
891,833;18173,451;    1,166;    0,864
892,391;18084,882;    1,802;    0,500
892,950;18156,676;    0,166;   -0,773
893,508;18492,470;    0,984;   -0,409
894,067;17843,628;   -0,379;    0,136
894,625;17737,058;   -1,016;   -1,500
895,183;17956,943;   -0,198;   -0,682
895,741;17835,192;    2,257;   -1,773
896,299;17698,986;    1,621;   -2,409
896,858;17906,780;    1,530;   -1,591
897,416;18005,665;    0,166;   -1,318
897,974;17739,913;   -2,197;    0,318
898,532;17873,980;    6,530;    2,682
899,089;17746,774;    0,621;   -0,682
899,647;17864,841;    0,530;    1,318
900,205;17533,726;    0,257;    1,045
900,763;17782,429;    2,166;    0,227
901,321;17793,769;    3,530;   -1,409
901,878;17206,563;    3,257;   -0,773
902,436;17070,811;    0,257;    1,318
902,994;17486,514;    6,712;    3,682
903,551;16888,854;    1,439;    0,409
904,109;17303,557;    1,530;   -1,409
904,666;16859,533;    1,439;    1,045
905,224;16656,145;    3,894;   -0,409
905,781;16391,030;   -0,470;   -0,318
906,338;16469,097;    0,167;    1,045
906,895;16414,618;    1,894;    2,045
907,453;16323,594;    2,348;    1,136
908,010;16293,297;    3,348;    0,409
908,567;15945,091;   -0,561;    0,591
909,124;15477,885;    2,439;   -1,500
909,681;15561,770;   -1,288;    0,682
910,238;15694,746;   -0,106;   -1,318
910,795;15985,086;   -1,561;   -1,136
911,352;15638,722;   -0,379;   -2,682
911,909;15043,722;    2,803;   -0,864
912,466;15536,722;    1,985;    1,500
913,022;15065,631;   -0,924;    0,500
913,579;15434,268;   -0,470;    2,045
914,136;15114,995;   -2,561;    0,955
914,692;15491,904;    1,530;   -1,227
915,249;15030,086;    0,530;    0,409
915,806;15238,995;    1,803;    1,955
916,362;14952,449;    0,894;    1,864
916,918;14522,904;    2,439;    1,045
917,475;14544,177;    1,621;    0,955
918,031;14620,995;    0,076;   -0,045
918,587;14054,631;    0,621;   -0,318
919,144;14288,177;   -0,379;    0,227
919,700;14609,086;    0,167;    0,773
920,256;14145,177;    0,439;    0,045
920,812;13751,631;    1,439;   -1,045
921,368;13783,813;    1,348;   -1,045
921,924;13396,359;    0,439;   -0,136
922,480;12945,177;    0,076;    1,227
923,036;13568,086;   -0,652;    1,955
923,592;13518,268;    0,621;    0,318
924,148;13443,086;    1,894;   -0,955
924,704;12775,449;    0,258;   -0,409
925,259;13068,540;   -0,561;    0,591
925,815;12751,540;    3,803;    0,500
926,371;12319,722;    3,530;    1,409
926,926;12185,722;    1,621;    0,591
927,482;11778,449;    1,621;    0,773
928,037;11656,177;   -0,833;    2,045
928,593;11960,177;    0,258;    1,045
929,148;11728,086;    1,167;   -1,500
929,704;11251,631;    2,439;   -0,500
930,259;11479,540;    0,894;   -0,136
930,814;10550,177;    1,803;    1,955
931,369;10227,995;    0,258;   -0,773
931,925;10114,995;   -1,924;    0,136
932,480; 9951,813;    3,076;   -2,591
933,035; 9828,904;    3,985;   -0,318
933,590; 9612,813;   -1,742;   -1,773
934,145; 9282,995;   -1,288;   -0,318
934,700; 9622,813;    0,348;   -0,591
935,255; 9391,359;    4,803;    0,045
935,809; 8640,359;    6,258;    0,864
936,364; 7737,086;    2,167;   -0,136
936,919; 7733,449;    2,348;   -1,773
937,474; 7639,904;    1,348;    0,136
938,028; 7376,995;    3,076;    1,136
938,583; 6778,813;    6,348;    4,682
939,138; 7102,722;    0,167;    2,136
939,692; 6552,722;   -1,015;   -1,136
940,247; 6198,449;    1,167;   -1,045
940,801; 5764,268;    0,621;    0,227
941,355; 5693,449;    0,439;    2,591
941,910; 5330,995;    0,712;   -2,136
942,464; 5421,540;    2,712;   -0,318
943,018; 5184,722;    3,258;   -0,227
943,572; 5115,631;    2,803;   -0,682
944,126; 4508,995;   -0,924;   -0,409
944,681; 4399,813;    0,712;    0,227
945,235; 4413,449;    2,167;   -0,591
945,789; 4328,449;    1,258;   -1,864
946,342; 4395,813;   -0,561;   -0,591
946,896; 4209,086;    0,348;    0,955
947,450; 3983,359;   -0,561;   -0,227
948,004; 4177,177;    1,076;   -0,045
948,558; 4185,540;    1,258;   -0,864
949,111; 4088,631;   -1,197;   -0,318
949,665; 4120,813;   -0,106;   -0,682
950,219; 3981,449;    0,621;   -1,045
950,772; 4065,086;    0,258;    1,864
951,326; 3977,813;   -1,106;   -0,955
951,879; 4077,449;    1,076;   -2,318
952,433; 4121,540;    1,348;    2,227
952,986; 3953,904;    0,348;    0,682
953,539; 3884,995;    1,530;    0,591
954,093; 3825,631;    0,985;   -1,318
954,646; 3951,359;   -0,288;    1,318
955,199; 3766,359;    1,258;   -0,500
955,752; 3632,449;    1,985;    1,773
956,305; 3606,722;    0,894;    2,955
956,858; 3784,449;    0,621;   -0,318
957,411; 3977,086;    3,621;    2,136
957,964; 3770,086;    2,076;    2,136
958,517; 3756,449;    0,985;    3,136
959,070; 3600,177;   -1,197;    1,955
959,623; 3654,268;    1,076;    1,500
960,176; 3428,995;    0,712;    2,045
960,728; 3387,086;    1,712;    0,773
961,281; 3456,995;    2,258;    0,500
961,834; 3516,359;   -0,833;    0,864
962,386; 3424,722;    1,258;    1,045
962,939; 3346,268;    3,439;   -0,318
963,491; 3508,540;    2,621;    1,136
964,043; 3351,359;    0,076;    2,409
964,596; 3473,904;    1,712;    2,227
965,148; 3319,449;   -0,379;    1,773
965,700; 3257,995;   -0,015;   -0,227
966,253; 3408,359;   -0,833;    0,318
966,805; 3229,904;    1,894;    0,773
967,357; 3270,722;    0,439;   -1,500
967,909; 3223,086;    1,167;   -1,227
968,461; 3345,540;    0,894;    3,136
969,013; 3271,904;   -1,561;   -0,864
969,565; 3346,359;    1,803;   -1,136
970,117; 3389,540;    3,803;    1,045
970,669; 3241,995;    3,258;   -0,136
971,220; 3118,722;    2,167;   -1,500
971,772; 3020,449;    1,348;   -0,318
972,324; 3156,904;   -1,197;   -0,500
972,876; 3098,359;    0,167;   -0,045
973,427; 3225,722;   -1,197;   -1,045
973,979; 3194,904;    0,076;   -2,500
974,530; 3230,086;    0,803;    1,318
975,082; 3238,359;    2,167;    1,682
975,633; 3123,268;    2,894;    1,682
976,184; 3295,722;    2,076;    0,773
976,736; 3076,540;    0,348;    0,227
977,287; 2835,449;    0,258;   -0,500
977,838; 3028,631;   -0,924;   -0,318
978,389; 3102,449;    0,803;   -0,500
978,940; 2978,631;    1,258;   -0,409
979,491; 2986,995;    2,258;   -0,500
980,042; 2931,722;   -0,652;    3,045
980,593; 3041,813;    1,894;    0,227
981,144; 3076,540;    3,530;   -0,500
981,695; 3019,904;   -0,470;    1,500
982,246; 2983,904;   -1,833;    1,045
982,797; 3158,995;   -0,561;    0,682
983,347; 3278,540;    2,167;    0,591
983,898; 3418,540;    4,167;    0,409
984,449; 3220,359;    2,530;    0,773
984,999; 3151,177;    1,894;   -1,136
985,550; 2918,904;    3,167;   -0,318
986,100; 2993,449;    0,712;   -0,318
986,651; 3009,268;    0,258;    0,045
987,201; 2986,449;    0,894;   -0,591
987,751; 3065,995;   -0,288;    2,864
988,302; 3042,995;   -0,379;    1,500
988,852; 3074,177;    1,985;   -1,136
989,402; 3105,268;    0,985;    0,682
989,952; 3013,995;    1,621;    0,864
990,502; 3134,268;    1,076;    0,682
991,052; 3110,813;   -0,106;    0,045
991,602; 2955,813;    1,167;    1,318
992,152; 2948,268;    2,803;    0,682
992,702; 2930,268;    1,167;   -0,045
993,252; 2859,904;    0,076;   -0,500
993,802; 2938,268;    1,167;    1,318
994,352; 3185,904;   -0,742;    1,136
994,901; 3274,359;    1,076;    3,227
995,451; 3186,813;   -1,197;    0,318
996,000; 3288,268;    1,076;    0,318
996,550; 2983,722;    2,894;    0,227
997,100; 2987,359;   -0,561;   -0,045
997,649; 3296,086;   -0,197;    0,955
998,198; 2903,813;   -0,288;   -1,500
998,748; 3088,995;    0,348;   -2,318
999,297; 2999,904;    0,985;   -0,409
999,846; 3075,631;    1,894;   -0,773
1000,395; 3117,540;    1,530;    0,500
1000,945; 3073,813;    1,076;   -0,773
1001,494; 3155,086;    0,167;    0,682
1002,043; 3125,177;    0,712;    0,864
1002,592; 2976,086;    3,439;    1,955
1003,141; 3117,813;    2,439;   -0,682
1003,690; 2940,904;    1,258;    0,500
1004,238; 3034,086;   -0,106;   -0,045
1004,787; 2654,540;   -1,288;    1,227
1005,336; 2896,177;    1,621;    0,682
1005,885; 3070,722;   -0,197;   -2,773
1006,433; 3228,813;   -0,470;    0,955
1006,982; 3268,722;    2,167;    1,682
1007,531; 3181,904;    2,712;   -0,227
1008,079; 3148,540;    0,258;    0,500
1008,627; 3298,177;    1,621;    0,409
1009,176; 3017,177;    0,076;   -1,955
1009,724; 3056,359;   -2,742;    0,864
1010,273; 3096,540;    1,076;    0,500
1010,821; 3250,268;    1,076;    1,409
1011,369; 2969,449;    0,076;    1,318
1011,917; 2948,359;   -0,833;   -0,591
1012,465; 3235,449;    2,530;   -1,591
1013,013; 3357,086;    0,439;   -1,682
1013,561; 3217,631;   -1,288;   -0,773
1014,109; 3267,540;   -0,833;    1,682
1014,657; 3111,540;    1,348;    0,591
1015,205; 3253,722;    0,894;   -0,955
1015,753; 3303,268;    0,258;   -1,409
1016,301; 3335,813;    2,621;    3,045
1016,848; 3356,268;    2,167;    0,409
1017,396; 3386,904;    1,621;    0,045
1017,944; 3507,722;    2,621;    1,864
1018,491; 3264,722;   -0,197;    1,409
1019,039; 3406,813;   -0,652;    0,591
1019,586; 3345,904;    0,076;    1,682
1020,134; 3429,268;    0,712;    1,500
1020,681; 3438,813;    2,894;   -1,136
1021,228; 3463,086;   -0,561;   -2,227
1021,776; 3302,177;   -0,833;   -1,136
1022,323; 3502,813;    0,803;    0,773
1022,870; 3441,813;   -0,470;   -0,045
1023,417; 3332,631;    2,076;    1,864
1023,964; 3482,177;    0,621;    1,227
1024,511; 3312,540;   -0,652;    0,773
1025,058; 3099,631;    0,439;   -0,045
1025,605; 3148,813;   -1,742;    3,136
1026,152; 3349,904;   -0,106;   -0,591
1026,699; 3088,722;    0,167;    1,318
1027,245; 3278,722;    2,439;    0,318
1027,792; 3523,631;    0,712;    1,409
1028,339; 3366,722;    4,076;   -0,045
1028,885; 3210,177;    3,621;   -0,227
1029,432; 3153,449;   -0,106;    0,227
1029,978; 3211,177;    1,348;   -1,591
1030,525; 3112,449;    1,621;    0,409
1031,071; 3389,631;    0,348;    1,136
1031,618; 3462,995;    1,258;    1,682
1032,164; 3258,631;    2,076;    3,045
1032,710; 3300,631;    0,076;   -1,500
1033,256; 3233,904;    0,712;   -0,136
1033,803; 3210,449;   -0,288;    1,500
1034,349; 2959,268;    1,803;    0,136
1034,895; 3109,722;    2,621;   -0,318
1035,441; 3083,722;    0,439;    0,318
1035,987; 3099,631;   -2,288;   -0,682
1036,533; 3079,359;   -0,197;   -0,955
1037,078; 3285,359;    4,712;    1,682
1037,624; 3109,722;    2,439;   -0,955
1038,170; 3146,268;    1,712;   -0,318
1038,716; 3018,995;    2,167;   -0,409
1039,261; 2939,177;    2,167;   -0,773
1039,807; 2884,268;   -0,015;    3,409
1040,352; 2934,268;   -1,288;   -0,318
1040,898; 2981,086;    0,167;   -0,682
1041,443; 2895,631;    0,803;   -2,591
1041,989; 2908,995;    3,621;    1,591
1042,534; 2794,995;    0,985;    2,591
1043,079; 2929,722;    1,985;    0,955
1043,625; 2686,540;    0,258;    0,500
1044,170; 2756,359;    2,439;    1,045
1044,715; 3004,268;    0,167;    0,955
1045,260; 2818,995;   -0,833;   -0,955
1045,805; 2870,268;    0,258;   -0,591
1046,350; 2811,904;    0,530;   -0,409
1046,895; 2745,813;    0,803;    1,591
1047,440; 2683,904;    1,530;    0,409
1047,985; 2605,904;   -1,197;   -0,955
1048,530; 2534,904;    1,348;    1,227
1049,074; 2581,904;    2,803;    0,318
1049,619; 2542,722;   -0,924;    1,955
1050,164; 2359,449;    1,076;    0,227
1050,708; 2415,904;    2,621;    0,045
1051,253; 2766,086;    3,258;   -2,227
1051,797; 2491,540;   -0,197;   -1,318
1052,342; 2512,904;    1,348;    1,045
1052,886; 2500,268;    1,803;   -1,409
1053,430; 2394,722;    2,167;    0,136
1053,975; 2392,813;    0,894;   -0,318
1054,519; 2365,268;    1,803;    3,227
1055,063; 2367,813;    3,621;    1,318
1055,607; 2258,813;    1,348;    0,227
1056,151; 2295,086;    0,530;    1,682
1056,695; 2219,359;   -1,833;   -1,136
1057,239; 2264,722;   -1,197;   -0,682
1057,783; 2274,904;    2,258;   -1,500
1058,327; 2221,904;    3,076;    1,409
1058,871; 2449,722;    3,985;    1,318
1059,415; 2152,268;   -0,561;   -0,045
1059,958; 2400,904;    2,985;    2,591
1060,502; 2128,359;    1,348;   -0,773
1061,046; 2034,631;    1,712;   -0,955
1061,589; 2015,086;    2,803;   -1,136
1062,133; 1911,904;    0,985;    1,864
1062,676; 1840,540;    1,439;    0,864
1063,220; 1835,904;    0,985;    0,500
1063,763; 1859,540;    2,985;    1,136
1064,306; 1930,722;    0,985;    1,864
1064,849; 1811,995;    2,076;    0,591
1065,393; 1825,268;    2,894;   -1,500
1065,936; 1950,177;    2,530;   -0,409
1066,479; 1829,086;    2,621;    1,318
1067,022; 1851,813;    1,894;   -0,227
1067,565; 1751,995;   -1,197;   -1,318
1068,108; 1809,540;    1,258;   -0,591
1068,651; 1764,631;   -2,470;    1,409
1069,194; 1689,813;   -1,106;   -1,682
1069,736; 1679,540;    3,803;    0,955
1070,279; 1667,904;   -1,652;   -0,500
1070,822; 1702,268;    1,530;   -0,318
1071,364; 1761,359;    0,530;    1,318
1071,907; 1591,540;    0,348;    3,227
1072,450; 1526,722;    0,258;   -0,045
1072,992; 1514,722;   -0,561;    3,136
1073,535; 1647,722;    0,167;    2,136
1074,077; 1443,177;    2,985;    2,045
1074,619; 1407,359;    0,985;    0,591
1075,161; 1426,813;   -0,561;    1,500
1075,704; 1591,177;    0,258;    1,227
1076,246; 1414,904;    1,530;    0,682
1076,788; 1348,904;   -1,015;    1,773
1077,330; 1442,631;   -2,106;    2,136
1077,872; 1383,813;   -1,924;    0,955
1078,414; 1600,540;    3,712;    0,773
1078,956; 1326,813;    0,167;   -0,227
1079,498; 1575,722;    0,439;    0,318
1080,040; 1279,722;    0,985;   -1,318
1080,581; 1231,540;    0,621;   -0,318
1081,123; 1174,086;   -0,106;   -0,773
1081,665; 1226,904;    3,803;   -0,955
1082,206; 1497,268;    3,258;   -0,500
1082,748; 1374,631;    3,258;    2,045
1083,289; 1254,449;    0,167;    1,318
1083,831; 1162,540;    0,258;    0,227
1084,372; 1180,268;    0,894;    0,591
1084,913; 1185,631;    3,348;    0,864
1085,455; 1165,449;    1,530;   -2,045
1085,996; 1128,813;    0,530;    0,136
1086,537; 1142,268;    0,985;    0,864
1087,078; 1182,177;    0,439;   -2,136
1087,619; 1217,086;   -1,652;    0,227
1088,160; 1142,995;    1,439;    1,318
1088,701; 1121,995;   -0,742;    0,682
1089,242; 1069,177;   -0,561;   -2,227
1089,783; 1159,813;   -0,561;    1,409
1090,324; 1125,268;   -0,833;    0,682
1090,865; 1006,813;   -1,924;   -0,409
1091,405;  991,813;   -0,561;    2,227
1091,946; 1022,268;   -0,197;   -0,955
1092,487;  950,359;   -1,288;   -1,409
1093,027; 1108,177;    1,803;   -1,500
1093,568;  951,995;    2,258;    1,227
1094,108; 1029,268;    0,621;    1,773
1094,649;  987,904;   -0,470;    0,136
1095,189;  925,086;    1,167;   -0,682
1095,729;  867,540;    0,712;    0,955
1096,269;  879,904;    1,258;   -0,955
1096,810; 1182,268;   -0,197;    0,500
1097,350; 1006,359;   -0,561;   -0,773
1097,890;  905,268;    2,985;    1,227
1098,430; 1153,995;    4,985;    2,864
1098,970; 1035,086;    1,894;    1,682
1099,510;  911,449;   -0,833;   -2,318
1100,050;  841,268;    0,258;   -1,591
1100,589;  809,177;    0,076;   -0,318
1101,129;  927,268;    0,894;   -0,955
1101,669; 1052,540;    2,803;    2,136
1102,209;  895,177;    1,530;    2,227
1102,748;  848,359;    3,439;    0,955
1103,288;  834,722;    0,712;   -1,227
1103,827;  853,359;    3,530;   -2,227
1104,367;  747,722;    1,712;   -2,409
1104,906;  719,722;   -1,015;   -1,136
1105,445;  779,813;    0,985;   -1,136
1105,985;  719,359;   -0,652;    1,500
1106,524;  761,359;    1,530;   -0,682
1107,063;  732,268;    1,167;    1,409
1107,602;  715,904;    1,894;   -1,500
1108,141;  635,631;    1,621;    1,500
1108,680;  728,449;    3,985;   -0,591
1109,219;  677,177;    0,167;   -0,500
1109,758;  673,449;    4,167;    0,682
1110,297;  652,995;   -1,106;   -0,682
1110,836;  590,995;    1,439;    0,955
1111,375;  743,631;    0,348;    0,409
1111,913;  758,631;    0,985;    0,773
1112,452;  705,086;    0,894;    0,136
1112,991;  587,904;    1,076;    1,955
1113,529;  547,995;    0,167;   -0,045
1114,068;  613,086;    0,439;    2,955
1114,606;  516,540;   -0,561;   -0,955
1115,144;  674,540;    1,530;    1,045
1115,683;  616,722;    1,985;    0,318
1116,221;  654,540;    2,076;   -0,864
1116,759;  570,086;    1,621;   -0,864
1117,297;  750,086;    1,621;    1,864
1117,836;  564,813;    1,985;   -1,227
1118,374;  573,904;    0,258;   -0,682
1118,912;  530,813;    0,439;    2,682
1119,450;  504,904;    0,985;    0,864
1119,988;  556,722;    3,348;    2,136
1120,525; 1003,904;    7,258;    3,318
1121,063;  699,268;    0,530;    1,864
1121,601;  515,813;    1,076;   -1,227
1122,139;  478,995;    1,076;   -2,045
1122,676;  658,086;   -1,652;    2,773
1123,214;  602,268;    0,712;    4,409
1123,751;  424,177;    0,621;    2,227
1124,289;  549,813;    0,894;   -0,409
1124,826;  419,086;   -0,379;    0,227
1125,364;  357,722;    0,712;   -0,955
1125,901;  535,813;    6,258;    1,227
1126,438;  634,631;    3,530;    0,955
1126,975;  374,177;    2,985;   -0,773
1127,513;  433,177;    2,621;    2,136
1128,050;  351,268;   -0,561;   -0,682
1128,587;  443,995;    1,348;   -0,227
1129,124;  482,540;   -0,015;    1,318
1129,661;  367,631;   -1,924;    0,227
1130,198;  522,359;    2,439;    0,773
1130,734;  455,268;   -0,379;    1,409
1131,271;  323,359;   -1,197;    0,864
1131,808;  493,813;    1,621;    3,045
1132,345;  370,177;    4,530;    0,318
1132,881;  251,813;   -0,561;   -1,864
1133,418;  374,631;    0,348;   -1,136
1133,954;  321,177;    0,712;   -2,682
1134,491;  391,995;    1,712;   -0,773
1135,027;  301,813;    2,167;    0,864
1135,564;  371,449;    1,439;    2,955
1136,100;  355,631;   -0,742;    2,136
1136,636;  258,904;   -1,015;   -1,045
1137,172;  342,449;    0,894;   -1,045
1137,708;  277,722;   -1,561;   -1,045
1138,245;  282,086;    0,803;   -1,227
1138,781;  239,177;    1,803;   -3,318
1139,317;  296,359;    1,894;   -1,409
1139,852;  283,540;    3,076;    0,136
1140,388;  393,540;    2,076;   -0,409
1140,924;  278,268;    1,076;   -2,227
1141,460;  222,449;   -0,288;    0,136
1141,996;  169,813;   -0,652;    2,682
1142,531;  212,268;    1,076;    3,318
1143,067;  409,449;    1,167;    1,045
1143,602;  460,904;    3,439;   -0,318
1144,138;  306,449;    0,803;    1,045
1144,673;  185,995;    1,621;    1,409
1145,209;  251,540;    2,894;   -0,318
1145,744;  176,268;    0,803;    0,864
1146,279;  294,086;    1,530;   -0,136
1146,815;  223,540;    1,530;   -2,682
1147,350;  257,813;   -0,924;    0,045
1147,885;  178,086;   -1,924;   -1,318
1148,420;  184,904;    2,439;    0,773
1148,955;  170,631;   -1,470;    1,864
1149,490;  198,359;   -1,106;   -1,591
1150,025;  177,631;   -1,106;   -1,773
1150,560;  278,086;   -0,288;   -0,955
1151,094;  240,995;    0,258;   -0,591
1151,629;  247,631;   -3,742;    0,864
1152,164;  178,086;   -1,288;    1,318
1152,698;  147,449;    1,258;   -0,136
1153,233;  101,449;   -1,379;   -0,682
1153,767;  148,540;   -0,288;   -2,318
1154,302;  197,449;   -0,379;    1,773
1154,836;  197,722;    0,803;   -2,136
1155,371;  241,177;    2,258;    3,682
1155,905;  202,995;    1,985;    1,682
1156,439;  163,449;    0,530;   -0,500
1156,973;  192,540;    0,439;    0,318
1157,507;  135,449;   -1,742;    0,682
1158,042;  160,449;   -0,652;    1,045
1158,576;  208,813;   -0,561;    1,773
1159,110;  197,268;    0,076;    2,409
1159,643;  165,086;   -2,470;   -0,045
1160,177;  109,904;   -2,015;    1,500

