
Integration time [ms]:   0,050
Averaging Nr. [scans]: 11
Smoothing Nr. [pixels]: 0
Data measured with spectrometer [name]: 7318044SP
Wave   ;Sample   ;Dark     ;Reference
[nm]   ;[counts] ;[counts] ;[counts] 

186,757;  -29,665;   38,161;    1,318
187,357;    2,623;   26,706;    0,955
187,958;   -7,211;   17,252;   -1,591
188,558;   24,145;   12,979;   -1,227
189,159;   -2,911;   10,070;   -4,500
189,759;  -23,401;    5,797;   -3,591
190,360;  -22,514;    6,797;   -2,136
190,960;    8,943;    5,706;   -4,136
191,560;    6,402;    2,614;   -6,591
192,161;  196,710;    5,885;   -3,500
192,761;   70,762;    5,520;   -3,227
193,361;   21,718;    3,065;   -3,773
193,962;   61,370;    1,612;   -2,682
194,562;    9,515;   -0,114;   -3,955
195,162;   13,022;   -0,567;   -2,227
195,762;  122,380;    2,433;   -0,045
196,362;   82,609;    1,706;   -2,500
196,963;    3,436;    1,706;   -0,864
197,563;   45,422;    1,252;   -0,955
198,163;   -3,225;   -0,111;   -0,682
198,763;   10,648;   -0,020;   -0,500
199,363;   49,446;    3,616;   -0,500
199,963;   28,029;    2,162;    0,409
200,563;   14,294;    6,344;   -1,409
201,163;   -3,610;    5,435;   -0,227
201,763;   33,006;    1,435;    0,318
202,363;   10,556;    0,980;    1,500
202,963;   33,592;    1,526;    1,045
203,563;   91,943;    0,344;    0,500
204,162;   17,777;    1,889;   -1,864
204,762;   17,767;    2,071;    0,591
205,362;   -6,787;    0,708;    1,955
205,962;   22,386;    3,435;    1,955
206,562;   24,754;    1,889;    2,318
207,161;   10,598;    1,708;    0,318
207,761;   82,968;    4,435;    2,409
208,361;   17,967;    1,889;    1,409
208,960;   42,707;    2,889;    1,500
209,560;   48,961;    0,435;    1,591
210,160;   57,451;    5,071;    1,864
210,759;   32,806;    0,708;    1,227
211,359;   21,566;   -0,474;    1,045
211,958;  145,917;    3,526;    2,045
212,558;  161,893;    0,799;    1,864
213,157;   79,400;   -0,929;    1,500
213,757;  261,408;    5,617;   -0,227
214,356;  122,285;    1,708;   -0,409
214,956;  254,865;    3,526;    0,409
215,555;   92,883;    0,617;    2,136
216,154;   56,006;   -0,292;   -0,591
216,754;   59,543;    1,253;    0,773
217,353;   85,882;   -0,383;   -1,045
217,952;   15,753;    2,072;    0,318
218,552;  116,030;    0,254;   -0,773
219,151;   73,473;   -1,110;    0,955
219,750;   59,067;    0,890;   -0,227
220,349;   44,200;   -2,292;    1,045
220,948;  137,256;    1,163;    1,136
221,548;   70,733;    0,617;    1,227
222,147;  103,472;   -1,292;   -0,409
222,746;  219,608;    1,254;   -0,955
223,345;  138,446;   -1,019;    0,500
223,944;  142,520;    1,163;    0,773
224,543;  153,741;    4,072;   -1,409
225,142;  161,585;    1,345;    0,136
225,741;  145,335;    1,163;    1,045
226,340;  128,023;    1,254;   -0,955
226,939;  241,373;    2,708;   -0,136
227,538;  125,354;    1,163;   -0,773
228,137;  246,128;    0,435;    0,864
228,735;  199,306;    0,435;    1,227
229,334;   88,025;   -0,474;   -0,227
229,933;  253,460;    0,799;    0,591
230,532;  257,230;   -1,201;   -0,409
231,131;  308,866;    1,253;    0,318
231,729;  199,440;    1,163;   -2,318
232,328;  148,669;    0,435;   -1,500
232,927;  153,720;    4,526;   -0,500
233,525;  141,919;    0,981;    0,045
234,124;  184,471;    1,890;   -1,591
234,723;  123,231;    1,617;   -1,045
235,321;  109,263;    1,163;    0,136
235,920;  148,080;    2,526;   -1,227
236,518;  281,567;    1,072;    0,318
237,117;  150,433;    2,890;   -0,227
237,715;  171,088;    1,163;   -0,500
238,314;  210,424;    1,708;   -2,318
238,912;  337,183;    0,526;   -1,409
239,510;  250,803;    1,162;   -1,227
240,109;  361,720;   -0,474;    3,773
240,707;  337,708;   -0,474;    1,227
241,305;  212,495;   -0,383;    0,136
241,904;  330,495;   -0,292;   -2,045
242,502;  446,598;    3,253;   -0,227
243,100;  357,353;    3,344;   -0,955
243,698;  327,190;    2,799;    1,682
244,297;  383,666;   -0,656;    0,682
244,895;  392,982;   -0,474;   -2,318
245,493;  632,809;    2,981;   -0,591
246,091;  651,397;    5,163;   -1,318
246,689;  602,757;    2,163;    0,591
247,287;  588,630;   -0,019;   -1,136
247,885;  601,256;   -1,019;    1,227
248,483;  582,140;   -0,201;   -0,500
249,081;  714,391;    0,981;    1,591
249,679;  813,043;   -1,019;    1,682
250,277;  701,228;   -2,292;    0,864
250,875;  880,357;    0,617;   -1,045
251,473;  805,560;   -0,019;    0,500
252,071;  934,504;   -0,383;    1,045
252,669;  897,611;   -1,565;    0,318
253,267;  903,929;    1,618;    0,773
253,864;  937,176;    0,617;    0,682
254,462; 1159,880;    1,526;    1,591
255,060;  954,587;    0,072;    1,318
255,658;  975,884;   -3,292;   -0,136
256,255; 1179,627;   -0,201;   -2,045
256,853; 1221,983;    2,345;    1,409
257,451; 1214,073;    1,981;    1,864
258,048; 1771,599;    2,072;    1,864
258,646; 1364,331;    0,436;   -1,045
259,243; 1523,165;    2,981;    2,227
259,841; 1460,856;    1,799;    0,318
260,438; 1333,137;    0,254;    0,864
261,036; 1572,519;    0,617;    1,409
261,633; 1548,983;    1,526;    2,227
262,231; 1504,540;   -0,110;   -0,045
262,828; 1571,128;   -0,383;    1,136
263,425; 1603,591;   -1,928;   -0,591
264,023; 1685,769;    1,436;    0,045
264,620; 1747,232;    1,526;   -0,318
265,217; 1930,615;    2,890;    3,136
265,815; 1769,747;    2,527;    2,136
266,412; 1860,259;    0,072;    0,136
267,009; 1894,251;    0,526;    0,773
267,606; 2032,422;    0,345;   -0,955
268,203; 1843,476;   -0,383;   -0,591
268,801; 1974,366;   -0,474;    0,591
269,398; 2003,027;   -0,564;    2,500
269,995; 2095,946;    0,890;    1,591
270,592; 1938,875;    0,799;   -0,500
271,189; 1994,876;    1,981;    0,409
271,786; 2062,990;    2,072;    1,227
272,383; 2239,436;   -0,383;    0,227
272,980; 2124,591;    1,617;    0,318
273,577; 2236,282;    2,162;    1,227
274,174; 2018,966;    1,435;    2,591
274,771; 2067,702;    1,890;   -0,773
275,367; 2511,914;    3,253;    1,409
275,964; 2376,116;   -0,565;   -0,500
276,561; 2265,259;   -2,474;   -1,045
277,158; 2262,588;    1,799;   -1,773
277,755; 2486,391;   -0,110;    0,409
278,351; 2151,781;    0,436;   -1,500
278,948; 2337,992;   -0,201;    0,045
279,545; 2263,157;    0,527;    2,318
280,141; 2777,876;    1,254;   -2,045
280,738; 2578,785;    2,435;   -0,136
281,334; 2518,390;   -0,383;    0,591
281,931; 2372,036;    2,890;   -1,318
282,528; 2525,593;    4,072;   -0,500
283,124; 2932,607;    3,345;   -0,500
283,721; 2888,474;    0,709;    1,409
284,317; 2767,649;    0,163;    2,500
284,913; 3171,905;   -0,110;    0,591
285,510; 3536,542;    2,890;   -0,318
286,106; 3466,004;    2,345;   -0,955
286,703; 3037,675;    0,072;    1,955
287,299; 3204,402;    1,254;   -0,591
287,895; 3433,263;    0,890;   -1,045
288,491; 3815,572;    0,163;    2,136
289,088; 3791,667;    0,163;    2,409
289,684; 3872,338;    2,890;    1,500
290,280; 4031,318;    1,890;    0,682
290,876; 4169,105;    0,163;    5,500
291,472; 4173,165;    2,163;    2,227
292,068; 4304,739;    1,254;    0,227
292,665; 4169,583;   -0,564;    0,773
293,261; 4124,339;   -1,292;    2,136
293,857; 4432,492;    4,072;    2,136
294,453; 4480,820;   -0,928;    0,955
295,049; 4574,209;    0,253;    1,955
295,644; 4681,744;   -1,292;    0,136
296,240; 4725,644;    0,162;   -0,136
296,836; 4950,374;   -0,747;    0,318
297,432; 5245,607;    2,980;   -0,500
298,028; 5410,852;    0,435;    0,773
298,624; 5685,205;    0,889;    1,864
299,220; 5946,319;    0,435;    0,591
299,815; 5736,248;    0,526;   -0,409
300,411; 5719,573;    0,435;    1,773
301,007; 5824,476;    1,889;    0,227
301,602; 5850,896;    2,071;   -2,318
302,198; 6081,527;    1,435;   -0,773
302,794; 6364,730;    1,526;   -0,500
303,389; 6509,742;    1,071;    1,045
303,985; 6576,449;    1,253;    1,409
304,580; 6634,089;    0,889;    1,591
305,176; 6659,723;    0,344;    0,136
305,771; 6577,699;   -0,929;   -1,227
306,367; 6615,150;    3,071;    0,136
306,962; 6801,078;    2,889;    1,500
307,558; 6525,742;    2,435;    0,136
308,153; 6525,999;   -0,383;   -1,136
308,748; 6619,671;    0,162;    1,682
309,344; 6660,636;    0,253;   -1,318
309,939; 6773,359;    2,071;   -1,318
310,534; 6917,680;   -2,020;   -1,682
311,130; 6753,647;   -0,656;   -2,500
311,725; 6480,498;    0,526;   -0,500
312,320; 6715,873;    1,253;    0,045
312,915; 6659,229;    2,890;   -1,045
313,510; 6658,170;    0,526;   -0,500
314,105; 6940,856;   -3,565;    1,409
314,700; 6400,161;   -1,656;   -1,045
315,295; 6146,817;   -0,020;    0,045
315,890; 5794,525;   -0,292;    0,864
316,485; 5979,687;    0,253;   -0,318
317,080; 6037,268;   -0,929;    1,591
317,675; 6418,422;    3,071;   -0,682
318,270; 6019,002;    6,889;    3,318
318,865; 5985,725;    2,435;    3,045
319,460; 5769,046;   -1,565;    0,591
320,055; 5877,749;   -2,565;   -1,227
320,650; 5612,242;   -1,838;   -0,591
321,244; 5636,405;    0,889;   -1,409
321,839; 6322,991;    0,980;   -0,227
322,434; 6182,873;   -0,111;   -1,591
323,029; 5964,781;   -0,474;    1,591
323,623; 5832,580;    0,798;    0,773
324,218; 5759,298;    2,707;    1,409
324,812; 5711,370;    0,889;    1,591
325,407; 5611,683;   -0,929;    2,045
326,002; 5603,750;    0,526;   -0,409
326,596; 5880,967;   -0,656;    1,318
327,191; 6035,730;   -0,383;   -1,045
327,785; 5765,331;   -0,747;   -0,227
328,379; 6100,580;   -0,383;    0,136
328,974; 5925,430;    1,798;   -3,955
329,568; 6250,497;    2,889;   -2,409
330,163; 6214,548;    2,435;    1,045
330,757; 6537,850;    0,253;    1,591
331,351; 6141,565;   -0,292;    0,682
331,945; 6451,544;   -0,383;    1,409
332,540; 6302,478;    1,617;   -0,591
333,134; 6471,553;    3,344;    0,773
333,728; 6694,537;    2,799;    0,318
334,322; 7107,422;    0,889;   -0,864
334,916; 6608,565;    0,344;    0,955
335,510; 6995,225;   -0,111;   -0,136
336,105; 7299,457;   -0,929;    1,591
336,699; 7097,308;   -1,292;    0,591
337,293; 7149,344;    1,071;    0,318
337,887; 7339,813;    0,071;    1,955
338,481; 7552,414;    2,980;    0,591
339,074; 7845,743;    2,071;    2,682
339,668; 7827,964;   -0,110;    1,227
340,262; 8199,680;    7,708;    3,227
340,856; 7801,665;    1,708;   -0,682
341,450; 7341,669;    0,708;    1,864
342,044; 8181,071;    1,799;    0,136
342,637; 8076,901;    1,162;   -2,136
343,231; 8022,318;   -1,474;    0,682
343,825; 8041,667;   -0,747;   -0,591
344,419; 8130,295;   -0,474;    0,500
345,012; 8100,018;    2,889;    4,045
345,606; 8166,781;   -0,656;    1,591
346,199; 8081,670;   -0,111;   -0,227
346,793; 7771,800;    2,525;    2,045
347,386; 8000,153;    0,889;   -1,136
347,980; 8009,147;   -0,838;   -0,045
348,573; 7924,961;   -1,748;    0,409
349,167; 7706,130;    6,161;    4,773
349,760; 8084,806;    2,252;    2,682
350,354; 8024,468;    1,616;    1,136
350,947; 7815,311;    2,798;    1,682
351,540; 7577,153;    0,616;   -1,409
352,134; 7554,110;   -1,111;    1,136
352,727; 7621,855;   -0,657;    1,136
353,320; 7490,798;    2,343;    0,591
353,913; 7332,490;   -1,929;    1,864
354,507; 7492,965;    0,434;   -1,227
355,100; 7548,032;    0,071;    0,864
355,693; 6887,339;    4,798;    2,409
356,286; 6917,561;    0,980;    2,773
356,879; 7228,087;   -0,475;    1,227
357,472; 6819,949;    0,980;    1,500
358,065; 7008,944;    3,161;    2,500
358,658; 6920,628;    0,798;    2,318
359,251; 6550,182;    0,252;   -0,591
359,844; 6133,841;    0,343;   -1,136
360,437; 6331,372;    0,252;    0,045
361,030; 6527,423;    0,525;   -0,682
361,623; 6118,983;    0,434;    0,318
362,215; 6139,873;    0,979;    2,045
362,808; 5997,260;   -2,293;   -1,682
363,401; 6135,556;    0,798;    0,136
363,994; 5930,670;    3,252;   -1,500
364,586; 5825,768;    0,888;   -1,500
365,179; 5971,546;   -0,203;   -1,136
365,772; 5501,240;   -0,930;    2,045
366,364; 5698,526;    1,524;   -3,227
366,957; 5913,797;    1,342;   -0,045
367,549; 5829,781;   -0,203;   -0,864
368,142; 5532,318;    0,978;   -1,500
368,734; 5693,695;    2,523;   -2,136
369,327; 5650,892;    2,341;   -0,500
369,919; 5574,365;   -1,659;    0,409
370,512; 5424,114;   -1,023;   -0,500
371,104; 5180,285;    2,704;    1,591
371,696; 5322,455;    1,703;   -0,955
372,289; 5353,172;    0,157;    1,136
372,881; 5478,962;    1,156;    1,318
373,473; 5357,500;    4,064;    1,136
374,066; 5211,805;    1,336;    0,500
374,658; 5087,441;    0,879;    1,136
375,250; 5330,756;   -1,668;   -1,409
375,842; 5177,775;   -0,124;   -0,045
376,434; 5051,969;   -2,762;   -0,409
377,026; 5499,452;   -1,855;   -2,500
377,618; 5399,739;    0,779;   -0,682
378,210; 5287,051;    3,141;   -1,955
378,802; 5105,475;    3,412;   -0,591
379,394; 5113,166;    3,411;    0,682
379,986; 5539,834;    1,138;   -0,955
380,578; 5593,691;    1,410;    0,773
381,170; 5059,655;    0,320;    0,045
381,762; 5018,170;   -0,224;    1,409
382,354; 5156,532;   -0,223;   -1,318
382,945; 5225,757;    0,870;    0,318
383,537; 5343,848;    1,144;   -1,955
384,129; 5369,949;    0,963;   -1,136
384,721; 5484,599;    0,418;    0,955
385,312; 5397,241;   -1,399;   -0,955
385,904; 5486,635;   -0,945;    1,591
386,496; 4937,409;    0,691;    1,045
387,087; 5088,711;    0,418;    2,500
387,679; 5073,686;   -0,401;    0,045
388,270; 5173,412;   -2,401;    2,045
388,862; 5283,144;   -0,401;   -0,318
389,453; 5120,286;    1,054;    1,045
390,045; 5367,982;    3,236;   -2,682
390,636; 5352,115;    0,144;   -0,591
391,227; 5191,887;    2,054;   -0,045
391,819; 5278,046;    0,781;    0,773
392,410; 5370,474;    0,600;    0,045
393,001; 5303,789;    1,600;   -1,591
393,593; 5490,426;    0,600;   -0,045
394,184; 5384,524;    0,873;   -0,409
394,775; 5238,196;    1,146;    2,136
395,366; 5477,839;    1,782;    0,773
395,957; 5431,968;   -2,400;    0,136
396,548; 5681,890;    1,054;    2,682
397,139; 5936,276;    2,236;    0,591
397,730; 5663,981;    0,873;    0,955
398,321; 5694,713;    0,509;    0,955
398,912; 5670,595;   -0,764;    0,136
399,503; 5817,709;   -1,945;   -1,409
400,094; 5361,714;   -1,582;    1,682
400,685; 5255,547;    3,600;    0,045
401,276; 5259,606;   -0,400;   -0,955
401,867; 5473,136;   -1,127;    0,773
402,458; 5560,566;    1,509;   -2,318
403,048; 5527,619;    0,146;    0,591
403,639; 5161,950;    1,509;    0,864
404,230; 5427,022;    0,691;    0,318
404,821; 5383,528;   -0,127;    0,045
405,411; 5444,086;   -0,763;   -2,591
406,002; 5060,931;    3,237;   -1,136
406,592; 4973,849;    2,691;    0,045
407,183; 5136,376;    0,328;   -1,500
407,774; 5013,293;    1,419;   -0,136
408,364; 5252,134;    2,600;    0,409
408,954; 4927,328;   -0,036;    1,227
409,545; 4902,862;    1,873;    1,045
410,135; 4441,428;   -1,581;    0,500
410,726; 4552,114;    0,783;    0,318
411,316; 4793,757;    2,237;    0,773
411,906; 4474,785;    0,146;   -0,409
412,497; 4085,942;   -0,490;   -0,045
413,087; 4436,195;    0,783;   -0,227
413,677; 4632,418;   -2,490;    3,864
414,267; 4445,461;   -1,035;    1,409
414,857; 4337,940;    0,419;    4,227
415,448; 4487,792;   -0,763;    0,500
416,038; 4203,934;   -2,945;   -0,591
416,628; 4070,042;    0,965;    0,409
417,218; 3792,885;   -1,762;    3,318
417,808; 3901,909;    0,965;   -0,409
418,398; 3993,581;   -1,035;    2,682
418,988; 3876,751;   -2,217;    0,591
419,578; 3918,138;    3,601;    1,409
420,168; 4072,975;    0,692;   -0,955
420,757; 3774,005;    0,964;   -1,500
421,347; 3427,475;    1,601;   -0,227
421,937; 3440,949;    3,329;    1,409
422,527; 3413,092;    2,602;   -0,773
423,116; 3287,245;    2,692;   -0,045
423,706; 3336,629;    2,965;    0,318
424,296; 3131,984;    1,601;    0,682
424,885; 3393,712;    1,510;   -3,045
425,475; 3439,317;    1,147;   -2,864
426,065; 3269,068;   -1,489;   -0,318
426,654; 3039,931;    0,329;   -0,318
427,244; 3222,455;    1,147;    1,409
427,833; 2845,155;    1,056;   -0,500
428,423; 2837,128;    0,147;    1,136
429,012; 3162,418;    2,420;   -1,136
429,601; 2915,233;    2,057;    0,136
430,191; 2861,342;    2,511;    4,318
430,780; 2506,468;   -1,671;   -0,409
431,369; 2662,691;    1,329;   -0,045
431,959; 2814,197;    1,693;    0,500
432,548; 2568,423;   -1,398;   -0,045
433,137; 2476,743;    0,329;   -1,318
433,726; 2706,253;    0,148;    0,500
434,315; 2425,530;    0,148;    2,409
434,905; 2464,903;    0,693;    1,409
435,494; 2445,855;    3,148;    0,955
436,083; 2385,059;    1,420;   -0,955
436,672; 2262,471;    1,148;    0,500
437,261; 2114,164;    0,512;   -1,955
437,850; 2376,637;   -1,125;    0,682
438,439; 2312,117;    2,239;    1,955
439,027; 2311,695;    3,421;    1,773
439,616; 2287,533;    2,239;    1,227
440,205; 1923,335;    0,057;   -2,136
440,794; 1736,644;   -0,306;   -0,045
441,383; 1656,167;    1,603;   -0,591
441,971; 1471,242;   -0,306;    0,591
442,560; 1405,278;    0,603;   -1,773
443,149; 1258,163;    3,060;   -1,318
443,737; 1308,613;    0,968;   -2,318
444,326; 1276,290;    0,331;    0,318
444,915; 1296,302;   -1,851;    0,864
445,503; 1300,713;    0,058;   -0,318
446,092; 1518,563;    7,876;    2,136
446,680; 1470,623;    1,876;    0,318
447,269; 1365,081;   -1,487;   -0,318
447,857; 1219,434;    2,240;   -1,773
448,445; 1128,857;    2,149;    1,318
449,034; 1072,319;    0,876;   -1,136
449,622; 1013,596;    1,240;    3,500
450,210; 1412,495;    3,149;    2,227
450,799; 1291,977;    2,604;   -0,591
451,387; 1104,950;    1,786;   -0,591
451,975; 1054,815;   -1,305;    0,864
452,563; 1180,621;    0,422;    2,318
453,151;  850,191;   -1,032;   -1,227
453,739;  904,778;   -1,577;    0,136
454,328; 1079,058;    0,604;   -2,136
454,916;  901,153;    1,150;   -0,136
455,504;  891,943;    3,513;    1,227
456,092;  737,468;    2,150;   -1,591
456,679;  626,722;    0,604;    0,682
457,267; 1291,438;    3,604;    1,045
457,855;  763,727;    3,241;    1,409
458,443;  488,823;   -0,304;    1,682
459,031;  800,126;    1,332;    2,409
459,619;  733,043;   -3,577;    2,864
460,206;  551,747;   -0,759;    2,045
460,794;  547,107;   -0,668;   -0,227
461,382;  627,167;    0,878;   -0,864
461,970;  571,104;    0,605;    1,864
462,557;  474,128;    0,878;   -0,682
463,145;  685,780;   -0,304;   -1,682
463,732;  999,271;    2,514;   -1,045
464,320;  645,489;    1,514;   -3,045
464,907;  849,240;    0,423;   -0,773
465,495;  703,763;    2,696;   -1,227
466,082;  559,327;    2,060;   -0,045
466,670;  556,616;    2,605;    1,227
467,257;  409,201;    0,060;    2,045
467,844;  580,723;    1,514;    0,045
468,432;  549,225;   -0,031;    3,500
469,019;  449,033;    1,606;   -1,773
469,606;  546,301;    0,969;    3,682
470,193;  583,867;    2,151;    0,227
470,780;  517,084;    0,333;    0,864
471,368;  395,187;   -1,212;   -0,773
471,955;  538,151;    1,060;   -0,682
472,542;  458,559;   -0,303;   -1,136
473,129;  261,689;   -0,485;    0,136
473,716;  271,448;    0,060;    0,591
474,303;  306,910;    1,333;   -0,864
474,890;  316,857;    2,333;   -0,500
475,477;  440,331;   -0,576;    0,409
476,064;  294,538;    0,697;   -1,591
476,650;  434,616;    2,152;    0,318
477,237;  306,707;    1,879;    0,955
477,824;  271,581;    3,879;    0,864
478,411;  143,565;    0,606;   -0,318
478,997;  129,384;    0,606;   -0,773
479,584;   43,654;   -0,666;   -0,409
480,171;  301,515;    1,243;   -0,773
480,757;  375,018;   -0,848;    0,773
481,344;  204,946;    0,334;    0,409
481,931;   69,783;   -0,393;    1,045
482,517;  255,193;    0,425;    0,318
483,104;  360,895;    1,334;    2,864
483,690;  185,452;    0,243;    0,045
484,276;  147,845;    0,698;    0,227
484,863;  423,429;    2,152;    1,136
485,449;  211,280;    0,152;    0,318
486,035;  145,782;   -0,666;   -0,136
486,622;  274,880;   -2,393;    0,045
487,208;  167,723;    1,334;    1,500
487,794;   58,648;    0,971;    0,318
488,380;   63,226;    0,698;   -1,409
488,967;   73,290;   -1,120;   -0,409
489,553;   84,804;   -1,029;   -1,409
490,139;  189,507;    0,971;    0,773
490,725;   82,618;    0,789;   -0,227
491,311;  136,021;    1,516;    3,045
491,897;  101,942;   -0,665;    1,500
492,483;  105,824;    0,426;    1,227
493,069;  689,199;    5,426;    0,864
493,655;  331,216;    1,789;    0,682
494,241;  172,346;    1,517;   -0,955
494,826;  194,618;    0,335;   -1,045
495,412;  296,468;    0,335;   -0,682
495,998;  183,580;    0,971;   -0,318
496,584;  286,015;    2,244;    1,045
497,169;  303,936;    2,335;   -0,682
497,755;  233,957;    1,244;    1,227
498,341;  484,932;    2,153;    0,318
498,926;  687,146;    2,881;    1,955
499,512;  349,402;   -0,028;    2,955
500,097;  366,994;   -0,574;   -0,318
500,683;  432,673;   -0,028;    2,136
501,268;  409,076;    1,881;   -0,955
501,854;  501,002;   -0,119;    1,227
502,439;  506,841;   -0,573;   -1,773
503,024;  694,820;    1,608;    0,500
503,610;  822,476;    1,335;   -0,682
504,195;  749,188;    1,245;    1,955
504,780; 1016,274;    2,335;    1,227
505,366; 1299,614;    4,063;    2,864
505,951; 1250,727;   -1,119;    1,045
506,536; 1346,644;    1,427;   -3,682
507,121; 1533,537;    1,699;   -0,318
507,706; 1816,094;   -0,392;    1,045
508,291; 2033,731;   -2,937;    1,136
508,876; 2146,528;   -0,482;    2,591
509,461; 2301,626;    1,427;   -0,773
510,046; 2789,732;   -0,391;    0,318
510,631; 3143,937;   -0,119;   -0,773
511,216; 3347,052;   -0,664;   -0,500
511,801; 3982,442;   -0,755;    2,591
512,386; 4405,301;    0,972;    0,500
512,971; 4810,322;    0,427;    0,955
513,555; 5027,487;    1,154;   -1,500
514,140; 5934,819;    1,336;   -3,136
514,725; 6298,279;    1,791;   -1,136
515,309; 6821,073;    1,064;    0,318
515,894; 6956,765;   -0,300;   -2,227
516,479; 7703,623;    1,973;   -0,955
517,063; 7925,314;    0,882;    1,227
517,648; 8520,330;    0,155;   -1,136
518,232; 8530,103;   -1,300;   -1,409
518,817; 9236,352;    1,337;    1,682
519,401; 9861,206;    0,700;    0,591
519,985; 9716,628;    2,700;    1,136
520,570; 9923,004;   -0,118;   -1,955
521,154;10534,029;    0,064;    0,591
521,738;10979,413;    1,064;    2,409
522,323;11867,368;   -0,390;    1,682
522,907;11876,279;    2,428;   -0,136
523,491;11836,836;    1,155;    0,955
524,075;12045,994;    0,428;    0,591
524,659;12323,049;    0,973;    0,591
525,243;11973,824;    0,883;    0,409
525,827;12387,148;    0,883;   -0,045
526,411;13351,049;    1,155;   -0,136
526,995;13823,148;    0,337;    1,409
527,579;13521,296;    1,974;   -1,045
528,163;13921,573;    0,428;   -1,500
528,747;13995,280;    1,065;   -0,773
529,331;14382,110;    0,883;   -1,409
529,915;14702,340;    2,338;    0,955
530,499;14776,127;    0,247;    1,227
531,082;14514,651;    1,065;    1,591
531,666;14031,708;    0,520;    0,773
532,250;14755,984;    0,428;    2,682
532,833;15158,566;    0,610;    2,773
533,417;15104,697;    1,247;    0,864
534,001;15123,440;    0,429;   -0,318
534,584;15925,919;    1,974;    0,500
535,168;15758,002;    3,247;    1,409
535,751;15817,744;    4,520;    0,045
536,334;15327,144;    4,520;   -0,409
536,918;16034,072;    1,974;    1,591
537,501;16158,856;    1,520;    1,318
538,085;16158,702;    1,702;    1,045
538,668;16275,951;    0,883;    2,409
539,251;16664,200;    3,156;    3,773
539,834;16697,820;    0,156;    0,773
540,418;16667,145;    3,247;    4,318
541,001;16855,082;    2,702;    1,773
541,584;16823,056;    1,429;    2,227
542,167;16495,466;    0,702;    2,955
542,750;16667,715;    0,793;   -0,773
543,333;16235,633;    1,429;    2,136
543,916;17060,668;   -0,298;    2,500
544,499;17724,404;    2,520;    0,227
545,082;17755,293;    0,248;    3,591
545,665;17884,566;   -0,207;    1,500
546,248;18262,542;    0,520;   -0,318
546,830;17937,764;   -1,752;    1,955
547,413;18387,642;    0,157;   -0,773
547,996;18952,935;    0,157;    0,500
548,579;18682,153;   -0,843;    0,955
549,161;18530,042;    0,884;    2,682
549,744;18331,533;    0,612;    0,409
550,326;18828,450;    0,885;   -1,136
550,909;18572,838;    2,339;    0,591
551,492;19003,335;    0,521;    0,227
552,074;18821,265;   -0,024;   -1,318
552,657;19396,601;    2,430;    0,045
553,239;19141,530;   -3,024;   -0,773
553,821;19059,178;   -1,570;    1,045
554,404;18563,566;   -0,024;    1,136
554,986;18964,614;    2,248;    1,045
555,568;19580,543;    0,430;   -0,955
556,151;18721,610;    4,067;   -0,227
556,733;18927,685;   -1,388;   -0,864
557,315;19436,449;    4,703;    0,500
557,897;19235,583;    0,521;   -0,500
558,479;19379,804;    1,703;    1,318
559,061;19512,560;    1,067;   -0,864
559,643;19853,109;   -0,297;    0,045
560,225;20213,796;   -0,388;    2,864
560,807;20245,109;    0,340;    0,318
561,389;19800,192;   -1,206;    2,318
561,971;20463,708;   -0,660;    2,136
562,553;20258,869;    0,613;    1,591
563,135;20432,434;    1,249;    1,136
563,717;20036,944;    3,158;    1,136
564,298;20780,742;    3,976;   -0,045
564,880;20491,246;    0,340;   -1,409
565,462;20668,428;    1,977;    1,318
566,043;21870,873;   -0,933;    2,318
566,625;21390,051;    4,067;    1,227
567,207;21276,396;    0,704;    1,682
567,788;22424,507;   -0,114;    1,500
568,370;23240,847;   -1,841;   -0,500
568,951;23074,412;   -0,569;    0,227
569,533;23990,994;    0,977;   -0,500
570,114;24466,941;   -0,296;    0,682
570,695;24965,824;   -0,478;   -1,318
571,277;25505,054;   -0,205;   -1,682
571,858;26261,045;    2,704;   -1,136
572,439;27213,780;    0,795;   -1,045
573,021;27371,659;    0,432;   -2,773
573,602;27930,244;    1,795;    0,318
574,183;28881,810;   -0,114;    2,227
574,764;29095,221;    2,068;    0,409
575,345;29652,446;    0,250;   -0,136
575,926;30245,528;    2,704;    0,136
576,507;30290,240;    2,704;   -0,227
577,088;31367,936;    1,704;    1,682
577,669;31385,980;    1,704;    1,955
578,250;32187,446;   -0,750;   -1,045
578,831;32831,732;   -0,841;   -2,227
579,412;33090,229;   -1,205;    0,955
579,993;34061,209;    1,432;    0,227
580,573;34408,518;   -0,023;   -0,955
581,154;33345,652;    1,613;   -0,591
581,735;34214,853;    0,341;    0,773
582,315;33674,035;    0,523;    2,136
582,896;34059,221;   -1,750;    1,227
583,477;33532,771;    0,614;    1,227
584,057;33670,905;    1,159;    0,955
584,638;33962,846;   -2,750;    2,318
585,218;33944,260;    2,886;    2,682
585,799;34074,624;    1,977;   -0,227
586,379;34086,026;    1,250;    1,591
586,959;32860,964;    2,613;    0,318
587,540;32193,261;    0,432;    2,227
588,120;31612,041;   -1,113;   -0,045
588,700;30554,072;    2,977;    2,136
589,281;30883,727;    1,250;   -0,955
589,861;30797,873;   -0,296;   -1,682
590,441;30644,826;   -1,477;   -2,682
591,021;29606,387;    1,432;   -2,591
591,601;29881,303;    0,431;    0,500
592,181;29825,682;   -1,296;   -0,773
592,761;29045,100;    2,250;    1,409
593,341;28972,474;    1,522;    0,045
593,921;28962,904;   -0,569;    1,591
594,501;28828,995;    1,250;    1,318
595,081;28662,018;    0,522;   -0,318
595,661;29027,667;    1,068;    0,955
596,240;29552,971;   -1,023;    0,136
596,820;29139,563;    2,613;    1,955
597,400;29371,505;    1,977;    0,773
597,980;29587,607;   -0,750;    1,045
598,559;29616,584;    0,341;   -0,227
599,139;29303,881;   -0,750;   -1,227
599,718;29168,517;    0,795;   -0,409
600,298;29414,434;   -2,387;    0,682
600,877;29726,164;    4,795;    1,409
601,457;29973,847;    0,340;    1,136
602,036;29870,390;    1,795;    2,045
602,616;30071,694;    2,250;    1,682
603,195;30395,389;    0,431;    3,500
603,774;29941,290;   -0,296;    2,045
604,354;29842,267;    2,522;   -0,500
604,933;29292,745;    0,250;    1,864
605,512;29370,883;    2,340;    0,591
606,091;29417,511;    1,886;    3,773
606,671;30277,002;    0,249;    0,773
607,250;29327,828;    1,431;    3,136
607,829;29584,191;    1,158;    3,227
608,408;29444,017;    4,613;    2,591
608,987;28496,530;    2,704;    3,409
609,566;28778,126;    0,341;   -2,500
610,145;28845,969;    2,885;    0,682
610,723;29263,016;    1,613;    6,864
611,302;28521,857;    1,067;    1,682
611,881;27979,889;    5,158;   11,227
612,460;28796,961;    0,795;    3,955
613,039;29245,549;    1,703;    2,045
613,617;27985,147;    0,886;    4,773
614,196;28139,629;    1,613;    1,227
614,775;28474,691;    1,249;    2,409
615,353;28459,615;   -1,660;    0,864
615,932;28135,868;    0,249;    2,409
616,510;28721,232;    0,158;    0,591
617,089;28220,303;    8,794;   17,591
617,667;27959,327;    4,885;    6,136
618,246;27797,402;   -1,115;    1,318
618,824;28000,568;    1,612;   -0,955
619,402;27564,935;    0,431;   -1,773
619,981;28056,520;    1,067;   -1,045
620,559;27929,452;    0,794;    1,682
621,137;27449,081;    3,067;    1,864
621,715;27379,492;    3,703;   -0,682
622,293;27266,227;    1,885;   -0,773
622,871;27803,630;    0,340;    0,500
623,450;27355,266;    0,430;   -0,864
624,028;27245,298;   -0,388;   -0,955
624,606;26853,013;    2,339;    1,682
625,183;27235,017;   -0,661;   -1,136
625,761;26874,831;    1,885;    1,136
626,339;27133,092;    2,339;    2,591
626,917;27544,292;    0,339;   -0,045
627,495;27622,518;    2,794;    1,318
628,073;27059,217;    5,248;    2,864
628,650;26699,463;    3,067;    2,136
629,228;27171,009;    1,248;    4,409
629,806;26491,380;   -0,024;    1,136
630,383;26763,644;    0,066;   -0,318
630,961;26518,684;   -2,206;   -0,955
631,539;26264,514;   -2,479;    0,227
632,116;25539,866;   12,703;   15,409
632,694;26179,561;    4,885;    6,500
633,271;26477,374;    1,975;    2,682
633,848;26355,066;    1,430;    2,045
634,426;26422,393;    1,521;    1,773
635,003;25524,218;   -0,207;   -0,409
635,580;25831,657;    1,884;    3,682
636,158;26408,373;    3,793;    1,227
636,735;26376,588;    3,339;   -0,500
637,312;26500,964;    0,521;   -0,682
637,889;26635,978;    2,248;   -0,682
638,466;26106,269;    0,066;   -0,409
639,043;26099,276;    1,702;   -1,136
639,620;26430,695;    0,611;   -0,955
640,197;26776,051;    1,612;    1,682
640,774;26926,743;    1,430;    1,136
641,351;27268,525;    0,612;    1,136
641,928;26709,944;    2,794;    1,409
642,505;26349,272;    0,794;   -0,500
643,082;26482,146;    1,885;    1,227
643,658;25436,019;    1,157;    1,500
644,235;26202,983;   -2,479;    2,500
644,812;26408,948;    1,794;    0,773
645,388;26177,457;    1,612;    1,409
645,965;26286,967;    1,521;    1,682
646,542;26372,295;    3,430;   -0,227
647,118;26410,168;    3,703;   -0,955
647,695;26683,678;    0,339;    1,136
648,271;26564,733;   -2,115;    0,500
648,848;26887,334;    0,248;    2,227
649,424;26657,480;    0,976;    1,318
650,000;26401,808;   -0,388;   -1,045
650,577;26295,499;    0,158;   -0,955
651,153;26771,918;   -1,115;    0,955
651,729;27740,337;    0,521;    0,864
652,305;27877,574;    1,339;    2,773
652,881;32382,902;   -1,297;    1,136
653,458;39402,048;    0,249;    0,227
654,034;43356,740;    0,703;    1,591
654,610;44923,249;    0,339;    0,773
655,186;46341,941;    1,612;    3,045
655,762;46029,542;   -1,842;    0,409
656,338;46089,960;    0,703;    0,136
656,913;47129,834;   -0,297;    0,409
657,489;46395,344;    0,249;   -0,318
658,065;46492,308;    0,794;   -1,591
658,641;47052,090;    2,158;   -0,864
659,217;46341,146;    2,067;    0,409
659,792;45730,383;   -1,751;   -0,409
660,368;46080,801;   -0,388;   -0,682
660,944;45854,402;    1,794;    1,227
661,519;41153,548;    0,522;    0,409
662,095;34846,694;   -0,206;    0,591
662,670;29979,113;   -0,206;   -0,136
663,246;28751,168;   -0,660;   -0,409
663,821;28012,496;    0,431;    1,682
664,396;27468,915;    0,613;    1,864
664,972;27768,425;   -0,660;   -0,500
665,547;28075,935;    3,794;    0,136
666,122;28110,717;    1,340;    0,318
666,698;28393,772;    2,431;    0,318
667,273;27709,191;    0,885;    0,136
667,848;28552,701;    0,340;    1,500
668,423;28280,847;    1,795;    2,318
668,998;28869,175;    0,976;   -0,682
669,573;29439,866;    2,067;   -1,500
670,148;29243,467;    1,885;   -0,682
670,723;29077,340;   -0,024;    0,318
671,298;29498,759;   -1,296;    1,045
671,873;29629,451;   -0,296;   -0,136
672,448;29538,688;    1,704;    0,136
673,023;29938,197;    0,249;   -0,227
673,597;30257,071;    2,704;    2,318
674,172;29984,308;    2,431;    0,318
674,747;29464,909;   -0,205;   -1,045
675,321;29296,418;   -0,933;    3,318
675,896;28853,928;    2,158;    1,045
676,471;29859,074;    2,522;    1,591
677,045;29632,766;   -0,296;    0,682
677,620;29626,003;    2,158;    1,136
678,194;30034,149;    0,249;    1,136
678,769;29614,931;    0,886;   -0,318
679,343;29772,623;   -0,023;    1,773
679,917;29641,133;    0,340;    1,955
680,492;29731,733;    0,249;    3,227
681,066;29852,061;    0,613;    0,409
681,640;29876,298;    1,795;   -0,318
682,214;30690,535;    2,340;    0,500
682,788;30198,499;    0,613;   -0,773
683,363;30118,100;    1,977;    1,682
683,937;29845,792;    0,886;   -0,318
684,511;30636,029;   -1,023;   -0,591
685,085;30371,175;   -1,478;    0,318
685,659;30107,412;    1,431;    0,864
686,232;30297,831;    1,159;   -0,318
686,806;30035,158;    2,159;    0,409
687,380;30705,941;   -1,932;    0,591
687,954;30976,451;    2,432;    1,136
688,528;30607,506;    2,613;    1,955
689,101;31381,561;    0,432;    1,045
689,675;30959,980;    0,886;   -0,136
690,249;30294,308;    3,432;    0,409
690,822;30560,545;    1,159;    0,318
691,396;30691,509;    2,068;    1,227
691,969;30211,837;    2,523;    0,136
692,543;30642,165;   -0,568;   -1,955
693,116;30254,220;   -0,659;   -1,409
693,690;30089,912;   -0,296;    0,500
694,263;30666,058;    2,341;    2,955
694,836;30726,386;    2,795;    3,591
695,410;29316,441;    1,159;    1,773
695,983;29768,951;    1,614;    0,591
696,556;29717,370;   -0,750;   -1,045
697,129;30185,970;   -1,114;    1,409
697,703;29760,389;    1,341;    1,955
698,276;29823,444;    1,705;   -0,773
698,849;29626,408;   -1,023;    1,409
699,422;29962,827;    1,250;    0,591
699,995;29627,792;   -0,659;    0,136
700,568;30131,483;   -0,204;    3,045
701,140;30133,811;   -1,841;    1,682
701,713;29873,048;    0,341;    2,409
702,286;29630,285;    0,796;    0,864
702,859;29505,068;    0,614;   -0,591
703,432;28680,759;   -0,841;    0,682
704,004;29228,996;    1,978;    0,318
704,577;29095,869;    1,068;    0,136
705,150;29647,197;    0,887;    2,500
705,722;29384,525;    1,523;   -3,227
706,295;29142,671;    1,432;   -0,591
706,867;28969,545;    0,250;    1,955
707,440;29215,418;   -0,113;   -0,409
708,012;29412,746;   -0,022;    0,591
708,584;29335,619;    2,705;    0,227
709,157;29706,311;    1,160;   -0,591
709,729;29326,821;    1,069;    2,045
710,301;30210,149;   -1,204;    0,045
710,874;30176,749;    0,341;   -0,227
711,446;29089,805;   -0,295;    0,864
712,018;28976,587;   -3,022;    0,500
712,590;28692,642;   -0,204;    1,682
713,162;29251,152;   -0,477;    1,318
713,734;29494,389;    1,796;   -2,045
714,306;29318,626;    0,342;   -0,409
714,878;28046,772;   -0,295;    0,864
715,450;28871,918;   -0,113;    0,864
716,022;29124,064;    2,433;    1,318
716,593;29282,938;    0,978;    0,591
717,165;29150,175;    1,796;   -1,227
717,737;28887,957;    0,796;    0,409
718,309;28634,558;    1,160;   -0,045
718,880;28521,613;   -1,295;   -1,409
719,452;28775,214;    0,887;   -1,591
720,024;28351,632;    1,705;   -0,591
720,595;28898,506;    2,978;    0,955
721,167;28406,016;    1,160;   -2,045
721,738;27908,525;    2,069;   -1,045
722,309;27809,399;    1,251;   -1,227
722,881;27566,908;    2,705;    0,773
723,452;28305,782;    1,251;    2,864
724,023;28516,201;    1,524;    2,682
724,595;28259,074;    2,342;    0,682
725,166;27969,856;    1,524;   -0,409
725,737;27578,093;    1,887;    0,227
726,308;27734,603;    0,797;    0,318
726,879;28054,567;    1,069;    1,227
727,450;27971,532;   -2,022;   -0,045
728,021;27926,678;    1,069;    0,682
728,592;27789,460;    1,160;    0,500
729,163;28117,243;    1,433;   -0,136
729,734;28032,934;    2,160;   -0,227
730,305;28449,262;    0,615;    0,136
730,876;28794,863;    0,888;    2,955
731,447;28449,100;    0,797;    2,682
732,017;28542,610;   -0,840;    1,864
732,588;28110,210;   -0,021;    1,227
733,159;28299,811;    3,615;   -1,045
733,729;28118,684;    1,251;    0,409
734,300;27349,830;    0,160;    0,864
734,870;27730,795;   -1,385;    0,591
735,441;28293,304;    0,888;   -0,591
736,011;28047,087;    1,070;   -1,591
736,582;28038,324;    1,251;    0,045
737,152;27476,379;    0,979;   -2,045
737,722;27975,707;    1,070;   -0,682
738,293;27688,399;   -2,021;    1,318
738,863;27523,999;    1,797;    2,318
739,433;27330,691;    4,524;    0,318
740,003;27961,655;    1,524;   -0,682
740,573;27351,983;    2,252;   -1,591
741,143;27332,856;    3,615;    0,318
741,713;28162,003;    0,252;   -0,500
742,283;27782,876;    1,706;    1,591
742,853;27555,386;    0,524;    1,591
743,423;27037,077;    0,161;    0,045
743,993;27141,769;    1,070;    1,500
744,563;26540,188;    2,524;   -0,864
745,133;26458,243;   -0,112;   -0,864
745,702;27184,753;    2,797;    1,773
746,272;26331,080;    0,434;    0,591
746,842;26090,590;   -0,748;   -0,591
747,411;26527,645;   -0,839;   -0,318
747,981;26725,701;   -0,930;    0,500
748,551;26771,483;   -0,021;   -1,045
749,120;26664,811;   -0,112;   -0,227
749,690;27049,775;    2,161;    2,409
750,259;27360,103;    0,979;    2,955
750,828;27271,795;    4,070;   -1,955
751,398;27501,486;   -0,112;   -0,045
751,967;27022,087;    2,888;    0,409
752,536;27194,869;    1,161;   -0,227
753,105;27597,379;   -1,384;    0,227
753,675;27440,162;   -0,112;    1,773
754,244;27338,217;    0,888;    3,591
754,813;27395,817;    0,979;    1,227
755,382;27006,964;    0,798;    0,955
755,951;27525,382;   -0,112;    3,682
756,520;27060,074;    2,525;    1,864
757,089;27648,038;    1,888;    0,500
757,658;27743,821;    2,434;    1,227
758,227;27772,967;   -1,111;    0,318
758,795;28036,022;   -1,021;    1,136
759,364;28321,714;    0,525;   -0,591
759,933;27319,678;    1,343;   -0,045
760,501;26829,278;    0,252;   -1,318
761,070;27351,606;   -0,293;   -1,409
761,639;28087,480;    1,434;    1,318
762,207;27330,080;    0,889;   -0,955
762,776;27261,681;    2,889;    0,864
763,344;27172,554;    0,071;    0,591
763,913;26298,246;    1,616;    1,409
764,481;27080,483;    1,980;   -0,136
765,049;26882,538;    0,616;    1,409
765,618;26816,321;    1,434;    0,318
766,186;26874,467;    2,434;    0,136
766,754;27020,340;    1,798;    1,864
767,322;25984,032;    1,162;    0,409
767,890;25976,541;    0,525;   -1,773
768,459;26438,960;    2,616;   -0,318
769,027;26604,015;    2,525;    3,409
769,595;25635,798;    2,616;    2,591
770,163;25986,126;    3,344;    2,955
770,730;25700,817;    2,525;   -0,136
771,298;25587,145;    1,162;   -1,409
771,866;25699,655;    0,253;    4,955
772,434;25946,165;    1,162;   -1,864
773,002;26184,856;    2,616;    0,682
773,569;25795,548;    1,071;    1,682
774,137;25584,058;    0,889;   -0,045
774,705;26388,931;   -0,747;   -0,136
775,272;25866,623;    0,253;    0,682
775,840;25695,314;   -0,111;    2,682
776,407;25205,824;   -0,293;    1,955
776,975;24780,515;    1,162;    0,318
777,542;25798,662;    2,162;   -0,045
778,110;25658,262;    0,707;   -0,045
778,677;25296,136;    1,071;   -0,864
779,244;25056,009;   -1,020;    1,045
779,812;25191,791;    0,980;    0,864
780,379;25005,301;    2,435;    1,136
780,946;25250,629;    2,617;   -0,773
781,513;25586,412;   -0,565;    0,318
782,080;24897,194;    1,253;    2,864
782,647;25657,795;    1,708;    3,045
783,214;25250,486;   -0,201;    3,864
783,781;24856,178;    1,708;   -0,682
784,348;24695,778;    0,253;    1,500
784,915;25167,106;   -1,474;    0,318
785,482;24920,252;    2,708;    2,591
786,049;25415,671;    1,071;   -0,591
786,615;25511,908;    1,708;   -0,955
787,182;25272,600;   -3,201;   -0,682
787,749;24961,928;   -2,201;    1,409
788,315;24268,074;    0,253;   -0,409
788,882;24559,493;    0,981;   -1,227
789,448;25251,275;    1,435;   -0,955
790,015;25222,603;    1,799;    3,227
790,581;24775,386;    0,708;    0,227
791,148;24669,804;    1,344;    1,045
791,714;24906,041;   -1,019;    3,136
792,280;24614,551;    3,708;    1,591
792,847;24161,697;   -0,928;    2,500
793,413;24740,116;   -0,110;   -0,318
793,979;24263,080;    1,526;   -1,318
794,545;24298,681;    2,981;    2,682
795,111;23750,191;    2,435;    1,318
795,678;23908,973;    3,526;   -1,682
796,244;23512,574;    2,799;    0,136
796,810;24105,993;    0,799;    0,773
797,375;23834,139;   -0,292;   -2,136
797,941;23813,649;   -1,110;    0,591
798,507;23960,340;    0,254;   -0,955
799,073;23530,032;    2,708;    0,591
799,639;23614,450;    1,435;    3,136
800,205;23630,960;   -1,565;    2,682
800,770;23150,652;    1,345;    1,773
801,336;23206,343;    2,981;   -0,955
801,901;22897,035;    6,072;    3,136
802,467;23495,545;    0,526;    2,045
803,033;22794,054;   -0,019;    0,864
803,598;22984,746;    1,072;   -1,045
804,163;23053,074;    0,708;   -0,318
804,729;22992,584;   -0,110;    1,136
805,294;23397,821;    1,072;    2,227
805,859;23216,694;    0,890;   -0,409
806,425;22639,840;    3,890;    2,682
806,990;22303,895;    1,890;    4,318
807,555;22852,769;   -0,110;    2,591
808,120;22700,278;   -1,292;   -0,409
808,685;22728,970;    1,072;   -2,500
809,250;22273,571;    2,072;   -0,500
809,815;22596,353;   -0,201;    0,682
810,380;23096,317;    0,981;    1,591
810,945;23575,009;    2,890;    2,045
811,510;22820,428;   -0,200;    1,591
812,075;22528,665;    2,800;   -1,409
812,640;22532,902;    3,709;    1,409
813,204;22582,048;    2,163;   -0,227
813,769;23055,921;    0,254;   -0,045
814,334;22468,976;    0,527;    0,864
814,898;22525,032;    1,981;    0,591
815,463;22374,905;    0,981;   -0,773
816,027;22401,233;    1,345;   -2,318
816,592;22487,561;    2,163;   -2,045
817,156;21964,434;   -2,200;    1,136
817,721;21753,762;    0,982;    2,318
818,285;21702,363;    0,618;    1,500
818,849;22417,782;   -0,018;    1,682
819,414;22288,837;    0,073;    2,955
819,978;21847,528;   -0,291;    1,773
820,542;22475,311;    2,891;    0,500
821,106;22246,093;    2,800;    0,682
821,670;22278,058;    2,709;    2,591
822,234;21930,022;    1,073;    1,409
822,798;21323,350;   -0,836;    0,500
823,362;21355,132;    1,527;    4,227
823,926;20665,006;   -0,018;    1,136
824,490;20862,970;    3,527;   -0,682
825,054;21325,116;    2,527;   -1,136
825,618;20956,171;   -1,200;   -1,500
826,181;20881,317;    0,982;   -1,318
826,745;20726,554;   -0,745;   -1,045
827,309;21113,973;    2,255;    1,318
827,872;20528,483;    0,527;    0,955
828,436;21509,902;    1,982;   -0,773
828,999;21591,411;    2,436;    1,227
829,563;20426,739;   -0,654;    1,136
830,126;20178,795;   -0,018;   -0,591
830,690;20214,304;    0,709;    2,864
831,253;19725,178;   -0,473;    2,227
831,816;19866,960;   -0,018;    0,500
832,380;19790,197;    1,164;    0,864
832,943;19983,161;    3,073;   -0,500
833,506;19514,308;    0,255;   -1,227
834,069;20316,908;    2,164;   -0,955
834,632;20396,600;   -2,200;    1,318
835,195;20217,928;    1,346;    0,955
835,758;19422,710;    0,709;    1,955
836,321;19270,493;    1,073;   -1,045
836,884;19354,639;   -1,291;   -0,955
837,447;19426,694;    0,528;    1,773
838,010;19696,931;    1,800;    3,227
838,573;19985,895;    0,528;    0,773
839,135;19955,950;   -0,109;   -0,955
839,698;19348,915;    2,528;    0,409
840,261;18886,788;    0,255;   -0,227
840,823;18774,207;   -0,927;    0,864
841,386;19070,353;   -0,018;   -2,409
841,948;18899,863;    0,255;    1,773
842,511;18627,100;    0,255;    1,682
843,073;18833,519;    2,982;    0,227
843,636;18630,756;    0,619;   -0,227
844,198;18539,993;    1,255;    0,591
844,760;18656,502;    0,619;    1,955
845,322;18285,103;    0,164;    1,136
845,885;18686,522;   -0,290;    0,591
846,447;19147,213;    0,710;    0,227
847,009;18690,905;    3,983;   -0,682
847,571;19061,051;    1,346;   -2,045
848,133;19156,652;   -0,199;   -1,864
848,695;18983,525;    2,346;    1,409
849,257;18517,762;    1,346;   -1,682
849,819;18684,363;    2,983;   -0,409
850,381;18764,963;    1,801;   -0,864
850,942;19121,200;    1,892;   -0,591
851,504;18999,074;    0,983;    0,227
852,066;19049,856;    1,619;   -1,591
852,628;18646,184;    0,165;    1,955
853,189;18165,785;    0,256;    2,682
853,751;18262,749;   -0,654;    1,409
854,312;18063,986;    1,256;   -1,682
854,874;18557,405;   -0,108;   -0,773
855,435;19080,369;    0,528;   -1,682
855,997;19211,515;    3,983;   -0,136
856,558;18461,025;    0,801;    1,773
857,119;18600,535;   -0,744;    2,864
857,681;18278,135;   -0,108;    0,318
858,242;18299,736;    1,347;   -2,136
858,803;18785,700;    1,074;   -0,773
859,364;19379,756;    0,892;   -4,773
859,925;18701,174;   -0,290;   -0,955
860,486;18597,684;    0,529;   -0,955
861,047;18324,285;    0,165;   -1,227
861,608;18152,522;    0,165;   -0,773
862,169;18296,759;   -0,562;   -0,045
862,730;18059,541;   -0,290;    1,409
863,291;18299,960;    0,438;   -0,500
863,852;18601,833;   -0,926;    1,955
864,412;18065,798;   -1,835;   -0,864
864,973;16648,035;    1,892;    0,500
865,534;16479,363;    2,074;    0,227
866,094;17975,963;    2,620;    0,227
866,655;17639,200;    4,711;    3,318
867,215;17938,437;    0,074;    0,136
867,776;17783,038;   -1,199;   -0,136
868,336;17898,275;    1,529;    0,136
868,897;17337,421;    3,438;    1,682
869,457;17153,749;    3,256;    0,318
870,017;17397,531;    2,438;   -1,227
870,578;17893,314;    1,893;    0,773
871,138;17549,096;    2,620;   -0,955
871,698;17108,243;   -0,562;   -1,318
872,258;16895,389;    0,711;   -2,864
872,818;17305,444;    2,347;    0,045
873,378;17279,044;   -2,198;    1,045
873,938;16864,281;    4,984;    0,500
874,498;17176,882;    1,256;   -1,955
875,058;17045,937;    4,347;    1,773
875,618;16896,447;    1,438;   -2,682
876,177;16845,230;   -0,471;    0,136
876,737;16422,739;   -0,289;    1,955
877,297;16391,522;    2,711;    1,955
877,856;16460,304;    2,529;    0,318
878,416;16403,087;    2,438;   -0,136
878,976;16591,142;    3,438;    0,409
879,535;16764,833;    4,529;    3,136
880,095;16498,798;    1,347;    0,045
880,654;16620,398;    0,347;    1,318
881,213;16709,090;    2,347;    1,500
881,773;16376,145;    1,984;    2,682
882,332;16742,473;    6,075;    5,136
882,891;16597,165;    0,711;    2,136
883,451;17013,492;   -2,016;    1,682
884,010;16501,729;   -1,107;   -0,409
884,569;16568,057;   -2,289;   -0,045
885,128;16698,476;   -0,743;   -1,864
885,687;16761,986;   -0,743;    0,682
886,246;16442,768;    2,620;    2,136
886,805;16203,187;    1,620;    2,045
887,364;16533,697;    1,166;   -0,500
887,922;16857,389;   -0,016;    0,045
888,481;16361,807;    1,530;    0,591
889,040;16673,863;    3,711;    2,136
889,599;17325,918;    2,166;    1,409
890,157;17453,791;    2,166;    2,409
890,716;17108,755;    2,166;    0,227
891,274;16891,447;    0,075;   -1,136
891,833;17275,684;    1,166;    0,864
892,391;17167,648;    1,802;    0,500
892,950;17246,704;    0,166;   -0,773
893,508;17618,577;    0,984;   -0,409
894,067;16958,814;   -0,379;    0,136
894,625;16871,960;   -1,016;   -1,500
895,183;17110,561;   -0,198;   -0,682
895,741;17025,434;    2,257;   -1,773
896,299;16841,126;    1,621;   -2,409
896,858;17020,181;    1,530;   -1,591
897,416;17151,054;    0,166;   -1,318
897,974;16857,109;   -2,197;    0,318
898,532;17009,255;    6,530;    2,682
899,089;16919,947;    0,621;   -0,682
899,647;17010,911;    0,530;    1,318
900,205;16718,421;    0,257;    1,045
900,763;16891,294;    2,166;    0,227
901,321;16927,440;    3,530;   -1,409
901,878;16390,041;    3,257;   -0,773
902,436;16267,642;    0,257;    1,318
902,994;16625,606;    6,712;    3,682
903,551;16036,389;    1,439;    0,409
904,109;16434,080;    1,530;   -1,409
904,666;16075,226;    1,439;    1,045
905,224;15870,463;    3,894;   -0,409
905,781;15591,337;   -0,470;   -0,318
906,338;15664,574;    0,167;    1,045
906,895;15602,174;    1,894;    2,045
907,453;15547,411;    2,348;    1,136
908,010;15563,739;    3,348;    0,409
908,567;15164,522;   -0,561;    0,591
909,124;14712,395;    2,439;   -1,500
909,681;14770,450;   -1,288;    0,682
910,238;14972,960;   -0,106;   -1,318
910,795;15279,652;   -1,561;   -1,136
911,352;14909,652;   -0,379;   -2,682
911,909;14344,742;    2,803;   -0,864
912,466;14825,652;    1,985;    1,500
913,022;14328,106;   -0,924;    0,500
913,579;14699,197;   -0,470;    2,045
914,136;14403,742;   -2,561;    0,955
914,692;14758,197;    1,530;   -1,227
915,249;14321,742;    0,530;    0,409
915,806;14518,379;    1,803;    1,955
916,362;14278,106;    0,894;    1,864
916,918;13825,379;    2,439;    1,045
917,475;13819,197;    1,621;    0,955
918,031;13940,288;    0,076;   -0,045
918,587;13385,106;    0,621;   -0,318
919,144;13597,561;   -0,379;    0,227
919,700;13927,924;    0,167;    0,773
920,256;13516,561;    0,439;    0,045
920,812;13133,742;    1,439;   -1,045
921,368;13134,742;    1,348;   -1,045
921,924;12806,470;    0,439;   -0,136
922,480;12334,561;    0,076;    1,227
923,036;12930,561;   -0,652;    1,955
923,592;12884,379;    0,621;    0,318
924,148;12798,924;    1,894;   -0,955
924,704;12146,742;    0,258;   -0,409
925,259;12419,106;   -0,561;    0,591
925,815;12162,470;    3,803;    0,500
926,371;11726,470;    3,530;    1,409
926,926;11573,379;    1,621;    0,591
927,482;11164,742;    1,621;    0,773
928,037;11098,379;   -0,833;    2,045
928,593;11404,833;    0,258;    1,045
929,148;11205,015;    1,167;   -1,500
929,704;10739,833;    2,439;   -0,500
930,259;10915,470;    0,894;   -0,136
930,814;10005,742;    1,803;    1,955
931,369; 9744,379;    0,258;   -0,773
931,925; 9617,470;   -1,924;    0,136
932,480; 9470,288;    3,076;   -2,591
933,035; 9359,833;    3,985;   -0,318
933,590; 9123,652;   -1,742;   -1,773
934,145; 8796,288;   -1,288;   -0,318
934,700; 9164,470;    0,348;   -0,591
935,255; 8938,561;    4,803;    0,045
935,809; 8200,924;    6,258;    0,864
936,364; 7374,288;    2,167;   -0,136
936,919; 7364,924;    2,348;   -1,773
937,474; 7267,561;    1,348;    0,136
938,028; 6993,106;    3,076;    1,136
938,583; 6449,561;    6,348;    4,682
939,138; 6768,106;    0,167;    2,136
939,692; 6242,652;   -1,015;   -1,136
940,247; 5915,561;    1,167;   -1,045
940,801; 5496,924;    0,621;    0,227
941,355; 5413,379;    0,439;    2,591
941,910; 5062,470;    0,712;   -2,136
942,464; 5149,197;    2,712;   -0,318
943,018; 4938,288;    3,258;   -0,227
943,572; 4878,015;    2,803;   -0,682
944,126; 4305,288;   -0,924;   -0,409
944,681; 4202,197;    0,712;    0,227
945,235; 4186,288;    2,167;   -0,591
945,789; 4114,833;    1,258;   -1,864
946,342; 4200,015;   -0,561;   -0,591
946,896; 4019,015;    0,348;    0,955
947,450; 3770,379;   -0,561;   -0,227
948,004; 3969,288;    1,076;   -0,045
948,558; 3990,742;    1,258;   -0,864
949,111; 3906,379;   -1,197;   -0,318
949,665; 3932,106;   -0,106;   -0,682
950,219; 3781,652;    0,621;   -1,045
950,772; 3885,924;    0,258;    1,864
951,326; 3806,106;   -1,106;   -0,955
951,879; 3897,015;    1,076;   -2,318
952,433; 3919,288;    1,348;    2,227
952,986; 3761,742;    0,348;    0,682
953,539; 3690,470;    1,530;    0,591
954,093; 3647,106;    0,985;   -1,318
954,646; 3780,106;   -0,288;    1,318
955,199; 3580,742;    1,258;   -0,500
955,752; 3454,379;    1,985;    1,773
956,305; 3427,561;    0,894;    2,955
956,858; 3602,742;    0,621;   -0,318
957,411; 3808,742;    3,621;    2,136
957,964; 3595,652;    2,076;    2,136
958,517; 3581,106;    0,985;    3,136
959,070; 3416,379;   -1,197;    1,955
959,623; 3492,470;    1,076;    1,500
960,176; 3273,652;    0,712;    2,045
960,728; 3222,379;    1,712;    0,773
961,281; 3311,470;    2,258;    0,500
961,834; 3332,561;   -0,833;    0,864
962,386; 3268,833;    1,258;    1,045
962,939; 3174,470;    3,439;   -0,318
963,491; 3330,470;    2,621;    1,136
964,043; 3190,561;    0,076;    2,409
964,596; 3320,197;    1,712;    2,227
965,148; 3163,470;   -0,379;    1,773
965,700; 3093,106;   -0,015;   -0,227
966,253; 3236,742;   -0,833;    0,318
966,805; 3061,833;    1,894;    0,773
967,357; 3123,561;    0,439;   -1,500
967,909; 3070,924;    1,167;   -1,227
968,461; 3187,833;    0,894;    3,136
969,013; 3120,015;   -1,561;   -0,864
969,565; 3191,197;    1,803;   -1,136
970,117; 3263,288;    3,803;    1,045
970,669; 3091,924;    3,258;   -0,136
971,220; 2962,106;    2,167;   -1,500
971,772; 2872,197;    1,348;   -0,318
972,324; 3002,561;   -1,197;   -0,500
972,876; 2956,106;    0,167;   -0,045
973,427; 3063,015;   -1,197;   -1,045
973,979; 3046,833;    0,076;   -2,500
974,530; 3066,561;    0,803;    1,318
975,082; 3101,015;    2,167;    1,682
975,633; 2979,742;    2,894;    1,682
976,184; 3110,924;    2,076;    0,773
976,736; 2910,924;    0,348;    0,227
977,287; 2705,288;    0,258;   -0,500
977,838; 2892,379;   -0,924;   -0,318
978,389; 2963,561;    0,803;   -0,500
978,940; 2840,924;    1,258;   -0,409
979,491; 2861,833;    2,258;   -0,500
980,042; 2815,742;   -0,652;    3,045
980,593; 2894,924;    1,894;    0,227
981,144; 2937,652;    3,530;   -0,500
981,695; 2905,015;   -0,470;    1,500
982,246; 2860,106;   -1,833;    1,045
982,797; 3010,288;   -0,561;    0,682
983,347; 3135,379;    2,167;    0,591
983,898; 3281,652;    4,167;    0,409
984,449; 3098,288;    2,530;    0,773
984,999; 3017,652;    1,894;   -1,136
985,550; 2780,924;    3,167;   -0,318
986,100; 2834,652;    0,712;   -0,318
986,651; 2854,197;    0,258;    0,045
987,201; 2820,379;    0,894;   -0,591
987,751; 2923,288;   -0,288;    2,864
988,302; 2905,924;   -0,379;    1,500
988,852; 2931,288;    1,985;   -1,136
989,402; 2971,015;    0,985;    0,682
989,952; 2880,470;    1,621;    0,864
990,502; 2976,197;    1,076;    0,682
991,052; 2957,652;   -0,106;    0,045
991,602; 2825,652;    1,167;    1,318
992,152; 2812,106;    2,803;    0,682
992,702; 2780,197;    1,167;   -0,045
993,252; 2703,015;    0,076;   -0,500
993,802; 2799,652;    1,167;    1,318
994,352; 3042,561;   -0,742;    1,136
994,901; 3133,652;    1,076;    3,227
995,451; 3057,833;   -1,197;    0,318
996,000; 3156,924;    1,076;    0,318
996,550; 2838,197;    2,894;    0,227
997,100; 2853,015;   -0,561;   -0,045
997,649; 3122,742;   -0,197;    0,955
998,198; 2755,015;   -0,288;   -1,500
998,748; 2947,833;    0,348;   -2,318
999,297; 2865,470;    0,985;   -0,409
999,846; 2936,924;    1,894;   -0,773
1000,395; 2989,106;    1,530;    0,500
1000,945; 2943,379;    1,076;   -0,773
1001,494; 3014,015;    0,167;    0,682
1002,043; 2992,288;    0,712;    0,864
1002,592; 2839,197;    3,439;    1,955
1003,141; 2991,106;    2,439;   -0,682
1003,690; 2817,924;    1,258;    0,500
1004,238; 2884,742;   -0,106;   -0,045
1004,787; 2547,197;   -1,288;    1,227
1005,336; 2774,288;    1,621;    0,682
1005,885; 2917,652;   -0,197;   -2,773
1006,433; 3070,833;   -0,470;    0,955
1006,982; 3132,015;    2,167;    1,682
1007,531; 3041,561;    2,712;   -0,227
1008,079; 2992,379;    0,258;    0,500
1008,627; 3152,561;    1,621;    0,409
1009,176; 2879,561;    0,076;   -1,955
1009,724; 2921,561;   -2,742;    0,864
1010,273; 2973,652;    1,076;    0,500
1010,821; 3092,197;    1,076;    1,409
1011,369; 2820,561;    0,076;    1,318
1011,917; 2803,288;   -0,833;   -0,591
1012,465; 3086,470;    2,530;   -1,591
1013,013; 3213,652;    0,439;   -1,682
1013,561; 3081,106;   -1,288;   -0,773
1014,109; 3128,924;   -0,833;    1,682
1014,657; 2971,833;    1,348;    0,591
1015,205; 3133,924;    0,894;   -0,955
1015,753; 3154,197;    0,258;   -1,409
1016,301; 3187,470;    2,621;    3,045
1016,848; 3197,015;    2,167;    0,409
1017,396; 3229,742;    1,621;    0,045
1017,944; 3349,106;    2,621;    1,864
1018,491; 3101,924;   -0,197;    1,409
1019,039; 3270,833;   -0,652;    0,591
1019,586; 3182,652;    0,076;    1,682
1020,134; 3275,561;    0,712;    1,500
1020,681; 3293,924;    2,894;   -1,136
1021,228; 3299,652;   -0,561;   -2,227
1021,776; 3130,924;   -0,833;   -1,136
1022,323; 3346,379;    0,803;    0,773
1022,870; 3293,561;   -0,470;   -0,045
1023,417; 3200,742;    2,076;    1,864
1023,964; 3341,288;    0,621;    1,227
1024,511; 3166,652;   -0,652;    0,773
1025,058; 2948,288;    0,439;   -0,045
1025,605; 3018,652;   -1,742;    3,136
1026,152; 3211,652;   -0,106;   -0,591
1026,699; 2956,015;    0,167;    1,318
1027,245; 3134,379;    2,439;    0,318
1027,792; 3357,561;    0,712;    1,409
1028,339; 3232,833;    4,076;   -0,045
1028,885; 3071,015;    3,621;   -0,227
1029,432; 3014,197;   -0,106;    0,227
1029,978; 3083,924;    1,348;   -1,591
1030,525; 2963,924;    1,621;    0,409
1031,071; 3236,470;    0,348;    1,136
1031,618; 3325,197;    1,258;    1,682
1032,164; 3129,106;    2,076;    3,045
1032,710; 3164,924;    0,076;   -1,500
1033,256; 3085,924;    0,712;   -0,136
1033,803; 3079,924;   -0,288;    1,500
1034,349; 2821,288;    1,803;    0,136
1034,895; 2966,197;    2,621;   -0,318
1035,441; 2928,652;    0,439;    0,318
1035,987; 2927,288;   -2,288;   -0,682
1036,533; 2930,015;   -0,197;   -0,955
1037,078; 3137,742;    4,712;    1,682
1037,624; 2975,015;    2,439;   -0,955
1038,170; 2992,652;    1,712;   -0,318
1038,716; 2880,015;    2,167;   -0,409
1039,261; 2794,742;    2,167;   -0,773
1039,807; 2744,561;   -0,015;    3,409
1040,352; 2809,106;   -1,288;   -0,318
1040,898; 2862,197;    0,167;   -0,682
1041,443; 2775,288;    0,803;   -2,591
1041,989; 2798,015;    3,621;    1,591
1042,534; 2686,288;    0,985;    2,591
1043,079; 2797,379;    1,985;    0,955
1043,625; 2575,015;    0,258;    0,500
1044,170; 2602,015;    2,439;    1,045
1044,715; 2864,833;    0,167;    0,955
1045,260; 2692,379;   -0,833;   -0,955
1045,805; 2737,106;    0,258;   -0,591
1046,350; 2689,197;    0,530;   -0,409
1046,895; 2651,742;    0,803;    1,591
1047,440; 2590,561;    1,530;    0,409
1047,985; 2496,924;   -1,197;   -0,955
1048,530; 2403,742;    1,348;    1,227
1049,074; 2474,561;    2,803;    0,318
1049,619; 2440,833;   -0,924;    1,955
1050,164; 2257,561;    1,076;    0,227
1050,708; 2314,924;    2,621;    0,045
1051,253; 2680,015;    3,258;   -2,227
1051,797; 2390,561;   -0,197;   -1,318
1052,342; 2402,742;    1,348;    1,045
1052,886; 2381,106;    1,803;   -1,409
1053,430; 2258,924;    2,167;    0,136
1053,975; 2267,015;    0,894;   -0,318
1054,519; 2266,288;    1,803;    3,227
1055,063; 2283,106;    3,621;    1,318
1055,607; 2170,288;    1,348;    0,227
1056,151; 2195,379;    0,530;    1,682
1056,695; 2109,742;   -1,833;   -1,136
1057,239; 2187,924;   -1,197;   -0,682
1057,783; 2173,470;    2,258;   -1,500
1058,327; 2134,833;    3,076;    1,409
1058,871; 2369,197;    3,985;    1,318
1059,415; 2062,833;   -0,561;   -0,045
1059,958; 2306,742;    2,985;    2,591
1060,502; 2028,197;    1,348;   -0,773
1061,046; 1945,742;    1,712;   -0,955
1061,589; 1927,742;    2,803;   -1,136
1062,133; 1816,470;    0,985;    1,864
1062,676; 1762,379;    1,439;    0,864
1063,220; 1760,833;    0,985;    0,500
1063,763; 1781,561;    2,985;    1,136
1064,306; 1855,742;    0,985;    1,864
1064,849; 1754,652;    2,076;    0,591
1065,393; 1754,561;    2,894;   -1,500
1065,936; 1868,015;    2,530;   -0,409
1066,479; 1747,924;    2,621;    1,318
1067,022; 1777,015;    1,894;   -0,227
1067,565; 1678,470;   -1,197;   -1,318
1068,108; 1708,106;    1,258;   -0,591
1068,651; 1683,106;   -2,470;    1,409
1069,194; 1605,833;   -1,106;   -1,682
1069,736; 1594,197;    3,803;    0,955
1070,279; 1590,652;   -1,652;   -0,500
1070,822; 1629,652;    1,530;   -0,318
1071,364; 1700,833;    0,530;    1,318
1071,907; 1534,561;    0,348;    3,227
1072,450; 1455,742;    0,258;   -0,045
1072,992; 1445,106;   -0,561;    3,136
1073,535; 1572,742;    0,167;    2,136
1074,077; 1376,379;    2,985;    2,045
1074,619; 1339,015;    0,985;    0,591
1075,161; 1373,742;   -0,561;    1,500
1075,704; 1554,652;    0,258;    1,227
1076,246; 1357,197;    1,530;    0,682
1076,788; 1278,379;   -1,015;    1,773
1077,330; 1367,470;   -2,106;    2,136
1077,872; 1329,379;   -1,924;    0,955
1078,414; 1550,015;    3,712;    0,773
1078,956; 1274,561;    0,167;   -0,227
1079,498; 1514,833;    0,439;    0,318
1080,040; 1217,015;    0,985;   -1,318
1080,581; 1175,742;    0,621;   -0,318
1081,123; 1123,742;   -0,106;   -0,773
1081,665; 1166,924;    3,803;   -0,955
1082,206; 1437,288;    3,258;   -0,500
1082,748; 1323,015;    3,258;    2,045
1083,289; 1202,924;    0,167;    1,318
1083,831; 1114,924;    0,258;    0,227
1084,372; 1126,379;    0,894;    0,591
1084,913; 1134,742;    3,348;    0,864
1085,455; 1121,833;    1,530;   -2,045
1085,996; 1086,652;    0,530;    0,136
1086,537; 1100,470;    0,985;    0,864
1087,078; 1138,924;    0,439;   -2,136
1087,619; 1180,470;   -1,652;    0,227
1088,160; 1098,742;    1,439;    1,318
1088,701; 1082,833;   -0,742;    0,682
1089,242; 1032,652;   -0,561;   -2,227
1089,783; 1115,470;   -0,561;    1,409
1090,324; 1088,652;   -0,833;    0,682
1090,865;  961,288;   -1,924;   -0,409
1091,405;  945,197;   -0,561;    2,227
1091,946;  977,833;   -0,197;   -0,955
1092,487;  890,197;   -1,288;   -1,409
1093,027; 1059,379;    1,803;   -1,500
1093,568;  921,288;    2,258;    1,227
1094,108;  983,470;    0,621;    1,773
1094,649;  946,288;   -0,470;    0,136
1095,189;  894,015;    1,167;   -0,682
1095,729;  827,924;    0,712;    0,955
1096,269;  848,742;    1,258;   -0,955
1096,810; 1153,015;   -0,197;    0,500
1097,350;  973,742;   -0,561;   -0,773
1097,890;  882,197;    2,985;    1,227
1098,430; 1119,652;    4,985;    2,864
1098,970;  992,742;    1,894;    1,682
1099,510;  873,833;   -0,833;   -2,318
1100,050;  800,652;    0,258;   -1,591
1100,589;  773,197;    0,076;   -0,318
1101,129;  888,652;    0,894;   -0,955
1101,669; 1017,288;    2,803;    2,136
1102,209;  847,288;    1,530;    2,227
1102,748;  813,197;    3,439;    0,955
1103,288;  801,833;    0,712;   -1,227
1103,827;  818,652;    3,530;   -2,227
1104,367;  704,561;    1,712;   -2,409
1104,906;  683,470;   -1,015;   -1,136
1105,445;  753,288;    0,985;   -1,136
1105,985;  685,652;   -0,652;    1,500
1106,524;  728,288;    1,530;   -0,682
1107,063;  699,015;    1,167;    1,409
1107,602;  689,924;    1,894;   -1,500
1108,141;  613,561;    1,621;    1,500
1108,680;  695,015;    3,985;   -0,591
1109,219;  638,924;    0,167;   -0,500
1109,758;  650,652;    4,167;    0,682
1110,297;  631,015;   -1,106;   -0,682
1110,836;  567,470;    1,439;    0,955
1111,375;  728,470;    0,348;    0,409
1111,913;  735,742;    0,985;    0,773
1112,452;  683,652;    0,894;    0,136
1112,991;  571,742;    1,076;    1,955
1113,529;  518,742;    0,167;   -0,045
1114,068;  583,833;    0,439;    2,955
1114,606;  493,015;   -0,561;   -0,955
1115,144;  640,379;    1,530;    1,045
1115,683;  591,742;    1,985;    0,318
1116,221;  635,470;    2,076;   -0,864
1116,759;  552,197;    1,621;   -0,864
1117,297;  733,833;    1,621;    1,864
1117,836;  549,742;    1,985;   -1,227
1118,374;  546,288;    0,258;   -0,682
1118,912;  500,833;    0,439;    2,682
1119,450;  494,924;    0,985;    0,864
1119,988;  542,742;    3,348;    2,136
1120,525;  987,288;    7,258;    3,318
1121,063;  682,106;    0,530;    1,864
1121,601;  499,288;    1,076;   -1,227
1122,139;  461,833;    1,076;   -2,045
1122,676;  643,652;   -1,652;    2,773
1123,214;  591,197;    0,712;    4,409
1123,751;  399,379;    0,621;    2,227
1124,289;  525,924;    0,894;   -0,409
1124,826;  394,288;   -0,379;    0,227
1125,364;  331,652;    0,712;   -0,955
1125,901;  508,742;    6,258;    1,227
1126,438;  596,924;    3,530;    0,955
1126,975;  352,197;    2,985;   -0,773
1127,513;  413,833;    2,621;    2,136
1128,050;  339,924;   -0,561;   -0,682
1128,587;  425,470;    1,348;   -0,227
1129,124;  454,288;   -0,015;    1,318
1129,661;  341,015;   -1,924;    0,227
1130,198;  497,288;    2,439;    0,773
1130,734;  433,288;   -0,379;    1,409
1131,271;  307,652;   -1,197;    0,864
1131,808;  477,379;    1,621;    3,045
1132,345;  355,106;    4,530;    0,318
1132,881;  241,470;   -0,561;   -1,864
1133,418;  369,197;    0,348;   -1,136
1133,954;  305,470;    0,712;   -2,682
1134,491;  370,833;    1,712;   -0,773
1135,027;  284,106;    2,167;    0,864
1135,564;  361,742;    1,439;    2,955
1136,100;  341,561;   -0,742;    2,136
1136,636;  248,288;   -1,015;   -1,045
1137,172;  329,924;    0,894;   -1,045
1137,708;  267,379;   -1,561;   -1,045
1138,245;  267,652;    0,803;   -1,227
1138,781;  226,833;    1,803;   -3,318
1139,317;  276,652;    1,894;   -1,409
1139,852;  268,470;    3,076;    0,136
1140,388;  379,652;    2,076;   -0,409
1140,924;  269,833;    1,076;   -2,227
1141,460;  218,470;   -0,288;    0,136
1141,996;  158,288;   -0,652;    2,682
1142,531;  196,833;    1,076;    3,318
1143,067;  395,379;    1,167;    1,045
1143,602;  442,197;    3,439;   -0,318
1144,138;  293,470;    0,803;    1,045
1144,673;  180,833;    1,621;    1,409
1145,209;  234,015;    2,894;   -0,318
1145,744;  159,561;    0,803;    0,864
1146,279;  284,742;    1,530;   -0,136
1146,815;  222,470;    1,530;   -2,682
1147,350;  244,197;   -0,924;    0,045
1147,885;  168,561;   -1,924;   -1,318
1148,420;  167,106;    2,439;    0,773
1148,955;  154,015;   -1,470;    1,864
1149,490;  173,197;   -1,106;   -1,591
1150,025;  146,015;   -1,106;   -1,773
1150,560;  254,379;   -0,288;   -0,955
1151,094;  228,106;    0,258;   -0,591
1151,629;  230,833;   -3,742;    0,864
1152,164;  165,288;   -1,288;    1,318
1152,698;  138,924;    1,258;   -0,136
1153,233;   93,379;   -1,379;   -0,682
1153,767;  133,742;   -0,288;   -2,318
1154,302;  178,742;   -0,379;    1,773
1154,836;  178,561;    0,803;   -2,136
1155,371;  229,106;    2,258;    3,682
1155,905;  187,106;    1,985;    1,682
1156,439;  154,833;    0,530;   -0,500
1156,973;  186,470;    0,439;    0,318
1157,507;  125,470;   -1,742;    0,682
1158,042;  150,652;   -0,652;    1,045
1158,576;  185,379;   -0,561;    1,773
1159,110;  182,924;    0,076;    2,409
1159,643;  159,288;   -2,470;   -0,045
1160,177;  111,288;   -2,015;    1,500

